30, 0.0
31, 0.0
32, 0.0
33, 0.0
34, 0.0
35, 0.0
36, 0.0
37, 0.0
38, 0.0
39, 0.0
40, 0.0
41, 0.0
42, 0.0
43, 0.0
44, 0.0
45, 0.0
46, 0.0
47, 0.0
48, 0.0
49, 0.0
50, 0.0
51, 0.0
52, 0.0
53, 0.0
54, 0.0
55, 0.0
56, 0.0
57, 0.0
58, 0.0
59, 0.0
60, 0.0
61, 0.0
62, 0.0
63, 0.0
64, 0.0
65, 0.0
66, 0.0
67, 0.0
68, 0.0
69, 0.0
70, 0.0
71, 0.0
72, 0.0
73, 0.0
74, 0.0
75, 0.0
76, 0.0
77, 0.0
78, 0.0
79, 0.0
80, 0.0
81, 0.0
82, 0.0
83, 0.0
84, 0.0
85, 0.0
86, 0.0
87, 0.0
88, 0.0
89, 0.0
90, 0.0
91, 0.0
92, 0.0
93, 0.0
94, 0.0
95, 0.0
96, 0.0
97, 0.0
98, 0.0
99, 0.0
100, 0.0
101, 0.0
102, 0.0
103, 0.0
104, 0.0
105, 0.0
106, 0.0
107, 0.0
108, 0.0
109, 0.0
110, 0.0
111.0, 6.709505701834153e-05
112.0, 0.0003679697521678563
113.0, 0.00019610545182915836
114.0, 0.00028358356730874215
115.0, 0.0008701786487308804
116.0, 0.002375678705208173
117.0, 0.0038868982680005785
118.0, 0.005211845621383587
119.0, 0.006027823167245527
120.0, 0.006247216618956602
121.0, 0.0065365462229948195
122.0, 0.007287800018837172
123.0, 0.01070837117715223
124.0, 0.011166349433579078
125.0, 0.01051465138266175
126.0, 0.010022919129568151
127.0, 0.009059300740079707
128.0, 0.00717023872751809
129.0, 0.004796347524378367
130.0, 0.0037471540873858207
131.0, 0.0027152094097640227
132.0, 0.0021184126234127807
133.0, 0.0022085847314107605
134.0, 0.0008151135801174813
135.0, 0.0009012622101291557
136.0, 0.0017463909234956133
137.0, 0.0019299875046641076
138.0, 0.0019493639662487166
139.0, 0.002537678855493921
140.0, 0.0037640119671732883
141.0, 0.0035517469434993895
142.0, 0.00428401060049099
143.0, 0.0050583479748607454
144.0, 0.004837245645323117
145.0, 0.005799193820638732
146.0, 0.0063306733278218836
147.0, 0.006517831411250538
148.0, 0.007770779190076068
149.0, 0.008191659033319913
150.0, 0.00817352080076146
151.0, 0.007874134809929956
152.0, 0.008231160463842733
153.0, 0.00815050453947423
154.0, 0.007913875503238217
155.0, 0.008227591400875601
156.0, 0.007952200582003282
157.0, 0.007573830625933083
158.0, 0.0072246645010047485
159.0, 0.006969153520843781
160.0, 0.006436536675382053
161.0, 0.0058701147492480656
162.0, 0.005537417696727377
163.0, 0.005129072104905353
164.0, 0.004607039917032285
165.0, 0.004443106855716057
166.0, 0.0069045712618846546
167.0, 0.006413270377242072
168.0, 0.005908532679237078
169.0, 0.006840954689059944
170.0, 0.0065584669705265
171.0, 0.006608588411139312
172.0, 0.007324514116505364
173.0, 0.009511325579422745
174.0, 0.011150630314585451
175.0, 0.012919478036365605
176.0, 0.0149056728251203
177.0, 0.01666549191707406
178.0, 0.018788015429117684
179.0, 0.02075053479245961
180.0, 0.02211254886385549
181.0, 0.020700694509829372
182.0, 0.018886605239434025
183.0, 0.01661591721952818
184.0, 0.01330790529791242
185.0, 0.01218724875497004
186.0, 0.01147830701947147
187.0, 0.010709241263057065
188.0, 0.010570838025248115
189.0, 0.009969432422236484
190.0, 0.009283501248567517
191.0, 0.008903483743615373
192.0, 0.008059918044257755
193.0, 0.00722684346991988
194.0, 0.006459408726906372
195.0, 0.005815952732885938
196.0, 0.0050187617320283364
197.0, 0.004131596515511825
198.0, 0.003244075569427571
199.0, 0.004165505475910937
200.0, 0.003936470545361734
201.0, 0.003347409713460593
202.0, 0.0033477527841938165
203.0, 0.0027279612286084157
204.0, 0.003120936804480769
205.0, 0.004103371470054539
206.0, 0.003080441353840825
207.0, 0.003918223075363751
208.0, 0.004664956760215276
209.0, 0.004414657079896821
210.0, 0.001381586963100582
211.0, 0.00029766681244715776
212.0, 0.0002898848173658534
213.0, 0.00038695488326113546
214.0, 0.00046469598983488414
215.0, 0.0004939659515312521
216.0, 0.0006238084449012179
217.0, 0.0015339854133259352
218.0, 0.0013723867647139616
219.0, 0.001296691510387574
220.0, 0.0017450648646308233
221.0, 0.0009073961269053161
222.0, 0.002433554278249324
223.0, 0.00382330384350536
224.0, 0.0018188760985384652
225.0, 0.0010206875038694654
226.0, 0.0013241819032303855
227.0, 0.0024826862291544315
228.0, 0.003712769756874818
229.0, 0.00423190226937407
230.0, 0.003062460877799199
231.0, 7.700223850936618e-05
232.0, 0.0014445346267341762
233.0, 0.0015625138591400416
234.0, 0.0010689897291780955
235.0, 0.000522715544922512
236.0, 0.002386344371059832
237.0, 0.002105298174880722
238.0, 0.00071292141937462
239.0, 0.002034494600109708
240.0, 0.0020721676905368133
241.0, 0.0021408552498599722
242.0, 0.0024445635639103965
243.0, 0.0013487457764291806
244.0, 0.0012799304997497944
245.0, 0.0012967267539912035
246.0, 0.0006950419637687602
247.0, 0.00026966979663521065
248.0, 0.0009550279651871086
249.0, 0.0017239913817317656
250.0, 0.0004466548949822449
251.0, 0.0014204922505017465
252.0, 0.0017563853110135824
253.0, 0.001367488714004829
254.0, 0.0026995309240580925
255.0, 0.002566240403797356
256.0, 0.002718542911081079
257.0, 0.0039697594004394305
258.0, 0.003936232417217885
259.0, 0.004298770377122117
260.0, 0.004953128925370391
261.0, 0.005820341206558591
262.0, 0.006437481680583481
263.0, 0.007185470598111468
264.0, 0.008015566977390472
265.0, 0.008687427902243878
266.0, 0.011801646640496351
267.0, 0.01360631646741397
268.0, 0.013445497732308801
269.0, 0.015124426367264243
270.0, 0.017175537209480313
271.0, 0.018080166919052475
272.0, 0.016708042392062
273.0, 0.019274652338038125
274.0, 0.01940915939553929
275.0, 0.018750238354836454
276.0, 0.019852039885068052
277.0, 0.020441154249818797
278.0, 0.020643317277992283
279.0, 0.02072922582699908
280.0, 0.021627747980050783
281.0, 0.02153065492181129
282.0, 0.02260219221684606
283.0, 0.02527497334427416
284.0, 0.026150187158855562
285.0, 0.028472630146671517
286.0, 0.030763689271761353
287.0, 0.03195507862048528
288.0, 0.035799842030337516
289.0, 0.0400311731050942
290.0, 0.04358062753039334
291.0, 0.04465603719353533
292.0, 0.048625130887029334
293.0, 0.05374975084900978
294.0, 0.059003565594752415
295.0, 0.0615629294245543
296.0, 0.0663092895664317
297.0, 0.06982391627086794
298.0, 0.0713559538289236
299.0, 0.07356672701642544
300.0, 0.07545402797479707
301.0, 0.07647798784608506
302.0, 0.07627183146702728
303.0, 0.07804808290829039
304.0, 0.07649297151299794
305.0, 0.07326711424858688
306.0, 0.07030279148527924
307.0, 0.06647322834945667
308.0, 0.060483763131912734
309.0, 0.05331829219049149
310.0, 0.04761048062978283
311.0, 0.04284405707298802
312.0, 0.03812277396482531
313.0, 0.0335660276953212
314.0, 0.030835095710938832
315.0, 0.028511880405849278
316.0, 0.02659455282199786
317.0, 0.025168625902371258
318.0, 0.025153859691628144
319.0, 0.02599427346759862
320.0, 0.027314297471393623
321.0, 0.02885430594371636
322.0, 0.02958820893755568
323.0, 0.031601676843263656
324.0, 0.034392684080089914
325.0, 0.037216802696917135
326.0, 0.04226663445587258
327.0, 0.04628745382159239
328.0, 0.05014404758377822
329.0, 0.05728360430419027
330.0, 0.06245587971452837
331.0, 0.0683356032337663
332.0, 0.07528711194029931
333.0, 0.08189694984847397
334.0, 0.09069690784872092
335.0, 0.09885171392284298
336.0, 0.10530621000001333
337.0, 0.11257239586272723
338.0, 0.11435373684282527
339.0, 0.11267851479276125
340.0, 0.10878764376870603
341.0, 0.09910404112104197
342.0, 0.0886912020709887
343.0, 0.07871532102583216
344.0, 0.07076783700126209
345.0, 0.060460070867722926
346.0, 0.05251661994475202
347.0, 0.04654460559162933
348.0, 0.04115894986269626
349.0, 0.03620882897172205
350.0, 0.0332116335748105
351.0, 0.03201339557661917
352.0, 0.03120500323181653
353.0, 0.031079098149198712
354.0, 0.030518293352099414
355.0, 0.029710446106071497
356.0, 0.032241223918422504
357.0, 0.03384778841637984
358.0, 0.03614001294613601
359.0, 0.03984138812015936
360.0, 0.04352586894259531
361.0, 0.04854224505921147
362.0, 0.054571680520593135
363.0, 0.06144726273775884
364.0, 0.07162148366817365
365.0, 0.08268850691396622
366.0, 0.09488451452326489
367.0, 0.10859336769193552
368.0, 0.1235758568276482
369.0, 0.1386774134885361
370.0, 0.15376542334921328
371.0, 0.16870558405165353
372.0, 0.1797921802705139
373.0, 0.18746430147826804
374.0, 0.19010822093937818
375.0, 0.18255669714296371
376.0, 0.17079149110812017
377.0, 0.15784396384021088
378.0, 0.1431461415003404
379.0, 0.12142854795885843
380.0, 0.10495761784260894
381.0, 0.08911235630636355
382.0, 0.07314584892415714
383.0, 0.06204744539237109
384.0, 0.054002975158999676
385.0, 0.04614175546651885
386.0, 0.03745648908183214
387.0, 0.032102194635096795
388.0, 0.027630025817198076
389.0, 0.0241470954870082
390.0, 0.02170943676290001
391.0, 0.017860468160334063
392.0, 0.016576395794726126
393.0, 0.015454705692929237
394.0, 0.012261059771914998
395.0, 0.009820738563416635
396.0, 0.0092201605164174
397.0, 0.009188748209122665
398.0, 0.008083182958933276
399.0, 0.008312650718367951
400.0, 0.006869900369918541
401.0, 0.005073933652557002
402.0, 0.005494336293593435
403.0, 0.004013350153996845
404.0, 0.0036475417940391446
405.0, 0.004333543287564791
406.0, 0.005303665637613122
407.0, 0.004549615554101038
408.0, 0.0035155407217089024
409.0, 0.0027055223394556933
410.0, 0.0030024568068287333
411.0, 0.0028065995917692277
412.0, 0.0026012233592942685
413.0, 0.002463613740791279
414.0, 0.0022875730621102204
415.0, 0.0020479690596857223
416.0, 0.0018961716230959482
417.0, 0.001853105769752734
418.0, 0.0017953555370699955
419.0, 0.0017781740016755891
420.0, 0.0018400410031301439
421.0, 0.0019853691577957806
422.0, 0.0021317329625557936
423.0, 0.002382603934481693
424.0, 0.002513912379220404
425.0, 0.0023516494309030653
426.0, 0.0012204099105748746
427.0, 0.002185779620628483
428.0, 0.0030034115859650812
429.0, 0.0026528825459278716
430.0, 0.004309629667996635
431.0, 0.0033852908162441426
432.0, 0.0024019585331872028
433.0, 0.002967420225990996
434.0, 0.00404614004816949
435.0, 0.0061024739289668745
436.0, 0.0070950665703876726
437.0, 0.005505378911783055
438.0, 0.005637348894714175
439.0, 0.004408195091940162
440.0, 0.003527538436029447
441.0, 0.004524182104533636
442.0, 0.004054770551594573
443.0, 0.0025340616460295313
444.0, 0.0010825054401341423
445.0, 0.0008583610784614652
446.0, 0.0011347689655753328
447.0, 0.0007085146975607352
448.0, 0.00019452616191157013
449.0, 0.0003213272290912741
450.0, 0.00014543099927509436
451.0, 0.000752541669357986
452.0, 0.001307690486766167
453.0, 0.0007051397981619829
454.0, 0.0010505792387224236
455.0, 0.0006622043734686282
456.0, 0.0005582822203400058
457.0, 0.0022575668498858743
458.0, 0.0013056144222823103
459.0, 0.0011516142005996712
460.0, 0.0012130169522002433
461.0, 0.000380987983548168
462.0, 0.0009075891576837893
463.0, 0.0011949571811121688
464.0, 0.0010214487782724414
465.0, 0.00016329074116410336
466.0, 0.00031998797268864516
467.0, 0.0007901062433134042
468.0, 0.0011843771030223106
469.0, 0.0009409725015765444
470.0, 0.0011157908557643413
471.0, 0.001049548436956661
472.0, 0.0012057525341249895
473.0, 0.002448043481671891
474.0, 0.0016050435051405537
475.0, 0.001059987970460868
476.0, 0.0007186417608805466
477.0, 0.0001338991079489764
478.0, 0.0006188134703288289
479.0, 0.001338705105734779
480.0, 0.0018001851829878804
481.0, 0.0012708760005364953
482.0, 0.002257680728048234
483.0, 0.0028988057530563993
484.0, 0.0034227966656330154
485.0, 0.0044187472640943495
486.0, 0.00447303961142982
487.0, 0.004870655699315062
488.0, 0.00535651529477317
489.0, 0.0053966392285868595
490.0, 0.0075081023703672655
491.0, 0.008694516360054977
492.0, 0.0091795946116343
493.0, 0.009543100181115495
494.0, 0.009421397720747914
495.0, 0.009227684071535236
496.0, 0.009045457439027444
497.0, 0.008961630735311534
498.0, 0.00537406472866889
499.0, 0.004730505427084685
500.0, 0.0051428096462023745
501.0, 0.0038552703658029748
502.0, 0.004640315668045349
503.0, 0.004846219794133268
504.0, 0.004753721351936113
505.0, 0.004777643529267559
506.0, 0.0033232138006797766
507.0, 0.003372697915498371
508.0, 0.0040827049856955915
509.0, 0.004525096038278596
510.0, 0.006681119658271379
511.0, 0.007016765324734782
512.0, 0.0071934239586259035
513.0, 0.008747467232885954
514.0, 0.01030016403763255
515.0, 0.011501348091580705
516.0, 0.013280030749761165
517.0, 0.016254587251835727
518.0, 0.016694233953268398
519.0, 0.018988641385337207
520.0, 0.02145690012868405
521.0, 0.02272320674559295
522.0, 0.019679950257186236
523.0, 0.019145003405611285
524.0, 0.01885570358953715
525.0, 0.017426935277640315
526.0, 0.014444989392152708
527.0, 0.013082503422928647
528.0, 0.01128319386900919
529.0, 0.008727807166200221
530.0, 0.01085475772397146
531.0, 0.009534835305797719
532.0, 0.008038059477474583
533.0, 0.007515405197546146
534.0, 0.006992919109135206
535.0, 0.006170803193213089
536.0, 0.00671910276320695
537.0, 0.008424788055570832
538.0, 0.007931949928488386
539.0, 0.009440775140521638
540.0, 0.01056985627662883
541.0, 0.011297515388835312
542.0, 0.013565628805404836
543.0, 0.016824288495000103
544.0, 0.020055818227588288
545.0, 0.023369925932353652
546.0, 0.027548727217152697
547.0, 0.03203304300061143
548.0, 0.03642004512322898
549.0, 0.04113743023794382
550.0, 0.04713680209203714
551.0, 0.05235276900379676
552.0, 0.05434225747224651
553.0, 0.05272281209022181
554.0, 0.04721200133250277
555.0, 0.040714388057625436
556.0, 0.03498698142778984
557.0, 0.029830372878626728
558.0, 0.024938113479293256
559.0, 0.02096158504013404
560.0, 0.016388571613097216
561.0, 0.01246749735361984
562.0, 0.010132234454809319
563.0, 0.006579740718708986
564.0, 0.006429861643141916
565.0, 0.006890385158723816
566.0, 0.00621093432508592
567.0, 0.00438933510089829
568.0, 0.006252956651069086
569.0, 0.0062634565529046836
570.0, 0.00302403230833175
571.0, 0.00312129825952285
572.0, 0.0046120643833502985
573.0, 0.004178923675371552
574.0, 0.0019351671743648915
575.0, 0.0023377790703134173
576.0, 0.00450834750615146
577.0, 0.0041278317367988435
578.0, 0.0021723394805241722
579.0, 0.0034351543650562653
580.0, 0.0030557043233027104
581.0, 0.0030040470891086065
582.0, 0.0031988026111788906
583.0, 0.003076138248698456
584.0, 0.0020585206880116046
585.0, 0.002862008879400962
586.0, 0.0033162724575246834
587.0, 0.0006973203900643492
588.0, 0.0009824654412261085
589.0, 0.0025668845300836247
590.0, 0.0036921661728125344
591.0, 0.003180837104434064
592.0, 0.005516066012232771
593.0, 0.0043825135417878405
594.0, 0.002571169796950283
595.0, 0.001675689837614468
596.0, 0.0021890072301546026
597.0, 0.003222250582067786
598.0, 0.003691216293358155
599.0, 0.003561251969222923
600.0, 0.004227629146848397
601.0, 0.004586135007555711
602.0, 0.004537019782488501
603.0, 0.0041487503090549376
604.0, 0.003639090453299324
605.0, 0.004054541910689649
606.0, 0.0041405703496555455
607.0, 0.004020091536839058
608.0, 0.004089528080798898
609.0, 0.004503461110100428
610.0, 0.00447819309919384
611.0, 0.004438805570693259
612.0, 0.004808846374858898
613.0, 0.005141901479995878
614.0, 0.005696787851868792
615.0, 0.005815405028648148
616.0, 0.005405618108798816
617.0, 0.00698536884934067
618.0, 0.00723646069994524
619.0, 0.007228692843274834
620.0, 0.007455481806984029
621.0, 0.008317576769411217
622.0, 0.009167276670555535
623.0, 0.0085734275848973
624.0, 0.007807326346424981
625.0, 0.010432639413437425
626.0, 0.009849803712243707
627.0, 0.010985999781652954
628.0, 0.012224925695812681
629.0, 0.01084503157986222
630.0, 0.01434913382526216
631.0, 0.01468725196946253
632.0, 0.014441047329667335
633.0, 0.015769907122513038
634.0, 0.018576725689441544
635.0, 0.018887180291076746
636.0, 0.020054678528033186
637.0, 0.02268327156366981
638.0, 0.02184728723767231
639.0, 0.028126363187886257
640.0, 0.031335097178037355
641.0, 0.03188299184265464
642.0, 0.03751016571470265
643.0, 0.04192947698741106
644.0, 0.047708787081711466
645.0, 0.054844611534266195
646.0, 0.06288475045222779
647.0, 0.07285194332648401
648.0, 0.08647438012868239
649.0, 0.10306059751254565
650.0, 0.12204835032653238
651.0, 0.1448720599251369
652.0, 0.16984966601374862
653.0, 0.19769030243266766
654.0, 0.22846947441097626
655.0, 0.2611134409599606
656.0, 0.2854843021500665
657.0, 0.2974072961893506
658.0, 0.29974816105016616
659.0, 0.3012064442206604
660.0, 0.2809040123710467
661.0, 0.2569499490191477
662.0, 0.22769667230674992
663.0, 0.1898630178356304
664.0, 0.156526284347568
665.0, 0.1310570718407665
666.0, 0.11053637063067408
667.0, 0.09283910807236327
668.0, 0.07736485003210353
669.0, 0.06653544431906853
670.0, 0.05627918097352473
671.0, 0.04699160688243739
672.0, 0.04411999295729361
673.0, 0.03734255255797519
674.0, 0.03236398774088352
675.0, 0.02951464308727862
676.0, 0.028016742577154745
677.0, 0.02330646986511848
678.0, 0.021124185561472393
679.0, 0.019237966276575223
680.0, 0.016072659845210144
681.0, 0.015248366248435962
682.0, 0.014618077314130708
683.0, 0.012864383092894113
684.0, 0.01060777932769479
685.0, 0.01209938460736747
686.0, 0.011701796051857716
687.0, 0.010877647171457965
688.0, 0.009783670400228222
689.0, 0.008277156798000273
690.0, 0.007060861930348369
691.0, 0.005595007197101705
692.0, 0.005101450742646096
693.0, 0.006409429774922239
694.0, 0.007052070147771141
695.0, 0.007170566563272286
696.0, 0.005850368759218756
697.0, 0.003716871898928865
698.0, 0.0044704984341663
699.0, 0.003995302182557105
700.0, 0.003312590823260693
701.0, 0.003150120048573708
702.0, 0.004395672879974053
703.0, 0.0033897601746304164
704.0, 0.002810889867391834
705.0, 0.002209311789075607
706.0, 0.0014170346008260074
707.0, 0.002718542779218047
708.0, 0.003446340302491955
709.0, 0.00293060847964895
710.0, 0.0014775105807257305
711.0, 0.0008012913579299142
712.0, 0.0030522021179081476
713.0, 0.0030858453974341583
714.0, 0.0020731041596351945
715.0, 0.002574214174600686
716.0, 0.008154445089144292
717.0, 0.005219605690545431
718.0, 0.0011789146037013353
719.0, 0.0005259097578784515
720.0, 0.0006347090335645254
721.0, 0.003156622718414733
722.0, 0.003936607932682004
723.0, 0.0029599894805745013
724.0, 0.0027713218399697754
725.0, 0.003446538347518541
726.0, 0.0023152051647009064
727.0, 0.0011109886108054345
728.0, 0.00174477172794084
729.0, 0.0036963991140627622
730.0, 0.002586567561916849
731.0, 0.0021031621873459482
732.0, 0.0031523660600922938
733.0, 0.0029454548237605824
734.0, 0.0020074388501849227
735.0, 0.0013832372740867575
736.0, 0.0013004744866419531
737.0, 0.0018180200297168673
738.0, 0.0009426379827849017
739.0, 0.00199117147799805
740.0, 0.002704536615357677
741.0, 0.0019103599334444636
742.0, 0.001621474888137881
743.0, 0.0008467304714333913
744.0, 0.000999957577663986
745.0, 0.0017518024166258968
746.0, 0.0016684163441454355
747.0, 0.003561967134886916
748.0, 0.002591903823147075
749.0, 0.001555576656096144
750.0, 0.0026484461449669283
751.0, 0.001143744864511935
752.0, 0.001077924445781778
753.0, 0.0023798013838984963
754.0, 0.0037652370401269767
755.0, 0.0018030235960923436
756.0, 0.0020557441438247333
757.0, 0.0026666672585382374
758.0, 0.00279997084452431
759.0, 0.0019284134869315844
760.0, 0.0029408162150822703
761.0, 0.002933168136613552
762.0, 0.00278225954953564
763.0, 0.0025529554918970257
764.0, 0.0011296897508398071
765.0, 0.0009475600473568103
766.0, 0.0014328313496690514
767.0, 0.0021768831277783856
768.0, 0.002743834053945571
769.0, 0.0029982559767604317
770.0, 0.0013917731405103453
771.0, 0.0009251422347305436
772.0, 0.002276601000054252
773.0, 0.002094654669268191
774.0, 0.000715661277004382
775.0, 0.0010924602151945915
776.0, 0.002374391228313078
777.0, 0.002713340226463149
778.0, 0.0016948617910769615
779.0, 0.0008908364803905873
780.0, 0.0004788358227140974
781.0, 0.0006433367205879469
782.0, 0.0017883401294413541
783.0, 0.0014046633595797694
784.0, 0.0006448923751873439
785.0, 0.00027455041609356643
786.0, 0.0010282877908846162
787.0, 0.00042430611781358853
788.0, 0.0007601442860050758
789.0, 0.0011416374726285464
790.0, 0.0013967699593923175
791.0, 0.0028801460095267744
792.0, 0.0012548774593182386
793.0, 0.0007186910741360118
794.0, 0.0009508066449716429
795.0, 0.0005897664074394991
796.0, 0.0006321103413517804
797.0, 0.0018369409153372535
798.0, 0.001898067393450665
799.0, 0.0006760642438925613
800.0, 0.0020406848258334082
801.0, 0.0007680937708994552
802.0, 0.0001659952803951771
803.0, 0.0003672202736544333
804.0, 0.0008700252546177566
805.0, 0.0003618898183275682
806.0, 0.001935683108680223
807.0, 0.002722184971604662
808.0, 0.001839851347042881
809.0, 0.000567679907749577
810.0, 0.0007550298779329953
811.0, 0.001711797913214922
812.0, 0.002096220344894834
813.0, 0.0008466897118664366
814.0, 0.0009761339569300464
815.0, 0.0011064631141925589
816.0, 0.0015287372591107095
817.0, 0.0018245239403452147
818.0, 0.0007354234187516289
819.0, 0.00046538467449145217
820.0, 0.0006047486699815866
821.0, 0.0008759219320422869
822.0, 0.0010855171902845987
823.0, 0.0014382032266127016
824.0, 0.0017246685579009173
825.0, 0.0020937872713536246
826.0, 0.002215712784161655
827.0, 0.0014450541393017462
828.0, 0.001261537358600607
829.0, 0.0007081116764264284
830.0, 0.00031308020285325533
831.0, 0.0003158760250296599
832.0, 0.0002489543326573605
833.0, 0.0010284386765455117
834.0, 0.0011702152127719043
835.0, 0.0012968008942079228
836.0, 0.002478318321595656
837.0, 0.003522468132395506
838.0, 0.004075178004161576
839.0, 0.004788644695665516
840.0, 0.005446510524534531
841.0, 0.004642837423796757
842.0, 0.005801427789690047
843.0, 0.0072934674632748765
844.0, 0.008903532748310855
845.0, 0.010577347169697406
846.0, 0.012555604584422356
847.0, 0.01691224030094304
848.0, 0.019779333451257625
849.0, 0.021203316561170134
850.0, 0.02311887959201905
851.0, 0.023956319324787274
852.0, 0.02262833143656042
853.0, 0.020550447989795946
854.0, 0.018038431679532313
855.0, 0.01298389579917262
856.0, 0.011224481692414802
857.0, 0.011175965273087585
858.0, 0.011820379606969975
859.0, 0.01192724153908579
860.0, 0.00799169369235824
861.0, 0.0050281171289575525
862.0, 0.005423197569932585
863.0, 0.007542333848693261
864.0, 0.006507953038224472
865.0, 0.003510412009794961
866.0, 0.00615439076176277
867.0, 0.00793302196262823
868.0, 0.0058423441320193704
869.0, 0.0054712571546525635
870.0, 0.005473010408351187
871.0, 0.005310830989842648
872.0, 0.005109819583227551
873.0, 0.005108711514104388
874.0, 0.0054063179171164
875.0, 0.00575051124307228
876.0, 0.0062939707409571865
877.0, 0.006790314375092674
878.0, 0.006662290089947695
879.0, 0.005405056729342661
880.0, 0.006109694837343066
881.0, 0.006892754602310477
882.0, 0.0069255850453414595
883.0, 0.007670417187726379
884.0, 0.008094155939147585
885.0, 0.008422128215661623
886.0, 0.00878449658399807
887.0, 0.00918215037912918
888.0, 0.008694606703011988
889.0, 0.00932248548863342
890.0, 0.01049708182668669
891.0, 0.01150640403485824
892.0, 0.011463457732212962
893.0, 0.01096358960409201
894.0, 0.013292080275225245
895.0, 0.014805861747386946
896.0, 0.014390194875113631
897.0, 0.014122986863532952
898.0, 0.01588298424053731
899.0, 0.015964384348510142
900.0, 0.016502959858441017
901.0, 0.018974983492588925
902.0, 0.020979318751251436
903.0, 0.020208912585769838
904.0, 0.02107603937974389
905.0, 0.02286229693706554
906.0, 0.02340532409624077
907.0, 0.019438345678496095
908.0, 0.02105585018524613
909.0, 0.02244067488505076
910.0, 0.021891884367614876
911.0, 0.01999687879833502
912.0, 0.018051779199098818
913.0, 0.018068500992305517
914.0, 0.018065453108459258
915.0, 0.01683926685257662
916.0, 0.01408284016074578
917.0, 0.01525465910459834
918.0, 0.01321714143341166
919.0, 0.011038532520276693
920.0, 0.011203116933832125
921.0, 0.011575498407002938
922.0, 0.01131080547535198
923.0, 0.00953417870932734
924.0, 0.007642981357878945
925.0, 0.007330066587997247
926.0, 0.008030159345846617
927.0, 0.008412124598060773
928.0, 0.008560866045206821
929.0, 0.008572569672582844
930.0, 0.008518037921488475
931.0, 0.0067385861053122255
932.0, 0.006850180354526047
933.0, 0.007089881778900124
934.0, 0.006342709102150318
935.0, 0.0038995041079743584
936.0, 0.0031417793225137648
937.0, 0.005868657422954899
938.0, 0.006695901236948975
939.0, 0.004538024214467548
940.0, 0.006697658853298539
941.0, 0.006613447509476031
942.0, 0.005943253635392463
943.0, 0.006099819386190547
944.0, 0.007388562340360143
945.0, 0.0063382279701138895
946.0, 0.005424345594457229
947.0, 0.005863233534671593
948.0, 0.007186479204540037
949.0, 0.008468335598419249
950.0, 0.008259362500534623
951.0, 0.00784110776876479
952.0, 0.00797032457579821
953.0, 0.008793558624913059
954.0, 0.010064373193464418
955.0, 0.009426091349150066
956.0, 0.008306786415879829
957.0, 0.009322613146721014
958.0, 0.011337957181359099
959.0, 0.01103845287053531
960.0, 0.01179998329468907
961.0, 0.01294993242076785
962.0, 0.01388329195733096
963.0, 0.014032804329152848
964.0, 0.012798444053243499
965.0, 0.013728377342017659
966.0, 0.014080340260313115
967.0, 0.01409596913498461
968.0, 0.014129534898543458
969.0, 0.014687630519826939
970.0, 0.01433660194707828
971.0, 0.013658386239286412
972.0, 0.013263146811756093
973.0, 0.013458402410728364
974.0, 0.014005528592503601
975.0, 0.014496252158834426
976.0, 0.015680443658631093
977.0, 0.017039770090263383
978.0, 0.01820940964688285
979.0, 0.01958624096199626
980.0, 0.018464457367983442
981.0, 0.01934974359878208
982.0, 0.02071194670364938
983.0, 0.02108835578237025
984.0, 0.022546991039116643
985.0, 0.027329060837100162
986.0, 0.0268698112191777
987.0, 0.026200797062315033
988.0, 0.03065813878702289
989.0, 0.033781524779058665
990.0, 0.03322157326611569
991.0, 0.04032046212302624
992.0, 0.04702775945026124
993.0, 0.04422330352450437
994.0, 0.047803009514118935
995.0, 0.05096008771576937
996.0, 0.05763989726319934
997.0, 0.06596594946278714
998.0, 0.07293472045557314
999.0, 0.08192274996730667
1000.0, 0.09578836669272248
1001.0, 0.11114984840204042
1002.0, 0.13117885769673743
1003.0, 0.1598389832572874
1004.0, 0.18763903441149143
1005.0, 0.23574265605085723
1006.0, 0.297052299233855
1007.0, 0.375573611259853
1008.0, 0.4788355479299733
1009.0, 0.6146889374373745
1010.0, 0.7580644686876705
1011.0, 0.8899798248748267
1012.0, 0.9800368110450103
1013.0, 0.9946246889146182
1014.0, 0.9131805815603864
1015.0, 0.7842848125295092
1016.0, 0.6438739594602533
1017.0, 0.5128515222772699
1018.0, 0.40584319902663835
1019.0, 0.33267678388869365
1020.0, 0.2754137689962651
1021.0, 0.23157781694591528
1022.0, 0.20062286526003453
1023.0, 0.18169792935699106
1024.0, 0.16997193635789706
1025.0, 0.16034164012512764
1026.0, 0.15601597042267054
1027.0, 0.15381762995429202
1028.0, 0.1485089235220909
1029.0, 0.1456040212352192
1030.0, 0.13984696134429073
1031.0, 0.1327207290709032
1032.0, 0.12252104898252496
1033.0, 0.10753862616992985
1034.0, 0.09713850267616665
1035.0, 0.08743520038225733
1036.0, 0.07946266247242931
1037.0, 0.07178332731094828
1038.0, 0.06248155243462753
1039.0, 0.05346263050158085
1040.0, 0.05029624946825101
1041.0, 0.047176826807767955
1042.0, 0.04421886817817218
1043.0, 0.04263514498581564
1044.0, 0.03897310536223619
1045.0, 0.03525661714247364
1046.0, 0.03249351556202418
1047.0, 0.029945497545739608
1048.0, 0.02693440001403004
1049.0, 0.025579217255231955
1050.0, 0.023621312739975853
1051.0, 0.025008094158312677
1052.0, 0.024653088054914396
1053.0, 0.019724280579960632
1054.0, 0.02364722836412018
1055.0, 0.020865650743933324
1056.0, 0.018475930806130518
1057.0, 0.016885635403598828
1058.0, 0.016020410699779587
1059.0, 0.01762391822291616
1060.0, 0.01656206403809117
1061.0, 0.015686536069738116
1062.0, 0.01482959843699105
1063.0, 0.013919647721942624
1064.0, 0.013826965127546071
1065.0, 0.014206801780561459
1066.0, 0.013485166319725397
1067.0, 0.01230040940140983
1068.0, 0.010907990717113947
1069.0, 0.008697946299699883
1070.0, 0.013461913557572074
1071.0, 0.010971813962803981
1072.0, 0.009203701602165236
1073.0, 0.01063872512282274
1074.0, 0.01099723775594526
1075.0, 0.009270791497498543
1076.0, 0.01025902731013913
1077.0, 0.011020545441984081
1078.0, 0.010355467628830137
1079.0, 0.0085305643835795
1080.0, 0.007329520898807301
1081.0, 0.007493820297388263
1082.0, 0.007276477033267573
1083.0, 0.00736662390006361
1084.0, 0.009038622024885349
1085.0, 0.007835368550638471
1086.0, 0.00828785532536589
1087.0, 0.007612718425140667
1088.0, 0.006527841819973874
1089.0, 0.00645042514358079
1090.0, 0.006736278367280399
1091.0, 0.005885930029558569
1092.0, 0.006422510373635554
1093.0, 0.006561425366137063
1094.0, 0.005274444559261576
1095.0, 0.005946699143169781
1096.0, 0.005553585671181314
1097.0, 0.006668828703989056
1098.0, 0.006324160832763139
1099.0, 0.0041275492924941195
1100.0, 0.004739921177517607
1101.0, 0.0058314271561504
1102.0, 0.005908485675292327
1103.0, 0.004875277092172871
1104.0, 0.004173363766861461
1105.0, 0.006333039879006226
1106.0, 0.004307566103345671
1107.0, 0.004936828033013086
1108.0, 0.004628163356547143
1109.0, 0.004404360243730249
1110.0, 0.006658194352720324
1111.0, 0.0032881613508639494
1112.0, 0.0040094995099649675
1113.0, 0.004274265321796025
1114.0, 0.0037112080180933256
1115.0, 0.0030991947687365965
1116.0, 0.002831229445368411
1117.0, 0.00320052186211363
1118.0, 0.002980525940754703
1119.0, 0.003173194399906463
1120.0, 0.00418583576182112
1121.0, 0.004630047491325938
1122.0, 0.003537618305418628
1123.0, 0.005124561429362877
1124.0, 0.005968248221340013
1125.0, 0.004903002485484425
1126.0, 0.0035124130739191068
1127.0, 0.004182671992411213
1128.0, 0.00281274046264658
1129.0, 0.0016357722497581575
1130.0, 0.001059028036337767
1131.0, 0.0006974928782168596
1132.0, 0.0015976446722308344
1133.0, 0.0020614862532415098
1134.0, 0.0025177592656021874
1135.0, 0.002774670758489496
1136.0, 0.002333719825826193
1137.0, 0.00017698967986031757
1138.0, 0.001739558004886001
1139.0, 0.002886799168607405
1140.0, 0.0030305202043440743
1141.0, 0.00219036868726844
1142.0, 0.0007900157585036837
1143.0, 0.00025110799312344045
1144.0, 0.0004177786497450851
1145.0, 0.0007581984753039736
1146.0, 0.0009998444705386553
1147.0, 0.0010207650324760647
1148.0, 0.0003842027077156224
1149.0, 0.00010020944065211609
1150.0, 0.0005802709455082253
1151.0, 0.0009869679082230025
1152.0, 0.0008270341604977572
1153.0, 0.0017147305679793032
1154.0, 0.0009978206031184824
1155.0, 0.0020291666255965414
1156.0, 0.0019031569499218409
1157.0, 0.0010071229471040296
1158.0, 0.0042826645405191115
1159.0, 0.0018585597273653993
1160.0, 0.0011406831570458164
1161.0, 0.000829734049798292
1162.0, 0.0005282990666085164
1163.0, 0.0004287224979769178
1164.0, 0.0011626266401906233
1165.0, 0.001583702930033273
1166.0, 0.0009493508931023429
1167.0, 0.0011655542174088438
1168.0, 0.002727300505938446
1169.0, 0.0017410166774589116
1170.0, 0.0024535451697968572
1171.0, 0.0027260586266943084
1172.0, 0.0019326357576747119
1173.0, 0.0009016772392073383
1174.0, 0.0013907319087286911
1175.0, 0.0012914712283210123
1176.0, 0.0006383260748124348
1177.0, 0.0010808013216781717
1178.0, 0.0017246308297872224
1179.0, 0.0013314623629287223
1180.0, 0.0005815863785118541
1181.0, 0.001688209260306498
1182.0, 0.0010918125973693928
1183.0, 0.0014995825447131589
1184.0, 0.0029439628505445884
1185.0, 0.00165848323617068
1186.0, 0.002865278247556723
1187.0, 0.002054238911828359
1188.0, 0.0008212304809625185
1189.0, 0.0013685263764143135
1190.0, 0.004280142421962336
1191.0, 0.0017010043083225583
1192.0, 0.0021468710175902156
1193.0, 0.002645391740743192
1194.0, 0.0029865514027476395
1195.0, 0.0029340386865040896
1196.0, 0.0017141232981886137
1197.0, 0.0012248898214013571
1198.0, 0.001765093079024386
1199.0, 0.002307567214388497
1200.0, 0.002092620103012776
1201.0, 0.0010641380420949274
1202.0, 0.0017930207384390584
1203.0, 0.0028820516135349677
1204.0, 0.003300728412926572
1205.0, 0.003774973579835796
1206.0, 0.004294690956587695
1207.0, 0.0033564285106219326
1208.0, 0.0038972394237989905
1209.0, 0.0036045364549879893
1210.0, 0.0033462312766332465
1211.0, 0.0029006328216521562
1212.0, 0.0020321820225228464
1213.0, 0.0033623261861262994
1214.0, 0.0032240154238049666
1215.0, 0.0034754722375166676
1216.0, 0.002569833224702905
1217.0, 0.0010716386323284426
1218.0, 0.0027308037165923995
1219.0, 0.000458295354869919
1220.0, 0.001453921795773555
1221.0, 0.0021164562678634585
1222.0, 0.0017137151897610719
1223.0, 0.0013000821096157997
1224.0, 0.0034344531699998073
1225.0, 0.0009221418288808392
1226.0, 0.001858667431256109
1227.0, 0.003985689109473279
1228.0, 0.0049310046493217935
1229.0, 0.00381953426370325
1230.0, 0.0033569729272737692
1231.0, 0.0034018183583724637
1232.0, 0.003660168385611819
1233.0, 0.003111274327109762
1234.0, 0.0014061296410030864
1235.0, 0.0005034525674202157
1236.0, 0.002908677231445329
1237.0, 0.0023083302448605996
1238.0, 0.0020290746710763174
1239.0, 0.00246091892425817
1240.0, 0.0017934179088601363
1241.0, 0.0019659188979017977
1242.0, 0.0025528636066182208
1243.0, 0.003364167891479365
1244.0, 0.003945282610659103
1245.0, 0.004246713956328339
1246.0, 0.004889311793349086
1247.0, 0.0026219196346478294
1248.0, 0.003908060353828618
1249.0, 0.004888056333851214
1250.0, 0.004113695947093496
1251.0, 0.0023909274074416383
1252.0, 0.003960238446658929
1253.0, 0.0043104297863215055
1254.0, 0.001805735478200526
1255.0, 0.0015094571739043697
1256.0, 0.0035901771335761805
1257.0, 0.0036988715196315893
1258.0, 0.002967087417605059
1259.0, 0.0014158706704708044
1260.0, 0.003185957814139977
1261.0, 0.004967434301964347
1262.0, 0.0037700382855204587
1263.0, 0.0004591048268330919
1264.0, 0.0023824931227755344
1265.0, 0.0020585774744799686
1266.0, 0.0036784962073956227
1267.0, 0.0051446621440531266
1268.0, 0.003675058298024976
1269.0, 0.003781945164319828
1270.0, 0.002444467869560106
1271.0, 0.003693764478503182
1272.0, 0.0034532920697706057
1273.0, 0.0019681732151912664
1274.0, 0.002618356527134463
1275.0, 0.0030917935482455156
1276.0, 0.0021463253959646657
1277.0, 0.0021044041372063533
1278.0, 0.003018699666274893
1279.0, 0.0034120083701768616
1280.0, 0.0010414303954677446
1281.0, 0.0033295308750970758
1282.0, 0.002965731166992787
1283.0, 0.0032268775129241415
1284.0, 0.0031931933193674617
1285.0, 0.0017893244290041067
1286.0, 0.0004912041431046238
1287.0, 0.0021104169706807198
1288.0, 0.0016249465659110027
1289.0, 0.0006802983586585457
1290.0, 0.00042425095270753833
1291.0, 0.0010112311105183905
1292.0, 0.0005593338547767894
1293.0, 0.0017870732542477885
1294.0, 0.0024720536543716754
1295.0, 0.001918025979392545
1296.0, 0.0015685638727570492
1297.0, 0.0032423944400180745
1298.0, 0.002626147338097241
1299.0, 0.0011100000472064413
1300.0, 0.002206521890421741
1301.0, 0.0037700349612560845
1302.0, 0.003631385745491194
1303.0, 0.0011805038398572743
1304.0, 0.0005749182140271322
1305.0, 0.0007014894528703136
1306.0, 0.0021830799808400035
1307.0, 0.002403605789826408
1308.0, 0.0011830545990429524
1309.0, 0.002537009781382312
1310.0, 0.005165313232835876
1311.0, 0.0029569690233046605
1312.0, 0.0031088228308463438
1313.0, 0.0035483543526419917
1314.0, 0.0022766685776924116
1315.0, 0.0028965259916651446
1316.0, 0.0005910506901935973
1317.0, 0.003328371213902079
1318.0, 0.002768543396149346
1319.0, 0.001876557787883904
1320.0, 0.003958604641554296
1321.0, 0.0016775488626001934
1322.0, 0.002196527748873234
1323.0, 0.002424498965227775
1324.0, 0.0016937616550419035
1325.0, 0.0014528514197247734
1326.0, 0.002671919857554546
1327.0, 0.0019047646472219923
1328.0, 0.0024836751398274225
1329.0, 0.0020078568291717613
1330.0, 0.0014813681293869814
1331.0, 0.0012637001011662698
1332.0, 0.001467586633462306
1333.0, 0.003160514689854351
1334.0, 0.0045210942868232655
1335.0, 0.002088430675408493
1336.0, 0.001741063808484719
1337.0, 0.002703394888770425
1338.0, 0.0011285630608998958
1339.0, 0.0011075945220910847
1340.0, 0.001986959814529489
1341.0, 0.0021870934048994596
1342.0, 0.0022020903907584944
1343.0, 0.002474071644470816
1344.0, 0.0029987332145782492
1345.0, 0.002700742296129798
1346.0, 0.003306085671236846
1347.0, 0.0044418061980174605
1348.0, 0.004231112109625484
1349.0, 0.0038525822247151833
1350.0, 0.00540498828354368
1351.0, 0.0041364153349805815
1352.0, 0.0044892524236620785
1353.0, 0.005737925235935122
1354.0, 0.00509891230268152
1355.0, 0.003744862099113159
1356.0, 0.0048653935654122136
1357.0, 0.006323734268400441
1358.0, 0.0025840501075836864
1359.0, 0.004271984029430012
1360.0, 0.005516653759967095
1361.0, 0.004359747369673474
1362.0, 0.003104780087558522
1363.0, 0.003571983881375681
1364.0, 0.004237636743610471
1365.0, 0.002968044230563572
1366.0, 0.004254441337318738
1367.0, 0.005917098827249051
1368.0, 0.003534434153702388
1369.0, 0.003526244880739417
1370.0, 0.004204954658907013
1371.0, 0.0031849697333413674
1372.0, 0.0021485877949294434
1373.0, 0.0023771182540395365
1374.0, 0.0036590260493503226
1375.0, 0.0027832249231645343
1376.0, 0.004834808323316644
1377.0, 0.005423582675144226
1378.0, 0.004533386098938249
1379.0, 0.004465147037507575
1380.0, 0.005777850955340122
1381.0, 0.0015781204180832418
1382.0, 0.0028959460937171277
1383.0, 0.003605893437381047
1384.0, 0.003987864724708577
1385.0, 0.00431733667958517
1386.0, 0.004647559610792241
1387.0, 0.004710154193193299
1388.0, 0.004234582152199196
1389.0, 0.004028822699650457
1390.0, 0.0038287822331830416
1391.0, 0.002989015142934815
1392.0, 0.002491893737386859
1393.0, 0.00560777941989194
1394.0, 0.0030803510688688805
1395.0, 0.004033285636789124
1396.0, 0.0048735001597066474
1397.0, 0.004325007627801654
1398.0, 0.0033313729916899858
1399.0, 0.004297481998942023
1400.0, 0.0045976088134372
1401.0, 0.005759717559461619
1402.0, 0.005382910839478607
1403.0, 0.005382219531748562
1404.0, 0.006474491832865473
1405.0, 0.006905765386482297
1406.0, 0.0033856450316704137
1407.0, 0.0025232897397187977
1408.0, 0.0045152407296125486
1409.0, 0.004416724902406357
1410.0, 0.0027691092319581303
1411.0, 0.0034603412253532556
1412.0, 0.004762281996143073
1413.0, 0.0031773722424510995
1414.0, 0.004150503941577749
1415.0, 0.003034102819137785
1416.0, 0.0010632225815121706
1417.0, 0.0014483778030341759
1418.0, 0.0032129348218195865
1419.0, 0.006533932520663945
1420.0, 0.003560109705636802
1421.0, 0.0039306489084001564
1422.0, 0.004047087408853565
1423.0, 0.0019245622080888243
1424.0, 0.00500275236251232
1425.0, 0.004780745115092733
1426.0, 0.003974877346403096
1427.0, 0.0046490080237768135
1428.0, 0.00480339243021128
1429.0, 0.004316098411842796
1430.0, 0.005232202847026057
1431.0, 0.004987134530137331
1432.0, 0.003210366773137098
1433.0, 0.0028204006779527094
1434.0, 0.0036833607874463188
1435.0, 0.0053712132671679645
1436.0, 0.006375604447159235
1437.0, 0.0020941114533690732
1438.0, 0.0072436304828716516
1439.0, 0.007097036829296252
1440.0, 0.004471568237086731
1441.0, 0.004030859952688004
1442.0, 0.00646232610400216
1443.0, 0.005599351397121006
1444.0, 0.005288661872594915
1445.0, 0.004599320247177732
1446.0, 0.005819128508071908
1447.0, 0.005529139769867234
1448.0, 0.004110147283202434
1449.0, 0.005505533440061258
1450.0, 0.004706599027040244
1451.0, 0.006602096152601046
1452.0, 0.0051620486609564665
1453.0, 0.006649507806424169
1454.0, 0.00829259340696501
1455.0, 0.005470265174211389
1456.0, 0.0045023025239725786
1457.0, 0.009940380798967034
1458.0, 0.006507499606468694
1459.0, 0.0061080803333597175
1460.0, 0.007587064753201171
1461.0, 0.007929583304605853
1462.0, 0.008014436561044759
1463.0, 0.00882719603027852
1464.0, 0.006022617509721976
1465.0, 0.005792147793844635
1466.0, 0.007183481106514915
1467.0, 0.00689080015149774
1468.0, 0.004453407475692747
1469.0, 0.009827689681809101
1470.0, 0.005572371350500546
1471.0, 0.004910434838162607
1472.0, 0.005306539885863582
1473.0, 0.006691201498976815
1474.0, 0.00741180963523709
1475.0, 0.003872385024141564
1476.0, 0.008284058306576456
1477.0, 0.005910726579953391
1478.0, 0.00397080428649774
1479.0, 0.0031553348315973887
1480.0, 0.0039274173761167175
1481.0, 0.0057751527791784375
1482.0, 0.003908406645093801
1483.0, 0.005607352920872001
1484.0, 0.004673734586989342
1485.0, 0.005783346024307096
1486.0, 0.006245408508063746
1487.0, 0.004318349057926878
1488.0, 0.0033058383630990475
1489.0, 0.004189351936506113
1490.0, 0.0028917575455912094
1491.0, 0.004723600315867919
1492.0, 0.004702833184215124
1493.0, 0.0027370810139342103
1494.0, 0.002525709789430105
1495.0, 0.0057784636740602306
1496.0, 0.006532372041480939
1497.0, 0.005276427035395156
1498.0, 0.005995686980179631
1499.0, 0.004680476651251887
1500.0, 0.002134848875811614
1501.0, 0.0042040744682299855
1502.0, 0.0013167644347696623
1503.0, 0.002829163969378881
1504.0, 0.0029639494886094494
1505.0, 0.0029798588626992833
1506.0, 0.004728410394427044
1507.0, 0.006887109917267936
1508.0, 0.003740160365522052
1509.0, 0.00204563573503
1510.0, 0.0021676042781983663
1511.0, 0.002867689782329095
1512.0, 0.003084915675486108
1513.0, 0.0034233096971019276
1514.0, 0.004662327146441807
1515.0, 0.0043440309930933
1516.0, 0.002849474781905468
1517.0, 0.0007721317493868713
1518.0, 0.001900981877593543
1519.0, 0.002472505506908544
1520.0, 0.0014135978893989587
1521.0, 0.0023360202147718716
1522.0, 0.0010705707141874638
1523.0, 0.00019350077486189696
1524, 0.0
1525, 0.0
1526, 0.0
1527, 0.0
1528, 0.0
1529, 0.0
1530, 0.0
1531, 0.0
1532, 0.0
1533, 0.0
1534, 0.0
1535, 0.0
1536, 0.0
1537, 0.0
1538, 0.0
1539, 0.0
1540, 0.0
1541, 0.0
1542, 0.0
1543, 0.0
1544, 0.0
1545, 0.0
1546, 0.0
1547, 0.0
1548, 0.0
1549, 0.0
1550, 0.0
1551, 0.0
1552, 0.0
1553, 0.0
1554, 0.0
1555, 0.0
1556, 0.0
1557, 0.0
1558, 0.0
1559, 0.0
1560, 0.0
1561, 0.0
1562, 0.0
1563, 0.0
1564, 0.0
1565, 0.0
1566, 0.0
1567, 0.0
1568, 0.0
1569, 0.0
1570, 0.0
1571, 0.0
1572, 0.0
1573, 0.0
1574, 0.0
1575, 0.0
1576, 0.0
1577, 0.0
1578, 0.0
1579, 0.0
1580, 0.0
1581, 0.0
1582, 0.0
1583, 0.0
1584, 0.0
1585, 0.0
1586, 0.0
1587, 0.0
1588, 0.0
1589, 0.0
1590, 0.0
1591, 0.0
1592, 0.0
1593, 0.0
1594, 0.0
1595, 0.0
1596, 0.0
1597, 0.0
1598, 0.0
1599, 0.0
