30, 0.0
31, 0.0
32, 0.0
33, 0.0
34, 0.0
35, 0.0
36, 0.0
37, 0.0
38, 0.0
39, 0.0
40, 0.0
41, 0.0
42, 0.0
43, 0.0
44, 0.0
45, 0.0
46, 0.0
47, 0.0
48, 0.0
49, 0.0
50.0, 0.000984863588677749
51.0, 0.0018677668061266185
52.0, 0.0022959214915369017
53.0, 0.005599844154837169
54.0, 0.007630280754312659
55.0, 0.00895937891316712
56.0, 0.010920678511631894
57.0, 0.01133318171713786
58.0, 0.01140024562239431
59.0, 0.011582077911636637
60.0, 0.012430238271364578
61.0, 0.012625985958206916
62.0, 0.012469358986145736
63.0, 0.013008115004107281
64.0, 0.011593830542983942
65.0, 0.009394263633126013
66.0, 0.0068636291730842566
67.0, 0.006003465449080148
68.0, 0.004513711284360184
69.0, 0.0025089284583714564
70.0, 0.0007519843550291912
71.0, 0.0004798864447810719
72.0, 0.0005836496150500182
73.0, 0.0004642945435507616
74.0, 0.00038933388483998753
75.0, 0.00044299116718938804
76.0, 0.0005398281202765625
77.0, 0.00025897456285691996
78.0, 0.0010513589197088747
79.0, 0.001903247416185729
80.0, 0.002135902822131613
81.0, 0.0015951415747782424
82.0, 0.0031422273299973142
83.0, 0.006455297613201118
84.0, 0.009275585983866784
85.0, 0.009587581097951148
86.0, 0.009050459845227793
87.0, 0.008613328927088361
88.0, 0.011116992437781597
89.0, 0.014260740439464898
90.0, 0.01786590428632445
91.0, 0.02199332350542805
92.0, 0.02414775933735278
93.0, 0.02626694601647767
94.0, 0.029683148618961954
95.0, 0.028831251673171465
96.0, 0.02767586657117789
97.0, 0.02676348375595668
98.0, 0.02747585318494652
99.0, 0.0276590069042782
100.0, 0.027184317019365276
101.0, 0.0258147105251388
102.0, 0.024961838761925054
103.0, 0.0236956377295222
104.0, 0.022035039918904094
105.0, 0.020158537011923848
106.0, 0.018891980989098025
107.0, 0.017466517394126184
108.0, 0.015424194971124579
109.0, 0.013182461373750683
110.0, 0.016567112335098198
111.0, 0.02322224206976337
112.0, 0.02534311235599852
113.0, 0.02312134130202769
114.0, 0.018920050699871186
115.0, 0.0135081404459801
116.0, 0.013306601364307617
117.0, 0.012425299510970942
118.0, 0.011338000760441285
119.0, 0.011443630344189088
120.0, 0.013068193054083264
121.0, 0.015094477147015095
122.0, 0.01715187292223197
123.0, 0.01820894369207634
124.0, 0.017722222551627104
125.0, 0.016159800763148737
126.0, 0.014123675267315118
127.0, 0.012848998700195569
128.0, 0.011062445794129298
129.0, 0.008561933097478325
130.0, 0.008159104369907124
131.0, 0.007807606577246047
132.0, 0.007172615161859427
133.0, 0.005681732209783678
134.0, 0.0053544552420576215
135.0, 0.005540121702679016
136.0, 0.006065852050617642
137.0, 0.006282816348333015
138.0, 0.006801340859042011
139.0, 0.007428362716307753
140.0, 0.008007396049259574
141.0, 0.008871646789934764
142.0, 0.010219002065390212
143.0, 0.012017528891875351
144.0, 0.014074872531975521
145.0, 0.014299750944481538
146.0, 0.01385565892487615
147.0, 0.013330075660550745
148.0, 0.012029835935760944
149.0, 0.012034015408427367
150.0, 0.01313329696546282
151.0, 0.01474587114351408
152.0, 0.01596852354328318
153.0, 0.017140428069451534
154.0, 0.018349333478687554
155.0, 0.01810716260459778
156.0, 0.01688653810925251
157.0, 0.015361811884518373
158.0, 0.014648125048794695
159.0, 0.013200531069028786
160.0, 0.012123245094010391
161.0, 0.011713518325473573
162.0, 0.012556346446120241
163.0, 0.012594854483867778
164.0, 0.012232419174948096
165.0, 0.011762210828331333
166.0, 0.011308353728742273
167.0, 0.010957587660678779
168.0, 0.010759729451137059
169.0, 0.010930300986286603
170.0, 0.01211701967444541
171.0, 0.01408967098398233
172.0, 0.016839504164433968
173.0, 0.020070055668642253
174.0, 0.02301012470069981
175.0, 0.025641873656695867
176.0, 0.027861008443419034
177.0, 0.030994494490023
178.0, 0.03333174128463428
179.0, 0.0345312766016572
180.0, 0.03632733284016955
181.0, 0.03888099283540803
182.0, 0.04200865938650229
183.0, 0.045658998393522054
184.0, 0.05351343731948171
185.0, 0.06061549670277658
186.0, 0.06691975290283259
187.0, 0.0743279645268187
188.0, 0.07828084519618847
189.0, 0.07760292160153223
190.0, 0.07117390520487783
191.0, 0.06157793811343918
192.0, 0.05272324397610667
193.0, 0.04397201259329387
194.0, 0.034097420863194006
195.0, 0.025656810230496173
196.0, 0.018637632369695012
197.0, 0.013146732835023182
198.0, 0.009838915957064548
199.0, 0.007494246884578482
200.0, 0.005222444898181656
201.0, 0.0023105033084661842
202.0, 0.0014785297869378425
203.0, 0.0009914981570584916
204.0, 0.0006652525125938331
205.0, 0.0002628863569488068
206.0, 0.00026304428487547947
207.0, 0.0003865969541353148
208.0, 0.0005367517604281987
209.0, 0.00045505534174597597
210.0, 0.00046569179151271486
211.0, 0.0005395743683927046
212.0, 0.0006573220573835191
213.0, 0.0003342841793013994
214.0, 0.0004563176760367308
215.0, 0.0008108830919818883
216.0, 0.00016250575552772953
217.0, 0.0003854181967744378
218.0, 0.0006621056181047837
219.0, 0.000651102828757517
220.0, 0.0005539756996279825
221.0, 0.0005710480806802512
222.0, 0.001071688841174976
223.0, 0.0027112963972258626
224.0, 0.003462984993449439
225.0, 0.005253839053404874
226.0, 0.008140038096946575
227.0, 0.011180574880484425
228.0, 0.013877926275871297
229.0, 0.016268975316264058
230.0, 0.018318698282133585
231.0, 0.018277051652280593
232.0, 0.017660871118461673
233.0, 0.016081754460296336
234.0, 0.012712472403716748
235.0, 0.010457790620061119
236.0, 0.008491457154459077
237.0, 0.006735072590623229
238.0, 0.005422510540193945
239.0, 0.0039411317007819165
240.0, 0.00242042798268514
241.0, 0.0009369142725200284
242.0, 0.0005431107812905277
243.0, 0.0005559333926053922
244.0, 0.0007092696519310514
245.0, 0.0006243717480730676
246.0, 0.0005836427421675593
247.0, 0.00046914532809818715
248.0, 0.0003517212588855031
249.0, 0.0006304906345860157
250.0, 0.0005398543857095111
251.0, 0.0003960525750099879
252.0, 0.00034623313633235794
253.0, 0.0007749962580638075
254.0, 0.0009994766468997254
255.0, 0.001115572470232503
256.0, 0.0012227715302099802
257.0, 0.0013335642577944496
258.0, 0.0020429106088184837
259.0, 0.0028782249778966226
260.0, 0.0019837926515765556
261.0, 0.002249447736893367
262.0, 0.0030281754432002384
263.0, 0.0041349405062456115
264.0, 0.0056247554253591
265.0, 0.0065167957932929284
266.0, 0.007020895501261004
267.0, 0.007264117173225445
268.0, 0.007504376974481564
269.0, 0.00883736158110128
270.0, 0.010528365434707887
271.0, 0.010725281329617887
272.0, 0.012912836229236365
273.0, 0.014488234142624064
274.0, 0.014903033911044476
275.0, 0.014414956418964349
276.0, 0.01589407554770298
277.0, 0.01753618940458367
278.0, 0.01831761781128329
279.0, 0.01812607898051406
280.0, 0.019373399003871812
281.0, 0.021236266200351364
282.0, 0.022594898380720707
283.0, 0.023651672585064114
284.0, 0.0254255528178529
285.0, 0.02785105224737572
286.0, 0.030345317975842435
287.0, 0.03302573508997757
288.0, 0.036169355817940875
289.0, 0.03987928359936275
290.0, 0.044028204711338226
291.0, 0.047942462037734945
292.0, 0.05140195993804616
293.0, 0.0541770232177994
294.0, 0.05891643674268793
295.0, 0.06331999456861949
296.0, 0.06773291588894186
297.0, 0.07288681798094841
298.0, 0.07913617327777762
299.0, 0.08506597351599775
300.0, 0.09052157663136776
301.0, 0.09571122717341893
302.0, 0.10053981281491925
303.0, 0.10349892335936353
304.0, 0.10405910749107651
305.0, 0.10398260462758
306.0, 0.10100047913184398
307.0, 0.09582416959389964
308.0, 0.08876845042072966
309.0, 0.0810425321711526
310.0, 0.07378769490568995
311.0, 0.06672463829935882
312.0, 0.05933475652902536
313.0, 0.05325771243417693
314.0, 0.048364795205723364
315.0, 0.044384158103102776
316.0, 0.04041907923293015
317.0, 0.03771217285883764
318.0, 0.0362153871292857
319.0, 0.0357632344701956
320.0, 0.034410302192860016
321.0, 0.03516326794389542
322.0, 0.03601395365976882
323.0, 0.0356564970731497
324.0, 0.03759263164902591
325.0, 0.03880000203814025
326.0, 0.040064681255346686
327.0, 0.04247941062079301
328.0, 0.04500537143891785
329.0, 0.047441273569529284
330.0, 0.05012689020321226
331.0, 0.054052238067743535
332.0, 0.05800647477887104
333.0, 0.06266784288901624
334.0, 0.06787188582194945
335.0, 0.07183987504155384
336.0, 0.07479704168819103
337.0, 0.07707780421017708
338.0, 0.07856821278133028
339.0, 0.07598949087019846
340.0, 0.07201060146990526
341.0, 0.06649293936772084
342.0, 0.05917975505637158
343.0, 0.05442803955810877
344.0, 0.04886167461077591
345.0, 0.0440024846860444
346.0, 0.04233725527370105
347.0, 0.03927679236353513
348.0, 0.03620076496612313
349.0, 0.033744740947257976
350.0, 0.03335081646990918
351.0, 0.03415883413037306
352.0, 0.03470614660198259
353.0, 0.03520180740499088
354.0, 0.0383432749567356
355.0, 0.03984654239305322
356.0, 0.04127419848931374
357.0, 0.043324128417211435
358.0, 0.04692713536655884
359.0, 0.051398722480185524
360.0, 0.05739633275957495
361.0, 0.06542693325798449
362.0, 0.07251201002512202
363.0, 0.08293332471534522
364.0, 0.09546037898435097
365.0, 0.1088784437128565
366.0, 0.12538221706949038
367.0, 0.14491635275212472
368.0, 0.166234949434478
369.0, 0.187165685380418
370.0, 0.20509433275588976
371.0, 0.21978289354498343
372.0, 0.22969979148838376
373.0, 0.2297363786348665
374.0, 0.22202337953643317
375.0, 0.2100504517748804
376.0, 0.19383865865060998
377.0, 0.16939200702301366
378.0, 0.14960801510048813
379.0, 0.13097349616688686
380.0, 0.1123292066498803
381.0, 0.09512727113387413
382.0, 0.0816998170524636
383.0, 0.0698938411673812
384.0, 0.058599592793122386
385.0, 0.04993640967665479
386.0, 0.04341990162392978
387.0, 0.038225443997772446
388.0, 0.03369279928301431
389.0, 0.029627407738402826
390.0, 0.024860451903522613
391.0, 0.02019483245905005
392.0, 0.016766438102663
393.0, 0.01689399079352926
394.0, 0.015038553804299734
395.0, 0.012301810601055499
396.0, 0.011553526448025755
397.0, 0.009927853454021371
398.0, 0.0092231412656441
399.0, 0.008785126569123062
400.0, 0.006067272043015742
401.0, 0.005911798348385865
402.0, 0.005361648294585326
403.0, 0.004256243975353298
404.0, 0.004486924584834439
405.0, 0.004353200677237274
406.0, 0.0033962133142002478
407.0, 0.0017572666565998753
408.0, 0.0012996614071260194
409.0, 0.0011608877745791632
410.0, 0.0009506143741504407
411.0, 0.0005968811852327532
412.0, 0.0010503197100285382
413.0, 0.0007740195618264248
414.0, 0.000550176126476882
415.0, 0.0007899449285724799
416.0, 0.0007681778043649554
417.0, 0.0008279031564227198
418.0, 0.0009015331192349086
419.0, 0.0009359727030447449
420.0, 0.0007713020017303278
421.0, 0.0007013776734301371
422.0, 0.000553383428271615
423.0, 0.00015227396525585362
424.0, 0.0006146264545671473
425.0, 0.0004759046655361174
426.0, 0.0003085030592838581
427.0, 0.0008687503780172992
428.0, 0.0011689011797147556
429.0, 0.0016119447134144154
430.0, 0.002568182357707626
431.0, 0.004637873316911904
432.0, 0.005111960987244256
433.0, 0.005282261980587272
434.0, 0.005898018558439435
435.0, 0.008264155022341757
436.0, 0.008644103320508358
437.0, 0.008181365366766948
438.0, 0.007550789999722791
439.0, 0.008043638144978865
440.0, 0.005648754947768258
441.0, 0.004157328121187088
442.0, 0.0034837868229463495
443.0, 0.0017356452823956616
444.0, 0.0012997509955400362
445.0, 0.001016732265734001
446.0, 0.000676337200073708
447.0, 0.0003135033606998758
448.0, 0.00039789553777837744
449.0, 0.0005400385081628717
450.0, 0.0006278552304410053
451.0, 0.0005679465805310783
452.0, 0.0004860595799175466
453.0, 0.0007897245246383012
454.0, 0.0013034404580831948
455.0, 0.0006693810610493654
456.0, 0.000590323767684845
457.0, 0.001012317739832011
458.0, 0.0018044902814797808
459.0, 0.0023173356009457725
460.0, 0.0029875940900990646
461.0, 0.003375396630641202
462.0, 0.0034797388827126335
463.0, 0.0042437291063361915
464.0, 0.004922370857853155
465.0, 0.004793622637246835
466.0, 0.0038295872227909426
467.0, 0.003785899894510497
468.0, 0.002610410781032462
469.0, 0.0016539349422350325
470.0, 0.0014475425217532652
471.0, 0.0018336465847302935
472.0, 0.0013050414244997251
473.0, 0.0007178787094814366
474.0, 0.0004527150094413765
475.0, 0.0006224801901088738
476.0, 0.0012329143111893916
477.0, 0.0020779069485722815
478.0, 0.0030213683907155545
479.0, 0.0036575625074222757
480.0, 0.0036486234241917413
481.0, 0.003958193241131762
482.0, 0.005019017683682527
483.0, 0.006683834286027541
484.0, 0.00829969685928478
485.0, 0.010521725995580862
486.0, 0.013516946827780187
487.0, 0.016042160011862802
488.0, 0.01928102830590021
489.0, 0.023338563913544608
490.0, 0.027970192424443645
491.0, 0.030675284596450882
492.0, 0.03418157447344503
493.0, 0.03646329561674892
494.0, 0.036421041311941606
495.0, 0.03270158928203678
496.0, 0.029524811945816725
497.0, 0.026117490598611643
498.0, 0.022325826907064104
499.0, 0.01939827505259036
500.0, 0.015628271093639907
501.0, 0.012994356225484978
502.0, 0.011943277942215799
503.0, 0.010130145459202902
504.0, 0.008928405119072794
505.0, 0.008353089570555118
506.0, 0.008175850075444139
507.0, 0.0070111836701544205
508.0, 0.007201516383576039
509.0, 0.008138272198736817
510.0, 0.009197529243508517
511.0, 0.008230372143129881
512.0, 0.00867074181214174
513.0, 0.010055375128028952
514.0, 0.01184301225633195
515.0, 0.012246198600449518
516.0, 0.014471893740414098
517.0, 0.016418108725540247
518.0, 0.017893366867452198
519.0, 0.020263085719279192
520.0, 0.02158154688260259
521.0, 0.021968262037274516
522.0, 0.020974256736678673
523.0, 0.017044294550999865
524.0, 0.015734581150184203
525.0, 0.014779442942186624
526.0, 0.013320788689055627
527.0, 0.01016514946493969
528.0, 0.008129014819467791
529.0, 0.0070969977481355395
530.0, 0.006848247067890515
531.0, 0.006946074214776776
532.0, 0.0053695774739417786
533.0, 0.004540777968716734
534.0, 0.004512833405578113
535.0, 0.004901073895527616
536.0, 0.004141856440725865
537.0, 0.00400562376928206
538.0, 0.00473876937707309
539.0, 0.006521952770558195
540.0, 0.00653339632831516
541.0, 0.008381766813183209
542.0, 0.010352670981929065
543.0, 0.010182307714832204
544.0, 0.014543458649122378
545.0, 0.02055922999023427
546.0, 0.025938321348609548
547.0, 0.02870391825330178
548.0, 0.03867505009500717
549.0, 0.04446994931065007
550.0, 0.04755892080898359
551.0, 0.049011087142283125
552.0, 0.04773398197725717
553.0, 0.043449281516191804
554.0, 0.038005796561787215
555.0, 0.03236525322479081
556.0, 0.025445599633758323
557.0, 0.020554155934752724
558.0, 0.016927884505983395
559.0, 0.013987559735927316
560.0, 0.010204963776334872
561.0, 0.00891231847135449
562.0, 0.007326386581086518
563.0, 0.00518703490939152
564.0, 0.005175472451574071
565.0, 0.003479947955827229
566.0, 0.0021789384233681674
567.0, 0.0016782061182587075
568.0, 0.001783764017882851
569.0, 0.002804629342435822
570.0, 0.0019638153497887525
571.0, 0.0003663285453888251
572.0, 0.0011262509637120757
573.0, 0.0006880487638436024
574.0, 0.0007097540165792903
575.0, 0.0007633273656172208
576.0, 2.7533593819864695e-05
577.0, 1.8934505169785494e-05
578.0, 2.681136155893853e-05
579.0, 3.780952938783298e-05
580.0, 6.130585873979913e-05
581.0, 0.00020828526659608703
582.0, 0.0003566459425006582
583.0, 0.0006505186700144377
584.0, 0.0010959982643824716
585.0, 0.0004765343656936978
586.0, 0.0003392411121111661
587.0, 0.00037690917687894685
588.0, 0.0004695843951474518
589.0, 0.0008143627159110081
590.0, 0.001003645114022836
591.0, 0.0012978489582032484
592.0, 0.0015240665424745474
593.0, 0.0007117992394172416
594.0, 0.0002402718386012698
595.0, 0.00017838195318673904
596.0, 0.00035665803894976685
597.0, 0.00034148709439010876
598.0, 0.00019982683033220258
599.0, 0.00030117722002569153
600.0, 0.00044044229719242674
601.0, 0.0002467027708145817
602.0, 0.00017102360793722976
603.0, 0.00024083282791400137
604.0, 0.00033324417360933097
605.0, 0.0003210532838691716
606.0, 0.00010975742376464286
607.0, 0.0006078018207982517
608.0, 0.00080340979814502
609.0, 0.0002764915503193898
610.0, 0.0010434086316000084
611.0, 0.0021748267280122732
612.0, 0.002566907173460706
613.0, 0.00204713078803979
614.0, 0.0017732722679568004
615.0, 0.0028233627844726134
616.0, 0.0027398728348264996
617.0, 0.001731134696750046
618.0, 0.0017348630077821444
619.0, 0.004202668631997201
620.0, 0.004472872564342241
621.0, 0.004062554601208447
622.0, 0.006010255172270032
623.0, 0.005187380231664161
624.0, 0.00498491938191523
625.0, 0.005665860924638375
626.0, 0.007258204633054042
627.0, 0.007575462724007533
628.0, 0.008903889449367675
629.0, 0.010198509939176629
630.0, 0.011079879934555541
631.0, 0.012764594544757056
632.0, 0.013273282535817036
633.0, 0.013923658666252255
634.0, 0.015281643327868787
635.0, 0.017873816712746276
636.0, 0.019248579741662913
637.0, 0.02184289823198922
638.0, 0.02491593262064581
639.0, 0.026545131269864977
640.0, 0.031044477231988325
641.0, 0.03264814647091097
642.0, 0.034817376862909755
643.0, 0.04094628220745223
644.0, 0.044591062267429295
645.0, 0.05126011545216546
646.0, 0.059511257239433527
647.0, 0.06893257165698309
648.0, 0.08218752283703656
649.0, 0.09661043456740212
650.0, 0.11391222274306809
651.0, 0.13552125957256275
652.0, 0.16415238123332265
653.0, 0.19144665422410548
654.0, 0.22640701214531636
655.0, 0.26562136182457613
656.0, 0.30194591871567095
657.0, 0.32679116207287984
658.0, 0.34355055083099456
659.0, 0.34725132195932495
660.0, 0.3336739502137034
661.0, 0.29862621139546036
662.0, 0.27079365793210347
663.0, 0.23927631993218137
664.0, 0.20200533836677567
665.0, 0.17111517178539215
666.0, 0.14715580815067064
667.0, 0.1249421692548288
668.0, 0.1051491483533734
669.0, 0.09136042980417816
670.0, 0.07738102945926412
671.0, 0.06613194841851636
672.0, 0.05760380705199215
673.0, 0.051454041436748116
674.0, 0.04697691387549033
675.0, 0.04046582001024999
676.0, 0.03529769697142798
677.0, 0.032734051489741435
678.0, 0.029523169578912156
679.0, 0.02687883091909116
680.0, 0.024300174028550926
681.0, 0.021800614228879123
682.0, 0.019715256754031605
683.0, 0.018069873359663386
684.0, 0.016290433142714274
685.0, 0.014682021357757015
686.0, 0.013624992394964916
687.0, 0.012480562226825986
688.0, 0.011696938274786298
689.0, 0.011094798728443826
690.0, 0.010661156050700189
691.0, 0.010933310051455916
692.0, 0.011404448043443151
693.0, 0.011228999664590915
694.0, 0.010491942964124113
695.0, 0.0098957517139504
696.0, 0.010920815701986676
697.0, 0.01143672663650847
698.0, 0.011478067177956297
699.0, 0.011323925440526784
700.0, 0.012056059605048412
701.0, 0.011868630242188314
702.0, 0.011140850223612277
703.0, 0.010217824563648307
704.0, 0.00976672484212398
705.0, 0.008875144429503419
706.0, 0.007977547636966271
707.0, 0.006965406678278009
708.0, 0.0054592064617975215
709.0, 0.006015276975645202
710.0, 0.005780037183629509
711.0, 0.005773892170521082
712.0, 0.0066526929578018
713.0, 0.004294807705261366
714.0, 0.004008073589653073
715.0, 0.004151338359656206
716.0, 0.00403525419692829
717.0, 0.0035433273080312947
718.0, 0.004273774573666491
719.0, 0.0042872491203640685
720.0, 0.0041423684959619065
721.0, 0.00494105761870312
722.0, 0.003484596803673675
723.0, 0.0040543807760944515
724.0, 0.004584080904185318
725.0, 0.00392745206200815
726.0, 0.0030622464837283285
727.0, 0.0037971896186829762
728.0, 0.0043092344792346506
729.0, 0.0042728384931817786
730.0, 0.003956264161954509
731.0, 0.0046336173721663616
732.0, 0.004106924784349102
733.0, 0.003763918062617817
734.0, 0.004654442792770608
735.0, 0.003794872782622967
736.0, 0.003290567847193584
737.0, 0.003287090742357934
738.0, 0.0036032468950266466
739.0, 0.0035621012276356914
740.0, 0.003803437604196512
741.0, 0.00468351317825109
742.0, 0.005439987946948174
743.0, 0.005235219924460055
744.0, 0.005991999272638923
745.0, 0.006447371673525862
746.0, 0.00684047457202204
747.0, 0.007191481630884242
748.0, 0.007118023235448055
749.0, 0.007269599015931353
750.0, 0.007699653996634586
751.0, 0.008244130195950768
752.0, 0.008658329810974552
753.0, 0.009392721545650996
754.0, 0.009848211731383616
755.0, 0.010284795929660362
756.0, 0.010779779142828714
757.0, 0.0109454536355056
758.0, 0.010646186984608777
759.0, 0.009423553796088668
760.0, 0.00829695712056766
761.0, 0.009055351588400791
762.0, 0.008720781088959968
763.0, 0.0075424878286090655
764.0, 0.006716312941971795
765.0, 0.006901607530233329
766.0, 0.007348765561577904
767.0, 0.006271236553296581
768.0, 0.005266843011148775
769.0, 0.004886537020868432
770.0, 0.005428596728012789
771.0, 0.004243739055239418
772.0, 0.0033217792225517626
773.0, 0.0031088056516126
774.0, 0.0034913461213523607
775.0, 0.0022819967562128698
776.0, 0.0029577898853224874
777.0, 0.0025174367667116595
778.0, 0.001429343232681637
779.0, 0.001711305352042728
780.0, 0.001236359796029471
781.0, 0.0008174290034239792
782.0, 0.0006847750279050963
783.0, 0.0009434574933227165
784.0, 0.001410861779994498
785.0, 0.0012400984191784357
786.0, 0.0006461150418846633
787.0, 0.00019891467220401653
788.0, 0.000720483058249059
789.0, 0.00025071625281331846
790.0, 0.00011806770227664719
791.0, 0.0002237644865041684
792.0, 0.0004910462149382069
793.0, 0.000892140606710726
794.0, 0.00048903766504607
795.0, 0.0002664542877350704
796.0, 0.00024521830114900857
797.0, 0.00020448123863507243
798.0, 0.00032356989089639084
799.0, 0.0008760206902005312
800.0, 0.001004893670989434
801.0, 0.0005057021715931236
802.0, 0.00021780951640129473
803.0, 0.0002932171699791174
804.0, 0.00044339033890449805
805.0, 0.0005904263743819126
806.0, 0.0006840595458872448
807.0, 0.0006702746649831154
808.0, 0.0005221770084622043
809.0, 0.000275193135588325
810.0, 0.00018544111318302095
811.0, 0.0008834411208022781
812.0, 0.0002660496028198999
813.0, 0.0004974748543897289
814.0, 0.0012156559951426512
815.0, 0.001740553486188213
816.0, 0.0005316566503362159
817.0, 0.00011975407341270513
818.0, 0.0001573236896304477
819.0, 0.0006201217708609842
820.0, 0.0016215060698324714
821.0, 0.0003787901233437181
822.0, 0.0003590093810859869
823.0, 0.0005334831591874003
824.0, 0.0003271012924468802
825.0, 0.00037487095377322877
826.0, 0.0005377588193990609
827.0, 0.0005485620052347996
828.0, 0.0005857309918718196
829.0, 0.0008956225166437497
830.0, 0.0007878499578619169
831.0, 0.0004592716590321518
832.0, 0.0005425660641556811
833.0, 0.0008569833605593818
834.0, 0.00023087185707043438
835.0, 0.0003974487454614298
836.0, 0.0007048928697057012
837.0, 0.0008374037671455973
838.0, 0.0005979971980412866
839.0, 0.00015239978406902764
840.0, 0.00027289599974816695
841.0, 0.0003101936679837132
842.0, 0.0005849743306573297
843.0, 0.0017773257772813115
844.0, 0.0018495436780022645
845.0, 0.0032056319989303694
846.0, 0.004092773489478793
847.0, 0.004203485371939559
848.0, 0.0054044885217778334
849.0, 0.006710663366215823
850.0, 0.008331269225957104
851.0, 0.009418227681368855
852.0, 0.009309045758913538
853.0, 0.008933762120988321
854.0, 0.008665792518731317
855.0, 0.007811556525523483
856.0, 0.006409411262813114
857.0, 0.004860184119640307
858.0, 0.004426417899169692
859.0, 0.0035743669473218115
860.0, 0.0032299378159137406
861.0, 0.003313955205149104
862.0, 0.002126989100328055
863.0, 0.0028777851167557777
864.0, 0.003808389070125084
865.0, 0.0037527306166306876
866.0, 0.0024464874615425275
867.0, 0.0038808567770308258
868.0, 0.004203051735051982
869.0, 0.0032696408515950387
870.0, 0.002446831873750261
871.0, 0.0035873133451378653
872.0, 0.0021364094285369574
873.0, 0.0020990035806472867
874.0, 0.0024800555444408046
875.0, 0.0027193423492354266
876.0, 0.0025344415482038344
877.0, 0.002674660135116808
878.0, 0.0029790310236727452
879.0, 0.003961689127870342
880.0, 0.005341348672378183
881.0, 0.004194899510871161
882.0, 0.004314709841374071
883.0, 0.0045114351898905706
884.0, 0.004322211476100476
885.0, 0.0037581124329711317
886.0, 0.006015258051964119
887.0, 0.00664507342693166
888.0, 0.007114705536237714
889.0, 0.007800087336350154
890.0, 0.008551993599398114
891.0, 0.007129030260416294
892.0, 0.007998339487117
893.0, 0.00878473263676657
894.0, 0.00848744320020696
895.0, 0.007683500235643822
896.0, 0.00861746878977025
897.0, 0.008928659207794254
898.0, 0.009279199929131909
899.0, 0.01025296359386908
900.0, 0.011742491638665791
901.0, 0.011673749129574687
902.0, 0.010803922482415674
903.0, 0.010966642341887647
904.0, 0.01330300029168493
905.0, 0.011953557054234374
906.0, 0.011636834793834377
907.0, 0.012188178654991264
908.0, 0.01258332393297221
909.0, 0.01143891034726415
910.0, 0.01071554561138466
911.0, 0.009640985018434117
912.0, 0.009821113697877465
913.0, 0.010174173834748597
914.0, 0.007004108920546859
915.0, 0.00713188338871148
916.0, 0.006568913817715003
917.0, 0.004733222489748678
918.0, 0.0028727642001947417
919.0, 0.0057199271344365405
920.0, 0.005095542389204475
921.0, 0.0034438698179347148
922.0, 0.0020731649826787237
923.0, 0.0015907760112324285
924.0, 0.0007345855224350616
925.0, 0.002358927655155298
926.0, 0.0017886844208671773
927.0, 0.0005717052038498699
928.0, 0.0010046678014654794
929.0, 0.002849179638541902
930.0, 0.0013228531078762777
931.0, 0.0007734755468354075
932.0, 0.0011660610144946404
933.0, 0.0011044790239056962
934.0, 0.0004351057902668972
935.0, 0.0005332728871293836
936.0, 0.0004097043844234495
937.0, 0.00035894585379422114
938.0, 0.0013016615137008399
939.0, 0.0009996870174429657
940.0, 0.0018071231122326861
941.0, 0.0020423609948292546
942.0, 0.0015004288598180577
943.0, 0.0012338799430643942
944.0, 0.0025537157123054384
945.0, 0.003220572915616523
946.0, 0.004025824297291193
947.0, 0.004580133890865093
948.0, 0.0027887467832554873
949.0, 0.0032107874528943202
950.0, 0.0037467641243118023
951.0, 0.004713563762535896
952.0, 0.005889924516787241
953.0, 0.005785405257990552
954.0, 0.0050488208233138605
955.0, 0.0053805983726920685
956.0, 0.005894736452195752
957.0, 0.005916991094166184
958.0, 0.005805051139681977
959.0, 0.007590165148071589
960.0, 0.007536672917308434
961.0, 0.007291875250279406
962.0, 0.00810886485387912
963.0, 0.007545168079327378
964.0, 0.008489491564671494
965.0, 0.008563708636130301
966.0, 0.008178229380629388
967.0, 0.008255493026563802
968.0, 0.009899522707081797
969.0, 0.009592117556684886
970.0, 0.010157947198434976
971.0, 0.01096333877186945
972.0, 0.010990508199903506
973.0, 0.011297626836629686
974.0, 0.012464800801947184
975.0, 0.013337429886098786
976.0, 0.013670308129553645
977.0, 0.01369901315638166
978.0, 0.015220695259470134
979.0, 0.01648502711099825
980.0, 0.01745887181253223
981.0, 0.01908069856408753
982.0, 0.02183148797209197
983.0, 0.02041146312849988
984.0, 0.024579820593969497
985.0, 0.025991804599799925
986.0, 0.02687415681996362
987.0, 0.03155130673538281
988.0, 0.03188703236080817
989.0, 0.0352415470856951
990.0, 0.039318951746868766
991.0, 0.043649359712906705
992.0, 0.048301788006133675
993.0, 0.05291360510579293
994.0, 0.05989029997148254
995.0, 0.06665675810032268
996.0, 0.0748056188029868
997.0, 0.08677336972331538
998.0, 0.09994510818842914
999.0, 0.11460622125962346
1000.0, 0.13413625382378758
1001.0, 0.15897316607458373
1002.0, 0.18880725599426454
1003.0, 0.22795651154668567
1004.0, 0.27742050439947347
1005.0, 0.34489466650593337
1006.0, 0.4341160856188455
1007.0, 0.5463484778094858
1008.0, 0.6832486154133025
1009.0, 0.8231520474086674
1010.0, 0.9373909052085266
1011.0, 0.9907531057939596
1012.0, 0.958430465227044
1013.0, 0.8743516269912451
1014.0, 0.7386029313282801
1015.0, 0.6050917688276073
1016.0, 0.4890088647984534
1017.0, 0.39448941922420416
1018.0, 0.3215774432082512
1019.0, 0.2708714817154982
1020.0, 0.23147864942886986
1021.0, 0.20196935411342307
1022.0, 0.18161308550286032
1023.0, 0.16750862512854875
1024.0, 0.1571291956667331
1025.0, 0.149248303385369
1026.0, 0.14271268595667705
1027.0, 0.13613158805548548
1028.0, 0.1274884461227174
1029.0, 0.12072058407554888
1030.0, 0.11339901179345216
1031.0, 0.10522804146122099
1032.0, 0.09630102493621341
1033.0, 0.0869419756208964
1034.0, 0.07633335478865222
1035.0, 0.06877182677687002
1036.0, 0.062159625110978216
1037.0, 0.055518435574152966
1038.0, 0.050713679447479836
1039.0, 0.04712876898478974
1040.0, 0.044448858468025536
1041.0, 0.041290384971372336
1042.0, 0.037739110131619
1043.0, 0.03572445451770612
1044.0, 0.03259410692035977
1045.0, 0.029155860837638117
1046.0, 0.027630927202961716
1047.0, 0.027461727066247034
1048.0, 0.02580269565990979
1049.0, 0.024208967768917896
1050.0, 0.022424322737169766
1051.0, 0.020942119238537605
1052.0, 0.01982242137182585
1053.0, 0.018896069686322042
1054.0, 0.01844282215961981
1055.0, 0.01679060214067442
1056.0, 0.016374465204437978
1057.0, 0.016024600294808303
1058.0, 0.014078736865577519
1059.0, 0.014202403887546943
1060.0, 0.014340825323134201
1061.0, 0.013718963314908057
1062.0, 0.012896164364040496
1063.0, 0.01230073201923852
1064.0, 0.010795494543702005
1065.0, 0.01175329200288715
1066.0, 0.011537327796065514
1067.0, 0.010216182480950528
1068.0, 0.009223384888819483
1069.0, 0.01180584591208137
1070.0, 0.010792477959621693
1071.0, 0.010317656719488621
1072.0, 0.010412958651901253
1073.0, 0.010394691518390784
1074.0, 0.009055301812973758
1075.0, 0.00887801418763304
1076.0, 0.008257450591801468
1077.0, 0.007528779787750284
1078.0, 0.007638330335143422
1079.0, 0.009504658731581326
1080.0, 0.009111402896631843
1081.0, 0.008651597720278695
1082.0, 0.007876533503364761
1083.0, 0.007528212582148594
1084.0, 0.008239413284444452
1085.0, 0.008304250469013072
1086.0, 0.007945444166908783
1087.0, 0.007933887161867662
1088.0, 0.007378620504384918
1089.0, 0.006274836237631343
1090.0, 0.007554864736459844
1091.0, 0.008704554277573093
1092.0, 0.00831727467989809
1093.0, 0.006734426562578094
1094.0, 0.00532687371249867
1095.0, 0.006392220316700432
1096.0, 0.005264863248835522
1097.0, 0.005495372844211883
1098.0, 0.005200006485794186
1099.0, 0.00464397226291895
1100.0, 0.005207678972193444
1101.0, 0.005538434152859957
1102.0, 0.004272178751387861
1103.0, 0.004787399026559124
1104.0, 0.005722409021062349
1105.0, 0.005385447384368768
1106.0, 0.0061941128225399475
1107.0, 0.005788337465094446
1108.0, 0.005715410829854721
1109.0, 0.005090422659450142
1110.0, 0.00422988125992015
1111.0, 0.0057781839642478475
1112.0, 0.00439230122659322
1113.0, 0.004009855393678692
1114.0, 0.00437268561637016
1115.0, 0.004629963144899045
1116.0, 0.003869862094649467
1117.0, 0.004716054971854338
1118.0, 0.00542561691875793
1119.0, 0.005166449974475182
1120.0, 0.005050989761439744
1121.0, 0.0060611115131364935
1122.0, 0.006375553273705163
1123.0, 0.007015698952764883
1124.0, 0.005453999296931478
1125.0, 0.0029585419941955526
1126.0, 0.001802537704307381
1127.0, 0.004800461369975209
1128.0, 0.0015190688861339114
1129.0, 0.0020902239392407425
1130.0, 0.002193058578636741
1131.0, 0.0011697704511907077
1132.0, 0.0007485963233548248
1133.0, 0.002107851309683223
1134.0, 0.001702690562251632
1135.0, 0.0012973404361326874
1136.0, 0.0014400769663649787
1137.0, 0.0017868004656698758
1138.0, 0.0005233707403430921
1139.0, 0.0011480227689821105
1140.0, 0.001157368888887296
1141.0, 0.000935602912329605
1142.0, 0.001147932213461864
1143.0, 0.002276528099249196
1144.0, 0.0007162825243627861
1145.0, 0.00038622157847145126
1146.0, 0.0005237714132551056
1147.0, 0.001331032062077209
1148.0, 0.0024953564161075558
1149.0, 0.0004885158856744816
1150.0, 0.0004424003512428546
1151.0, 0.00032090925264812326
1152.0, 0.00020121066189325332
1153.0, 0.000278847348440187
1154.0, 0.0005890866826566752
1155.0, 0.0008957496718292489
1156.0, 0.0005280108901174012
1157.0, 0.00037584166509466594
1158.0, 0.0005536617020480263
1159.0, 0.0008516376904992997
1160.0, 0.0013980952422509639
1161.0, 0.0009694540748213252
1162.0, 0.0014260960467370092
1163.0, 0.0013478425289726328
1164.0, 0.0004708368595332026
1165.0, 0.0008317889414155013
1166.0, 0.0011946968309202999
1167.0, 0.00126601588778216
1168.0, 0.000685555335766137
1169.0, 0.0009319324215994369
1170.0, 0.0030582272749591034
1171.0, 0.0017173366408106266
1172.0, 0.001283164490615318
1173.0, 0.0014798647934147788
1174.0, 0.0013176359111663405
1175.0, 0.0009890484129131466
1176.0, 0.0023291111849612
1177.0, 0.0008584729081214203
1178.0, 0.0006174474737756674
1179.0, 0.0003633995573111265
1180.0, 0.0006052097484252614
1181.0, 0.0018695181210769724
1182.0, 0.0013142773333325582
1183.0, 0.0019859884782964863
1184.0, 0.0019112393898576261
1185.0, 0.001959060108892724
1186.0, 0.002444659482768579
1187.0, 0.0026159195048561738
1188.0, 0.0019854542471851987
1189.0, 0.00219681790171756
1190.0, 0.0018917901887516046
1191.0, 0.0017096374705133904
1192.0, 0.002320809369117531
1193.0, 0.0022398808377364545
1194.0, 0.0022651615174932977
1195.0, 0.0020440840721361085
1196.0, 0.0027387882768718187
1197.0, 0.0037615830636210054
1198.0, 0.0033303989941808956
1199.0, 0.003491660610319112
1200.0, 0.0012713810100259335
1201.0, 0.002649534318511172
1202.0, 0.004693329249936954
1203.0, 0.004130170890158418
1204.0, 0.001526674843507977
1205.0, 0.003334397358029149
1206.0, 0.00318859249602301
1207.0, 0.0027934501677759817
1208.0, 0.003396382674087353
1209.0, 0.0049456122814931225
1210.0, 0.003384236550542435
1211.0, 0.004537979647850214
1212.0, 0.0038157180019604844
1213.0, 0.0026999240040488106
1214.0, 0.002484447270874277
1215.0, 0.00322631772290628
1216.0, 0.003875800235470019
1217.0, 0.0036470893146062743
1218.0, 0.004528958438538642
1219.0, 0.004831866637942787
1220.0, 0.0038581323296027134
1221.0, 0.005333184718808642
1222.0, 0.004853943799531488
1223.0, 0.004088393359247923
1224.0, 0.0038297708563984124
1225.0, 0.004102484990917194
1226.0, 0.004641443534233085
1227.0, 0.00600470744206405
1228.0, 0.006539592827187819
1229.0, 0.005813106995093039
1230.0, 0.005195886222005396
1231.0, 0.005834908035636627
1232.0, 0.007703840285804625
1233.0, 0.004421277206948416
1234.0, 0.006342477855579032
1235.0, 0.005923046827959422
1236.0, 0.005208711718133124
1237.0, 0.005969331185008489
1238.0, 0.0055054547477645255
1239.0, 0.0038507984109085684
1240.0, 0.0065844850294469355
1241.0, 0.006951533041850132
1242.0, 0.005016364961222291
1243.0, 0.004028511732688595
1244.0, 0.007218165965928208
1245.0, 0.008757220419600541
1246.0, 0.008876343602465402
1247.0, 0.007429263944411871
1248.0, 0.006070921699462505
1249.0, 0.006616972623752847
1250.0, 0.006188707088144985
1251.0, 0.005047167720769934
1252.0, 0.004830835717287319
1253.0, 0.004751654713586
1254.0, 0.004476603310413908
1255.0, 0.004502186414053295
1256.0, 0.005796079501414445
1257.0, 0.005177602671695256
1258.0, 0.004931040439970798
1259.0, 0.005177091170358788
1260.0, 0.005912181449448365
1261.0, 0.007292695042789963
1262.0, 0.004120779967529811
1263.0, 0.006204203059517858
1264.0, 0.005978796053004143
1265.0, 0.004889110609054944
1266.0, 0.005164606489315301
1267.0, 0.005021779034924978
1268.0, 0.005982677553757314
1269.0, 0.0053022979862211
1270.0, 0.005430252235091916
1271.0, 0.005486755217633737
1272.0, 0.004603083474418358
1273.0, 0.005532687097213851
1274.0, 0.005255029296525171
1275.0, 0.0057494935004891844
1276.0, 0.0060487468093632845
1277.0, 0.0058710170237069575
1278.0, 0.005464726558468026
1279.0, 0.005306798305032523
1280.0, 0.004828854634717386
1281.0, 0.004642678397765407
1282.0, 0.004068250196314195
1283.0, 0.0036812160465071017
1284.0, 0.004252482647334763
1285.0, 0.00391357879167737
1286.0, 0.003349955962860778
1287.0, 0.0027031938287527153
1288.0, 0.003312721574869189
1289.0, 0.004670892447178426
1290.0, 0.005018894298047692
1291.0, 0.0037259569686100445
1292.0, 0.0031290705044984568
1293.0, 0.00310870823335447
1294.0, 0.003157549713629719
1295.0, 0.0030694065332624158
1296.0, 0.002972262650105388
1297.0, 0.0030729858444989216
1298.0, 0.002223434940048878
1299.0, 0.002333968914315335
1300.0, 0.003015560462508225
1301.0, 0.002984475559028635
1302.0, 0.0015077121720244193
1303.0, 0.003647662726475622
1304.0, 0.0016974954664309128
1305.0, 0.0020852213919378476
1306.0, 0.002131687827794143
1307.0, 0.0013327683912813238
1308.0, 0.0020684321441227964
1309.0, 0.0049005300341026774
1310.0, 0.003057370764536357
1311.0, 0.0024841453073510475
1312.0, 0.0029821106794755753
1313.0, 0.0030625791910868084
1314.0, 0.0017790530983162395
1315.0, 0.0031121064881842755
1316.0, 0.003607804752096601
1317.0, 0.0023610952521786414
1318.0, 0.0025959458676390115
1319.0, 0.003711139257796436
1320.0, 0.0024922859016513724
1321.0, 0.0017380696415383468
1322.0, 0.002452782137536323
1323.0, 0.00209785844008176
1324.0, 0.001897016747662578
1325.0, 0.0020595297761047127
1326.0, 0.0019710326238191085
1327.0, 0.0025936092192255216
1328.0, 0.0029441176205958017
1329.0, 0.003049825069925116
1330.0, 0.0035895398125939198
1331.0, 0.0036487788477215866
1332.0, 0.002391143314987181
1333.0, 0.0033682296739809417
1334.0, 0.0035627772906248237
1335.0, 0.0030891084570727075
1336.0, 0.0031407345097428756
1337.0, 0.0035645161764960354
1338.0, 0.0038687075398862545
1339.0, 0.005131704055383958
1340.0, 0.004276352316882321
1341.0, 0.0035024942696470465
1342.0, 0.003134561570606462
1343.0, 0.0037032983139297718
1344.0, 0.004819619439533696
1345.0, 0.003997083380438528
1346.0, 0.004780936713022552
1347.0, 0.004379777907182718
1348.0, 0.003971308091518396
1349.0, 0.004558768990816269
1350.0, 0.005836953205628587
1351.0, 0.00566784623804329
1352.0, 0.004814315671736385
1353.0, 0.004423458524136061
1354.0, 0.0045204390453568895
1355.0, 0.0041878383868693995
1356.0, 0.004018426971516956
1357.0, 0.005979414020473367
1358.0, 0.003655124639747406
1359.0, 0.0051438908526258926
1360.0, 0.004923416706448268
1361.0, 0.004668214245898695
1362.0, 0.005080887261930862
1363.0, 0.005150020531785355
1364.0, 0.007068722184721389
1365.0, 0.0052896005397086695
1366.0, 0.0057552604292649
1367.0, 0.006275542287755988
1368.0, 0.0058438753048807995
1369.0, 0.0050050452603706275
1370.0, 0.004383638694643167
1371.0, 0.00463079239938272
1372.0, 0.005652254644974642
1373.0, 0.005336026933027713
1374.0, 0.0041805293321087855
1375.0, 0.0036879633114392887
1376.0, 0.0044175260966258754
1377.0, 0.0022113228059481528
1378.0, 0.0024359276881485868
1379.0, 0.001806592754826676
1380.0, 0.0014721603245313308
1381.0, 0.0024228392265170247
1382.0, 0.003411642884507232
1383.0, 0.0014626638619240529
1384.0, 0.004442067082099561
1385.0, 0.003630129652827295
1386.0, 0.0038415551499651683
1387.0, 0.004822423055656618
1388.0, 0.002590742632395312
1389.0, 0.002421126051390409
1390.0, 0.0030656884370404065
1391.0, 0.002335757139507602
1392.0, 0.002708128791852931
1393.0, 0.0040405561010654414
1394.0, 0.004384285970798094
1395.0, 0.0018101594885564598
1396.0, 0.003637615587062033
1397.0, 0.004275694253818322
1398.0, 0.0030317762535956444
1399.0, 0.003162674797096822
1400.0, 0.004148895150160398
1401.0, 0.0013094268165596262
1402.0, 0.0018791462868845477
1403.0, 0.003667763751614139
1404.0, 0.0036658255286512015
1405.0, 0.00337628976072833
1406.0, 0.0035482861763979833
1407.0, 0.0035016404728418315
1408.0, 0.0014884640703236808
1409.0, 0.003065129320046048
1410.0, 0.002581562887682589
1411.0, 0.0018048810134880437
1412.0, 0.002062287086523531
1413.0, 0.0030511811768336485
1414.0, 0.002768260651585875
1415.0, 0.0018623624555277503
1416.0, 0.0022380925223585185
1417.0, 0.0019998473120823295
1418.0, 0.0022615401445506816
1419.0, 0.0025622547678032462
1420.0, 0.001681166408777134
1421.0, 0.0015577791018286456
1422.0, 0.001663692694462015
1423.0, 0.0022418382707391927
1424.0, 0.0025660599775582387
1425.0, 0.0021947154195841832
1426.0, 0.0017539325454539218
1427.0, 0.0027317720989351924
1428.0, 0.001631423177523131
1429.0, 0.0014331238566013711
1430.0, 0.0024095396655195523
1431.0, 0.00331211267898272
1432.0, 0.0029307017217391493
1433.0, 0.0015646739493113946
1434.0, 0.0029972920997109404
1435.0, 0.002296136735640484
1436.0, 0.0025401423277413844
1437.0, 0.004292217584573978
1438.0, 0.0045559801877710126
1439.0, 0.002462606790617608
1440.0, 0.0016739804903089666
1441.0, 0.0036678531140144775
1442.0, 0.003064196994893603
1443.0, 0.0023861324315257353
1444.0, 0.0029885873526135317
1445.0, 0.0031980178871721153
1446.0, 0.0015745293892497868
1447.0, 0.0016918435778874197
1448.0, 0.0034768750661176313
1449.0, 0.0026886464442149134
1450.0, 0.003956335679137326
1451.0, 0.004255870721002256
1452.0, 0.003005460950493013
1453.0, 0.0034318789256234956
1454.0, 0.0032447394287720395
1455.0, 0.0017082403305726658
1456.0, 0.0021659532116545203
1457.0, 0.002119252244594129
1458.0, 0.0012546909824867939
1459.0, 0.0004783505523855592
1460.0, 0.00040420268591716176
1461.0, 0.0004508377908406796
1462.0, 0.00047411299475862476
1463.0, 0.0009254379926691066
1464.0, 0.0007957445721483107
1465.0, 0.000336972258471626
1466.0, 0.0003473620378290441
1467.0, 0.00036741394102247677
1468.0, 0.0019503783915013058
1469.0, 0.0012686692654152328
1470.0, 0.0008999651384871555
1471.0, 0.0015940465690189101
1472.0, 0.0020061860365771416
1473.0, 0.000988497797475467
1474.0, 0.0035111222563209946
1475.0, 0.0023101004627927198
1476.0, 0.0012184000822085478
1477.0, 0.0009159678335610445
1478.0, 0.0014712552994255196
1479.0, 0.002109244227257581
1480.0, 0.0018533374990714812
1481.0, 0.0028343445016185895
1482.0, 0.0035172667687649217
1483.0, 0.0019666508036497187
1484.0, 0.0028024333014554864
1485.0, 0.003577722087487031
1486.0, 0.002117614798452518
1487.0, 0.0029111679238835314
1488.0, 0.00606561303297901
1489.0, 0.002486425396620779
1490.0, 0.003187235593562588
1491.0, 0.003865414096987478
1492.0, 0.002979002475919073
1493.0, 0.0028164834406991914
1494.0, 0.005833472340577556
1495.0, 0.0037827522529496837
1496.0, 0.0027613530846749028
1497.0, 0.00420766600186463
1498.0, 0.004232417377927397
1499.0, 0.00251174358865489
1500.0, 0.0023426174633246486
1501.0, 0.006370171185582838
1502.0, 0.0044445673892195385
1503.0, 0.004873531410712878
1504.0, 0.006383282180142352
1505.0, 0.005207600119421486
1506.0, 0.003366416679127581
1507.0, 0.00473706211890203
1508.0, 0.003948318666572124
1509.0, 0.0016049684370870222
1510.0, 0.0031473393107401123
1511.0, 0.0030400570525808105
1512.0, 0.00232182867647648
1513.0, 0.0026145138873476955
1514.0, 0.0031719425658401244
1515.0, 0.00015008802183423087
1516.0, 0.002646186150152224
1517.0, 0.004375326633722082
1518.0, 0.0020476862211711066
1519, 0.0
1520, 0.0
1521, 0.0
1522, 0.0
1523, 0.0
1524, 0.0
1525, 0.0
1526, 0.0
1527, 0.0
1528, 0.0
1529, 0.0
1530, 0.0
1531, 0.0
1532, 0.0
1533, 0.0
1534, 0.0
1535, 0.0
1536, 0.0
1537, 0.0
1538, 0.0
1539, 0.0
1540, 0.0
1541, 0.0
1542, 0.0
1543, 0.0
1544, 0.0
1545, 0.0
1546, 0.0
1547, 0.0
1548, 0.0
1549, 0.0
1550, 0.0
1551, 0.0
1552, 0.0
1553, 0.0
1554, 0.0
1555, 0.0
1556, 0.0
1557, 0.0
1558, 0.0
1559, 0.0
1560, 0.0
1561, 0.0
1562, 0.0
1563, 0.0
1564, 0.0
1565, 0.0
1566, 0.0
1567, 0.0
1568, 0.0
1569, 0.0
1570, 0.0
1571, 0.0
1572, 0.0
1573, 0.0
1574, 0.0
1575, 0.0
1576, 0.0
1577, 0.0
1578, 0.0
1579, 0.0
1580, 0.0
1581, 0.0
1582, 0.0
1583, 0.0
1584, 0.0
1585, 0.0
1586, 0.0
1587, 0.0
1588, 0.0
1589, 0.0
1590, 0.0
1591, 0.0
1592, 0.0
1593, 0.0
1594, 0.0
1595, 0.0
1596, 0.0
1597, 0.0
1598, 0.0
1599, 0.0
