30, 0.0
31, 0.0
32, 0.0
33, 0.0
34, 0.0
35, 0.0
36, 0.0
37, 0.0
38, 0.0
39, 0.0
40, 0.0
41, 0.0
42, 0.0
43, 0.0
44, 0.0
45, 0.0
46, 0.0
47, 0.0
48, 0.0
49, 0.0
50, 0.0
51, 0.0
52, 0.0
53, 0.0
54, 0.0
55, 0.0
56, 0.0
57, 0.0
58, 0.0
59, 0.0
60, 0.0
61, 0.0
62, 0.0
63, 0.0
64, 0.0
65, 0.0
66, 0.0
67, 0.0
68, 0.0
69, 0.0
70, 0.0
71, 0.0
72, 0.0
73, 0.0
74, 0.0
75, 0.0
76, 0.0
77, 0.0
78, 0.0
79, 0.0
80, 0.0
81, 0.0
82, 0.0
83, 0.0
84, 0.0
85, 0.0
86, 0.0
87, 0.0
88, 0.0
89, 0.0
90, 0.0
91, 0.0
92, 0.0
93, 0.0
94, 0.0
95, 0.0
96, 0.0
97, 0.0
98, 0.0
99, 0.0
100, 0.0
101, 0.0
102, 0.0
103, 0.0
104, 0.0
105, 0.0
106, 0.0
107, 0.0
108, 0.0
109, 0.0
110, 0.0
111, 0.0
112, 0.0
113, 0.0
114, 0.0
115, 0.0
116, 0.0
117, 0.0
118, 0.0
119, 0.0
120, 0.0
121, 0.0
122, 0.0
123, 0.0
124, 0.0
125, 0.0
126, 0.0
127, 0.0
128, 0.0
129, 0.0
130, 0.0
131, 0.0
132, 0.0
133, 0.0
134, 0.0
135, 0.0
136, 0.0
137, 0.0
138, 0.0
139, 0.0
140, 0.0
141, 0.0
142, 0.0
143, 0.0
144, 0.0
145, 0.0
146, 0.0
147, 0.0
148, 0.0
149.0, 0.0005071811740462822
150.0, 0.00033340565605999544
151.0, 0.0015424476872752998
152.0, 0.0028059391750122216
153.0, 0.003843040952459963
154.0, 0.0009735607023224294
155.0, 0.0007726214013394776
156.0, 0.0030705226536553807
157.0, 0.0038675746947589447
158.0, 0.0024398517664782067
159.0, 0.000972998266650191
160.0, 0.0014801353118344348
161.0, 0.004702849173116374
162.0, 0.010161592052862864
163.0, 0.014023139743932333
164.0, 0.017556216003849216
165.0, 0.02176647280284744
166.0, 0.026612088781319685
167.0, 0.029410969361318384
168.0, 0.032730323153656635
169.0, 0.036703393617017806
170.0, 0.0406950485674967
171.0, 0.04503355279657816
172.0, 0.0523462749475609
173.0, 0.05979107196693958
174.0, 0.06929864150612022
175.0, 0.08362346167089374
176.0, 0.09957103396332774
177.0, 0.11342467859235293
178.0, 0.1229336386792854
179.0, 0.12457525588813266
180.0, 0.11399806598072933
181.0, 0.10601536994696456
182.0, 0.09513635193099738
183.0, 0.08715803509162066
184.0, 0.08924489597711577
185.0, 0.09266033194418465
186.0, 0.09795445423988158
187.0, 0.10991844367591688
188.0, 0.12603642086595002
189.0, 0.13376807988347347
190.0, 0.13702874044630514
191.0, 0.13127187575059734
192.0, 0.11596848677535297
193.0, 0.09364553794297345
194.0, 0.07073215033337367
195.0, 0.052103506357017035
196.0, 0.03795563996697799
197.0, 0.028256431056855536
198.0, 0.02195324042995479
199.0, 0.015364397737762249
200.0, 0.012587379959419049
201.0, 0.01014432424432882
202.0, 0.006621243979168133
203.0, 0.006904494641706299
204.0, 0.005699650185433591
205.0, 0.004080891274567978
206.0, 0.0033651342300432016
207.0, 0.0037942591183642944
208.0, 0.0022807761143437033
209.0, 0.002098818104511419
210.0, 0.0023177752967697748
211.0, 0.00216527652671651
212.0, 0.0022643981378229834
213.0, 0.003398880345695096
214.0, 0.0037857432113036853
215.0, 0.00311944511976383
216.0, 0.0021197718034083367
217.0, 0.004281772765245305
218.0, 0.005824574140714515
219.0, 0.006440611103980932
220.0, 0.007010282178376837
221.0, 0.008803094602738556
222.0, 0.010067559062379468
223.0, 0.01200885392431627
224.0, 0.013900121075770572
225.0, 0.01559366029722325
226.0, 0.018599265082346765
227.0, 0.021633697027805886
228.0, 0.02368899589263397
229.0, 0.027492990647898518
230.0, 0.03328614892112438
231.0, 0.03578689330049044
232.0, 0.038445161489739865
233.0, 0.038229124396779376
234.0, 0.034713245794550054
235.0, 0.029309427502567632
236.0, 0.022183886783098964
237.0, 0.01698998399073059
238.0, 0.011550590301681471
239.0, 0.005788608017780914
240.0, 0.002658766950413425
241.0, 0.0009962473923300279
242.0, 0.0005465854452789736
243.0, 0.0005422869922870508
244.0, 0.00026575880288657406
245.0, 0.000835316466070604
246.0, 0.0012129431171590897
247.0, 0.0010896475931451459
248.0, 0.001236612489111965
249.0, 0.002323263755729637
250.0, 0.0033900020852091566
251.0, 0.00386795582372382
252.0, 0.0028475676630782105
253.0, 0.001957366302338907
254.0, 0.0027293063757856395
255.0, 0.0014313979207412025
256.0, 0.002963991226784467
257.0, 0.0032514848469052185
258.0, 0.0013551488343793796
259.0, 0.0009914682953180783
260.0, 0.0014606646588231577
261.0, 0.001624356114387162
262.0, 0.0005509560200006436
263.0, 0.0015811212595738442
264.0, 0.003348105462695377
265.0, 0.0008092030166945338
266.0, 0.0021471668808648527
267.0, 0.005008841853961292
268.0, 0.005440199366627549
269.0, 0.006559581796486829
270.0, 0.007921344787263258
271.0, 0.008900184833006048
272.0, 0.010691729795726135
273.0, 0.014181734501957572
274.0, 0.016165617647152044
275.0, 0.01715307824946215
276.0, 0.019254366869945534
277.0, 0.022253548936498554
278.0, 0.024962093997189735
279.0, 0.02904831157063443
280.0, 0.0319661228716457
281.0, 0.03533136041580124
282.0, 0.03931674141659483
283.0, 0.042668704273340255
284.0, 0.04932125426321648
285.0, 0.05468963031511349
286.0, 0.06132440896297135
287.0, 0.06902923728566371
288.0, 0.07339758683170661
289.0, 0.08018238750239923
290.0, 0.08922689888129691
291.0, 0.09989553275611342
292.0, 0.11039571335223236
293.0, 0.11926612863429531
294.0, 0.13078195138589946
295.0, 0.14502624213344392
296.0, 0.1576569928687701
297.0, 0.16732605667521447
298.0, 0.17690068037304604
299.0, 0.1889792481724651
300.0, 0.20383797501233186
301.0, 0.21852501804254254
302.0, 0.2312588201843452
303.0, 0.24128707832544363
304.0, 0.24178847631477138
305.0, 0.234364359096146
306.0, 0.22457730079664884
307.0, 0.21247429679326904
308.0, 0.1917455450174694
309.0, 0.16557119982920834
310.0, 0.14425282124816521
311.0, 0.12528841157083714
312.0, 0.10568758508943978
313.0, 0.0914592690483794
314.0, 0.08130629190535704
315.0, 0.07199952882453187
316.0, 0.06354858066078896
317.0, 0.056493526096731486
318.0, 0.0510534091328653
319.0, 0.04955560318833617
320.0, 0.04883169786056103
321.0, 0.050392981118002035
322.0, 0.054304678246684515
323.0, 0.056490074077266104
324.0, 0.06543816415278474
325.0, 0.07109070184751791
326.0, 0.07441171470196986
327.0, 0.08037345775937703
328.0, 0.09145865564684227
329.0, 0.10108004818468222
330.0, 0.10783079043305271
331.0, 0.114371852674589
332.0, 0.12252384490946924
333.0, 0.13091059865488683
334.0, 0.14015667240108767
335.0, 0.15191972357901437
336.0, 0.16331346762076934
337.0, 0.17024395319780544
338.0, 0.17048956345655772
339.0, 0.1656711706091313
340.0, 0.15616934021910306
341.0, 0.1407904283520723
342.0, 0.12111741765586365
343.0, 0.1010136501656993
344.0, 0.08566931707542305
345.0, 0.07421698462880397
346.0, 0.06505202287369755
347.0, 0.05832686547206051
348.0, 0.054484904566884436
349.0, 0.050795011735651145
350.0, 0.04789687053261576
351.0, 0.049493983757860176
352.0, 0.05341446750181706
353.0, 0.05666357672066057
354.0, 0.06465947475112317
355.0, 0.07035117226285185
356.0, 0.07851925902582563
357.0, 0.0896372354657893
358.0, 0.10294961166051715
359.0, 0.12166484467200145
360.0, 0.13805183496738863
361.0, 0.15390907548616964
362.0, 0.17354688566012677
363.0, 0.19801839477417355
364.0, 0.22204493793853744
365.0, 0.24901165339479844
366.0, 0.27626842329000423
367.0, 0.3087029509712159
368.0, 0.34664769007845053
369.0, 0.3811580786919268
370.0, 0.4195768705736905
371.0, 0.45430802378817536
372.0, 0.47961593094832106
373.0, 0.48809994416352825
374.0, 0.4761949419381762
375.0, 0.456598594164084
376.0, 0.4219584264753459
377.0, 0.37501296911287635
378.0, 0.32054591123294224
379.0, 0.2643238606357042
380.0, 0.21733844875784936
381.0, 0.17911484348359175
382.0, 0.1482021998375422
383.0, 0.1217906451406576
384.0, 0.09953438116366461
385.0, 0.08419153013463142
386.0, 0.067980563125641
387.0, 0.05726083736661751
388.0, 0.04906281039991884
389.0, 0.04070338801319922
390.0, 0.03397353324398334
391.0, 0.026178229377806367
392.0, 0.023252040171048115
393.0, 0.02109728066558854
394.0, 0.017600014511947416
395.0, 0.014082369880350254
396.0, 0.011833000533878524
397.0, 0.009439370935386998
398.0, 0.008048005465778399
399.0, 0.007601964632669694
400.0, 0.006402723334205462
401.0, 0.003419779867564243
402.0, 0.0026505120819550025
403.0, 0.0002626955398053911
404.0, 0.00016586031213626203
405.0, 0.00024054446931526062
406.0, 0.002510075286278662
407.0, 0.002706239752968471
408.0, 0.0011019005422643617
409.0, 0.000986447315086617
410.0, 0.002060607950117977
411.0, 0.0015359630291548868
412.0, 0.0002927887655994346
413.0, 0.0023140018606868135
414.0, 0.004245972712536709
415.0, 0.0026283752377793575
416.0, 0.0004927290471329037
417.0, 0.0005550630914692144
418.0, 0.0035663414329746078
419.0, 0.00316614219590825
420.0, 0.002373545455457662
421.0, 0.0015044638378066064
422.0, 0.0001399506886358093
423.0, 0.00030713544870505325
424.0, 0.00054836459905807
425.0, 0.0015619367140928795
426.0, 0.0011392619146818317
427.0, 8.087509361025799e-05
428.0, 0.0002994073930287044
429.0, 0.00018597511206187243
430.0, 0.0008276651143711673
431.0, 0.0022653679017151985
432.0, 0.004212892765800738
433.0, 0.0050461676039652605
434.0, 0.0029934223201707787
435.0, 0.0051807029234177395
436.0, 0.006572293465482135
437.0, 0.007288075572228505
438.0, 0.007649695586975092
439.0, 0.006303282433136579
440.0, 0.0035916872023502083
441.0, 0.0035209773456891334
442.0, 0.003616783901686589
443.0, 0.0036257608630847387
444.0, 0.004167815261703037
445.0, 0.00406391953101616
446.0, 0.0028233180470502856
447.0, 0.001724597899079894
448.0, 0.0007856971539083635
449.0, 0.00018645628511205592
450.0, 0.0006742445519320482
451.0, 0.002689216108894294
452.0, 0.0038748406244219946
453.0, 0.0038383863823204726
454.0, 0.003130276169790894
455.0, 0.0025746323277095196
456.0, 0.0027678449736322297
457.0, 0.002664904362395711
458.0, 0.0024705989972939072
459.0, 0.002443630828740452
460.0, 0.0023380554440710897
461.0, 0.002266681823672151
462.0, 0.0035308717689474076
463.0, 0.003302016485360251
464.0, 0.0044674431256887725
465.0, 0.0032208026212102447
466.0, 0.0010617575242087157
467.0, 0.002844575189440175
468.0, 0.00570606743671336
469.0, 0.004791665077394974
470.0, 0.0032090140181463746
471.0, 0.0031506485021326283
472.0, 0.004387205110660111
473.0, 0.0050060467941314005
474.0, 0.004816190007946356
475.0, 0.002392570421515616
476.0, 0.0035644281658257495
477.0, 0.005255655435665109
478.0, 0.0036207026604076105
479.0, 0.00462763774843268
480.0, 0.0086316482454286
481.0, 0.011083037820660864
482.0, 0.013728285895132529
483.0, 0.014345620678491124
484.0, 0.01216906309930177
485.0, 0.016944152192186743
486.0, 0.018395473438972448
487.0, 0.021643885594245682
488.0, 0.023874082448648925
489.0, 0.025498449736053818
490.0, 0.029984546536402017
491.0, 0.032631311439981284
492.0, 0.031075679676522344
493.0, 0.03378077186454313
494.0, 0.03551389916235666
495.0, 0.03262024228040818
496.0, 0.028289058621743544
497.0, 0.024929925039384543
498.0, 0.020315133115499834
499.0, 0.019124227037375596
500.0, 0.017239997624607675
501.0, 0.01280327920587416
502.0, 0.011139615108778212
503.0, 0.012639573729087097
504.0, 0.01210521317957658
505.0, 0.012371407036659968
506.0, 0.01239880648013905
507.0, 0.012969029658261598
508.0, 0.016655240342852526
509.0, 0.017130398701900966
510.0, 0.013871829266645893
511.0, 0.017020647339282057
512.0, 0.021176075165932645
513.0, 0.021990446691805016
514.0, 0.025823829018664136
515.0, 0.031337639160111855
516.0, 0.031479106782943536
517.0, 0.034413023343417434
518.0, 0.03734825927289104
519.0, 0.03790453017382806
520.0, 0.039804943040239724
521.0, 0.03922134330509661
522.0, 0.03926114450063244
523.0, 0.03888476198755921
524.0, 0.035200095217763655
525.0, 0.029147010096418218
526.0, 0.025215807901365097
527.0, 0.021640002768129604
528.0, 0.017282743485514198
529.0, 0.014874520790714437
530.0, 0.01340603656163414
531.0, 0.011174628764603041
532.0, 0.00956590761684806
533.0, 0.013374328161129654
534.0, 0.011218441649108088
535.0, 0.009319883784804145
536.0, 0.01000067291914115
537.0, 0.011333718944594515
538.0, 0.011790278979818089
539.0, 0.013939607800323855
540.0, 0.016998073566670206
541.0, 0.018102051315397702
542.0, 0.02121391145699446
543.0, 0.023119848216964417
544.0, 0.021752941744582192
545.0, 0.026802925214038945
546.0, 0.02901982623529816
547.0, 0.03204902427407394
548.0, 0.036319604211036374
549.0, 0.03989272418932071
550.0, 0.04244316093656991
551.0, 0.04565902712205091
552.0, 0.046309312551008106
553.0, 0.041777661577099515
554.0, 0.036409352963818635
555.0, 0.03153463328591899
556.0, 0.027135166559282196
557.0, 0.02342063524743192
558.0, 0.017188874397224416
559.0, 0.01376614285005755
560.0, 0.01181510298628404
561.0, 0.009567597401702332
562.0, 0.007360385104347211
563.0, 0.006116375905129437
564.0, 0.005317531948296726
565.0, 0.005302648507157532
566.0, 0.004249252286382194
567.0, 0.0030051373056190133
568.0, 0.002685319758459875
569.0, 0.002592168881603857
570.0, 0.001013576208756909
571.0, 0.002470763323339814
572.0, 0.0033498093003642253
573.0, 0.002595583494725221
574.0, 0.001209314464632172
575.0, 0.0013775399578643357
576.0, 0.0030842842208038683
577.0, 0.0006094232403104724
578.0, 0.001161657823993677
579.0, 0.0002544140805940776
580.0, 0.00033431942183590764
581.0, 0.0011663386498155328
582.0, 8.10655888327539e-05
583.0, 0.00010101409450272087
584.0, 0.00046746426776713297
585.0, 0.00021340343102284342
586.0, 0.0011149965950496118
587.0, 0.0012129301928562035
588.0, 0.0018298752519543438
589.0, 0.004206170391651648
590.0, 0.0008104772055941591
591.0, 0.0005416281533465495
592.0, 0.0009281127556913008
593.0, 0.0008122015752427877
594.0, 0.000808312905565919
595.0, 0.00089693809526002
596.0, 0.00041828170955887227
597.0, 0.001300720210969327
598.0, 0.00155655029910731
599.0, 0.0007722500001996449
600.0, 0.0010881162695464753
601.0, 0.0022502079883082397
602.0, 0.0023729889912025262
603.0, 0.0010854678814416095
604.0, 0.00225775894301838
605.0, 0.0010662923692944639
606.0, 0.0010669944591112333
607.0, 0.0038424240442785093
608.0, 0.005002482295089956
609.0, 0.004267380006527815
610.0, 0.003183355511647332
611.0, 0.003760311412555963
612.0, 0.004408000625498076
613.0, 0.005684581694237256
614.0, 0.0072743643904803375
615.0, 0.007244476938732603
616.0, 0.007816423034043665
617.0, 0.005754177534756419
618.0, 0.00690235703764773
619.0, 0.008206439030151528
620.0, 0.009291426380385865
621.0, 0.011691338114662204
622.0, 0.01278667936207929
623.0, 0.013789206866815257
624.0, 0.014146168273920698
625.0, 0.01642521313542017
626.0, 0.01937782954344823
627.0, 0.02028442299093926
628.0, 0.020072820681766388
629.0, 0.02297379318565612
630.0, 0.024809658068768645
631.0, 0.0268463699670757
632.0, 0.029681936048001213
633.0, 0.03288868284772158
634.0, 0.03659763098202762
635.0, 0.04041028254309719
636.0, 0.04041427472304677
637.0, 0.04402967162029866
638.0, 0.05306100987095102
639.0, 0.05982330330872048
640.0, 0.06732039048663604
641.0, 0.07970814850693238
642.0, 0.09102300094383728
643.0, 0.10550304690098254
644.0, 0.12278341411399678
645.0, 0.1433344186611263
646.0, 0.16819295358484845
647.0, 0.1963443475978855
648.0, 0.22807119035840534
649.0, 0.26467429338073456
650.0, 0.30364112198316795
651.0, 0.3444870841545213
652.0, 0.39451173921620764
653.0, 0.4453020584750887
654.0, 0.495786080114068
655.0, 0.5425026726504272
656.0, 0.5749164971222298
657.0, 0.5987656195110435
658.0, 0.5997159858680432
659.0, 0.5747137042279519
660.0, 0.5311759634025944
661.0, 0.4781500010532806
662.0, 0.4172069678674487
663.0, 0.34935663614142115
664.0, 0.29243260940821725
665.0, 0.24193343384235033
666.0, 0.19991909215351406
667.0, 0.16485830188047543
668.0, 0.13699877760149606
669.0, 0.11651859541147208
670.0, 0.10089076593078355
671.0, 0.08832500142155045
672.0, 0.0758140076580484
673.0, 0.06431077779983173
674.0, 0.05743788021978589
675.0, 0.050327861895585656
676.0, 0.04204541114298361
677.0, 0.039036813106515786
678.0, 0.03433950457042398
679.0, 0.02938460184135181
680.0, 0.027342641552514004
681.0, 0.025016890102953337
682.0, 0.02287431292054768
683.0, 0.021229169872134843
684.0, 0.018559191968338228
685.0, 0.016425362957495818
686.0, 0.015653602071970394
687.0, 0.014794924502674903
688.0, 0.012286620333169173
689.0, 0.011656958221175562
690.0, 0.011870333084679136
691.0, 0.010823524592363814
692.0, 0.011257199848529536
693.0, 0.010116888293965719
694.0, 0.011419087074352866
695.0, 0.013185987908985383
696.0, 0.011801482884199369
697.0, 0.010975608383657083
698.0, 0.012418930848185244
699.0, 0.012206333947048684
700.0, 0.011103942047386491
701.0, 0.011042152759748932
702.0, 0.011490826004865508
703.0, 0.01045665607778616
704.0, 0.007734130945370514
705.0, 0.0053406727279998135
706.0, 0.004469561548305658
707.0, 0.003381484804080375
708.0, 0.004625022854648726
709.0, 0.0038854288081947336
710.0, 0.002756016919186555
711.0, 0.0017219834677045993
712.0, 0.00047097536062716615
713.0, 0.00034807400997303236
714.0, 0.00240129539523573
715.0, 0.0021884801351185626
716.0, 0.0019103525788634831
717.0, 0.0008540733180397572
718.0, 0.0006700841028985154
719.0, 0.0012625163468220383
720.0, 0.0007087059065439008
721.0, 0.001835517298665988
722.0, 0.0013970533374698347
723.0, 0.00044878165692162396
724.0, 0.0006204876440161893
725.0, 0.0017333441455978356
726.0, 0.0012311005256155736
727.0, 0.000369484675274753
728.0, 0.001020631198656133
729.0, 0.0016790544786915548
730.0, 0.0003808895755448639
731.0, 0.0004286955760894653
732.0, 0.0007863182775918481
733.0, 0.0003227757352775983
734.0, 0.0010940111069394653
735.0, 0.001344514235273379
736.0, 0.0013558585546131028
737.0, 0.0017714824704385358
738.0, 0.0003671247717333488
739.0, 0.0002223498316409679
740.0, 0.000942479891742427
741.0, 0.0008219069803449268
742.0, 0.0005191154466604389
743.0, 0.0012385092952256196
744.0, 0.002132155053124636
745.0, 0.0014843013983163844
746.0, 0.001773261971644002
747.0, 0.0003544911857383945
748.0, 0.0004248091307472167
749.0, 0.0002834744875699266
750.0, 0.0005929208426959335
751.0, 0.0012487740053798073
752.0, 0.0009836094415937215
753.0, 0.0014448125211452391
754.0, 0.003537261038301626
755.0, 0.002048693602670368
756.0, 0.00043716647528987734
757.0, 0.00018799509205840223
758.0, 0.00015974792237447824
759.0, 0.00033481228284919874
760.0, 0.0013643826022449732
761.0, 0.0017339435010502733
762.0, 0.0021705316907038082
763.0, 0.0014822964046804098
764.0, 0.0009129813706325804
765.0, 0.0008736284168963386
766.0, 0.0002905813281141271
767.0, 0.0009633790964957839
768.0, 0.0036086374899093193
769.0, 0.002039931055935529
770.0, 0.0032316412229320694
771.0, 0.0012527215242307541
772.0, 0.0013635065505519627
773.0, 0.0034458662579105854
774.0, 0.0017843141123451201
775.0, 0.000424940155185422
776.0, 0.0020364617835424387
777.0, 0.0026390072133310612
778.0, 0.0020370626586625053
779.0, 0.00020046679421813668
780.0, 0.00046483161980275217
781.0, 0.0004909526355738144
782.0, 0.0018866742991377012
783.0, 0.002428488490996865
784.0, 0.0012168634382577872
785.0, 0.002902534061521623
786.0, 0.0015007231079454837
787.0, 0.0011749618278044489
788.0, 0.0007770970677586573
789.0, 0.0009978181610655723
790.0, 0.0018255402868977083
791.0, 0.002999942989682317
792.0, 0.002586359930637183
793.0, 0.000951997219621977
794.0, 0.0012215983235463052
795.0, 0.002281441172330127
796.0, 0.0012170145545817531
797.0, 0.0025797415352869883
798.0, 0.0008836760978094924
799.0, 0.0003807883806955506
800.0, 0.0006178391693594644
801.0, 0.0010174152989221455
802.0, 0.0005696359628222756
803.0, 0.002489443358808439
804.0, 0.0019336282031867033
805.0, 0.0015121771950844082
806.0, 0.001092333220275654
807.0, 0.0004413348478726916
808.0, 0.0019559834200285186
809.0, 0.0028441890701493165
810.0, 0.0005764074110755569
811.0, 0.0028631512929659965
812.0, 0.0005314771482960956
813.0, 0.0007392765008253429
814.0, 0.00022275412642953633
815.0, 0.0013007922039560927
816.0, 0.0016082323757250696
817.0, 0.0006084726091420763
818.0, 0.0012631313378873945
819.0, 0.0032529962514738224
820.0, 0.0008366592528947375
821.0, 0.0012037280908962292
822.0, 0.0017934807460693294
823.0, 0.0007904406737975694
824.0, 0.0006509692947051217
825.0, 0.000299459672693133
826.0, 0.00040404159458097875
827.0, 0.0011739943053458094
828.0, 0.001279316686125888
829.0, 0.001884412812575538
830.0, 0.0012176892989769518
831.0, 0.0013147064587504032
832.0, 0.003888759902410069
833.0, 0.00418268717134416
834.0, 0.00234963716117975
835.0, 0.001538295119721411
836.0, 0.00259004662665606
837.0, 0.003612678094005232
838.0, 0.004504214251774607
839.0, 0.006990546056990878
840.0, 0.00601364950288468
841.0, 0.009228653576898734
842.0, 0.01189776717781907
843.0, 0.014210950148418616
844.0, 0.015136059681666744
845.0, 0.01712483638585638
846.0, 0.022196220186604974
847.0, 0.02624405581375226
848.0, 0.027828103491321858
849.0, 0.02766957642455668
850.0, 0.03036349601081531
851.0, 0.03129719636525715
852.0, 0.028771350275680833
853.0, 0.025073328937743763
854.0, 0.022615561452148148
855.0, 0.01955750512412863
856.0, 0.01545073917380728
857.0, 0.013324856447741455
858.0, 0.009861118663803955
859.0, 0.008322184342553211
860.0, 0.007824811180965785
861.0, 0.007293352570320866
862.0, 0.005208255219707138
863.0, 0.0025029130297481526
864.0, 0.0024288812264102334
865.0, 0.004451990942289386
866.0, 0.004363844667165808
867.0, 0.005096362979755674
868.0, 0.004655177561468877
869.0, 0.0016452895514227242
870.0, 0.002235921244494613
871.0, 0.002414409857343772
872.0, 0.0018382909160326126
873.0, 0.0004311524790526126
874.0, 0.0010827938128139896
875.0, 0.0038667508588984254
876.0, 0.0026669614290791926
877.0, 0.00222129611944882
878.0, 0.00047030132182887167
879.0, 0.0010659973718965977
880.0, 0.0022811986362748934
881.0, 0.004380349169467041
882.0, 0.0041951319862968545
883.0, 0.003068940763577261
884.0, 0.0039199491559513714
885.0, 0.0025189747236023783
886.0, 0.0006173500581977406
887.0, 0.003362117281388847
888.0, 0.0033125261803937187
889.0, 0.004776663248905237
890.0, 0.002626708257334323
891.0, 0.003819202974472361
892.0, 0.006174479708456651
893.0, 0.005040677672446484
894.0, 0.004408541801535203
895.0, 0.007045008076516715
896.0, 0.006964735418645585
897.0, 0.00828573824226957
898.0, 0.00963564164115369
899.0, 0.009790792930555533
900.0, 0.008367360397402416
901.0, 0.010011876767338675
902.0, 0.011970909227441554
903.0, 0.011454014267186926
904.0, 0.010061955982465547
905.0, 0.00949844204742416
906.0, 0.009872421376160475
907.0, 0.011881203701902418
908.0, 0.009164105190903217
909.0, 0.00913494856934148
910.0, 0.009198464265460254
911.0, 0.010042909943683294
912.0, 0.010766318424132686
913.0, 0.00853530231880217
914.0, 0.0073371905891566275
915.0, 0.008386533284612972
916.0, 0.007289506186680948
917.0, 0.006584581330488181
918.0, 0.005602660105289536
919.0, 0.004957022494436876
920.0, 0.004225060993036574
921.0, 0.004395122776966625
922.0, 0.001998440881174794
923.0, 0.0011207993408564377
924.0, 0.0022678895957629493
925.0, 0.002620781677484178
926.0, 0.003004407099658554
927.0, 0.003689322868487023
928.0, 0.0018617348000644501
929.0, 0.003702377079235639
930.0, 0.003551604502391006
931.0, 0.00038524547435989754
932.0, 0.0006361684851173339
933.0, 0.0012372718700913673
934.0, 0.0006734080609572235
935.0, 0.0006953385318130273
936.0, 0.0008561271536681868
937.0, 0.0008730708419660861
938.0, 0.0009250785824265334
939.0, 0.0016490534258647629
940.0, 0.003196211759400031
941.0, 0.0005591439587223366
942.0, 0.0003417930099036371
943.0, 0.0012642494004155868
944.0, 0.0011515337007989195
945.0, 0.0002936046687734229
946.0, 0.0011194370907012495
947.0, 0.0012424559937246637
948.0, 0.0008028401370344545
949.0, 0.00013748577290530715
950.0, 0.0004941688777546058
951.0, 0.0003313329085351034
952.0, 0.0008285011818432165
953.0, 0.0018832468992172125
954.0, 0.0012043712443877723
955.0, 0.00018193434514700518
956.0, 0.00030127390151608445
957.0, 0.00046726778489223345
958.0, 0.001635010214355482
959.0, 0.0019009007290905348
960.0, 0.0021170724318090887
961.0, 0.002226657461008983
962.0, 0.0011989263024679586
963.0, 0.0016216062460210191
964.0, 0.0001270711617356849
965.0, 0.002531110465853288
966.0, 0.005462390531362181
967.0, 0.005533403452567382
968.0, 0.005931987298351747
969.0, 0.006199711970407055
970.0, 0.0062044902212814255
971.0, 0.00576920805037897
972.0, 0.004353479330040839
973.0, 0.005021003161545985
974.0, 0.004764368996312868
975.0, 0.005608741727805461
976.0, 0.006984455924956313
977.0, 0.004656009422550723
978.0, 0.006428651549986674
979.0, 0.0061940918737285935
980.0, 0.007248017892960854
981.0, 0.011105569461581507
982.0, 0.012502941171994882
983.0, 0.012408333552114863
984.0, 0.014375608040466416
985.0, 0.015810335736173794
986.0, 0.01965577947153327
987.0, 0.021173517338681686
988.0, 0.021368941215345272
989.0, 0.02579274803322557
990.0, 0.030815677733246373
991.0, 0.03435933404108113
992.0, 0.037654469739148
993.0, 0.04414103588061216
994.0, 0.05038481320738203
995.0, 0.0564879727850531
996.0, 0.06682565562128726
997.0, 0.08035948555121705
998.0, 0.09749466134007788
999.0, 0.11764912921399173
1000.0, 0.1415247255945046
1001.0, 0.17695924232563262
1002.0, 0.22586303832115684
1003.0, 0.2835424297278629
1004.0, 0.34573879609875297
1005.0, 0.4166342520071253
1006.0, 0.4941059157126548
1007.0, 0.5888508377668249
1008.0, 0.7024448297363938
1009.0, 0.8133158096839279
1010.0, 0.9106072141644137
1011.0, 0.9860074660401655
1012.0, 0.9981784595466426
1013.0, 0.9484357900644658
1014.0, 0.8326295521975553
1015.0, 0.7002592229016793
1016.0, 0.5634713321413012
1017.0, 0.45160442469392253
1018.0, 0.3592165908563215
1019.0, 0.2866574656898731
1020.0, 0.23310316108286686
1021.0, 0.195774753251807
1022.0, 0.1711874414158205
1023.0, 0.15078684626037517
1024.0, 0.13688051527233414
1025.0, 0.12906427188180755
1026.0, 0.11647025559530706
1027.0, 0.1103804249516662
1028.0, 0.10147030923726208
1029.0, 0.09455222168281725
1030.0, 0.09109070048730215
1031.0, 0.0832876310406582
1032.0, 0.07551394535207964
1033.0, 0.06782681470094355
1034.0, 0.05948110896876013
1035.0, 0.050750489019753375
1036.0, 0.04412569952536237
1037.0, 0.04112688777791765
1038.0, 0.03384847479793029
1039.0, 0.030381323756497575
1040.0, 0.026769545114693396
1041.0, 0.026564846881719343
1042.0, 0.022172963883739856
1043.0, 0.01935720016384303
1044.0, 0.019411085765204297
1045.0, 0.015979159536473223
1046.0, 0.016387314328304956
1047.0, 0.016083759452344297
1048.0, 0.01352421303790686
1049.0, 0.012849402018483561
1050.0, 0.011019974724265693
1051.0, 0.008844040143006054
1052.0, 0.010206123328000843
1053.0, 0.009025783801231474
1054.0, 0.0077686247593781324
1055.0, 0.005375878948439639
1056.0, 0.005694597840326414
1057.0, 0.007827553096432457
1058.0, 0.00597155525743244
1059.0, 0.0029775621470988513
1060.0, 0.004119979653102076
1061.0, 0.004593522384759852
1062.0, 0.003209868311618178
1063.0, 0.0031811527062421633
1064.0, 0.004399155554451568
1065.0, 0.004822916729138184
1066.0, 0.004131621196790508
1067.0, 0.0028018016229945757
1068.0, 0.0005727523890965034
1069.0, 0.0004914629495233085
1070.0, 0.0027303948237670595
1071.0, 0.0008465546257769932
1072.0, 0.001555991254899582
1073.0, 0.0003785137725225742
1074.0, 0.0009535731544612839
1075.0, 0.0011479978415623055
1076.0, 0.002802193016823506
1077.0, 0.003176279136888644
1078.0, 0.00303211248914858
1079.0, 0.003005411688757112
1080.0, 0.0025982971758732173
1081.0, 0.002214143569832791
1082.0, 0.0009370797336724946
1083.0, 0.00042798292072432814
1084.0, 0.00044068306480540576
1085.0, 0.0012871360366902118
1086.0, 0.000658150391011724
1087.0, 0.0010547378990504756
1088.0, 0.0027103839980997272
1089.0, 0.0006862894423931064
1090.0, 0.0008124607332417103
1091.0, 0.001371191979251827
1092.0, 0.00021331222702936222
1093.0, 0.0011360684401894921
1094.0, 0.00023229162269550527
1095.0, 0.0014692907888025969
1096.0, 0.0027441278907597384
1097.0, 0.0012271623983409212
1098.0, 0.0017810459478527474
1099.0, 0.001839549689934785
1100.0, 0.0005402601061656922
1101.0, 0.001395159905491741
1102.0, 0.0002638696375060478
1103.0, 0.0008795539365872532
1104.0, 9.822802132146109e-05
1105.0, 0.0015294501673979808
1106.0, 0.0024286017048234946
1107.0, 0.001466044942762893
1108.0, 0.0003663503954631767
1109.0, 0.0015857949069352625
1110.0, 0.0010520437297109886
1111.0, 0.002251642820432536
1112.0, 0.002677852617789716
1113.0, 0.0023894951327793927
1114.0, 0.0032614224357284845
1115.0, 0.0025255968815696603
1116.0, 0.001574611636108475
1117.0, 0.0012043922764370042
1118.0, 0.002780079908320735
1119.0, 0.0009530228836676747
1120.0, 0.0016030536817651724
1121.0, 0.0007179611203878347
1122.0, 0.0013040159638087415
1123.0, 0.0007912603691817785
1124.0, 0.003190058931730499
1125.0, 0.005155505738601816
1126.0, 0.0033576581451731577
1127.0, 0.0014491941393841136
1128.0, 0.006944945073232789
1129.0, 0.005348945449106222
1130.0, 0.0002966366414614971
1131.0, 0.00036194327713231085
1132.0, 0.0014961398539654236
1133.0, 0.0012601350897955789
1134.0, 0.0005131425219009264
1135.0, 0.0006020104512823563
1136.0, 0.0013893079878582475
1137.0, 0.0016940540687770899
1138.0, 0.0013420639273845918
1139.0, 0.002533008235413973
1140.0, 0.0002855212874789929
1141.0, 0.0008491486651336499
1142.0, 0.0012190333640477132
1143.0, 0.0046193734620248615
1144.0, 0.000618223596527834
1145.0, 0.0008601017363495765
1146.0, 0.0006973259028377806
1147.0, 0.0012471019940336454
1148.0, 0.0022290218442101526
1149.0, 0.0010505286806303897
1150.0, 0.00022143615199907802
1151.0, 0.0009124348689404033
1152.0, 0.0012663236881964696
1153.0, 0.0011210062848760278
1154.0, 0.0012312417561594093
1155.0, 0.0009426558749204621
1156.0, 0.0024119602585751902
1157.0, 0.0024156752868535972
1158.0, 0.0007024358557408512
1159.0, 0.0010514654141458033
1160.0, 0.0026205035667105896
1161.0, 0.0013524426372826682
1162.0, 0.003776098214494542
1163.0, 0.0012128745174261085
1164.0, 0.0023459366621172498
1165.0, 0.002575887810012169
1166.0, 0.0006652557288010728
1167.0, 0.0023292253127144206
1168.0, 0.00319971562370663
1169.0, 0.004393116971950954
1170.0, 0.0032180438190294756
1171.0, 0.0014218374317657952
1172.0, 0.0011087539647425297
1173.0, 0.00044868150940110337
1174.0, 0.0005904072865933362
1175.0, 0.001220468672600166
1176.0, 0.0014807278508786248
1177.0, 0.002108839139581826
1178.0, 0.0009313165072847177
1179.0, 0.0011326212631172523
1180.0, 0.002510888717145407
1181.0, 0.0018008230929438007
1182.0, 0.0015337876487410852
1183.0, 0.002078475647508001
1184.0, 0.002966744493444811
1185.0, 0.004021071959709312
1186.0, 0.0031748155804053125
1187.0, 0.001309537184743317
1188.0, 0.001731858185990333
1189.0, 0.004395439658715415
1190.0, 0.002655797523649344
1191.0, 0.003468063965260646
1192.0, 0.0045203259054081065
1193.0, 0.00301180386463361
1194.0, 0.003923483262198548
1195.0, 0.0032734080349290555
1196.0, 0.003915286392902104
1197.0, 0.0023805019159122576
1198.0, 0.0029800454498646596
1199.0, 0.0022669065670138304
1200.0, 0.0021060698627807413
1201.0, 0.004165815934351485
1202.0, 0.002390915856951194
1203.0, 0.0029446410125933955
1204.0, 0.0026040232056716247
1205.0, 0.001795401422518005
1206.0, 0.00238739090402977
1207.0, 0.001957939695139172
1208.0, 0.002514235261704047
1209.0, 0.0029730352599034956
1210.0, 0.0017386414634837847
1211.0, 0.0017106366583125624
1212.0, 0.0023527330087768673
1213.0, 0.00017172759516039367
1214.0, 0.0015880467318995
1215.0, 0.0004565444455082839
1216.0, 0.0008362108122634271
1217.0, 0.0015387584288010434
1218.0, 0.0011062556398752812
1219.0, 0.002071091519026716
1220.0, 0.0036675343602411824
1221.0, 0.003763090740415221
1222.0, 0.0012508364408940298
1223.0, 0.0009552400728741354
1224.0, 0.0030069598765644747
1225.0, 0.00350160765736717
1226.0, 0.0035902960862580157
1227.0, 0.0032006648059980623
1228.0, 0.0018243161301513334
1229.0, 0.0022870644759101577
1230.0, 0.002188077225380182
1231.0, 0.00045295651838396766
1232.0, 0.0014800774966007907
1233.0, 0.001012190260636748
1234.0, 0.00034851879890230274
1235.0, 0.001726742376211214
1236.0, 0.0016411280004756386
1237.0, 0.0006352171113443759
1238.0, 0.00013109336782262995
1239, 0.0
1240, 0.0
1241, 0.0
1242, 0.0
1243, 0.0
1244, 0.0
1245, 0.0
1246, 0.0
1247, 0.0
1248, 0.0
1249, 0.0
1250, 0.0
1251, 0.0
1252, 0.0
1253, 0.0
1254, 0.0
1255, 0.0
1256, 0.0
1257, 0.0
1258, 0.0
1259, 0.0
1260, 0.0
1261, 0.0
1262, 0.0
1263, 0.0
1264, 0.0
1265, 0.0
1266, 0.0
1267, 0.0
1268, 0.0
1269, 0.0
1270, 0.0
1271, 0.0
1272, 0.0
1273, 0.0
1274, 0.0
1275, 0.0
1276, 0.0
1277, 0.0
1278, 0.0
1279, 0.0
1280, 0.0
1281, 0.0
1282, 0.0
1283, 0.0
1284, 0.0
1285, 0.0
1286, 0.0
1287, 0.0
1288, 0.0
1289, 0.0
1290, 0.0
1291, 0.0
1292, 0.0
1293, 0.0
1294, 0.0
1295, 0.0
1296, 0.0
1297, 0.0
1298, 0.0
1299, 0.0
1300, 0.0
1301, 0.0
1302, 0.0
1303, 0.0
1304, 0.0
1305, 0.0
1306, 0.0
1307, 0.0
1308, 0.0
1309, 0.0
1310, 0.0
1311, 0.0
1312, 0.0
1313, 0.0
1314, 0.0
1315, 0.0
1316, 0.0
1317, 0.0
1318, 0.0
1319, 0.0
1320, 0.0
1321, 0.0
1322, 0.0
1323, 0.0
1324, 0.0
1325, 0.0
1326, 0.0
1327, 0.0
1328, 0.0
1329, 0.0
1330, 0.0
1331, 0.0
1332, 0.0
1333, 0.0
1334, 0.0
1335, 0.0
1336, 0.0
1337, 0.0
1338, 0.0
1339, 0.0
1340, 0.0
1341, 0.0
1342, 0.0
1343, 0.0
1344, 0.0
1345, 0.0
1346, 0.0
1347, 0.0
1348, 0.0
1349, 0.0
1350, 0.0
1351, 0.0
1352, 0.0
1353, 0.0
1354, 0.0
1355, 0.0
1356, 0.0
1357, 0.0
1358, 0.0
1359, 0.0
1360, 0.0
1361, 0.0
1362, 0.0
1363, 0.0
1364, 0.0
1365, 0.0
1366, 0.0
1367, 0.0
1368, 0.0
1369, 0.0
1370, 0.0
1371, 0.0
1372, 0.0
1373, 0.0
1374, 0.0
1375, 0.0
1376, 0.0
1377, 0.0
1378, 0.0
1379, 0.0
1380, 0.0
1381, 0.0
1382, 0.0
1383, 0.0
1384, 0.0
1385, 0.0
1386, 0.0
1387, 0.0
1388, 0.0
1389, 0.0
1390, 0.0
1391, 0.0
1392, 0.0
1393, 0.0
1394, 0.0
1395, 0.0
1396, 0.0
1397, 0.0
1398, 0.0
1399, 0.0
1400, 0.0
1401, 0.0
1402, 0.0
1403, 0.0
1404, 0.0
1405, 0.0
1406, 0.0
1407, 0.0
1408, 0.0
1409, 0.0
1410, 0.0
1411, 0.0
1412, 0.0
1413, 0.0
1414, 0.0
1415, 0.0
1416, 0.0
1417, 0.0
1418, 0.0
1419, 0.0
1420, 0.0
1421, 0.0
1422, 0.0
1423, 0.0
1424, 0.0
1425, 0.0
1426, 0.0
1427, 0.0
1428, 0.0
1429, 0.0
1430, 0.0
1431, 0.0
1432, 0.0
1433, 0.0
1434, 0.0
1435, 0.0
1436, 0.0
1437, 0.0
1438, 0.0
1439, 0.0
1440, 0.0
1441, 0.0
1442, 0.0
1443, 0.0
1444, 0.0
1445, 0.0
1446, 0.0
1447, 0.0
1448, 0.0
1449, 0.0
1450, 0.0
1451, 0.0
1452, 0.0
1453, 0.0
1454, 0.0
1455, 0.0
1456, 0.0
1457, 0.0
1458, 0.0
1459, 0.0
1460, 0.0
1461, 0.0
1462, 0.0
1463, 0.0
1464, 0.0
1465, 0.0
1466, 0.0
1467, 0.0
1468, 0.0
1469, 0.0
1470, 0.0
1471, 0.0
1472, 0.0
1473, 0.0
1474, 0.0
1475, 0.0
1476, 0.0
1477, 0.0
1478, 0.0
1479, 0.0
1480, 0.0
1481, 0.0
1482, 0.0
1483, 0.0
1484, 0.0
1485, 0.0
1486, 0.0
1487, 0.0
1488, 0.0
1489, 0.0
1490, 0.0
1491, 0.0
1492, 0.0
1493, 0.0
1494, 0.0
1495, 0.0
1496, 0.0
1497, 0.0
1498, 0.0
1499, 0.0
1500, 0.0
1501, 0.0
1502, 0.0
1503, 0.0
1504, 0.0
1505, 0.0
1506, 0.0
1507, 0.0
1508, 0.0
1509, 0.0
1510, 0.0
1511, 0.0
1512, 0.0
1513, 0.0
1514, 0.0
1515, 0.0
1516, 0.0
1517, 0.0
1518, 0.0
1519, 0.0
1520, 0.0
1521, 0.0
1522, 0.0
1523, 0.0
1524, 0.0
1525, 0.0
1526, 0.0
1527, 0.0
1528, 0.0
1529, 0.0
1530, 0.0
1531, 0.0
1532, 0.0
1533, 0.0
1534, 0.0
1535, 0.0
1536, 0.0
1537, 0.0
1538, 0.0
1539, 0.0
1540, 0.0
1541, 0.0
1542, 0.0
1543, 0.0
1544, 0.0
1545, 0.0
1546, 0.0
1547, 0.0
1548, 0.0
1549, 0.0
1550, 0.0
1551, 0.0
1552, 0.0
1553, 0.0
1554, 0.0
1555, 0.0
1556, 0.0
1557, 0.0
1558, 0.0
1559, 0.0
1560, 0.0
1561, 0.0
1562, 0.0
1563, 0.0
1564, 0.0
1565, 0.0
1566, 0.0
1567, 0.0
1568, 0.0
1569, 0.0
1570, 0.0
1571, 0.0
1572, 0.0
1573, 0.0
1574, 0.0
1575, 0.0
1576, 0.0
1577, 0.0
1578, 0.0
1579, 0.0
1580, 0.0
1581, 0.0
1582, 0.0
1583, 0.0
1584, 0.0
1585, 0.0
1586, 0.0
1587, 0.0
1588, 0.0
1589, 0.0
1590, 0.0
1591, 0.0
1592, 0.0
1593, 0.0
1594, 0.0
1595, 0.0
1596, 0.0
1597, 0.0
1598, 0.0
1599, 0.0
