30, 0.0
31, 0.0
32, 0.0
33, 0.0
34, 0.0
35, 0.0
36, 0.0
37, 0.0
38, 0.0
39, 0.0
40, 0.0
41, 0.0
42, 0.0
43, 0.0
44, 0.0
45, 0.0
46, 0.0
47, 0.0
48, 0.0
49, 0.0
50, 0.0
51, 0.0
52, 0.0
53, 0.0
54, 0.0
55, 0.0
56, 0.0
57, 0.0
58, 0.0
59, 0.0
60, 0.0
61, 0.0
62, 0.0
63, 0.0
64, 0.0
65, 0.0
66, 0.0
67, 0.0
68, 0.0
69, 0.0
70, 0.0
71, 0.0
72, 0.0
73, 0.0
74, 0.0
75, 0.0
76, 0.0
77, 0.0
78, 0.0
79, 0.0
80, 0.0
81, 0.0
82, 0.0
83, 0.0
84, 0.0
85, 0.0
86, 0.0
87, 0.0
88, 0.0
89, 0.0
90, 0.0
91, 0.0
92, 0.0
93, 0.0
94, 0.0
95, 0.0
96, 0.0
97, 0.0
98, 0.0
99, 0.0
100, 0.0
101, 0.0
102, 0.0
103, 0.0
104, 0.0
105, 0.0
106, 0.0
107, 0.0
108, 0.0
109, 0.0
110, 0.0
111, 0.0
112, 0.0
113, 0.0
114, 0.0
115, 0.0
116, 0.0
117, 0.0
118, 0.0
119, 0.0
120, 0.0
121, 0.0
122, 0.0
123.0, 9.374070587975255e-05
124.0, 0.0011125832312735813
125.0, 0.003848033542159993
126.0, 0.005897455951216855
127.0, 0.007437426528087742
128.0, 0.00880112831576796
129.0, 0.009493379696219731
130.0, 0.010228168460139594
131.0, 0.010957435295919193
132.0, 0.011507122422960312
133.0, 0.011789203283483318
134.0, 0.011177630488910222
135.0, 0.010973564403870033
136.0, 0.011052045954659421
137.0, 0.0104472482696576
138.0, 0.0109888727049112
139.0, 0.012004785863619695
140.0, 0.012873741704777168
141.0, 0.013371935765174616
142.0, 0.014272974929754243
143.0, 0.014840774539279797
144.0, 0.014588989521038057
145.0, 0.014040414441680894
146.0, 0.015261456379242012
147.0, 0.01407980861463708
148.0, 0.014434636189027494
149.0, 0.013232829450582321
150.0, 0.013087096679800094
151.0, 0.013033843850965529
152.0, 0.012563319284240268
153.0, 0.011780419458878595
154.0, 0.011489365058297916
155.0, 0.010951240595367543
156.0, 0.010462588969167986
157.0, 0.010126904461409417
158.0, 0.009852423782264435
159.0, 0.009319507499905955
160.0, 0.009904268165760153
161.0, 0.009999498801428168
162.0, 0.00920433121401478
163.0, 0.009808039277958602
164.0, 0.008740267107781129
165.0, 0.008374361248665285
166.0, 0.008633640814295022
167.0, 0.007511280134487981
168.0, 0.00628807586806559
169.0, 0.005712949781854763
170.0, 0.005379321207738058
171.0, 0.0048271806342094934
172.0, 0.004809566307499921
173.0, 0.00446668020975326
174.0, 0.0037789589173847604
175.0, 0.0032808985830710537
176.0, 0.003802358506900569
177.0, 0.0032611843956744124
178.0, 0.0028878091656972305
179.0, 0.0029312278264620067
180.0, 0.002523486196123771
181.0, 0.0019638642185224654
182.0, 0.0016079785315876217
183.0, 0.0016517098925096633
184.0, 0.0019905945631618774
185.0, 0.0016400631943356094
186.0, 0.0022165126367219242
187.0, 0.002172513633319937
188.0, 0.0008430355903893595
189.0, 0.0009012459984885331
190.0, 0.001588933717432524
191.0, 0.0017551290701751355
192.0, 0.0011206689607692996
193.0, 0.00045517756572756654
194.0, 0.0011617810226032803
195.0, 0.001294312921587067
196.0, 0.0010305422736426831
197.0, 0.0013218327961231557
198.0, 0.0014837114351287273
199.0, 0.001567648746354483
200.0, 0.0016423072703921097
201.0, 0.001747535575399426
202.0, 0.002019513613578288
203.0, 0.001542101452738539
204.0, 0.0016691683886769838
205.0, 0.002485385362960649
206.0, 0.0029346460280540313
207.0, 0.0022765600566237226
208.0, 0.0024252480796465685
209.0, 0.0029746431252244184
210.0, 0.002922529345047809
211.0, 0.0022382054859519974
212.0, 0.0025929959469151265
213.0, 0.0027726320308987308
214.0, 0.0023467931788065358
215.0, 0.002204582399498467
216.0, 0.0022291112442718954
217.0, 0.0021241807134523257
218.0, 0.0018603907735259225
219.0, 0.001552041691185641
220.0, 0.001484827072875128
221.0, 0.0015161319832549852
222.0, 0.00165590627570201
223.0, 0.0017024262416675052
224.0, 0.0012310493594858258
225.0, 0.0013205305402186388
226.0, 0.0010295590446887932
227.0, 0.0008301425864363555
228.0, 0.0015341216910256866
229.0, 0.0011167182018635843
230.0, 0.000859682264991462
231.0, 0.0006287703626059405
232.0, 0.0003536962763648982
233.0, 0.0007892540914811239
234.0, 0.0010587843868864325
235.0, 0.0011613016707606538
236.0, 0.0009756625429502851
237.0, 0.0003860429895093011
238.0, 4.743257562873946e-05
239.0, 2.6689613040888887e-05
240.0, 2.9223041302772086e-05
241.0, 3.324259088626827e-05
242.0, 0.00037268079361819884
243.0, 7.831203085922317e-05
244.0, 0.00015531993626639133
245.0, 9.943876009619899e-05
246.0, 2.9373078577634496e-05
247.0, 2.8972443784754448e-05
248.0, 0.00031881774895054925
249.0, 0.00039884308903902785
250.0, 8.380478558787878e-05
251.0, 0.00016712582941279713
252.0, 4.036291910039165e-05
253.0, 0.0006778069081061378
254.0, 0.0015762296735650117
255.0, 0.0014912256085074628
256.0, 0.001404292521247355
257.0, 0.0011288565008586095
258.0, 0.0004819983456183995
259.0, 0.00018787588200923784
260.0, 0.0014032787238332342
261.0, 0.0013569837244366283
262.0, 0.0012078385865298916
263.0, 0.001287614172173037
264.0, 0.0009884417894193206
265.0, 0.0010778423300422412
266.0, 0.0011534019758826413
267.0, 0.001213695336083892
268.0, 0.0012548560779064835
269.0, 0.0010853906840440854
270.0, 0.0012239315343667192
271.0, 0.0011039921611073875
272.0, 0.0006435646304834754
273.0, 0.00011574405796139391
274.0, 6.6717043571387e-05
275.0, 0.0002253500031587812
276.0, 0.0006785833939524715
277.0, 0.0013388977605705429
278.0, 0.0017868628793990748
279.0, 0.002273107193752584
280.0, 0.003248228197482184
281.0, 0.00410798892121228
282.0, 0.0044105280802331495
283.0, 0.00512037510966464
284.0, 0.0054701782415672445
285.0, 0.0058472197347220894
286.0, 0.006667136138288234
287.0, 0.007838593190002706
288.0, 0.008461129353207055
289.0, 0.00931809379297819
290.0, 0.010765536716994381
291.0, 0.01232594986890354
292.0, 0.013044180038503073
293.0, 0.014334789815683662
294.0, 0.01533951815895173
295.0, 0.016066112336542836
296.0, 0.01691574998571771
297.0, 0.016937330243036338
298.0, 0.017295445182586237
299.0, 0.018524691061299916
300.0, 0.019862376950426412
301.0, 0.019969193308589903
302.0, 0.020010712210208323
303.0, 0.020655922601900776
304.0, 0.021700378320603723
305.0, 0.022786450583884923
306.0, 0.02397607249412936
307.0, 0.024775597142464148
308.0, 0.025792197750485347
309.0, 0.027007506735757175
310.0, 0.028317825928534168
311.0, 0.030479780843832283
312.0, 0.03225181685515606
313.0, 0.034323675985388075
314.0, 0.03683338227552232
315.0, 0.0393675974884471
316.0, 0.043769050346279266
317.0, 0.048792850236720905
318.0, 0.05355580267267733
319.0, 0.05869158839596157
320.0, 0.0658876737290825
321.0, 0.0731353607827551
322.0, 0.08074496034150587
323.0, 0.08920918981893111
324.0, 0.09858722431444777
325.0, 0.10736910487129642
326.0, 0.11751601137335888
327.0, 0.12719431456741725
328.0, 0.13564625318111262
329.0, 0.1434673770240024
330.0, 0.1505913397287191
331.0, 0.15734725869599514
332.0, 0.16353521158454004
333.0, 0.16858846852242723
334.0, 0.17192955704108961
335.0, 0.17686528782260202
336.0, 0.18073078258916808
337.0, 0.18400823310410738
338.0, 0.1884486362139123
339.0, 0.1947927247766662
340.0, 0.20190463360623193
341.0, 0.210287112892766
342.0, 0.2184853571241059
343.0, 0.22465124499049613
344.0, 0.23151908776086225
345.0, 0.23705382847030468
346.0, 0.24161998325247977
347.0, 0.2452377249182544
348.0, 0.24678722621513863
349.0, 0.2451162947136185
350.0, 0.23954878734533974
351.0, 0.2315162289675388
352.0, 0.22143990329072605
353.0, 0.20801395448249974
354.0, 0.19388329036310406
355.0, 0.1790478824297638
356.0, 0.1637516169007848
357.0, 0.14899621337572402
358.0, 0.1360842211179986
359.0, 0.12450291797129882
360.0, 0.11472308924378799
361.0, 0.10680343754286856
362.0, 0.10023364699190179
363.0, 0.09419153338557676
364.0, 0.08949596002362771
365.0, 0.08813359819666108
366.0, 0.08770586974671107
367.0, 0.08481159380991944
368.0, 0.08436859989216651
369.0, 0.08409583081277988
370.0, 0.08366897721063152
371.0, 0.08396776209940632
372.0, 0.08535626883820485
373.0, 0.08366774817907367
374.0, 0.08206104266676525
375.0, 0.08038941838388007
376.0, 0.07765868326131242
377.0, 0.07347524369224462
378.0, 0.06988075243369843
379.0, 0.06517837113461883
380.0, 0.059722040155383974
381.0, 0.054139112406969433
382.0, 0.04876017687795992
383.0, 0.04457623927487262
384.0, 0.039434660977988
385.0, 0.034546912683523716
386.0, 0.031245771773923077
387.0, 0.028441578021055812
388.0, 0.025660279046721888
389.0, 0.023927991030762423
390.0, 0.02192123280692266
391.0, 0.019234602980174986
392.0, 0.01855502021190792
393.0, 0.016621965093028275
394.0, 0.01561540714805049
395.0, 0.015451239715306162
396.0, 0.015197692099657729
397.0, 0.01505501029486714
398.0, 0.014113417926002623
399.0, 0.013913945336779499
400.0, 0.01394167078994942
401.0, 0.013181796676388215
402.0, 0.012570745215742344
403.0, 0.012680247699775542
404.0, 0.012347756217023144
405.0, 0.011768994995943333
406.0, 0.011633473112167366
407.0, 0.010739122173003808
408.0, 0.009583828899947675
409.0, 0.00894832477980261
410.0, 0.008811157583285226
411.0, 0.00854725407266693
412.0, 0.007857258124703904
413.0, 0.00663791591914289
414.0, 0.005890341034901633
415.0, 0.005306062200218851
416.0, 0.004265712347339922
417.0, 0.0038892809595901857
418.0, 0.003307629378423111
419.0, 0.002765294156423707
420.0, 0.0022889251395535196
421.0, 0.001740998803973967
422.0, 0.0012510819540667167
423.0, 0.0005260782788595851
424.0, 0.00016349183127486823
425.0, 0.0006273873941827967
426.0, 0.0007353229822765644
427.0, 0.00039911721198368857
428.0, 0.0007180630511718562
429.0, 0.000934633550463784
430.0, 0.001267708359574725
431.0, 0.0019876998309073094
432.0, 0.0012510045330996684
433.0, 0.0012780179538686405
434.0, 0.0016016423985895606
435.0, 0.0014653970092736647
436.0, 0.0009510036786319026
437.0, 0.001362564181315757
438.0, 0.0014575566797897434
439.0, 0.0015332929125512005
440.0, 0.0013229606688148255
441.0, 0.0006624755182035628
442.0, 0.0005819033991544496
443.0, 0.00037566170903119043
444.0, 0.00043813129185157207
445.0, 2.8608742053253372e-05
446.0, 4.5051353971071624e-05
447.0, 0.00027739723909104934
448.0, 0.0009459181360856328
449.0, 0.000977374039696843
450.0, 0.0009540897866397341
451.0, 0.0013308759574053002
452.0, 0.0010965930580979484
453.0, 0.0013575254352735818
454.0, 0.0018157187904412502
455.0, 0.002285012577965461
456.0, 0.0027287487858855
457.0, 0.0030094125842433385
458.0, 0.0026347347810736633
459.0, 0.0027523422323851056
460.0, 0.0028911138770299416
461.0, 0.0024435379098044297
462.0, 0.0016717775649598076
463.0, 0.002375394825599012
464.0, 0.0024083075241789183
465.0, 0.0021468591372301375
466.0, 0.0019495819110883638
467.0, 0.001533451700751608
468.0, 0.0021586613648712123
469.0, 0.0020072735167109886
470.0, 0.0017647137151133386
471.0, 0.0015479397837989358
472.0, 0.0008614313250076583
473.0, 0.0007483331912405905
474.0, 0.0007350135206937584
475.0, 0.00036639154480172054
476.0, 8.657227780142067e-05
477.0, 0.00018173279028979835
478.0, 0.0002492079713242828
479.0, 0.00011228337339812498
480.0, 0.00016112737856021413
481.0, 0.00016107193707301095
482.0, 0.00034831015896957866
483.0, 0.00031364227020979957
484.0, 0.00033743394584120255
485.0, 0.0002318818690519295
486.0, 0.00028645769597643485
487.0, 0.0009360880780173701
488.0, 0.000568837804226931
489.0, 0.000449975159704109
490.0, 0.000808185418638796
491.0, 0.0006953180870217869
492.0, 0.00014101800006097336
493.0, 0.0003590501066573071
494.0, 0.00015619516879780644
495.0, 0.00021164889227961517
496.0, 9.718241480276369e-05
497.0, 5.222771655196271e-05
498.0, 0.0003235377337267231
499.0, 0.0005917782829607353
500.0, 0.00017244917353851865
501.0, 0.0001201919833843475
502.0, 7.116283029066613e-05
503.0, 0.00011866879475634797
504.0, 5.690912441854294e-05
505.0, 9.189031398871814e-05
506.0, 4.731215865840443e-05
507.0, 3.293998712950338e-05
508.0, 8.937718213802014e-05
509.0, 1.9823086671229113e-05
510.0, 1.2662471304595742e-05
511.0, 0.00035662030195907936
512.0, 0.0005524592001336126
513.0, 0.00040246115982063005
514.0, 0.00012591746481819706
515.0, 0.00023594329571687762
516.0, 9.060921269226418e-05
517.0, 0.0002056545168500334
518.0, 0.0004431248649988536
519.0, 0.0007520079971630813
520.0, 0.001057034839568591
521.0, 0.000637949467566241
522.0, 0.000507627368556894
523.0, 0.0008475941213248233
524.0, 0.0011624840257346812
525.0, 0.000937990851461476
526.0, 0.0004665503831169212
527.0, 0.00047463970903963284
528.0, 0.000787721513753132
529.0, 0.0008367599708131897
530.0, 0.0004396082879808367
531.0, 0.0004930474830052247
532.0, 0.0007771613838721033
533.0, 0.0010173456400782038
534.0, 0.0008930418369173306
535.0, 0.0005477832827873614
536.0, 0.0005405690453259501
537.0, 0.00042965323060063115
538.0, 4.026744020210453e-05
539.0, 1.663481504236032e-05
540.0, 0.00022878084361181895
541.0, 0.00010915171067543035
542.0, 0.00029587660285729207
543.0, 0.00039636103104562285
544.0, 0.0003476307112193927
545.0, 0.0003121824809752341
546.0, 0.0002682166353230126
547.0, 0.00015467752531631682
548.0, 0.00016410551116645408
549.0, 0.0006131788839116169
550.0, 0.0009611972706030225
551.0, 0.0008433038371471315
552.0, 0.0005040472608604774
553.0, 0.0007328030048646585
554.0, 0.0006532794745459291
555.0, 0.0005362307386746209
556.0, 0.0004665448492414271
557.0, 0.00042496355576921547
558.0, 0.0006053899671294873
559.0, 0.0008255417161728578
560.0, 0.0007817863707476378
561.0, 0.0010369146698541497
562.0, 0.0014331507755114066
563.0, 0.0012689149475621833
564.0, 0.0011026891900709059
565.0, 0.0008844128062194585
566.0, 0.0010442428444135785
567.0, 0.00135547888455846
568.0, 0.0016137925399552133
569.0, 0.002173701756227572
570.0, 0.002020451207981226
571.0, 0.0023473133382936762
572.0, 0.002563557689661284
573.0, 0.002175721316987067
574.0, 0.0016204935864984628
575.0, 0.0016343742923675306
576.0, 0.0018448873533843705
577.0, 0.001817937423637389
578.0, 0.002024344588374619
579.0, 0.0024884880592706323
580.0, 0.002404803998359235
581.0, 0.0022241117484367917
582.0, 0.0024617382782084283
583.0, 0.002589092299514541
584.0, 0.0026198398252347314
585.0, 0.0028583436634921446
586.0, 0.0030043523398691663
587.0, 0.003090311663083957
588.0, 0.0034364949712813076
589.0, 0.003703279671095192
590.0, 0.0037943783768053744
591.0, 0.0038740255199193677
592.0, 0.0034494819221227114
593.0, 0.004077470087876622
594.0, 0.004326003157864486
595.0, 0.004108679118697553
596.0, 0.003940176301007572
597.0, 0.0038766780240507394
598.0, 0.004867294772987965
599.0, 0.004720379965219272
600.0, 0.004483208257760012
601.0, 0.00494792442876983
602.0, 0.005538402268369827
603.0, 0.005219862683930479
604.0, 0.0057741421811483415
605.0, 0.005714338003624832
606.0, 0.005551885035851905
607.0, 0.005961905635610023
608.0, 0.006607866032751314
609.0, 0.006599081039305988
610.0, 0.006451380702874248
611.0, 0.00668440129627121
612.0, 0.007155323930309393
613.0, 0.007522740380133048
614.0, 0.0075563770865277255
615.0, 0.007200116356973895
616.0, 0.007585444563105275
617.0, 0.007866268197534687
618.0, 0.007944625565996065
619.0, 0.008219438703399346
620.0, 0.008569402780147114
621.0, 0.008970846690956725
622.0, 0.008687889880279479
623.0, 0.009890394977425453
624.0, 0.011897142262054189
625.0, 0.012307204873920789
626.0, 0.010225864498973256
627.0, 0.009961354714684921
628.0, 0.010363959083785547
629.0, 0.010567456871570423
630.0, 0.010732649580370674
631.0, 0.011103494799918009
632.0, 0.01121138064538478
633.0, 0.011528119049161647
634.0, 0.01183012062485611
635.0, 0.012358756021158166
636.0, 0.01283111669698271
637.0, 0.012714954707245959
638.0, 0.013199497438529903
639.0, 0.013645237419198543
640.0, 0.013483103855739429
641.0, 0.013674193665782501
642.0, 0.014032201792921573
643.0, 0.013660604955231314
644.0, 0.014735858890971466
645.0, 0.015281238686641082
646.0, 0.01519945927728144
647.0, 0.01552242883728265
648.0, 0.0162942944387771
649.0, 0.016342726466931995
650.0, 0.016418226949988127
651.0, 0.016842528748582563
652.0, 0.017281623983568487
653.0, 0.017523931633376087
654.0, 0.017601102148755175
655.0, 0.017754176681940737
656.0, 0.018771556602629896
657.0, 0.018961693469359685
658.0, 0.01899152261784257
659.0, 0.019138549801011037
660.0, 0.019412840124033433
661.0, 0.019824258365036488
662.0, 0.019794027273376896
663.0, 0.01964138977749401
664.0, 0.020278452113447223
665.0, 0.02060888024134782
666.0, 0.02048841087676522
667.0, 0.0214111217317737
668.0, 0.02106041837790717
669.0, 0.021039377349552996
670.0, 0.021150368463389316
671.0, 0.0213176511757827
672.0, 0.02165265553394172
673.0, 0.021906593710364575
674.0, 0.0215453401588132
675.0, 0.02184493823206187
676.0, 0.02221397805781211
677.0, 0.02214762300087032
678.0, 0.0219795545712755
679.0, 0.02236245948249102
680.0, 0.022640010928611457
681.0, 0.022139275462642674
682.0, 0.022132689320951176
683.0, 0.022256048170879488
684.0, 0.022188572155328462
685.0, 0.022555871575975463
686.0, 0.022754095851746876
687.0, 0.022142848728815383
688.0, 0.021490951004921658
689.0, 0.02096225580165728
690.0, 0.020425192517763376
691.0, 0.019901412016059605
692.0, 0.019757709401485798
693.0, 0.019479493587052407
694.0, 0.01875157348698045
695.0, 0.01781796241380086
696.0, 0.017459653289051205
697.0, 0.017758434113976485
698.0, 0.017136589220256723
699.0, 0.01654118636369208
700.0, 0.01532007383834933
701.0, 0.014295544058503412
702.0, 0.013658864273576337
703.0, 0.01313677960974431
704.0, 0.013210713488694114
705.0, 0.01196457489367241
706.0, 0.011055355921900682
707.0, 0.010032435095894297
708.0, 0.008872615815764795
709.0, 0.008240208074344623
710.0, 0.008278026865764457
711.0, 0.007684266380459711
712.0, 0.006644523131763866
713.0, 0.006218626824372189
714.0, 0.005669170266867968
715.0, 0.004671224326444471
716.0, 0.004089429132540198
717.0, 0.003452895182400141
718.0, 0.0036607054769685703
719.0, 0.003195515714118789
720.0, 0.0018980679745612544
721.0, 0.0011248716112791622
722.0, 0.0014938420468268336
723.0, 0.001018605874428588
724.0, 0.00022123249026610045
725.0, 0.0005471407581957247
726.0, 0.0008247618412472302
727.0, 0.0009473385045857668
728.0, 0.0008915529287316423
729.0, 0.0012094886997600827
730.0, 0.0023217882193691864
731.0, 0.002534262411773704
732.0, 0.0034438572664949726
733.0, 0.004010215898614688
734.0, 0.003610473065228231
735.0, 0.003726254323145004
736.0, 0.003572589086847018
737.0, 0.004440606982394095
738.0, 0.004353188624491296
739.0, 0.004892021051994916
740.0, 0.005409501134277634
741.0, 0.004409814437828544
742.0, 0.004803730517150156
743.0, 0.005018412481512078
744.0, 0.004881985700709535
745.0, 0.004199254707531449
746.0, 0.004041770248600593
747.0, 0.004201459575971762
748.0, 0.0028969806864628384
749.0, 0.00242650645600748
750.0, 0.002316649607110444
751.0, 0.002634457764497681
752.0, 0.002901338816573703
753.0, 0.0029291093789930896
754.0, 0.0022982211321875686
755.0, 0.0004047336577347475
756.0, 0.0008470518985101393
757.0, 0.002192488895285616
758.0, 0.0028995057961579878
759.0, 0.003175533041241203
760.0, 0.004505500282266965
761.0, 0.006865888668959231
762.0, 0.007697998286993256
763.0, 0.010075729267463921
764.0, 0.012363146144790428
765.0, 0.014150553621038453
766.0, 0.015916953910328907
767.0, 0.018042047375867277
768.0, 0.020776021860884654
769.0, 0.022825820578318154
770.0, 0.026791164172106394
771.0, 0.031089653502238166
772.0, 0.034507298574851665
773.0, 0.03720883144353694
774.0, 0.03973681530274454
775.0, 0.04169695940402431
776.0, 0.04406444019153804
777.0, 0.04817733066653619
778.0, 0.0525081402075373
779.0, 0.05546593980295039
780.0, 0.0584745960914351
781.0, 0.06402755447289246
782.0, 0.06815071315477231
783.0, 0.07306486356381654
784.0, 0.07876233517424489
785.0, 0.08420227055959498
786.0, 0.09009234441565034
787.0, 0.09761041578420694
788.0, 0.10503655556935519
789.0, 0.11168433467283873
790.0, 0.11970907142179857
791.0, 0.13015738936897817
792.0, 0.14037073096417393
793.0, 0.1508737959940157
794.0, 0.16451229828812172
795.0, 0.17636726697062538
796.0, 0.1904688012967481
797.0, 0.20494028361531602
798.0, 0.22262527804982268
799.0, 0.24182330697792886
800.0, 0.2601062801050416
801.0, 0.2795103549894419
802.0, 0.30109972960202375
803.0, 0.32621764091477123
804.0, 0.3539914301483858
805.0, 0.38228890783878494
806.0, 0.4113303521876086
807.0, 0.44291040433272694
808.0, 0.47747316815221
809.0, 0.5128157469619755
810.0, 0.5484639978243949
811.0, 0.5864649967591288
812.0, 0.6252006368735897
813.0, 0.6648245102790946
814.0, 0.7074189876927375
815.0, 0.751515316732255
816.0, 0.7875862561063451
817.0, 0.8270632498507252
818.0, 0.8645571092760324
819.0, 0.8942219016181413
820.0, 0.9216398555662788
821.0, 0.9502699206350721
822.0, 0.9704446389862225
823.0, 0.9794577354814221
824.0, 0.9933309461715294
825.0, 0.9999666635675046
826.0, 0.9960916601996768
827.0, 0.9868340330778759
828.0, 0.976188463261397
829.0, 0.962192431563606
830.0, 0.941804849317788
831.0, 0.9135195657280172
832.0, 0.8846291105568335
833.0, 0.8542101309211095
834.0, 0.8213839607534531
835.0, 0.7872557223077342
836.0, 0.7498137579452779
837.0, 0.7139386970807102
838.0, 0.6784932884832917
839.0, 0.6408695575693816
840.0, 0.6010514842366546
841.0, 0.5627073916075294
842.0, 0.5283767438252027
843.0, 0.4947900680491918
844.0, 0.46041602968527445
845.0, 0.42893441897233486
846.0, 0.39825853768862274
847.0, 0.36642403135316015
848.0, 0.3387308073970015
849.0, 0.3164471834789816
850.0, 0.2908858079949746
851.0, 0.265795415916522
852.0, 0.24615200297900935
853.0, 0.22827667002949292
854.0, 0.21013801188042694
855.0, 0.19474994602940487
856.0, 0.18219884762964225
857.0, 0.16904648851773954
858.0, 0.16148644162847495
859.0, 0.15318167125440227
860.0, 0.14531664871179265
861.0, 0.13796817182958995
862.0, 0.1313954510877366
863.0, 0.12624270504376556
864.0, 0.12234001876191512
865.0, 0.11868094718149753
866.0, 0.11555949395417071
867.0, 0.11492640551486553
868.0, 0.11207935852909932
869.0, 0.11197396078007404
870.0, 0.11407640471086604
871.0, 0.11235833222008008
872.0, 0.11183277079024931
873.0, 0.11616291439082108
874.0, 0.11642543520010451
875.0, 0.11708301318194199
876.0, 0.1210457417603513
877.0, 0.12467256108051113
878.0, 0.12594457096726416
879.0, 0.12845929638710576
880.0, 0.131747214375704
881.0, 0.13508512760302968
882.0, 0.1371386043732441
883.0, 0.1402799465922682
884.0, 0.14136769217373407
885.0, 0.14066567232346253
886.0, 0.14182453688696373
887.0, 0.14071365990792778
888.0, 0.13894720885886747
889.0, 0.13546316369640324
890.0, 0.13224399694053804
891.0, 0.12715712232069884
892.0, 0.11979468405656726
893.0, 0.1115337096291833
894.0, 0.10237212809486061
895.0, 0.09451742495501907
896.0, 0.08232828593416093
897.0, 0.07322223557845053
898.0, 0.06527899635714157
899.0, 0.056344878262493014
900.0, 0.04794846440614788
901.0, 0.04090535255160714
902.0, 0.03301624282523817
903.0, 0.02736924249191867
904.0, 0.022754172619424706
905.0, 0.018118224553768585
906.0, 0.01401941906121929
907.0, 0.01072793724674991
908.0, 0.008112983168972328
909.0, 0.006268374288903095
910.0, 0.004374327645220684
911.0, 0.001987267240528433
912.0, 0.0007396615113390187
913.0, 0.00012801723818263672
914.0, 0.001432002118077859
915.0, 0.0032447183351974338
916.0, 0.0040626469698716635
917.0, 0.004032028506605828
918.0, 0.003752259286618647
919.0, 0.004312489093705585
920.0, 0.0047944990453846065
921.0, 0.004301809042208252
922.0, 0.0046676082963824925
923.0, 0.00561929723073307
924.0, 0.0051280747059701615
925.0, 0.00553222365476391
926.0, 0.004686334825062513
927.0, 0.0038408703213146794
928.0, 0.004610165583284702
929.0, 0.004560169228461936
930.0, 0.00412973985672139
931.0, 0.004096562102287535
932.0, 0.0034587620669934206
933.0, 0.003579302898116438
934.0, 0.003247923889879369
935.0, 0.0031546663293120997
936.0, 0.0026778794475580572
937.0, 0.002299487940712319
938.0, 0.0018260928289978873
939.0, 0.0011912992279762052
940.0, 0.0010017883419737004
941.0, 0.0003254566158082356
942.0, 0.0003330341395768045
943.0, 0.0014230709627533595
944.0, 0.0017777387218475074
945.0, 0.002694767528316817
946.0, 0.003700725321723566
947.0, 0.003577240019237659
948.0, 0.0033000916646313337
949.0, 0.004670224277794929
950.0, 0.005650120335054924
951.0, 0.006794800592516905
952.0, 0.0076371341709887755
953.0, 0.008154197289862867
954.0, 0.008572804131115084
955.0, 0.00922980825967284
956.0, 0.010265884933930105
957.0, 0.01123396375047869
958.0, 0.012229308047928879
959.0, 0.012175800883040782
960.0, 0.013331874697348456
961.0, 0.014323875189841755
962.0, 0.0148551553115621
963.0, 0.015537328491702609
964.0, 0.016243517024029715
965.0, 0.017458848184914257
966.0, 0.01778881028612492
967.0, 0.018723445593703977
968.0, 0.01982544518391119
969.0, 0.020570831473866208
970.0, 0.021244265946360218
971.0, 0.02217812835929505
972.0, 0.022849896545923034
973.0, 0.022478035444416785
974.0, 0.023569287008899435
975.0, 0.023339444755665514
976.0, 0.023693508019114982
977.0, 0.024516868153919034
978.0, 0.02479318704204324
979.0, 0.024478107884108098
980.0, 0.024556093541022235
981.0, 0.025524584905905128
982.0, 0.025948761809748214
983.0, 0.025020833930912735
984.0, 0.026017241078228448
985.0, 0.02535060022145097
986.0, 0.025019812823860475
987.0, 0.025171799908894517
988.0, 0.02487712278659694
989.0, 0.025034044392888897
990.0, 0.024517106395366035
991.0, 0.024031418160783784
992.0, 0.02405407626595802
993.0, 0.023520200129986565
994.0, 0.02279697470807924
995.0, 0.022922313032448644
996.0, 0.02295891863405946
997.0, 0.02224854904037332
998.0, 0.022393885730244915
999.0, 0.021504868232243086
1000.0, 0.02024343895523082
1001.0, 0.020338481025651153
1002.0, 0.020217719839788383
1003.0, 0.019963294581234355
1004.0, 0.019880514213443445
1005.0, 0.01959665296230766
1006.0, 0.018990482266055098
1007.0, 0.01840466974274152
1008.0, 0.018424993030558803
1009.0, 0.018306606524264385
1010.0, 0.01760239609026998
1011.0, 0.017481347905589546
1012.0, 0.017186297160588185
1013.0, 0.01656181940364715
1014.0, 0.016343867298948184
1015.0, 0.016171215051967825
1016.0, 0.015836596912820657
1017.0, 0.016189942724084104
1018.0, 0.016217607003511353
1019.0, 0.015894886668573364
1020.0, 0.01562433503820603
1021.0, 0.014885967615048809
1022.0, 0.01434017346860836
1023.0, 0.01483208282081535
1024.0, 0.014971004252503648
1025.0, 0.014007066567620697
1026.0, 0.014478892855172247
1027.0, 0.014385986852393088
1028.0, 0.01347460657055651
1029.0, 0.013090068716160265
1030.0, 0.013247335856708781
1031.0, 0.013240628095437867
1032.0, 0.012837456362861904
1033.0, 0.01222243655037598
1034.0, 0.012298642808247483
1035.0, 0.011565346208346925
1036.0, 0.011813268868730393
1037.0, 0.011809241828405466
1038.0, 0.011575124128337966
1039.0, 0.011150600668247133
1040.0, 0.010765210471157865
1041.0, 0.010551423291209961
1042.0, 0.00994612888201488
1043.0, 0.010230779755779197
1044.0, 0.009296807935693617
1045.0, 0.009396954755375603
1046.0, 0.009595949035494393
1047.0, 0.008934921885635548
1048.0, 0.0085618083489207
1049.0, 0.008696172809372711
1050.0, 0.008166520867000855
1051.0, 0.007301440362425353
1052.0, 0.007872350567831723
1053.0, 0.007941544341428158
1054.0, 0.007538926057903324
1055.0, 0.007491625023100943
1056.0, 0.007765901093931197
1057.0, 0.0074121068371551775
1058.0, 0.006867056394766499
1059.0, 0.00671707259856672
1060.0, 0.006221682043611229
1061.0, 0.0060743882469078215
1062.0, 0.005592971805869586
1063.0, 0.00554880822194074
1064.0, 0.005499289379631783
1065.0, 0.005653202393966706
1066.0, 0.005444711992812032
1067.0, 0.005282275582186285
1068.0, 0.004992225004644167
1069.0, 0.003946527907871178
1070.0, 0.0038692935697297107
1071.0, 0.003925972434022835
1072.0, 0.004192033638366362
1073.0, 0.0042698597027994185
1074.0, 0.0037764339592136183
1075.0, 0.0030122850105088993
1076.0, 0.003101909908798452
1077.0, 0.003649338337998501
1078.0, 0.0034666748131073183
1079.0, 0.0029929256882880585
1080.0, 0.0033298087228730944
1081.0, 0.0030870669579575664
1082.0, 0.0025398659024094897
1083.0, 0.002451083669195742
1084.0, 0.0024166282409708675
1085.0, 0.0022351556145504916
1086.0, 0.0021989170014028864
1087.0, 0.0022656584614798927
1088.0, 0.0019076263916895466
1089.0, 0.0013980197679133901
1090.0, 0.001923165352733214
1091.0, 0.0013712419720108987
1092.0, 0.0009419648706430477
1093.0, 0.0011369242146457615
1094.0, 0.0012058122093938234
1095.0, 0.0012121148708478895
1096.0, 0.0014350388951441455
1097.0, 0.0013215749554064565
1098.0, 0.0007816918488585263
1099.0, 0.0011351886592192632
1100.0, 0.0010118406827908067
1101.0, 0.0007919230925476737
1102.0, 0.0010760325497601432
1103.0, 0.0009359438917215398
1104.0, 0.0010260866861144316
1105.0, 0.0004103694355607535
1106.0, 6.435907823627976e-05
1107.0, 0.00036616412317200676
1108.0, 0.0003882230057338539
1109.0, 0.00026567550185400073
1110.0, 0.0004158970334637181
1111.0, 0.00016875102544153142
1112.0, 0.00026953919630599306
1113.0, 0.0002585753466589234
1114.0, 5.1228349060450986e-05
1115.0, 0.00015339410505951561
1116.0, 9.150570029206896e-05
1117.0, 0.0006539072096910924
1118.0, 0.00089685732487668
1119.0, 0.00030680283914672125
1120.0, 0.00028318954398290184
1121.0, 0.00020267784392356074
1122.0, 3.627364891027565e-05
1123.0, 0.0004964791256474368
1124.0, 0.00019781652618955833
1125.0, 0.00016866079367056856
1126.0, 0.0002276415084256363
1127.0, 0.00015725276844932306
1128.0, 0.00012274880553296314
1129.0, 0.0002620426004051358
1130.0, 6.352327181348808e-05
1131.0, 0.0003472166603497822
1132.0, 0.00024500574002454676
1133.0, 0.0002551674562153935
1134.0, 0.00042179304144966207
1135.0, 0.0005593443742453808
1136.0, 0.0003344288521613244
1137.0, 5.967143560370148e-05
1138.0, 0.00030631554208276706
1139.0, 0.0004814891285150505
1140.0, 0.0005765724110494676
1141.0, 0.0002691760238693428
1142.0, 0.0006613526171004583
1143.0, 0.000561811913997686
1144.0, 0.00015384896070968324
1145.0, 0.0002790932959637784
1146.0, 4.62518833393762e-05
1147.0, 0.00012947109755265165
1148.0, 7.140100770122886e-05
1149.0, 0.000242479108856046
1150.0, 0.0001405377583241135
1151.0, 9.140014668956142e-05
1152.0, 6.169245452273719e-05
1153.0, 0.0005789968399577855
1154.0, 0.0003770179648942237
1155.0, 0.0005868876535716309
1156.0, 0.0007918737525182144
1157.0, 0.0011057757167561644
1158.0, 0.0013814795980300928
1159.0, 0.0014389372099730562
1160.0, 0.0015743208834335999
1161.0, 0.001586767059710155
1162.0, 0.0011207757777161277
1163.0, 0.0014517552886432919
1164.0, 0.000861527394060275
1165.0, 0.0014705276598266442
1166.0, 0.0013221643689397013
1167.0, 0.00081386589807242
1168.0, 0.0009626967932860646
1169.0, 0.0011331474247280888
1170.0, 0.0007566547723143102
1171.0, 0.0008035186269008619
1172.0, 0.0015776457422798033
1173.0, 0.0012134622110829853
1174.0, 0.0014353980094263996
1175.0, 0.001415506337071301
1176.0, 0.0009983121784389055
1177.0, 0.0011032340099952644
1178.0, 0.001599921969244862
1179.0, 0.0014704802594343318
1180.0, 0.0009622377436021556
1181.0, 0.0012353187512785773
1182.0, 0.0015827783341818842
1183.0, 0.0013059068545327405
1184.0, 0.002131353231519662
1185.0, 0.001496790984952465
1186.0, 0.0015377348499287032
1187.0, 0.001767268567446722
1188.0, 0.0017140715381514387
1189.0, 0.0013376625404271506
1190.0, 0.0014920057596377579
1191.0, 0.0014897999865550475
1192.0, 0.001422281822757659
1193.0, 0.0010774510113943183
1194.0, 0.0004548279937093204
1195.0, 0.001127239558186836
1196.0, 0.0011260790104525816
1197.0, 0.0015813289207594367
1198.0, 0.001049389494722273
1199.0, 0.000619430878684523
1200.0, 0.0008546191774444823
1201.0, 0.000959911249437083
1202.0, 0.0008441984153633894
1203.0, 0.0004713466791606919
1204.0, 0.0006064842794224124
1205.0, 0.0011512422481381249
1206.0, 0.000854388451771099
1207.0, 0.00048780040773338794
1208.0, 0.0007120200324750665
1209.0, 0.0007342958199496711
1210.0, 0.0019255453625686837
1211.0, 0.0017620735332067076
1212.0, 0.0013150955113425185
1213.0, 0.001350342637246169
1214.0, 0.0008378817862298477
1215.0, 0.0009603993397042068
1216.0, 0.0013184135619422272
1217.0, 0.0009847731412554726
1218.0, 0.0008034392251475269
1219.0, 0.0007329450682740035
1220.0, 0.0005778779628558272
1221.0, 0.0008123383787188174
1222.0, 0.0013907727008012339
1223.0, 0.001016166156779076
1224.0, 0.0008965338604005859
1225.0, 0.0003476754319788524
1226.0, 0.000999334716057718
1227.0, 0.0014313789416191432
1228.0, 0.0008026353417291244
1229.0, 0.0002335706649774545
1230.0, 0.0004164144240567458
1231.0, 0.0011189524581367374
1232.0, 0.0015593108621361333
1233.0, 0.0012683857318853224
1234.0, 0.00174758119838727
1235.0, 0.0011599044596593178
1236.0, 0.0006660513177363868
1237.0, 0.0008760640499476845
1238.0, 0.001066624338083794
1239.0, 0.00120091404564677
1240.0, 0.0011371257585968508
1241.0, 0.0007417342894820622
1242.0, 0.0007218927065068845
1243.0, 0.0012535462752824502
1244.0, 0.0012648471631061381
1245.0, 0.0011891690368388851
1246.0, 0.0012335151085678666
1247.0, 0.0011229727364134654
1248.0, 0.0017485828900880756
1249.0, 0.002326411840122827
1250.0, 0.0015523337255174308
1251.0, 0.001146693381452395
1252.0, 0.0012114424013333121
1253.0, 0.0015930053314719473
1254.0, 0.001664945355484841
1255.0, 0.0015427470542213866
1256.0, 0.0016428162426411165
1257.0, 0.0013683060467763496
1258.0, 0.0014868033658606288
1259.0, 0.0013750122115211447
1260.0, 0.0018132389919573734
1261.0, 0.0014884375262182283
1262.0, 0.0014286052419353813
1263.0, 0.0017199992906470234
1264.0, 0.0010227191041719233
1265.0, 0.0010319426990253954
1266.0, 0.0005538762906718533
1267.0, 0.0003714434013668345
1268.0, 0.0007880837674354571
1269.0, 0.0005726168604817981
1270.0, 0.0004903065373479082
1271.0, 0.0011600441466212154
1272.0, 0.001626981939690091
1273.0, 0.000898258898898162
1274.0, 0.00022007827473982558
1275.0, 0.0008693759703305426
1276.0, 0.0006499938895409441
1277.0, 0.0003200375808677838
1278.0, 0.00036450589203909265
1279.0, 0.00010916737969013124
1280.0, 0.0002613266115070811
1281.0, 0.0006146245576474453
1282.0, 0.00062169010286342
1283.0, 0.00041085399944727665
1284.0, 0.00032622192531989977
1285.0, 0.0008827000229624196
1286.0, 0.0008449442529036299
1287.0, 0.0005492698141153042
1288.0, 0.0007083772292875389
1289.0, 0.001197330845457645
1290.0, 0.0008156031912209938
1291.0, 9.004357798218129e-05
1292.0, 0.0002711342011984091
1293, 0.0
1294, 0.0
1295, 0.0
1296, 0.0
1297, 0.0
1298, 0.0
1299, 0.0
1300, 0.0
1301, 0.0
1302, 0.0
1303, 0.0
1304, 0.0
1305, 0.0
1306, 0.0
1307, 0.0
1308, 0.0
1309, 0.0
1310, 0.0
1311, 0.0
1312, 0.0
1313, 0.0
1314, 0.0
1315, 0.0
1316, 0.0
1317, 0.0
1318, 0.0
1319, 0.0
1320, 0.0
1321, 0.0
1322, 0.0
1323, 0.0
1324, 0.0
1325, 0.0
1326, 0.0
1327, 0.0
1328, 0.0
1329, 0.0
1330, 0.0
1331, 0.0
1332, 0.0
1333, 0.0
1334, 0.0
1335, 0.0
1336, 0.0
1337, 0.0
1338, 0.0
1339, 0.0
1340, 0.0
1341, 0.0
1342, 0.0
1343, 0.0
1344, 0.0
1345, 0.0
1346, 0.0
1347, 0.0
1348, 0.0
1349, 0.0
1350, 0.0
1351, 0.0
1352, 0.0
1353, 0.0
1354, 0.0
1355, 0.0
1356, 0.0
1357, 0.0
1358, 0.0
1359, 0.0
1360, 0.0
1361, 0.0
1362, 0.0
1363, 0.0
1364, 0.0
1365, 0.0
1366, 0.0
1367, 0.0
1368, 0.0
1369, 0.0
1370, 0.0
1371, 0.0
1372, 0.0
1373, 0.0
1374, 0.0
1375, 0.0
1376, 0.0
1377, 0.0
1378, 0.0
1379, 0.0
1380, 0.0
1381, 0.0
1382, 0.0
1383, 0.0
1384, 0.0
1385, 0.0
1386, 0.0
1387, 0.0
1388, 0.0
1389, 0.0
1390, 0.0
1391, 0.0
1392, 0.0
1393, 0.0
1394, 0.0
1395, 0.0
1396, 0.0
1397, 0.0
1398, 0.0
1399, 0.0
1400, 0.0
1401, 0.0
1402, 0.0
1403, 0.0
1404, 0.0
1405, 0.0
1406, 0.0
1407, 0.0
1408, 0.0
1409, 0.0
1410, 0.0
1411, 0.0
1412, 0.0
1413, 0.0
1414, 0.0
1415, 0.0
1416, 0.0
1417, 0.0
1418, 0.0
1419, 0.0
1420, 0.0
1421, 0.0
1422, 0.0
1423, 0.0
1424, 0.0
1425, 0.0
1426, 0.0
1427, 0.0
1428, 0.0
1429, 0.0
1430, 0.0
1431, 0.0
1432, 0.0
1433, 0.0
1434, 0.0
1435, 0.0
1436, 0.0
1437, 0.0
1438, 0.0
1439, 0.0
1440, 0.0
1441, 0.0
1442, 0.0
1443, 0.0
1444, 0.0
1445, 0.0
1446, 0.0
1447, 0.0
1448, 0.0
1449, 0.0
1450, 0.0
1451, 0.0
1452, 0.0
1453, 0.0
1454, 0.0
1455, 0.0
1456, 0.0
1457, 0.0
1458, 0.0
1459, 0.0
1460, 0.0
1461, 0.0
1462, 0.0
1463, 0.0
1464, 0.0
1465, 0.0
1466, 0.0
1467, 0.0
1468, 0.0
1469, 0.0
1470, 0.0
1471, 0.0
1472, 0.0
1473, 0.0
1474, 0.0
1475, 0.0
1476, 0.0
1477, 0.0
1478, 0.0
1479, 0.0
1480, 0.0
1481, 0.0
1482, 0.0
1483, 0.0
1484, 0.0
1485, 0.0
1486, 0.0
1487, 0.0
1488, 0.0
1489, 0.0
1490, 0.0
1491, 0.0
1492, 0.0
1493, 0.0
1494, 0.0
1495, 0.0
1496, 0.0
1497, 0.0
1498, 0.0
1499, 0.0
1500, 0.0
1501, 0.0
1502, 0.0
1503, 0.0
1504, 0.0
1505, 0.0
1506, 0.0
1507, 0.0
1508, 0.0
1509, 0.0
1510, 0.0
1511, 0.0
1512, 0.0
1513, 0.0
1514, 0.0
1515, 0.0
1516, 0.0
1517, 0.0
1518, 0.0
1519, 0.0
1520, 0.0
1521, 0.0
1522, 0.0
1523, 0.0
1524, 0.0
1525, 0.0
1526, 0.0
1527, 0.0
1528, 0.0
1529, 0.0
1530, 0.0
1531, 0.0
1532, 0.0
1533, 0.0
1534, 0.0
1535, 0.0
1536, 0.0
1537, 0.0
1538, 0.0
1539, 0.0
1540, 0.0
1541, 0.0
1542, 0.0
1543, 0.0
1544, 0.0
1545, 0.0
1546, 0.0
1547, 0.0
1548, 0.0
1549, 0.0
1550, 0.0
1551, 0.0
1552, 0.0
1553, 0.0
1554, 0.0
1555, 0.0
1556, 0.0
1557, 0.0
1558, 0.0
1559, 0.0
1560, 0.0
1561, 0.0
1562, 0.0
1563, 0.0
1564, 0.0
1565, 0.0
1566, 0.0
1567, 0.0
1568, 0.0
1569, 0.0
1570, 0.0
1571, 0.0
1572, 0.0
1573, 0.0
1574, 0.0
1575, 0.0
1576, 0.0
1577, 0.0
1578, 0.0
1579, 0.0
1580, 0.0
1581, 0.0
1582, 0.0
1583, 0.0
1584, 0.0
1585, 0.0
1586, 0.0
1587, 0.0
1588, 0.0
1589, 0.0
1590, 0.0
1591, 0.0
1592, 0.0
1593, 0.0
1594, 0.0
1595, 0.0
1596, 0.0
1597, 0.0
1598, 0.0
1599, 0.0
