30, 0.0
31, 0.0
32, 0.0
33, 0.0
34, 0.0
35, 0.0
36, 0.0
37, 0.0
38, 0.0
39, 0.0
40, 0.0
41, 0.0
42, 0.0
43, 0.0
44, 0.0
45, 0.0
46, 0.0
47, 0.0
48, 0.0
49, 0.0
50, 0.0
51, 0.0
52, 0.0
53, 0.0
54, 0.0
55, 0.0
56, 0.0
57, 0.0
58, 0.0
59, 0.0
60, 0.0
61, 0.0
62, 0.0
63, 0.0
64, 0.0
65, 0.0
66, 0.0
67, 0.0
68, 0.0
69, 0.0
70, 0.0
71, 0.0
72, 0.0
73, 0.0
74, 0.0
75, 0.0
76, 0.0
77, 0.0
78, 0.0
79, 0.0
80, 0.0
81, 0.0
82, 0.0
83, 0.0
84, 0.0
85, 0.0
86, 0.0
87, 0.0
88, 0.0
89, 0.0
90, 0.0
91, 0.0
92, 0.0
93, 0.0
94, 0.0
95, 0.0
96, 0.0
97, 0.0
98, 0.0
99, 0.0
100, 0.0
101, 0.0
102, 0.0
103, 0.0
104, 0.0
105, 0.0
106, 0.0
107, 0.0
108, 0.0
109, 0.0
110, 0.0
111, 0.0
112, 0.0
113, 0.0
114, 0.0
115, 0.0
116, 0.0
117, 0.0
118, 0.0
119, 0.0
120, 0.0
121, 0.0
122, 0.0
123, 0.0
124, 0.0
125, 0.0
126, 0.0
127, 0.0
128, 0.0
129, 0.0
130, 0.0
131, 0.0
132, 0.0
133, 0.0
134, 0.0
135, 0.0
136, 0.0
137, 0.0
138, 0.0
139, 0.0
140, 0.0
141, 0.0
142, 0.0
143, 0.0
144, 0.0
145, 0.0
146, 0.0
147, 0.0
148, 0.0
149, 0.0
150, 0.0
151, 0.0
152, 0.0
153, 0.0
154, 0.0
155, 0.0
156, 0.0
157, 0.0
158, 0.0
159, 0.0
160, 0.0
161, 0.0
162, 0.0
163, 0.0
164, 0.0
165, 0.0
166, 0.0
167, 0.0
168, 0.0
169, 0.0
170, 0.0
171, 0.0
172, 0.0
173, 0.0
174, 0.0
175, 0.0
176, 0.0
177, 0.0
178, 0.0
179, 0.0
180, 0.0
181, 0.0
182, 0.0
183, 0.0
184, 0.0
185, 0.0
186, 0.0
187, 0.0
188, 0.0
189, 0.0
190, 0.0
191, 0.0
192, 0.0
193, 0.0
194, 0.0
195, 0.0
196, 0.0
197, 0.0
198, 0.0
199, 0.0
200, 0.0
201, 0.0
202, 0.0
203, 0.0
204, 0.0
205, 0.0
206, 0.0
207, 0.0
208, 0.0
209, 0.0
210, 0.0
211, 0.0
212, 0.0
213, 0.0
214, 0.0
215, 0.0
216, 0.0
217, 0.0
218, 0.0
219, 0.0
220, 0.0
221, 0.0
222, 0.0
223, 0.0
224, 0.0
225, 0.0
226, 0.0
227, 0.0
228, 0.0
229, 0.0
230, 0.0
231, 0.0
232, 0.0
233, 0.0
234, 0.0
235, 0.0
236, 0.0
237, 0.0
238, 0.0
239, 0.0
240, 0.0
241, 0.0
242, 0.0
243, 0.0
244, 0.0
245, 0.0
246, 0.0
247, 0.0
248, 0.0
249, 0.0
250, 0.0
251, 0.0
252, 0.0
253, 0.0
254, 0.0
255, 0.0
256, 0.0
257, 0.0
258, 0.0
259, 0.0
260, 0.0
261, 0.0
262, 0.0
263, 0.0
264, 0.0
265, 0.0
266, 0.0
267, 0.0
268, 0.0
269, 0.0
270, 0.0
271, 0.0
272, 0.0
273, 0.0
274, 0.0
275, 0.0
276, 0.0
277, 0.0
278, 0.0
279, 0.0
280, 0.0
281, 0.0
282, 0.0
283, 0.0
284, 0.0
285, 0.0
286, 0.0
287, 0.0
288, 0.0
289, 0.0
290, 0.0
291, 0.0
292, 0.0
293, 0.0
294, 0.0
295, 0.0
296, 0.0
297, 0.0
298, 0.0
299, 0.0
300, 0.0
301, 0.0
302, 0.0
303, 0.0
304, 0.0
305, 0.0
306, 0.0
307, 0.0
308.0, 1.2947300135471296e-05
309.0, 0.0009256988558799129
310.0, 0.006333976245860594
311.0, 0.012276823930843719
312.0, 0.0024842143259489777
313.0, 0.0018142642852445622
314.0, 0.008767553580979252
315.0, 0.012056408086072624
316.0, 0.013830630673022625
317.0, 0.016962732957172898
318.0, 0.013126532617792395
319.0, 0.016069546699860077
320.0, 0.009445108020245467
321.0, 0.0059656049256905375
322.0, 0.00941328149867429
323.0, 0.017799229299169148
324.0, 0.028960992320857776
325.0, 0.03165489973049426
326.0, 0.03310646486988549
327.0, 0.03603193563738046
328.0, 0.03957533815971135
329.0, 0.042053659191488596
330.0, 0.04812723461657138
331.0, 0.0454049032280248
332.0, 0.05262584038443744
333.0, 0.0591713612653958
334.0, 0.06180734415740997
335.0, 0.06439207075097034
336.0, 0.06076546444871374
337.0, 0.07000405591927192
338.0, 0.06984821096036242
339.0, 0.06799559784211592
340.0, 0.0691021318805313
341.0, 0.07151678166833016
342.0, 0.08112653460427674
343.0, 0.10178525070426699
344.0, 0.09849546339348651
345.0, 0.10177537604553305
346.0, 0.11670842441165238
347.0, 0.11344695500281825
348.0, 0.11557425491157575
349.0, 0.10378579904481769
350.0, 0.10737172749163341
351.0, 0.10652444868276865
352.0, 0.09603070011011346
353.0, 0.09780151945526369
354.0, 0.10043569597699772
355.0, 0.09952111720458225
356.0, 0.09879170976596814
357.0, 0.10205255766580171
358.0, 0.10402178980327227
359.0, 0.0914703521616838
360.0, 0.09089958430102983
361.0, 0.09506431888821254
362.0, 0.09454049566759094
363.0, 0.10225059175594298
364.0, 0.11299573275752003
365.0, 0.09769317213580397
366.0, 0.11999784722778109
367.0, 0.12181124260938321
368.0, 0.11701714022979443
369.0, 0.1178096267777101
370.0, 0.11731212135284116
371.0, 0.09094302867723439
372.0, 0.10089169809629805
373.0, 0.11237462934367698
374.0, 0.11657440589124896
375.0, 0.1322461564435711
376.0, 0.15662506408096105
377.0, 0.15570118360448276
378.0, 0.15975601243929843
379.0, 0.1640141551123446
380.0, 0.16523068908537025
381.0, 0.16252889947211016
382.0, 0.1623876017839725
383.0, 0.17513286068452205
384.0, 0.17068637667435724
385.0, 0.17629051031340542
386.0, 0.18102014973649153
387.0, 0.18196648613268004
388.0, 0.18147090024169557
389.0, 0.18412470336282016
390.0, 0.18038038264656017
391.0, 0.1829635034911408
392.0, 0.18492290213632723
393.0, 0.1852149940806253
394.0, 0.18007840632557032
395.0, 0.16657814264081064
396.0, 0.17108767396916222
397.0, 0.17593044815087075
398.0, 0.1675390418980885
399.0, 0.16165386485514582
400.0, 0.15573359590724487
401.0, 0.1337420696396723
402.0, 0.115168617132165
403.0, 0.14813868027021285
404.0, 0.14308683667476235
405.0, 0.13619365740813652
406.0, 0.13391776364975155
407.0, 0.11802460206822175
408.0, 0.10772202186232001
409.0, 0.09938642685245576
410.0, 0.10550826475329197
411.0, 0.11247231200598094
412.0, 0.11407410650346628
413.0, 0.10713911103905023
414.0, 0.07882807746349292
415.0, 0.0831218737237283
416.0, 0.07767522877444143
417.0, 0.06901768331125299
418.0, 0.06752048376740667
419.0, 0.07028109595469482
420.0, 0.04605110977335763
421.0, 0.05549047731441434
422.0, 0.05383946374840136
423.0, 0.053582174205872954
424.0, 0.04986108490032957
425.0, 0.03947709214957412
426.0, 0.03288015566663089
427.0, 0.039132723476373844
428.0, 0.0390180427419973
429.0, 0.020484965168904048
430.0, 0.00531895758559749
431.0, 0.005368308520699773
432.0, 0.009147494883988964
433.0, 0.012800187053090963
434.0, 0.011411669660199941
435.0, 0.017932210697306293
436.0, 0.017145537512530593
437.0, 0.012535340671795838
438.0, 0.019542285926220912
439.0, 0.011373744100632712
440.0, 0.02515207434719783
441.0, 0.024541175598729082
442.0, 0.01903970888630417
443.0, 0.01149052881739938
444.0, 0.0021486747853747745
445.0, 0.0033393471975536916
446.0, 0.01937457500402323
447.0, 0.007590719941403404
448.0, 0.004903891099531892
449.0, 0.006598997422248524
450.0, 0.0017171153157447489
451.0, 0.0026520214635038283
452.0, 0.002137948155318301
453.0, 0.007107095894412184
454.0, 0.0047984301870705095
455.0, 0.010416190258393495
456.0, 0.028168699150676872
457.0, 0.04201820726233023
458.0, 0.05007879990594002
459.0, 0.03457547274371407
460.0, 0.04083223879886137
461.0, 0.04930891856958559
462.0, 0.05132307944913125
463.0, 0.05591496680859441
464.0, 0.07627814580019
465.0, 0.06321512717734179
466.0, 0.07583618861341025
467.0, 0.08778694531495453
468.0, 0.09675963218718109
469.0, 0.10643961686272628
470.0, 0.10572739559594396
471.0, 0.10905104211941244
472.0, 0.10283157945313637
473.0, 0.10169036594561612
474.0, 0.11238902732268059
475.0, 0.12724806144828987
476.0, 0.12995906074172267
477.0, 0.13603267204133052
478.0, 0.14285544994765745
479.0, 0.15248546957465134
480.0, 0.15932997791562037
481.0, 0.16530081756173148
482.0, 0.17485082461833612
483.0, 0.18229015516985383
484.0, 0.1987850408874288
485.0, 0.19966302605500522
486.0, 0.22206341792945344
487.0, 0.2488166582952818
488.0, 0.25819942569192694
489.0, 0.25932095364178687
490.0, 0.27546194567323623
491.0, 0.26363674248817187
492.0, 0.2696314814816464
493.0, 0.27971974810044076
494.0, 0.2779851716455412
495.0, 0.26837575849872086
496.0, 0.294082389395301
497.0, 0.3249389765331391
498.0, 0.321775511221966
499.0, 0.324962861680665
500.0, 0.3319613060868009
501.0, 0.32802333721839005
502.0, 0.32000820736371327
503.0, 0.3296217411270924
504.0, 0.34401877753183646
505.0, 0.3540230478895798
506.0, 0.3635659217811399
507.0, 0.372989417356525
508.0, 0.3785036569601097
509.0, 0.38473065456028155
510.0, 0.3869891985056876
511.0, 0.3930879799596479
512.0, 0.40679279130298834
513.0, 0.4111085842047162
514.0, 0.40556218939811667
515.0, 0.4292871765817403
516.0, 0.4360964202713309
517.0, 0.4134210401953837
518.0, 0.4417463694298526
519.0, 0.46822078141773094
520.0, 0.4663679587980301
521.0, 0.4626208764456684
522.0, 0.48745073848549375
523.0, 0.4727591099311075
524.0, 0.4799088196049112
525.0, 0.49982518161427186
526.0, 0.5187896051821015
527.0, 0.5248994485360192
528.0, 0.5161981364122636
529.0, 0.5413367311213853
530.0, 0.5321547338514787
531.0, 0.5359284259368334
532.0, 0.5380842402261732
533.0, 0.5323796557866132
534.0, 0.5279843130422862
535.0, 0.5363511125835326
536.0, 0.5327162438244814
537.0, 0.5391877734323425
538.0, 0.5366193596985775
539.0, 0.530146937559409
540.0, 0.5247863505724691
541.0, 0.5173003767519282
542.0, 0.5157447102040993
543.0, 0.5011176830945779
544.0, 0.49024456992734683
545.0, 0.4724680520370987
546.0, 0.44679598564609047
547.0, 0.4250154750742054
548.0, 0.4260410767069618
549.0, 0.43428327359177077
550.0, 0.4103966087551792
551.0, 0.3967853347996015
552.0, 0.3800363933978238
553.0, 0.3569962731756101
554.0, 0.34043204618380685
555.0, 0.33722609681334786
556.0, 0.30246774597039044
557.0, 0.2741966362270225
558.0, 0.2696470161615988
559.0, 0.26397517263814946
560.0, 0.2388359105881036
561.0, 0.208108724369768
562.0, 0.2207752896922248
563.0, 0.19047549729199492
564.0, 0.18338074611019306
565.0, 0.16729727133413147
566.0, 0.14832315840973637
567.0, 0.14012933020464435
568.0, 0.1326788584041676
569.0, 0.1167482375714512
570.0, 0.11212106331122423
571.0, 0.10571525929534345
572.0, 0.09455406400177861
573.0, 0.08474095155913738
574.0, 0.08170654234853886
575.0, 0.0787228530355329
576.0, 0.0673448795454728
577.0, 0.06724955661842125
578.0, 0.06430073331556063
579.0, 0.04717883368446953
580.0, 0.033601844240294054
581.0, 0.04136536187274702
582.0, 0.026118570906217508
583.0, 0.05385064307210074
584.0, 0.02113387120081351
585.0, 0.011972919298004103
586.0, 0.010491614504846048
587.0, 0.002559771857725497
588.0, 0.0057113115021163036
589.0, 0.028360051840309965
590.0, 0.010683184229312491
591.0, 0.0068176654431093935
592.0, 0.009966404202396903
593.0, 0.012421427859088162
594.0, 0.009813775200725246
595.0, 0.003415085580276191
596.0, 0.0027273849359380686
597.0, 0.001803866067075255
598.0, 0.01588951533491766
599.0, 0.012223419929574129
600.0, 0.010947229559728199
601.0, 0.02016610412135314
602.0, 0.01212694871985745
603.0, 0.03950811822286849
604.0, 0.03010411613628551
605.0, 0.03125125901717892
606.0, 0.02345520588252552
607.0, 0.02203364112472216
608.0, 0.03665530643759476
609.0, 0.043627584989267436
610.0, 0.04702180613221595
611.0, 0.05379222151344114
612.0, 0.05463292441018648
613.0, 0.05751695506654797
614.0, 0.06135034355715563
615.0, 0.06345809286015826
616.0, 0.06679200975744651
617.0, 0.06775686449116643
618.0, 0.06943927641333315
619.0, 0.07358018729141154
620.0, 0.06948411777641032
621.0, 0.07068860261587809
622.0, 0.08542451858932244
623.0, 0.0927508673434066
624.0, 0.07712588832501248
625.0, 0.0798858417826463
626.0, 0.0934798504266122
627.0, 0.09868923352439753
628.0, 0.09914081584075839
629.0, 0.10384528192182974
630.0, 0.1086426664841014
631.0, 0.1030567816431538
632.0, 0.12764027586350576
633.0, 0.13692462294106905
634.0, 0.15175821735088582
635.0, 0.1592439901778238
636.0, 0.15735717317519166
637.0, 0.1738306710482297
638.0, 0.15019671670808182
639.0, 0.17292107440329274
640.0, 0.19321319204814635
641.0, 0.2260542099281806
642.0, 0.23892955338551705
643.0, 0.2363672474582091
644.0, 0.27898905928261647
645.0, 0.3196142398018786
646.0, 0.2965140152462007
647.0, 0.30748324635545954
648.0, 0.32344778164661664
649.0, 0.3433678810240418
650.0, 0.37188030579206216
651.0, 0.3984260415003115
652.0, 0.3922110855892972
653.0, 0.4523077979032461
654.0, 0.4769433444227761
655.0, 0.5143056863430929
656.0, 0.5641745867598766
657.0, 0.6048539521764013
658.0, 0.6301627007767966
659.0, 0.6858334808530698
660.0, 0.7187166397726041
661.0, 0.781392097236165
662.0, 0.8080336457013423
663.0, 0.8325076480481758
664.0, 0.8641345572112241
665.0, 0.8836640231555463
666.0, 0.8983153280857329
667.0, 0.8831479434171267
668.0, 0.8844757012390314
669.0, 0.9173323077907711
670.0, 0.903046640303643
671.0, 0.8493602327669288
672.0, 0.8100355448921862
673.0, 0.7904772909811623
674.0, 0.7117069980579667
675.0, 0.6976265889543904
676.0, 0.6723546041343298
677.0, 0.6440949520884952
678.0, 0.6171230062776942
679.0, 0.5931943843334342
680.0, 0.5767992157454869
681.0, 0.5670507959993908
682.0, 0.5623029246234977
683.0, 0.5568186531000674
684.0, 0.5628473109307599
685.0, 0.5693243878043978
686.0, 0.5726344006827968
687.0, 0.5800456299311993
688.0, 0.5876850408986221
689.0, 0.5981769421542875
690.0, 0.6067449061143662
691.0, 0.6156177078266257
692.0, 0.6268412068046078
693.0, 0.6404351743959221
694.0, 0.6561406723909938
695.0, 0.6748852922842837
696.0, 0.6918354118183535
697.0, 0.7168181992805387
698.0, 0.7378226773019968
699.0, 0.7584008437760812
700.0, 0.7827501479494894
701.0, 0.8102136714106346
702.0, 0.8352456099721668
703.0, 0.8542383905084043
704.0, 0.8862181965647652
705.0, 0.9027101064452874
706.0, 0.913962362954284
707.0, 0.9278804518020328
708.0, 0.9463417225714209
709.0, 0.9625123034887397
710.0, 0.9637556048340072
711.0, 0.966211975524163
712.0, 0.986440548803279
713.0, 0.9971593072675926
714.0, 0.9822318325687458
715.0, 0.9683925991977556
716.0, 0.9700702460044901
717.0, 0.9660712144885556
718.0, 0.9673597479142405
719.0, 0.9233855698148064
720.0, 0.8753807394666774
721.0, 0.8609108507948167
722.0, 0.8526879981220377
723.0, 0.8395509621310118
724.0, 0.830110085118751
725.0, 0.8150247499657609
726.0, 0.7820560180782458
727.0, 0.7831642425580733
728.0, 0.7634990805634517
729.0, 0.7478477193818714
730.0, 0.7304374689915046
731.0, 0.7142797125178559
732.0, 0.7148402161557714
733.0, 0.6852095689218279
734.0, 0.6697589808654524
735.0, 0.6576474455020824
736.0, 0.6855014013163112
737.0, 0.6795598598869945
738.0, 0.6613023093827919
739.0, 0.6691789989597363
740.0, 0.6503290211945059
741.0, 0.6703587220059263
742.0, 0.6752875134993709
743.0, 0.6845755251849298
744.0, 0.7036840067288359
745.0, 0.7159774882877347
746.0, 0.7200177402118598
747.0, 0.7273448314355571
748.0, 0.7311512589195692
749.0, 0.7398988188741726
750.0, 0.7742663080345634
751.0, 0.7719440246545094
752.0, 0.7867885379224869
753.0, 0.8097798589721775
754.0, 0.8173478600270172
755.0, 0.8174802438936563
756.0, 0.8246880072412272
757.0, 0.8305139738306352
758.0, 0.8614676051329626
759.0, 0.8636166079528911
760.0, 0.8610253271558036
761.0, 0.8572748619010229
762.0, 0.8495213384359832
763.0, 0.8526836018341573
764.0, 0.8545440173234259
765.0, 0.8508763617964548
766.0, 0.8268134891812644
767.0, 0.813383565987176
768.0, 0.8015848024379606
769.0, 0.7864747750586178
770.0, 0.7747155615457166
771.0, 0.769656022842332
772.0, 0.7554440693949582
773.0, 0.7341753064067472
774.0, 0.7313281739333304
775.0, 0.6949810102301585
776.0, 0.663849582638989
777.0, 0.6513546562340806
778.0, 0.6321120305822578
779.0, 0.6035825669195786
780.0, 0.5998541013878415
781.0, 0.5624759928056609
782.0, 0.5527188133231115
783.0, 0.5235110563023692
784.0, 0.4901819895521595
785.0, 0.46030312393734535
786.0, 0.42479887416746825
787.0, 0.3995953219279698
788.0, 0.36764045270668083
789.0, 0.3481569702736614
790.0, 0.3307397758430692
791.0, 0.29514025442335867
792.0, 0.2699769690092103
793.0, 0.258625235025413
794.0, 0.2366194035357688
795.0, 0.21252553745900607
796.0, 0.2166443561601909
797.0, 0.18327665833491788
798.0, 0.15528829368076497
799.0, 0.13584982369296333
800.0, 0.11625306608778141
801.0, 0.10088892031894114
802.0, 0.09394437430717732
803.0, 0.072789880372032
804.0, 0.056226637317368454
805.0, 0.05845899440856192
806.0, 0.05421265117872784
807.0, 0.04178379484739725
808.0, 0.038761553391730715
809.0, 0.03711594444246226
810.0, 0.018778723890326567
811.0, 0.0009346462633562677
812.0, 0.0035405143381856885
813.0, 0.005748008341444792
814.0, 0.008600035134777978
815.0, 0.008632780027807742
816.0, 0.00672648087864154
817.0, 0.005538393038976009
818.0, 0.006991610374655871
819.0, 0.00928433440599859
820.0, 0.00026714787120929277
821.0, 0.007945577208412422
822.0, 0.015142840066725567
823.0, 0.007001278071234695
824.0, 0.007043567497220648
825.0, 0.012502142693270397
826.0, 0.014085342632146424
827.0, 0.021619358594425632
828.0, 0.016413067603901092
829.0, 0.013934621190851326
830.0, 0.015311120848374018
831.0, 0.01878220794400565
832.0, 0.019936143478499403
833.0, 0.014949814501818617
834.0, 0.006658365805029563
835.0, 0.00367461052976639
836.0, 0.008892220615525942
837.0, 0.0030496932844546742
838.0, 0.010681020373859648
839.0, 0.012975281886338988
840.0, 0.007169784290805016
841.0, 0.00980934655530633
842.0, 0.01691990218076753
843.0, 0.014974651315127286
844.0, 0.01948685068070412
845.0, 0.0036939681739552675
846.0, 0.020402450464470027
847.0, 0.0069489252089403345
848.0, 0.002430104129889783
849.0, 0.0019362774519557401
850.0, 0.00758533589462095
851.0, 0.019977293260273414
852.0, 0.019439539923300827
853.0, 0.009241226951361375
854.0, 0.007831863628236926
855.0, 0.012683667689222895
856.0, 0.0271040720667755
857.0, 0.028356022290790036
858.0, 0.030213343118848237
859.0, 0.04053778499090429
860.0, 0.045957980158499306
861.0, 0.05206256669666987
862.0, 0.05685571907570043
863.0, 0.05783265104730134
864.0, 0.0700121050034193
865.0, 0.0681305709535771
866.0, 0.06987134627942898
867.0, 0.07080132983570678
868.0, 0.06450793380488815
869.0, 0.0748728115419745
870.0, 0.08655565240029882
871.0, 0.10254208625510879
872.0, 0.08035108589242625
873.0, 0.097037440274288
874.0, 0.10014526064807384
875.0, 0.11338876119848976
876.0, 0.1326965280452624
877.0, 0.12000654225500032
878.0, 0.12127572439290843
879.0, 0.1135125198050611
880.0, 0.12482287316036021
881.0, 0.14265365788617454
882.0, 0.1292904775391891
883.0, 0.13347275901247702
884.0, 0.14309488650718025
885.0, 0.14049723475826484
886.0, 0.1517864523190771
887.0, 0.14832535434396096
888.0, 0.17047587473658427
889.0, 0.15887091286117522
890.0, 0.13845360725883274
891.0, 0.15392864433759465
892.0, 0.1686208784180406
893.0, 0.163010799648141
894.0, 0.15851493337995257
895.0, 0.1731809238364166
896.0, 0.1936807366805144
897.0, 0.16795059394184852
898.0, 0.18126930712346084
899.0, 0.18786103288852948
900.0, 0.1895035340529227
901.0, 0.1953923133288252
902.0, 0.2002589110156883
903.0, 0.1966557424469413
904.0, 0.1930359674333288
905.0, 0.1761734436014258
906.0, 0.18215737328823456
907.0, 0.18323753167025142
908.0, 0.1842888732452184
909.0, 0.1913805066917701
910.0, 0.19463499876035173
911.0, 0.19389279043149374
912.0, 0.19702057806749762
913.0, 0.1970339409236346
914.0, 0.2110680087590967
915.0, 0.20669952543125414
916.0, 0.2129848495848362
917.0, 0.21490911672767238
918.0, 0.20437235239110427
919.0, 0.20456170951773772
920.0, 0.2195300189432955
921.0, 0.22825062403394306
922.0, 0.22850055770610492
923.0, 0.20461650680967283
924.0, 0.21599653648478534
925.0, 0.21516392274514645
926.0, 0.2120650859472002
927.0, 0.2211278670623353
928.0, 0.21947020473762868
929.0, 0.21311094524553276
930.0, 0.22568532927927734
931.0, 0.2283178361660708
932.0, 0.23663311990482894
933.0, 0.23072530121878032
934.0, 0.22871193462939263
935.0, 0.23806968965922543
936.0, 0.24583924034226928
937.0, 0.24433135462110467
938.0, 0.24317304146711557
939.0, 0.24411059278596073
940.0, 0.22743760303134677
941.0, 0.23293702180248044
942.0, 0.24923300122644976
943.0, 0.24462048815489856
944.0, 0.25021283506482334
945.0, 0.2389187799295122
946.0, 0.22303398538563027
947.0, 0.20954473171228244
948.0, 0.20074725695264772
949.0, 0.20888181376151618
950.0, 0.20316092839612038
951.0, 0.19257620997264957
952.0, 0.1822285478084717
953.0, 0.1940595134038636
954.0, 0.1827889878631461
955.0, 0.18352228935611353
956.0, 0.19609232427578982
957.0, 0.18808286797892737
958.0, 0.16493660416849606
959.0, 0.17764544526028608
960.0, 0.16005098669272289
961.0, 0.15533664333452285
962.0, 0.17064944009298988
963.0, 0.14383085426447875
964.0, 0.1253842709891417
965.0, 0.12304562037240957
966.0, 0.12791408550760844
967.0, 0.12788307245167943
968.0, 0.09578806679963678
969.0, 0.1134558518141453
970.0, 0.12462147823483227
971.0, 0.12891169447355835
972.0, 0.11094165315087728
973.0, 0.11104635499576028
974.0, 0.11451605239052196
975.0, 0.11167842957700155
976.0, 0.11501484816463495
977.0, 0.12360737321651624
978.0, 0.1066864586894147
979.0, 0.12240292928701008
980.0, 0.12527254061827192
981.0, 0.13225651037332553
982.0, 0.1303188112648426
983.0, 0.12765485715244698
984.0, 0.13402756115908096
985.0, 0.14448646066094242
986.0, 0.1467556491611956
987.0, 0.1427055569986247
988.0, 0.15095470317673962
989.0, 0.13120562483565398
990.0, 0.1356053171618025
991.0, 0.15086117227805382
992.0, 0.15170971188249135
993.0, 0.15513728194035664
994.0, 0.15610536178713805
995.0, 0.1510999112188503
996.0, 0.15305049853003402
997.0, 0.15451127184178265
998.0, 0.15413466020656533
999.0, 0.15693127644630808
1000.0, 0.15947233553325957
1001.0, 0.1646009039253307
1002.0, 0.15850155917860814
1003.0, 0.16343435166639164
1004.0, 0.1777483387990552
1005.0, 0.18570136550551516
1006.0, 0.18276581904849215
1007.0, 0.16258024706483504
1008.0, 0.17398524928717177
1009.0, 0.17109933946606307
1010.0, 0.16769171871537436
1011.0, 0.1797999695740451
1012.0, 0.17171863808161592
1013.0, 0.1717129501141795
1014.0, 0.1814291338510138
1015.0, 0.18528537693419414
1016.0, 0.19036047049263996
1017.0, 0.1847105909698068
1018.0, 0.18303944352679588
1019.0, 0.19592457533728974
1020.0, 0.2015866441035392
1021.0, 0.19710282124745448
1022.0, 0.20062484096518096
1023.0, 0.1932773145680113
1024.0, 0.18451632968463363
1025.0, 0.1937592982129206
1026.0, 0.2054536352626939
1027.0, 0.20032018579187064
1028.0, 0.20926370395135577
1029.0, 0.21234994428979187
1030.0, 0.19014032342551204
1031.0, 0.20449806291977535
1032.0, 0.2148901432830066
1033.0, 0.20558893996099287
1034.0, 0.2057293085200846
1035.0, 0.21400982654249157
1036.0, 0.1978369739092174
1037.0, 0.187536204567743
1038.0, 0.20963337099144105
1039.0, 0.2066065302915998
1040.0, 0.19386620532668689
1041.0, 0.19754748367185268
1042.0, 0.21635652878730985
1043.0, 0.20753100143903214
1044.0, 0.19427130838825465
1045.0, 0.20421457192287257
1046.0, 0.2142727154738461
1047.0, 0.20026081047703725
1048.0, 0.1909918855038153
1049.0, 0.21125886008891628
1050.0, 0.20370817764149415
1051.0, 0.20848975760815663
1052.0, 0.20765312012383647
1053.0, 0.21241087891235172
1054.0, 0.21744481283193146
1055.0, 0.21782962224791005
1056.0, 0.21723931968453436
1057.0, 0.2164215679514406
1058.0, 0.2132598743008323
1059.0, 0.22127347564924438
1060.0, 0.21383681869725335
1061.0, 0.21485419490863322
1062.0, 0.21327468088475016
1063.0, 0.21021515832326418
1064.0, 0.21375287977821605
1065.0, 0.21105534641140644
1066.0, 0.20733600836626023
1067.0, 0.2128541166468548
1068.0, 0.20614409124390853
1069.0, 0.2136594976391956
1070.0, 0.17598405970480777
1071.0, 0.18782063228668838
1072.0, 0.20195332414749947
1073.0, 0.19577624899425597
1074.0, 0.20431507774515503
1075.0, 0.20393675563098973
1076.0, 0.1973794011602057
1077.0, 0.19669315453701727
1078.0, 0.1824166273113082
1079.0, 0.16013330791411123
1080.0, 0.18792428286808413
1081.0, 0.16876883976355672
1082.0, 0.14943651771589528
1083.0, 0.15918929311501356
1084.0, 0.14427951845013448
1085.0, 0.13901350076442706
1086.0, 0.137783905642359
1087.0, 0.13051083785908021
1088.0, 0.11864976139570212
1089.0, 0.1056282913962756
1090.0, 0.10902818269079005
1091.0, 0.1054683411019017
1092.0, 0.07834377994543631
1093.0, 0.09908989306784677
1094.0, 0.09760967191284885
1095.0, 0.08720483116407671
1096.0, 0.09339522247217548
1097.0, 0.10531303168121428
1098.0, 0.11072491039053474
1099.0, 0.10241951676320697
1100.0, 0.08504768158410872
1101.0, 0.09257291926072701
1102.0, 0.08791305808433363
1103.0, 0.08252431738509851
1104.0, 0.09653204813189087
1105.0, 0.07938155234204818
1106.0, 0.08533082692640602
1107.0, 0.09033394953563506
1108.0, 0.09410079160958144
1109.0, 0.0938695388580903
1110.0, 0.08761956861355509
1111.0, 0.08835419046335723
1112.0, 0.09801544929385554
1113.0, 0.09999275068933401
1114.0, 0.09024440810879358
1115.0, 0.09696314212758848
1116.0, 0.07763882279955275
1117.0, 0.07574584362459201
1118.0, 0.08704239371941386
1119.0, 0.08756591386951194
1120.0, 0.08678493509438893
1121.0, 0.09162923309578545
1122.0, 0.08399327625279299
1123.0, 0.0674407291864279
1124.0, 0.08680343194027179
1125.0, 0.08658840857264383
1126.0, 0.05202190190905774
1127.0, 0.03245816463655639
1128.0, 0.028485504652692333
1129.0, 0.043002637172306686
1130.0, 0.047039775861516676
1131.0, 0.03736888680552125
1132.0, 0.02446958382018853
1133.0, 0.018786690514466523
1134.0, 0.02830649923363581
1135.0, 0.038427520975535145
1136.0, 0.0010134258866051132
1137.0, 0.0008848951072839717
1138.0, 0.016346831422611417
1139.0, 0.004726548199846914
1140.0, 0.011091595920165107
1141.0, 0.02028751263271731
1142.0, 0.019619938007352795
1143.0, 0.02528268809369623
1144.0, 0.02732623377114254
1145.0, 0.012362283356735332
1146.0, 0.004433210754054465
1147.0, 0.009159429264659222
1148.0, 0.013499980719913996
1149.0, 0.010761352021267124
1150.0, 0.004104826805179425
1151.0, 0.00510781495722748
1152.0, 0.011726530199942433
1153.0, 0.005453416870454734
1154.0, 0.008593958496453539
1155.0, 0.013137940729563997
1156.0, 0.0140624040909623
1157.0, 0.012646113372950699
1158.0, 0.0038325455741013556
1159.0, 0.013596766525338028
1160.0, 0.004126491209261198
1161.0, 0.00010933140094305334
1162.0, 0.018707406886575684
1163.0, 0.02298763501236894
1164.0, 0.007402956543361958
1165.0, 0.0026960239009844998
1166.0, 0.010933780221549848
1167.0, 0.009582191866659491
1168.0, 0.00668674732712086
1169.0, 0.014042364839066063
1170.0, 0.014988249543968803
1171.0, 0.009760695174005058
1172.0, 0.0006545438857103866
1173.0, 0.0035741251449736174
1174.0, 0.007775433335850123
1175.0, 0.009282604866300162
1176.0, 0.012791922977153591
1177.0, 0.006730862782766198
1178.0, 0.004090600055971079
1179.0, 0.00894240637841137
1180.0, 0.009614904383812727
1181.0, 0.004438128472766919
1182.0, 0.00658246828169183
1183.0, 0.017119126205474698
1184.0, 0.019550704474402974
1185.0, 0.011738389983354636
1186.0, 0.019962830191629737
1187.0, 0.0055000937284619645
1188.0, 0.0017233080876881144
1189.0, 0.01393909041261611
1190.0, 0.01297092589830353
1191.0, 0.015246607488699871
1192.0, 0.02037341005185336
1193.0, 0.015467323065791296
1194.0, 0.010784214087363467
1195.0, 0.018868770058931873
1196.0, 0.016894075211048215
1197.0, 0.003659874210015514
1198.0, 0.021368292919749968
1199.0, 0.004227408377925252
1200.0, 0.0006762263820343404
1201.0, 0.0059364819308048
1202.0, 0.004448762329307171
1203.0, 0.012574901921552775
1204.0, 0.015829790674014674
1205.0, 0.01190830043980279
1206.0, 0.01015885808735007
1207.0, 0.009683211732380886
1208.0, 0.007990254080249991
1209.0, 0.011238927738687652
1210.0, 0.006861807335382315
1211.0, 0.012725487828163823
1212.0, 0.021102353562111827
1213.0, 0.01050078000204575
1214.0, 0.017300808163132102
1215.0, 0.009437268343451339
1216.0, 0.002793837568307587
1217.0, 0.0005855610555565304
1218.0, 0.010334463542284057
1219.0, 0.013585945354580678
1220.0, 0.003215795074962189
1221.0, 0.00480689175154376
1222.0, 0.014822320953710555
1223.0, 0.014669290836714503
1224.0, 0.018993400329091956
1225.0, 0.004958702316279655
1226.0, 0.008939377344313864
1227.0, 0.008704788708893692
1228.0, 0.022346995682797646
1229.0, 0.028856450201648464
1230.0, 0.0207584040946118
1231.0, 0.007078494987478206
1232.0, 0.009396425042806593
1233.0, 0.014635243653077355
1234.0, 0.008247957987055597
1235.0, 0.009054210806772626
1236.0, 0.001857332204229598
1237.0, 0.00032140338829989533
1238.0, 0.0019349358237805711
1239.0, 0.011010765193601692
1240.0, 0.003984714584983808
1241.0, 0.011923454203783462
1242.0, 0.013052315118354562
1243.0, 0.015537083898190468
1244.0, 0.019039127632599934
1245.0, 0.009839552975022033
1246.0, 0.0007379754518986653
1247.0, 0.010975420084225706
1248.0, 0.021562417442925162
1249.0, 0.008975202145157067
1250.0, 0.003493028107198639
1251.0, 0.0057604297678925005
1252.0, 0.031120064688894004
1253.0, 0.0187267546697553
1254.0, 0.02166849411734272
1255.0, 0.007676453022166478
1256.0, 0.020449423173388766
1257.0, 0.019526606603443984
1258.0, 0.007862176267256753
1259.0, 0.005385526344472204
1260.0, 0.01428161530894127
1261.0, 0.02674200563312264
1262.0, 0.029526990774707686
1263.0, 0.025052711644538265
1264.0, 0.03669549216100027
1265.0, 0.014584860938179239
1266.0, 0.014527537706021562
1267.0, 0.04628254731133066
1268.0, 0.018758985832320232
1269.0, 0.012070388508543178
1270.0, 0.004214435008375943
1271.0, 0.005732917787318082
1272.0, 0.004063936291384599
1273.0, 0.013421607229765962
1274.0, 0.02691011163885164
1275.0, 0.03353834938396631
1276.0, 0.024731972067662762
1277.0, 0.011247468045799217
1278.0, 0.018592132778440865
1279.0, 0.014813339150758676
1280.0, 0.01289842516340682
1281.0, 0.027546997863398082
1282.0, 0.005089717803044737
1283.0, 0.02022718879026817
1284.0, 0.02197615748117778
1285.0, 0.028626228874780668
1286.0, 0.02436933857925111
1287.0, 0.020190362094488053
1288.0, 0.027073065070638207
1289.0, 0.034951935521024345
1290.0, 0.032808187503835906
1291.0, 0.030564823117837845
1292.0, 0.0272377424407731
1293.0, 0.011238386503129272
1294.0, 0.018147920692765274
1295.0, 0.030905249841231122
1296.0, 0.0229945307261312
1297.0, 0.031614970926203974
1298.0, 0.03393398616699599
1299.0, 0.009446838374180602
1300.0, 0.025309388203536884
1301.0, 0.031645628591272214
1302.0, 0.017285638134544173
1303.0, 0.024073033416767916
1304.0, 0.02284737317846741
1305.0, 0.012282229842827893
1306.0, 0.01319510628338222
1307.0, 0.016199136256639112
1308.0, 0.01781984260087307
1309.0, 0.027265201935681337
1310.0, 0.02380817346366785
1311.0, 0.019846749805083434
1312.0, 0.02087074125376698
1313.0, 0.004221412964441725
1314.0, 0.021165629073747583
1315.0, 0.0323600574477345
1316.0, 0.0246078156607194
1317.0, 0.026226577701164124
1318.0, 0.04226627891261832
1319.0, 0.039124236127288534
1320.0, 0.03257605564644171
1321.0, 0.03509637877525857
1322.0, 0.03486893019616006
1323.0, 0.028072169106915144
1324.0, 0.022785369165837132
1325.0, 0.020475742530772594
1326.0, 0.015505305376153114
1327.0, 0.023680678842292302
1328.0, 0.027683805848097497
1329.0, 0.04082058879253129
1330.0, 0.03401705850419214
1331.0, 0.034438721613802105
1332.0, 0.03522412252136516
1333.0, 0.042976253953624796
1334.0, 0.03924551646910877
1335.0, 0.029626075141619242
1336.0, 0.03128304203128822
1337.0, 0.03614086080169653
1338.0, 0.027271461060365126
1339.0, 0.0210543431276648
1340.0, 0.027515977512209966
1341.0, 0.02629364545137464
1342.0, 0.02874600016705807
1343.0, 0.03527509960898326
1344.0, 0.03619395791409264
1345.0, 0.03911049199693393
1346.0, 0.04244983316594096
1347.0, 0.036365517973130035
1348.0, 0.03982220743213245
1349.0, 0.026312053480549595
1350.0, 0.025955958504106567
1351.0, 0.039916553405902964
1352.0, 0.05208942434164484
1353.0, 0.05727106634760998
1354.0, 0.04314683456043232
1355.0, 0.03576768213898827
1356.0, 0.03996074054764456
1357.0, 0.035664356957746834
1358.0, 0.0379586339096282
1359.0, 0.04366933671263189
1360.0, 0.029371435317343268
1361.0, 0.043035516497913893
1362.0, 0.04443888660195214
1363.0, 0.05153813969817748
1364.0, 0.043772549283112944
1365.0, 0.040633930615108727
1366.0, 0.05162843325330128
1367.0, 0.05671424028393547
1368.0, 0.049739352403400314
1369.0, 0.053324793412151655
1370.0, 0.04039887828612126
1371.0, 0.034765419525388676
1372.0, 0.04579809795711589
1373.0, 0.049106544355082514
1374.0, 0.04812444650417168
1375.0, 0.05385007174135557
1376.0, 0.045757422063101655
1377.0, 0.03300239145496677
1378.0, 0.05141840261530721
1379.0, 0.0489687958064476
1380.0, 0.032998432515796615
1381.0, 0.05237318669778702
1382.0, 0.03454413684421059
1383.0, 0.03074604882396371
1384.0, 0.037161158938238854
1385.0, 0.03415018175012211
1386.0, 0.04458427129946863
1387.0, 0.04499691505712644
1388.0, 0.04046608831275138
1389.0, 0.039857824787544474
1390.0, 0.029810595233380678
1391.0, 0.03224020336467525
1392.0, 0.03766907625183189
1393.0, 0.03684586937883502
1394.0, 0.04351631619072969
1395.0, 0.04467057813495966
1396.0, 0.038854354221255924
1397.0, 0.04010790319040905
1398.0, 0.020911920530747606
1399.0, 0.024428491398674226
1400.0, 0.026714510650803415
1401.0, 0.04458501526807728
1402.0, 0.02058359729141245
1403.0, 0.023372269010285416
1404.0, 0.037248768892925416
1405.0, 0.033816597137020614
1406.0, 0.04724379415645808
1407.0, 0.030779921583462325
1408.0, 0.024710222742245738
1409.0, 0.025432506571554814
1410.0, 0.02981799247426513
1411.0, 0.03261018245221944
1412.0, 0.04244116253960087
1413.0, 0.04020881346547313
1414.0, 0.026392655622568647
1415.0, 0.028280830389942176
1416.0, 0.026800597834997684
1417.0, 0.030588218454566152
1418.0, 0.012036035089270807
1419.0, 0.0245521758753877
1420.0, 0.02724446434256511
1421.0, 0.006231588473029741
1422.0, 0.018744368003069313
1423.0, 0.04512699778603595
1424.0, 0.02945331630900542
1425.0, 0.04021884432318544
1426.0, 0.04649143265841677
1427.0, 0.06051163389596502
1428.0, 0.07074113137318377
1429.0, 0.07386222888691477
1430.0, 0.05535925832597543
1431.0, 0.0503061073916781
1432.0, 0.051239550079166245
1433.0, 0.045258081124549425
1434.0, 0.048960427780088564
1435.0, 0.04734258058419325
1436.0, 0.037741412404239345
1437.0, 0.047240759181009076
1438.0, 0.04835165025831202
1439.0, 0.05096847729916431
1440.0, 0.04267966754686641
1441.0, 0.0404340233475735
1442.0, 0.05056192796429448
1443.0, 0.05235384895426803
1444.0, 0.04146265038659805
1445.0, 0.048096031364253694
1446.0, 0.024732185508511872
1447.0, 0.02504659139920383
1448.0, 0.03819478658667605
1449.0, 0.02418934850577544
1450.0, 0.009390353455443149
1451.0, 0.018659110517103904
1452.0, 0.02024578044355224
1453.0, 0.02443275961074368
1454.0, 0.013708497946291585
1455.0, 0.015489057069077404
1456.0, 0.020298586978602953
1457.0, 0.011723403785539564
1458.0, 0.010747240964657456
1459.0, 0.010030153835256642
1460.0, 0.01353329683201793
1461.0, 0.026604682496809286
1462.0, 0.020891144957209087
1463.0, 0.014627173461784368
1464.0, 0.012021604197695481
1465.0, 0.02400734710956635
1466.0, 0.012596190164538048
1467.0, 0.02624734530967298
1468.0, 0.01053555055011636
1469.0, 0.01750379453283982
1470.0, 0.0060677254441097615
1471.0, 0.0013825863090292775
1472.0, 0.01197037080624037
1473.0, 0.005268691636818519
1474.0, 0.01455390340449585
1475.0, 0.02119100294397753
1476.0, 0.018759559734236327
1477.0, 0.026466328381756207
1478.0, 0.025792155730694554
1479.0, 0.018575337329352574
1480.0, 0.01806431794916328
1481.0, 0.01656665865088558
1482.0, 0.011787689303253367
1483.0, 0.008850804214450341
1484.0, 0.007503488635532538
1485.0, 0.006537585348266835
1486.0, 0.001142622679054148
1487.0, 0.0022656504187346096
1488.0, 0.006100291982483097
1489.0, 0.0036764321492862573
1490.0, 0.020342091751886515
1491.0, 0.024032673443902176
1492.0, 0.019293738164649705
1493.0, 0.01363047830092657
1494.0, 0.006231552126686124
1495.0, 0.005307328077934068
1496.0, 0.007724486806089877
1497.0, 0.015903283362626412
1498.0, 0.009529183922816497
1499.0, 0.002061337537931925
1500.0, 0.02152567719451648
1501.0, 0.016252211766423854
1502.0, 0.020597088303072622
1503.0, 0.02714338474738195
1504.0, 0.03296878197858693
1505.0, 0.02570200995184062
1506.0, 0.02058810229029832
1507.0, 0.021011863455284423
1508.0, 0.017025691275810936
1509.0, 0.013585573433653958
1510.0, 0.02107184446565715
1511.0, 0.021772534174160085
1512.0, 0.012600044229198854
1513.0, 0.022550184921107698
1514.0, 0.018477142669108076
1515.0, 0.026203577731444376
1516.0, 0.012179032859218541
1517.0, 0.02043156169763098
1518.0, 0.0326325275992988
1519.0, 0.040600241017360726
1520.0, 0.038276691552488806
1521.0, 0.0377591349075181
1522.0, 0.014576421746005798
1523.0, 0.02351777441067104
1524.0, 0.01742394316649198
1525.0, 0.0014992240199143553
1526.0, 0.013506191329392292
1527.0, 0.003645984863725661
1528.0, 0.019703601752936447
1529.0, 0.02398483653068656
1530.0, 0.02656139850677139
1531.0, 0.02292878834746738
1532.0, 0.029158780482366566
1533.0, 0.023948108677851857
1534.0, 0.007391280728517961
1535.0, 0.017165025779664632
1536.0, 0.014688870825880357
1537.0, 0.014824976233699038
1538.0, 0.02884997509361224
1539.0, 0.0354191073977027
1540.0, 0.02426467458675773
1541.0, 0.013092456441232816
1542.0, 0.017083944219095717
1543.0, 0.012777088564475458
1544.0, 0.01550709411071154
1545.0, 0.019886605801401218
1546.0, 0.008190434162436299
1547.0, 0.020705126980773928
1548.0, 0.022934704762045934
1549.0, 0.026960364627912313
1550.0, 0.018869296748799114
1551.0, 0.0180409584212973
1552.0, 0.029608735355997173
1553.0, 0.03158949413793892
1554.0, 0.02270463752738238
1555.0, 0.030128177323180346
1556.0, 0.0063142416072670005
1557.0, 0.010418948654597181
1558.0, 0.026322301635463834
1559.0, 0.018716645056931228
1560.0, 0.025466241543786777
1561.0, 0.02803469997873515
1562.0, 0.005338997914979311
1563.0, 0.019546033619285655
1564.0, 0.025297487387322813
1565.0, 0.00929038200840737
1566.0, 0.021341444110100728
1567.0, 0.011488637829647406
1568.0, 0.003059095395709659
1569.0, 0.012652059357258268
1570.0, 0.006805081934844267
1571, 0.0
1572, 0.0
1573, 0.0
1574, 0.0
1575, 0.0
1576, 0.0
1577, 0.0
1578, 0.0
1579, 0.0
1580, 0.0
1581, 0.0
1582, 0.0
1583, 0.0
1584, 0.0
1585, 0.0
1586, 0.0
1587, 0.0
1588, 0.0
1589, 0.0
1590, 0.0
1591, 0.0
1592, 0.0
1593, 0.0
1594, 0.0
1595, 0.0
1596, 0.0
1597, 0.0
1598, 0.0
1599, 0.0
