30, 0.0
31, 0.0
32, 0.0
33, 0.0
34, 0.0
35, 0.0
36, 0.0
37, 0.0
38, 0.0
39, 0.0
40, 0.0
41, 0.0
42, 0.0
43, 0.0
44, 0.0
45, 0.0
46, 0.0
47, 0.0
48, 0.0
49, 0.0
50, 0.0
51, 0.0
52, 0.0
53, 0.0
54, 0.0
55, 0.0
56, 0.0
57, 0.0
58, 0.0
59, 0.0
60, 0.0
61, 0.0
62, 0.0
63, 0.0
64, 0.0
65, 0.0
66, 0.0
67, 0.0
68, 0.0
69, 0.0
70, 0.0
71, 0.0
72, 0.0
73, 0.0
74, 0.0
75, 0.0
76, 0.0
77, 0.0
78, 0.0
79, 0.0
80, 0.0
81, 0.0
82, 0.0
83, 0.0
84, 0.0
85, 0.0
86, 0.0
87, 0.0
88, 0.0
89, 0.0
90, 0.0
91, 0.0
92, 0.0
93, 0.0
94, 0.0
95, 0.0
96, 0.0
97, 0.0
98, 0.0
99, 0.0
100, 0.0
101, 0.0
102, 0.0
103, 0.0
104, 0.0
105, 0.0
106, 0.0
107, 0.0
108, 0.0
109, 0.0
110, 0.0
111, 0.0
112, 0.0
113, 0.0
114, 0.0
115, 0.0
116, 0.0
117, 0.0
118, 0.0
119, 0.0
120, 0.0
121, 0.0
122, 0.0
123, 0.0
124, 0.0
125.0, 0.0004242165912613945
126.0, 0.008782848870315123
127.0, 0.023335953665104874
128.0, 0.03813550784906658
129.0, 0.051155426321402644
130.0, 0.0666231954453163
131.0, 0.07252527423733726
132.0, 0.06926404646535736
133.0, 0.05217672608524963
134.0, 0.02989089258237155
135.0, 0.01525323654248769
136.0, 0.005801959934925287
137.0, 0.0006978953485905387
138.0, 0.002866935904613988
139.0, 0.0014765175659754897
140.0, 0.0012801091565060004
141.0, 0.005818527181851487
142.0, 0.0139355142273258
143.0, 0.022569904290649256
144.0, 0.029826883159615365
145.0, 0.03749756368915769
146.0, 0.04744554661830385
147.0, 0.05802431014319398
148.0, 0.06380986117767996
149.0, 0.05817786574152442
150.0, 0.04564038096930038
151.0, 0.034481018880051555
152.0, 0.025341822650124617
153.0, 0.01976142761016541
154.0, 0.01655452285622166
155.0, 0.014443831459914428
156.0, 0.013252648519289
157.0, 0.012675319409899737
158.0, 0.013167896447931704
159.0, 0.014866281912686678
160.0, 0.017289488562623002
161.0, 0.01844818574925222
162.0, 0.020414842908768053
163.0, 0.021936295523514428
164.0, 0.02016609834589293
165.0, 0.01749737499667591
166.0, 0.015463723184063118
167.0, 0.014289665284276177
168.0, 0.01375605593616254
169.0, 0.013526483912226495
170.0, 0.012898194884106602
171.0, 0.011074091347044145
172.0, 0.009356701135486338
173.0, 0.009250851741094726
174.0, 0.008546089314468102
175.0, 0.007373450346427432
176.0, 0.006245723927773137
177.0, 0.0053606613701532215
178.0, 0.004592959655053729
179.0, 0.0032583207228473964
180.0, 0.0028715895398254148
181.0, 0.002757353047192054
182.0, 0.001616302087002865
183.0, 0.0024114254129702336
184.0, 0.0018461190721077326
185.0, 0.0010458671848112694
186.0, 0.0016663938131288906
187.0, 0.002215499345475692
188.0, 0.0009733671189119226
189.0, 0.0010002521260804127
190.0, 0.0013555933879245848
191.0, 0.0008204905067597882
192.0, 0.0005622166626613003
193.0, 0.0005525524541034814
194.0, 0.0010350390535777472
195.0, 0.000826142262673498
196.0, 0.001513259440743484
197.0, 0.0021205818306903905
198.0, 0.0023900051250207673
199.0, 0.0024198098385579308
200.0, 0.002426976243142041
201.0, 0.002016179694821026
202.0, 0.003563131927739203
203.0, 0.004762906826703344
204.0, 0.004624268349684995
205.0, 0.005048184751298569
206.0, 0.005278619228448462
207.0, 0.004924275173292692
208.0, 0.00512053932816412
209.0, 0.006376430093069869
210.0, 0.005909591762073059
211.0, 0.0066303771074032085
212.0, 0.007100038903570256
213.0, 0.0073992852512017055
214.0, 0.009238374237169018
215.0, 0.008077603191253491
216.0, 0.0072121214665342775
217.0, 0.007917905869354407
218.0, 0.009074820980233964
219.0, 0.007163537000977111
220.0, 0.006989109443104842
221.0, 0.00731838289916827
222.0, 0.007166430870167995
223.0, 0.0067775305559931364
224.0, 0.006013888809497444
225.0, 0.0038383174514415334
226.0, 0.002054349070926359
227.0, 0.0015782709291639698
228.0, 0.0011430399057508257
229.0, 0.000862615989614569
230.0, 0.00023145277157125116
231.0, 0.0006858713803619751
232.0, 0.0013681485483081238
233.0, 0.0011052338759288992
234.0, 0.0012543046038337884
235.0, 0.0016873622064485336
236.0, 0.001676758187225236
237.0, 0.0010339797134612375
238.0, 0.001959448127803182
239.0, 0.0014863584375457376
240.0, 0.0022348917075817746
241.0, 0.004098200622967561
242.0, 0.0020293114054644665
243.0, 0.002382729897605198
244.0, 0.002934853153842407
245.0, 0.0025137346980627123
246.0, 0.0012178433968623216
247.0, 0.0004936230126376313
248.0, 0.001975298621545822
249.0, 0.0033680117013406108
250.0, 0.004540306906984192
251.0, 0.0080420230641768
252.0, 0.011443896063080187
253.0, 0.013946405934835343
254.0, 0.01802855336568358
255.0, 0.024097371630734443
256.0, 0.030084800894391313
257.0, 0.0351508786465765
258.0, 0.04094343650552025
259.0, 0.04805326148851532
260.0, 0.05552310937451591
261.0, 0.06183021691416773
262.0, 0.06858927511736856
263.0, 0.07544499184026146
264.0, 0.08195366981109223
265.0, 0.08787862969656689
266.0, 0.093140170249375
267.0, 0.09484606497270918
268.0, 0.09547788605667311
269.0, 0.0958609299733552
270.0, 0.095307702007123
271.0, 0.09080439791238205
272.0, 0.0859734863402049
273.0, 0.08219547301737616
274.0, 0.07863881239367662
275.0, 0.0727090462798875
276.0, 0.06733955142481117
277.0, 0.06392931353253044
278.0, 0.061805514085878255
279.0, 0.05982921437330413
280.0, 0.057652397705554644
281.0, 0.05544941741174431
282.0, 0.052643774816419374
283.0, 0.05124621411866842
284.0, 0.052007555661669085
285.0, 0.05242724885655855
286.0, 0.05071174343865656
287.0, 0.05001183562463621
288.0, 0.05108011455047584
289.0, 0.05249892202611748
290.0, 0.0527105743821527
291.0, 0.05388065204956159
292.0, 0.055991181173939315
293.0, 0.057316333203164545
294.0, 0.05697668838365172
295.0, 0.056690185785192984
296.0, 0.05621669141820934
297.0, 0.05715054192107321
298.0, 0.058842506496249745
299.0, 0.059895262450422905
300.0, 0.061300388966839314
301.0, 0.06111009836217689
302.0, 0.06160393281070786
303.0, 0.06320478283415483
304.0, 0.06501543476972291
305.0, 0.06769479168187527
306.0, 0.07146232901255481
307.0, 0.07628114291789648
308.0, 0.08343763970854035
309.0, 0.09439135492774949
310.0, 0.10554927055597733
311.0, 0.12127878108612482
312.0, 0.1403015717264821
313.0, 0.1636974815376326
314.0, 0.19584122446999955
315.0, 0.23254857209804428
316.0, 0.27833664315044326
317.0, 0.3343108104385766
318.0, 0.39700059884002853
319.0, 0.463573834479135
320.0, 0.5427903992154357
321.0, 0.6288130510146758
322.0, 0.7160019029510041
323.0, 0.7986579551892935
324.0, 0.871783165630893
325.0, 0.9329079490557536
326.0, 0.9763394034630404
327.0, 0.9979796579840188
328.0, 0.994629521831007
329.0, 0.9680292151319239
330.0, 0.9221314210829703
331.0, 0.8641944157194396
332.0, 0.7997521080701497
333.0, 0.7309548561951495
334.0, 0.6602514017558585
335.0, 0.5973130292338514
336.0, 0.5390709855266433
337.0, 0.4839092096806864
338.0, 0.43170483140346483
339.0, 0.38360335145950164
340.0, 0.34353268975995427
341.0, 0.30834261956829656
342.0, 0.2748893734147102
343.0, 0.24439591889697884
344.0, 0.21904315553778747
345.0, 0.19508397975328043
346.0, 0.17280642460520212
347.0, 0.1518344875300981
348.0, 0.13209792036023252
349.0, 0.11386044651910665
350.0, 0.09697534573315152
351.0, 0.08408380411537979
352.0, 0.07246579006233321
353.0, 0.06215772852807588
354.0, 0.0547106143700734
355.0, 0.049107588616551824
356.0, 0.0434602501563056
357.0, 0.0402658252923929
358.0, 0.03905079809597382
359.0, 0.037866102414054234
360.0, 0.036039043401114856
361.0, 0.0353703412965097
362.0, 0.034306713875323656
363.0, 0.03236977926949943
364.0, 0.029694273836642977
365.0, 0.02612826646275455
366.0, 0.024367882162585376
367.0, 0.022565974683076685
368.0, 0.019932062999448732
369.0, 0.016528969866677533
370.0, 0.013294960880819212
371.0, 0.011456450340314391
372.0, 0.00959466461326568
373.0, 0.008107452088680588
374.0, 0.006713559753513624
375.0, 0.004270247105600541
376.0, 0.002715235112855673
377.0, 0.0013338598854568014
378.0, 0.0007938901217778149
379.0, 0.0007489486147556083
380.0, 0.00023500854021571096
381.0, 0.0017674848953497138
382.0, 0.0022583881146670676
383.0, 0.0024079737891086247
384.0, 0.0021308194844451146
385.0, 0.0014411234063814217
386.0, 0.0024283338121049657
387.0, 0.002116633744663998
388.0, 0.001584248728587871
389.0, 0.0012877960845863877
390.0, 0.0009453516039185125
391.0, 0.0008762837202149718
392.0, 0.0014834082494552757
393.0, 0.0012423022127104094
394.0, 0.0009480879604395026
395.0, 0.0010101401093707794
396.0, 0.0005115328447988264
397.0, 0.0005777720734320318
398.0, 0.00048595141296044534
399.0, 0.00014091836697341267
400.0, 0.000275406674980928
401.0, 0.00011804102109051634
402.0, 0.0003807828711394292
403.0, 0.00030351788114836163
404.0, 2.2483772555048534e-05
405.0, 0.00013381324661116732
406.0, 0.0006769829158880304
407.0, 0.0010576752671401571
408.0, 0.0014410646983910535
409.0, 0.0019545822311441527
410.0, 0.0019387380072804754
411.0, 0.0015832329919726908
412.0, 0.0018181670376449012
413.0, 0.0019509738081797024
414.0, 0.0013715443200693065
415.0, 0.0022486272365296617
416.0, 0.003478438843655543
417.0, 0.003198164739384556
418.0, 0.003335901739031732
419.0, 0.0027946537804456723
420.0, 0.0023626387183514038
421.0, 0.002751454930698395
422.0, 0.003484874809655374
423.0, 0.00358329014561985
424.0, 0.0040218589604156295
425.0, 0.003704270210823143
426.0, 0.003908766661810998
427.0, 0.004336803533295386
428.0, 0.003919759746978845
429.0, 0.004042755425937081
430.0, 0.0031481617523002416
431.0, 0.0031088922773661837
432.0, 0.003727729841230964
433.0, 0.003790540080901495
434.0, 0.003261468544805129
435.0, 0.00407911143363403
436.0, 0.004675938810430237
437.0, 0.004605841054129493
438.0, 0.004154215398305098
439.0, 0.003949473664479546
440.0, 0.00527929739021501
441.0, 0.0048341460610970294
442.0, 0.004496944501639827
443.0, 0.004915443509116321
444.0, 0.00489926031454857
445.0, 0.003631395486623138
446.0, 0.0036240567896027617
447.0, 0.002741486764337629
448.0, 0.003060583483133566
449.0, 0.0037769004177208086
450.0, 0.00294890731756299
451.0, 0.0026820759617852616
452.0, 0.0027434459650542216
453.0, 0.0028327367981933987
454.0, 0.002923903475603695
455.0, 0.0029044231555991175
456.0, 0.002435968813903199
457.0, 0.0015169548970813832
458.0, 0.002598097115906009
459.0, 0.002649014867091144
460.0, 0.0019055471380575626
461.0, 0.0021021953333367374
462.0, 0.002041484791845535
463.0, 0.0026091220560416563
464.0, 0.0021393168625634855
465.0, 0.0024930133103012574
466.0, 0.0029981811210269497
467.0, 0.0016114455925745226
468.0, 0.0020056464241104822
469.0, 0.002629139297266409
470.0, 0.002718816256460923
471.0, 0.0020819440933339548
472.0, 0.0014705661960297655
473.0, 0.002360529009606459
474.0, 0.0015716722277266248
475.0, 0.0015348427194571965
476.0, 0.0010793200477912902
477.0, 0.0007917563937481612
478.0, 0.0014311408553302687
479.0, 0.001542351662676229
480.0, 0.0006702244401123114
481.0, 0.0015334231824114866
482.0, 0.0015408163306767511
483.0, 0.0007647645038339227
484.0, 0.0015081480850767264
485.0, 0.0012317925129508964
486.0, 0.0008701042108505832
487.0, 0.0012837873117096377
488.0, 0.001292521146565694
489.0, 0.0006928212515410019
490.0, 0.0008687221422208942
491.0, 0.001838519311470668
492.0, 0.0015814577982661967
493.0, 0.0015325916527302147
494.0, 0.001332069939316593
495.0, 0.0009943462632644622
496.0, 0.0018814886321861853
497.0, 0.0007242884065559313
498.0, 0.0004569076560080691
499.0, 0.0007495823381280934
500.0, 0.0009118198413943503
501.0, 0.0008219890217718305
502.0, 0.000588493589376832
503.0, 0.0008329817802562081
504.0, 0.0005582309881291491
505.0, 0.0007021137868140039
506.0, 0.0010224072281628778
507.0, 0.0007152049497051516
508.0, 0.0002718276608885882
509.0, 0.0009969628907369487
510.0, 0.0007268351368079945
511.0, 0.00015254239921618537
512.0, 0.00039738562253384543
513.0, 0.0009280414794089913
514.0, 5.811961182675257e-05
515.0, 0.0012114124314260089
516.0, 0.0007503833762711923
517.0, 0.0005385851468676448
518.0, 0.0009410133297700534
519.0, 0.0003037890273844202
520.0, 9.914016528300553e-05
521.0, 0.0005104385670414133
522.0, 0.0006634171696144539
523.0, 0.0008924818310863889
524.0, 0.0012513085972679608
525.0, 0.0008728382368599799
526.0, 0.0003963524990932818
527.0, 0.0004840536873051023
528.0, 0.000899215567169804
529.0, 0.0011545011594169242
530.0, 0.0007901395751778019
531.0, 0.00024112014272307803
532.0, 0.0009998249584082565
533.0, 0.0004439101684455108
534.0, 0.0003357263697452924
535.0, 0.0003154794577208516
536.0, 9.265913175247183e-05
537.0, 0.0006120248125973377
538.0, 0.0014161062092492766
539.0, 0.001234162137979424
540.0, 0.0004058173165557358
541.0, 0.0003125062891302005
542.0, 0.0009083989324651729
543.0, 0.0010220442085921407
544.0, 0.0003058810140566744
545.0, 0.0002731568995638227
546.0, 0.0006071511129683012
547.0, 0.0004734230944532721
548.0, 3.051177292650066e-05
549.0, 2.7335035194915077e-06
550.0, 4.054158046461184e-05
551.0, 0.0001427584186409958
552.0, 0.000517334724511415
553.0, 0.00017591648378723515
554.0, 0.0004265614872157358
555.0, 0.0002459431090761843
556.0, 0.00041304389122341525
557.0, 0.00017177240618363403
558.0, 0.00012139177271839211
559.0, 0.00012127978529405411
560.0, 0.0005673256025904502
561.0, 0.0008142810952806755
562.0, 0.0010046222302267265
563.0, 0.0007142260304256714
564.0, 0.0001305051798167884
565.0, 0.0002278531307493687
566.0, 0.00013429063296041552
567.0, 0.0006339785152941792
568.0, 0.0011900158678519212
569.0, 0.0004096397509068055
570.0, 0.00019679492084138033
571.0, 0.0003865540678205542
572.0, 0.0006369534828243245
573.0, 0.00042714054646609076
574.0, 0.0010814485388930953
575.0, 0.0008953353420336423
576.0, 0.0006718539581318572
577.0, 0.0007821959264121547
578.0, 0.0006669199928918139
579.0, 0.0002152068387465213
580.0, 0.00032752037439234724
581.0, 0.0006802217023575791
582.0, 0.001060805179170081
583.0, 0.0011119500150767669
584.0, 0.0006084083732697202
585.0, 0.0007967741163200467
586.0, 0.0011577580787534283
587.0, 0.00017501994045302175
588.0, 0.0010158876981007378
589.0, 0.0011168635385224348
590.0, 0.001408210368993399
591.0, 0.0011821353456968635
592.0, 0.0007445870582024155
593.0, 0.0011139986174257925
594.0, 0.001122344237819705
595.0, 0.0008580857611479981
596.0, 0.0008603543113316478
597.0, 0.0005229156068352528
598.0, 0.00043444559813135623
599.0, 0.0006509893305768263
600.0, 0.0003879649736173669
601.0, 0.000984267412346252
602.0, 0.0014831096401289451
603.0, 0.0012037268725170354
604.0, 0.0010852142113471632
605.0, 0.001115062280582688
606.0, 0.0005249107666864312
607.0, 0.0001670432899514626
608.0, 0.0019309769101992147
609.0, 0.00160383418220339
610.0, 0.001699880132761837
611.0, 0.0021616778957409236
612.0, 0.0015984439226300726
613.0, 0.0012239563656290227
614.0, 0.0013460923329979269
615.0, 0.0014283946966940405
616.0, 0.0012798926777735885
617.0, 0.0012607207567400388
618.0, 0.0015930353770367619
619.0, 0.0020002426874129444
620.0, 0.0020189782927569834
621.0, 0.0017121267827366283
622.0, 0.0016510871408718663
623.0, 0.001970975199092965
624.0, 0.002053399597436401
625.0, 0.001674562716350189
626.0, 0.0015111658205292163
627.0, 0.001350973033624808
628.0, 0.001716118438764294
629.0, 0.0018705593555003552
630.0, 0.0015513112134487887
631.0, 0.001288052969340104
632.0, 0.00187041969867673
633.0, 0.003331792777065106
634.0, 0.002418370242635412
635.0, 0.0032174635713336447
636.0, 0.0030970057822539802
637.0, 0.003216686459987544
638.0, 0.003667794474783687
639.0, 0.0037427102241198262
640.0, 0.004016116619146715
641.0, 0.0037913653051638747
642.0, 0.003703911397982827
643.0, 0.004098249897924498
644.0, 0.003824932209115167
645.0, 0.003911528468012039
646.0, 0.005250141742563617
647.0, 0.005333249010261279
648.0, 0.005135604347032233
649.0, 0.005387778834754899
650.0, 0.005858013000264122
651.0, 0.0065762508823803585
652.0, 0.007440355810709771
653.0, 0.00803028564420704
654.0, 0.008176765108435815
655.0, 0.008478991450244727
656.0, 0.00869196952106739
657.0, 0.008854789503404513
658.0, 0.008910475273780381
659.0, 0.0092106221063595
660.0, 0.009927180441559151
661.0, 0.009740697403949753
662.0, 0.009389362281301631
663.0, 0.009081216095657612
664.0, 0.008784180201833407
665.0, 0.008957698797124958
666.0, 0.00941910499910623
667.0, 0.009636959876530776
668.0, 0.010413977008046261
669.0, 0.00829734109374818
670.0, 0.008944562653399286
671.0, 0.008913655963010208
672.0, 0.008405849332447842
673.0, 0.008058020640535138
674.0, 0.007106300316665925
675.0, 0.007407672669688001
676.0, 0.0077925053275014955
677.0, 0.006820157772151724
678.0, 0.006838478063768909
679.0, 0.006855543107595993
680.0, 0.006052171278473501
681.0, 0.005146557132492193
682.0, 0.00470381466163991
683.0, 0.004762818917940514
684.0, 0.003594650410956183
685.0, 0.0032325977256962663
686.0, 0.0035137326048311265
687.0, 0.0040172927782076975
688.0, 0.004290701274082454
689.0, 0.003205061193633144
690.0, 0.0023682799573808777
691.0, 0.0027561678008136722
692.0, 0.002475035343642861
693.0, 0.0021619105212252977
694.0, 0.002139896912747121
695.0, 0.0019197033164356037
696.0, 0.0020898493657729527
697.0, 0.0021806437357373737
698.0, 0.0010152638144423727
699.0, 0.0009791782169365632
700.0, 0.0010860120165390114
701.0, 0.0009018529743624336
702.0, 0.0011878620583157336
703.0, 0.0017417793961660736
704.0, 0.00010701721350274242
705.0, 0.00011789226356485993
706.0, 0.0009152380472383611
707.0, 0.0007616314287366493
708.0, 0.0005174044492657613
709.0, 0.0008178616564305101
710.0, 0.0010993961563304
711.0, 0.0010328749313794187
712.0, 0.0005260811548945913
713.0, 0.0004509587234406667
714.0, 0.0001853199786245947
715.0, 0.00043676602049560836
716.0, 0.000706897857309179
717.0, 0.00040519417863244585
718.0, 0.00018686510809721633
719.0, 0.000328345671203983
720.0, 0.00021636991896880188
721.0, 0.00034944636150855546
722.0, 0.0006601365209150266
723.0, 0.0004521949483646121
724.0, 7.943959808000266e-05
725.0, 0.00011591069900045457
726.0, 0.00018527375966677562
727.0, 0.00020953672704540163
728.0, 0.0006640373627980839
729.0, 0.000386765911658683
730.0, 0.00022504865388660807
731.0, 0.0003226913534060121
732.0, 0.00048718626088372355
733.0, 0.0006306946093026436
734.0, 0.00016336120261128617
735.0, 0.0005584715283342882
736.0, 0.0003150584341764725
737.0, 3.1126437599479845e-05
738.0, 0.00012399340039475856
739.0, 0.0003043410734443998
740.0, 0.0004304682979603704
741.0, 0.00037660457490663077
742.0, 0.0003304105848174031
743.0, 0.00019669434540517516
744.0, 0.0008311135224337996
745.0, 0.00039001767124717437
746.0, 0.00023672974079759973
747.0, 0.00012238548716808
748.0, 0.0008208872290657433
749.0, 0.0011925354662617757
750.0, 0.00021359578640351242
751.0, 0.0001767877755328194
752.0, 8.874483654348134e-05
753.0, 0.0003371017647864303
754.0, 0.00014260786594393412
755.0, 9.355345754265625e-05
756.0, 0.0004891509819297194
757.0, 0.0013393993950467189
758.0, 0.0011715217336162008
759.0, 0.0010511355299234035
760.0, 0.0014837408709571177
761.0, 0.001478448087374685
762.0, 0.0009110610860632007
763.0, 0.0005850714281573373
764.0, 0.000734582719155815
765.0, 0.0005592181247443236
766.0, 0.0005140453461696104
767.0, 0.00015982603782209166
768.0, 0.0001376041178711851
769.0, 0.000539512657395696
770.0, 0.0010449298263222053
771.0, 0.0007253415102979001
772.0, 0.0005853604139114293
773.0, 0.0012973559732919217
774.0, 0.0010396384623216342
775.0, 0.0015136181644360444
776.0, 0.0013323320907742075
777.0, 0.0009506237538995935
778.0, 0.0012994905829656555
779.0, 0.0016847084890748492
780.0, 0.001814519844451227
781.0, 0.0025117211601812287
782.0, 0.0011937386209245056
783.0, 0.0018802070800605236
784.0, 0.0016965455272660158
785.0, 0.0016092191007801592
786.0, 0.0016468827378516761
787.0, 0.00183003986765645
788.0, 0.002421050029010036
789.0, 0.002695845404079958
790.0, 0.0014344162313908216
791.0, 0.0013110844644271245
792.0, 0.0022561677834716915
793.0, 0.002506127519703753
794.0, 0.0017496657077782992
795.0, 0.0015715317935110823
796.0, 0.0016912812714599595
797.0, 0.0005541173182544309
798.0, 0.0011487818340148047
799.0, 0.0009484735667533797
800.0, 0.0012118452891567905
801.0, 0.0009191891173473424
802.0, 0.00018670774933293797
803.0, 0.000918480187544894
804.0, 0.0018301647214870194
805.0, 0.0010317468283611358
806.0, 0.0003725490059120264
807.0, 0.0012357252434119072
808.0, 0.0018931496867328483
809.0, 0.0020680115969680607
810.0, 0.0017443687061826309
811.0, 0.001281379210976094
812.0, 0.001085734815424666
813.0, 0.0012323581511425859
814.0, 0.0016841737344267993
815.0, 0.0013628756192144305
816.0, 0.0009079011053236422
817.0, 0.0011973695593858115
818.0, 0.0010499224844820788
819.0, 0.0009600001768134736
820.0, 0.0010647261607200835
821.0, 0.0015011335639293728
822.0, 0.0020183330992277933
823.0, 0.0017665658749495372
824.0, 0.0011640381268920189
825.0, 0.000899348091494669
826.0, 0.0011026238535406078
827.0, 0.0013085878603686092
828.0, 0.001488934776769522
829.0, 0.0012318568235308448
830.0, 0.0012972851586784586
831.0, 0.0017350737731826828
832.0, 0.0007962382952740939
833.0, 0.00048491805217310664
834.0, 0.0017373690002119426
835.0, 0.000706607291062518
836.0, 0.000662834063238954
837.0, 0.0013524796756407874
838.0, 0.001457712931505096
839.0, 0.0007995198023337728
840.0, 0.000479805707945808
841.0, 0.0007892717831998116
842.0, 6.254630570802749e-05
843.0, 0.0012714349978570592
844.0, 0.0010445902280048708
845.0, 0.0006187626745234723
846.0, 0.0014089078313272053
847.0, 0.0011838364981345397
848.0, 0.00025108724013234466
849.0, 0.00028153195039168713
850.0, 0.00032802740266845587
851.0, 0.0004884203424146923
852.0, 0.00030081847376979375
853.0, 0.0011489605202280974
854.0, 0.0011764979526044884
855.0, 0.001381173764643294
856.0, 0.0006763380461256931
857.0, 0.00044402490938703096
858.0, 0.0013165682295025506
859.0, 0.0011139268519633212
860.0, 0.0010469146273907426
861.0, 0.0009264354805233202
862.0, 0.0008193768916805714
863.0, 0.0014415677773387473
864.0, 0.00106218729190912
865.0, 0.000375617656146327
866.0, 0.00046505728703261193
867.0, 0.0008763134328210244
868.0, 0.0005309080700833401
869.0, 0.0007189356300015194
870.0, 0.00047634875197263263
871.0, 0.0012426010854405761
872.0, 0.0009711841259398753
873.0, 0.0008002503447613051
874.0, 0.0009418726959597518
875.0, 0.0009855464774279558
876.0, 0.0011887388663376919
877.0, 0.001799790150143076
878.0, 0.0017288899899484812
879.0, 0.00043571050039732396
880.0, 0.000749927552143218
881.0, 0.0014375494542160005
882.0, 0.0003641867023500948
883.0, 0.0002556868060479291
884.0, 0.0006708760033199075
885.0, 0.0012380862851112894
886.0, 0.0008263342965281458
887.0, 0.0004069728951108772
888.0, 0.0003781570160083298
889.0, 0.0008276892007385937
890.0, 0.0006758360039594307
891.0, 0.0010601132596689902
892.0, 0.000856290610666791
893.0, 0.0011598450579097825
894.0, 0.0010243479856594225
895.0, 0.0004555731164233988
896.0, 0.0004078634448333137
897.0, 0.0006550956889407977
898.0, 0.0002747084371542887
899.0, 0.00018474022162969005
900.0, 0.0003816419282370617
901.0, 0.0007935285330986072
902.0, 0.00019644802257412527
903.0, 0.00041968541584040653
904.0, 0.0008418922188215901
905.0, 0.0010825678190335768
906.0, 0.0013131530058606222
907.0, 0.001328748706753555
908.0, 0.001246678608398724
909.0, 0.000712071392575814
910.0, 0.0010718364563894079
911.0, 0.0010641215837541343
912.0, 0.0009188705243626539
913.0, 0.0009034091720957755
914.0, 0.00022682345673577032
915.0, 0.0002535775871451739
916.0, 0.0006320604671284298
917.0, 0.0007828771117738965
918.0, 0.0012852715659210172
919.0, 0.0006886067270099082
920.0, 0.00036306310158747184
921.0, 0.0004903829930732069
922.0, 4.83007583112433e-05
923.0, 0.0006771055296020756
924.0, 0.0007815765753802971
925.0, 0.0006981080548468071
926.0, 0.0010802305104923434
927.0, 0.0007566722719989423
928.0, 0.0001361102099660257
929.0, 0.0010143867839688032
930.0, 0.0018305973603878899
931.0, 0.0018071249928737275
932.0, 0.0023994505274901492
933.0, 0.0013185014803383196
934.0, 0.0012248268780071549
935.0, 0.0005112517281677617
936.0, 0.0005998550981018407
937.0, 0.001487037885551303
938.0, 0.001296099242083038
939.0, 0.000796642099465576
940.0, 0.0009488066091294007
941.0, 0.0009772826350066767
942.0, 0.0011630402022117633
943.0, 0.0012368399080820167
944.0, 0.0011083985303103477
945.0, 0.0015751617697517288
946.0, 0.001382576210597451
947.0, 0.0004165119634926597
948.0, 0.0009076674921119077
949.0, 0.001898716953550659
950.0, 0.0003943089530947608
951.0, 0.00013168856537297812
952.0, 0.0010363671312022002
953.0, 0.0016508044813365959
954.0, 0.0013592508311791541
955.0, 0.0010881918968606852
956.0, 0.0010309521717744832
957.0, 0.001018264759156772
958.0, 0.0011283242838372608
959.0, 0.0012369047215111673
960.0, 0.0015711178744595728
961.0, 0.0018571218583937719
962.0, 0.00094633448198615
963.0, 0.0014004839074952568
964.0, 0.0012926064428111011
965.0, 0.0017654625884610023
966.0, 0.0011424921619557044
967.0, 0.0012056179596708321
968.0, 0.0011930394454627475
969.0, 0.000893891995427298
970.0, 0.0007293191800839476
971.0, 0.0011487891819507146
972.0, 0.0013823051972442976
973.0, 0.0006083231558364941
974.0, 0.0003353099229112461
975.0, 0.002010959179859578
976.0, 0.0018421960336120421
977.0, 0.001019199184783186
978.0, 0.0016429106585366922
979.0, 0.0011363533941007643
980.0, 0.0012944183539925825
981.0, 0.001106807370559799
982.0, 0.0017967718472305142
983.0, 0.002145378492889944
984.0, 0.0013614198279962226
985.0, 0.0013601951429196037
986.0, 0.001032368549854785
987.0, 0.001298275271847516
988.0, 0.000352290463034726
989.0, 0.0005449819713377799
990.0, 0.0009872677561604084
991.0, 0.0005977104536481778
992.0, 0.00025507324081998307
993.0, 0.0006608510600628193
994.0, 0.00040876353142722035
995.0, 0.0015441375312022587
996.0, 0.001705618133926897
997.0, 0.0014063188827074281
998.0, 0.00181347183801207
999.0, 0.0014342283273069952
1000.0, 0.00172522248561704
1001.0, 0.0014144448063820995
1002.0, 0.0006657881575870832
1003.0, 0.0014053534431385129
1004.0, 0.001308624005328983
1005.0, 0.0010676514321751628
1006.0, 0.0011599399012632318
1007.0, 0.0014140622914301556
1008.0, 0.0018545826242536572
1009.0, 0.0018260109493006885
1010.0, 0.0012119022051680195
1011.0, 0.0011513291943872652
1012.0, 0.0011464177635109765
1013.0, 0.0011482137491890796
1014.0, 0.0011951283538608514
1015.0, 0.0007046957305563907
1016.0, 0.000633592835008452
1017.0, 0.001328536834067721
1018.0, 0.001339632499088018
1019.0, 0.000990380158705322
1020.0, 0.00055996555308463
1021.0, 0.0006757056574960648
1022.0, 0.0011302767607706376
1023.0, 0.0007484008885764701
1024.0, 0.0005450363019953506
1025.0, 0.0007035824791884672
1026.0, 0.00025873533847681196
1027.0, 0.00031469252693759717
1028.0, 0.0012885201153207742
1029.0, 0.0015216331045883366
1030.0, 0.0008706077547255638
1031.0, 0.0012212416805324907
1032.0, 0.0005486695627184842
1033.0, 0.0006495134381779421
1034.0, 0.0009333865795769442
1035.0, 0.0011818454248379378
1036.0, 0.0019960835672051657
1037.0, 0.0006689751057768977
1038.0, 0.0011924569810837576
1039.0, 0.0009024992537270681
1040.0, 0.000812372345462686
1041.0, 0.0007636526806590279
1042.0, 0.0008158173446340169
1043.0, 0.0006902688630352023
1044.0, 0.0006379985412063367
1045.0, 0.0014236836553532498
1046.0, 0.0014701121827910095
1047.0, 0.0010840465392885027
1048.0, 0.0008079012569571428
1049.0, 0.0008854569873085391
1050.0, 0.0011927367242432988
1051.0, 0.0008527585651317658
1052.0, 0.0014752891375927077
1053.0, 0.0006216512488102683
1054.0, 0.0010736222635633597
1055.0, 0.0009047305393975165
1056.0, 0.000985729148378589
1057.0, 0.001034364730364631
1058.0, 0.0008114164819269085
1059.0, 0.0004449896215891427
1060.0, 0.00024756306179472067
1061.0, 0.00013878400370102173
1062.0, 0.00024104182386114402
1063.0, 0.0006844218599154364
1064.0, 0.0007845660267321128
1065.0, 0.0009487559687380704
1066.0, 0.0006684478210213187
1067.0, 0.0004417169915770877
1068.0, 0.0007630475586234067
1069.0, 0.0013935857042125062
1070.0, 0.00018422489677328356
1071.0, 0.00011917891870005047
1072.0, 0.00029950377185734964
1073.0, 0.00037967455893046087
1074.0, 0.00041603794690900017
1075.0, 0.00011237217885887979
1076.0, 0.00029489083894264785
1077.0, 0.0002810357020810423
1078.0, 0.0006635622912754754
1079.0, 0.001819899590473009
1080.0, 0.0018005543155113065
1081.0, 0.0009417804396499074
1082.0, 0.00015957409556461303
1083.0, 0.0002404645371674596
1084.0, 0.0007565382841565329
1085.0, 0.0003034309382513582
1086.0, 0.0004457580158641675
1087.0, 0.00034480899942037566
1088.0, 0.0006937944130413498
1089.0, 0.0010635203810373522
1090.0, 0.0010511400466689067
1091.0, 0.0008287899701507495
1092.0, 0.0008747360869886547
1093.0, 0.0015525317071853858
1094.0, 0.0016657467844364887
1095.0, 0.0009783246152728269
1096.0, 0.0009087852042970461
1097.0, 0.0009471602895194096
1098.0, 0.0003255433093977026
1099.0, 0.0005877180267585246
1100.0, 0.0011243030816346163
1101.0, 0.0007943651605035912
1102.0, 9.602319557772414e-05
1103.0, 0.0007467049655426883
1104.0, 0.0007497996635862662
1105.0, 0.000677712951915813
1106.0, 0.0005851012035387667
1107.0, 0.0008684376584321365
1108.0, 0.0012072666742455986
1109.0, 0.0013638828434697577
1110.0, 0.0013791407664301987
1111.0, 0.0008778999525681534
1112.0, 0.0006476456652906973
1113.0, 0.00127313701151028
1114.0, 0.001328353177319871
1115.0, 0.0010900651900106672
1116.0, 0.0011248453365714582
1117.0, 0.0007227488970556967
1118.0, 0.0016450176092103574
1119.0, 0.0014483678906466368
1120.0, 0.000728275323739105
1121.0, 0.0004700955282030455
1122.0, 0.001118708597400022
1123.0, 0.0015387329805304395
1124.0, 0.0017093570772047063
1125.0, 0.001949149648282641
1126.0, 0.001756540463157333
1127.0, 0.002192407286908611
1128.0, 0.0018095776386190458
1129.0, 0.0008169254104258986
1130.0, 0.00030343833131962295
1131.0, 0.00012205159785279527
1132.0, 0.0009140326039374541
1133.0, 0.0012891881339507807
1134.0, 0.000905872235503182
1135.0, 0.0013952850822548377
1136.0, 0.0011474716916202398
1137.0, 0.001564897857846875
1138.0, 0.0007830470165760057
1139.0, 0.0004816860291182169
1140.0, 0.0005210359625692314
1141.0, 0.0011009159475827458
1142.0, 0.0016361425104026803
1143.0, 0.0010876405384808543
1144.0, 0.0002863616262754297
1145.0, 0.0008994894736320278
1146.0, 0.001640165484354864
1147.0, 0.00012992631028910706
1148.0, 0.0004988658886534991
1149.0, 0.0011070927022088267
1150.0, 0.001307879051768782
1151.0, 0.0007333343199210201
1152.0, 0.0011828121551206252
1153.0, 0.0005975444544653927
1154.0, 0.0010012524155387213
1155.0, 0.0011727017418901409
1156.0, 0.00048061734068507815
1157.0, 0.000728636915267813
1158.0, 0.0008923684109708352
1159.0, 0.0010065274664764448
1160.0, 0.002079821397530848
1161.0, 0.0017929232345904663
1162.0, 0.0011207556307198658
1163.0, 0.0012787692409427663
1164.0, 0.0008327818362194009
1165.0, 0.0015472472606776438
1166.0, 0.0019526237118716162
1167.0, 0.001419058341796188
1168.0, 0.001198874490220047
1169.0, 0.0015147047586936818
1170.0, 0.0018215081305332501
1171.0, 0.0012017345451003953
1172.0, 0.000641336523130443
1173.0, 0.0005369683498353972
1174.0, 0.00012818453812294485
1175.0, 0.001056915601132709
1176.0, 0.0009300938920298544
1177.0, 0.001467414503883613
1178.0, 0.0008024367673961433
1179.0, 0.0012055684970029166
1180.0, 0.0010448747311250209
1181.0, 0.001006971749274164
1182.0, 0.0014454462016699119
1183.0, 0.0020644417410128684
1184.0, 0.001258953037793149
1185.0, 0.0007616584421321856
1186.0, 0.0014183629228871081
1187.0, 0.0017813118102520192
1188.0, 0.001603185164446398
1189.0, 0.0011781802363279763
1190.0, 0.0012767731647547879
1191.0, 0.0015091945341943992
1192.0, 0.0015016091280004107
1193.0, 0.0017276354317333391
1194.0, 0.001094412397536186
1195.0, 0.0005795165048847174
1196.0, 0.0018522994779462995
1197.0, 0.0017633081143156699
1198.0, 0.0006534006121746604
1199.0, 0.0011938697440525968
1200.0, 0.0011152899994125807
1201.0, 0.001017524122799744
1202.0, 0.0006419397719777147
1203.0, 0.0014477089073057455
1204.0, 0.0007434610770506604
1205.0, 0.0012943082612755755
1206.0, 0.0002753774083928452
1207.0, 0.0005952050860364062
1208.0, 0.0013142038649015023
1209.0, 0.0011030526396798804
1210.0, 0.0009200460261533164
1211.0, 0.0008611496192534668
1212.0, 0.0010506099155587218
1213.0, 0.0023608335819377785
1214.0, 0.002404213571458349
1215.0, 0.0021199630790885203
1216.0, 0.0018884493582200315
1217.0, 0.0008739983551998523
1218.0, 0.001113118340480932
1219.0, 0.0023939852121469926
1220.0, 0.0020703006248417683
1221.0, 0.0009136244780634825
1222.0, 0.001591808514904721
1223.0, 0.0026691455498336716
1224.0, 0.0025445881514201173
1225.0, 0.001954842115105567
1226.0, 0.0014962353491001184
1227.0, 0.0020833701067438093
1228.0, 0.0011961338819217932
1229.0, 0.001100872522911117
1230.0, 0.001500328985930466
1231.0, 0.0022157468507538326
1232.0, 0.0022860249813134873
1233.0, 0.0018847649095963088
1234.0, 0.0017263705719265815
1235.0, 0.001167590168425422
1236.0, 0.0007305642261474239
1237.0, 0.00028261811788614686
1238.0, 0.0008429958425473599
1239.0, 0.000733890875456059
1240.0, 0.001281596511892308
1241.0, 0.0023208580679995013
1242.0, 0.001211073624092958
1243.0, 0.0008695190755324471
1244.0, 0.0012219800413614233
1245.0, 0.002063809374501154
1246.0, 0.0017625786840462444
1247.0, 0.0019362471008957229
1248.0, 0.0015171446603992609
1249.0, 0.0016751526280689467
1250.0, 0.001782794282437902
1251.0, 0.001053924202938966
1252.0, 0.0014340495110132059
1253.0, 0.0014573264609283314
1254.0, 0.0010013954828237911
1255.0, 0.0012698100492836031
1256.0, 0.0012821535719135418
1257.0, 0.001056094557394075
1258.0, 0.00038449729381611995
1259.0, 0.0005518262149952268
1260.0, 0.0018695949596133478
1261.0, 0.0020351804875415823
1262.0, 0.0010605205656867365
1263.0, 0.0008887549470597768
1264.0, 0.0006208683180559521
1265.0, 0.0003359582204350381
1266.0, 0.0011234920015303377
1267.0, 0.00027094634560517435
1268.0, 0.00025368789956748045
1269.0, 6.458318045612148e-05
1270.0, 4.409053715985908e-05
1271.0, 0.0003911524851968031
1272, 0.0
1273, 0.0
1274, 0.0
1275, 0.0
1276, 0.0
1277, 0.0
1278, 0.0
1279, 0.0
1280, 0.0
1281, 0.0
1282, 0.0
1283, 0.0
1284, 0.0
1285, 0.0
1286, 0.0
1287, 0.0
1288, 0.0
1289, 0.0
1290, 0.0
1291, 0.0
1292, 0.0
1293, 0.0
1294, 0.0
1295, 0.0
1296, 0.0
1297, 0.0
1298, 0.0
1299, 0.0
1300, 0.0
1301, 0.0
1302, 0.0
1303, 0.0
1304, 0.0
1305, 0.0
1306, 0.0
1307, 0.0
1308, 0.0
1309, 0.0
1310, 0.0
1311, 0.0
1312, 0.0
1313, 0.0
1314, 0.0
1315, 0.0
1316, 0.0
1317, 0.0
1318, 0.0
1319, 0.0
1320, 0.0
1321, 0.0
1322, 0.0
1323, 0.0
1324, 0.0
1325, 0.0
1326, 0.0
1327, 0.0
1328, 0.0
1329, 0.0
1330, 0.0
1331, 0.0
1332, 0.0
1333, 0.0
1334, 0.0
1335, 0.0
1336, 0.0
1337, 0.0
1338, 0.0
1339, 0.0
1340, 0.0
1341, 0.0
1342, 0.0
1343, 0.0
1344, 0.0
1345, 0.0
1346, 0.0
1347, 0.0
1348, 0.0
1349, 0.0
1350, 0.0
1351, 0.0
1352, 0.0
1353, 0.0
1354, 0.0
1355, 0.0
1356, 0.0
1357, 0.0
1358, 0.0
1359, 0.0
1360, 0.0
1361, 0.0
1362, 0.0
1363, 0.0
1364, 0.0
1365, 0.0
1366, 0.0
1367, 0.0
1368, 0.0
1369, 0.0
1370, 0.0
1371, 0.0
1372, 0.0
1373, 0.0
1374, 0.0
1375, 0.0
1376, 0.0
1377, 0.0
1378, 0.0
1379, 0.0
1380, 0.0
1381, 0.0
1382, 0.0
1383, 0.0
1384, 0.0
1385, 0.0
1386, 0.0
1387, 0.0
1388, 0.0
1389, 0.0
1390, 0.0
1391, 0.0
1392, 0.0
1393, 0.0
1394, 0.0
1395, 0.0
1396, 0.0
1397, 0.0
1398, 0.0
1399, 0.0
1400, 0.0
1401, 0.0
1402, 0.0
1403, 0.0
1404, 0.0
1405, 0.0
1406, 0.0
1407, 0.0
1408, 0.0
1409, 0.0
1410, 0.0
1411, 0.0
1412, 0.0
1413, 0.0
1414, 0.0
1415, 0.0
1416, 0.0
1417, 0.0
1418, 0.0
1419, 0.0
1420, 0.0
1421, 0.0
1422, 0.0
1423, 0.0
1424, 0.0
1425, 0.0
1426, 0.0
1427, 0.0
1428, 0.0
1429, 0.0
1430, 0.0
1431, 0.0
1432, 0.0
1433, 0.0
1434, 0.0
1435, 0.0
1436, 0.0
1437, 0.0
1438, 0.0
1439, 0.0
1440, 0.0
1441, 0.0
1442, 0.0
1443, 0.0
1444, 0.0
1445, 0.0
1446, 0.0
1447, 0.0
1448, 0.0
1449, 0.0
1450, 0.0
1451, 0.0
1452, 0.0
1453, 0.0
1454, 0.0
1455, 0.0
1456, 0.0
1457, 0.0
1458, 0.0
1459, 0.0
1460, 0.0
1461, 0.0
1462, 0.0
1463, 0.0
1464, 0.0
1465, 0.0
1466, 0.0
1467, 0.0
1468, 0.0
1469, 0.0
1470, 0.0
1471, 0.0
1472, 0.0
1473, 0.0
1474, 0.0
1475, 0.0
1476, 0.0
1477, 0.0
1478, 0.0
1479, 0.0
1480, 0.0
1481, 0.0
1482, 0.0
1483, 0.0
1484, 0.0
1485, 0.0
1486, 0.0
1487, 0.0
1488, 0.0
1489, 0.0
1490, 0.0
1491, 0.0
1492, 0.0
1493, 0.0
1494, 0.0
1495, 0.0
1496, 0.0
1497, 0.0
1498, 0.0
1499, 0.0
1500, 0.0
1501, 0.0
1502, 0.0
1503, 0.0
1504, 0.0
1505, 0.0
1506, 0.0
1507, 0.0
1508, 0.0
1509, 0.0
1510, 0.0
1511, 0.0
1512, 0.0
1513, 0.0
1514, 0.0
1515, 0.0
1516, 0.0
1517, 0.0
1518, 0.0
1519, 0.0
1520, 0.0
1521, 0.0
1522, 0.0
1523, 0.0
1524, 0.0
1525, 0.0
1526, 0.0
1527, 0.0
1528, 0.0
1529, 0.0
1530, 0.0
1531, 0.0
1532, 0.0
1533, 0.0
1534, 0.0
1535, 0.0
1536, 0.0
1537, 0.0
1538, 0.0
1539, 0.0
1540, 0.0
1541, 0.0
1542, 0.0
1543, 0.0
1544, 0.0
1545, 0.0
1546, 0.0
1547, 0.0
1548, 0.0
1549, 0.0
1550, 0.0
1551, 0.0
1552, 0.0
1553, 0.0
1554, 0.0
1555, 0.0
1556, 0.0
1557, 0.0
1558, 0.0
1559, 0.0
1560, 0.0
1561, 0.0
1562, 0.0
1563, 0.0
1564, 0.0
1565, 0.0
1566, 0.0
1567, 0.0
1568, 0.0
1569, 0.0
1570, 0.0
1571, 0.0
1572, 0.0
1573, 0.0
1574, 0.0
1575, 0.0
1576, 0.0
1577, 0.0
1578, 0.0
1579, 0.0
1580, 0.0
1581, 0.0
1582, 0.0
1583, 0.0
1584, 0.0
1585, 0.0
1586, 0.0
1587, 0.0
1588, 0.0
1589, 0.0
1590, 0.0
1591, 0.0
1592, 0.0
1593, 0.0
1594, 0.0
1595, 0.0
1596, 0.0
1597, 0.0
1598, 0.0
1599, 0.0
