30, 0.0
31, 0.0
32, 0.0
33, 0.0
34, 0.0
35, 0.0
36, 0.0
37, 0.0
38, 0.0
39, 0.0
40, 0.0
41, 0.0
42, 0.0
43, 0.0
44, 0.0
45, 0.0
46, 0.0
47, 0.0
48, 0.0
49, 0.0
50, 0.0
51, 0.0
52, 0.0
53, 0.0
54, 0.0
55, 0.0
56, 0.0
57, 0.0
58, 0.0
59, 0.0
60, 0.0
61, 0.0
62, 0.0
63, 0.0
64, 0.0
65, 0.0
66, 0.0
67, 0.0
68, 0.0
69, 0.0
70, 0.0
71, 0.0
72, 0.0
73, 0.0
74, 0.0
75, 0.0
76, 0.0
77, 0.0
78, 0.0
79, 0.0
80, 0.0
81, 0.0
82, 0.0
83, 0.0
84, 0.0
85, 0.0
86, 0.0
87, 0.0
88, 0.0
89, 0.0
90, 0.0
91, 0.0
92, 0.0
93, 0.0
94, 0.0
95, 0.0
96, 0.0
97, 0.0
98, 0.0
99, 0.0
100, 0.0
101, 0.0
102, 0.0
103, 0.0
104, 0.0
105, 0.0
106, 0.0
107, 0.0
108, 0.0
109, 0.0
110.0, 0.000319556025558761
111.0, 0.00031438991592378694
112.0, 0.0026159954372259866
113.0, 0.005704790584954654
114.0, 0.004071572047977072
115.0, 0.006358705434193899
116.0, 0.007872622678546467
117.0, 0.007516864353075636
118.0, 0.005793093046029454
119.0, 0.004533097723863011
120.0, 0.009030738750731317
121.0, 0.0113455050509658
122.0, 0.010354866469063457
123.0, 0.011316905830993929
124.0, 0.01861312095456018
125.0, 0.018945625619893564
126.0, 0.023062182166766584
127.0, 0.02943266759695632
128.0, 0.033949659122534066
129.0, 0.03543137765526821
130.0, 0.04254485951479879
131.0, 0.04092361902645644
132.0, 0.04414543851738894
133.0, 0.04940841316113982
134.0, 0.054253306295702054
135.0, 0.0592261676379477
136.0, 0.06269499334285168
137.0, 0.06280588023020034
138.0, 0.06372833396735458
139.0, 0.06500650551954108
140.0, 0.06268999933138453
141.0, 0.0635413364599408
142.0, 0.05887145824695647
143.0, 0.05554409322043808
144.0, 0.0520608433583698
145.0, 0.04535938910576614
146.0, 0.04598533564596123
147.0, 0.0433113328481417
148.0, 0.03887793342578725
149.0, 0.03517162644519589
150.0, 0.032978820841621105
151.0, 0.027727795134436427
152.0, 0.02327266351597769
153.0, 0.019424803901323427
154.0, 0.015933992562250397
155.0, 0.012654605202607914
156.0, 0.009613410646102447
157.0, 0.008513815841097344
158.0, 0.007749575618628929
159.0, 0.007723445478001713
160.0, 0.007432145348374417
161.0, 0.005201011387902001
162.0, 0.0014781563885086996
163.0, 0.0019116344835934044
164.0, 0.001924139119126146
165.0, 0.0017555879759304429
166.0, 0.002877527765563463
167.0, 0.0060314941505451945
168.0, 0.004019597828151107
169.0, 0.008110456365252325
170.0, 0.010620039676280526
171.0, 0.00831499261265863
172.0, 0.008213095100667518
173.0, 0.009741578665448235
174.0, 0.008315902353645705
175.0, 0.005565735141458868
176.0, 0.004993630419132652
177.0, 0.00994688775602983
178.0, 0.011709841881571042
179.0, 0.012459800306909255
180.0, 0.015139051150211746
181.0, 0.015489570395087297
182.0, 0.010909317264985924
183.0, 0.010839526758610695
184.0, 0.013678836652343934
185.0, 0.01509605695695742
186.0, 0.017579940445723925
187.0, 0.020133977111939552
188.0, 0.016966699471465747
189.0, 0.029114358854735848
190.0, 0.027483274851532333
191.0, 0.030860741986355595
192.0, 0.03662045512369346
193.0, 0.03377473799218348
194.0, 0.034502914494474436
195.0, 0.038444589861396254
196.0, 0.040671925515507336
197.0, 0.04233373462243013
198.0, 0.04543654785366775
199.0, 0.05107556593347216
200.0, 0.05118022495024814
201.0, 0.05308973198851165
202.0, 0.05703607438805138
203.0, 0.0598528539522336
204.0, 0.057132005222708865
205.0, 0.058700163848695495
206.0, 0.06269329842563032
207.0, 0.0664694116637021
208.0, 0.06989679530713061
209.0, 0.0735403068343457
210.0, 0.0776603454898292
211.0, 0.08244074671739055
212.0, 0.08744026918655401
213.0, 0.09310353706415372
214.0, 0.10024609681145544
215.0, 0.10944891670674534
216.0, 0.11092458049147719
217.0, 0.11459822370986693
218.0, 0.1130340914974381
219.0, 0.10690750974918836
220.0, 0.10022221619046498
221.0, 0.09656688870060684
222.0, 0.08798337475980152
223.0, 0.07481329171678865
224.0, 0.06766976620979911
225.0, 0.06698758758761565
226.0, 0.06035559909518755
227.0, 0.06612541208680296
228.0, 0.062328216432432096
229.0, 0.05699035003134032
230.0, 0.052518260717685984
231.0, 0.04912095761761057
232.0, 0.04854223071493422
233.0, 0.04286338412045412
234.0, 0.04302186411321993
235.0, 0.039788567726188696
236.0, 0.032304656737074465
237.0, 0.031763472841100086
238.0, 0.02650208995717973
239.0, 0.026456949228858693
240.0, 0.029085811873519444
241.0, 0.02977458500428539
242.0, 0.026384983967676898
243.0, 0.028094907099985376
244.0, 0.02427155647934591
245.0, 0.025379462429862023
246.0, 0.025913246217155433
247.0, 0.024270659585432237
248.0, 0.024271414321535695
249.0, 0.02281019208284048
250.0, 0.024916574580328234
251.0, 0.026221121072226218
252.0, 0.02424388440643291
253.0, 0.018932601727076927
254.0, 0.014652393602897027
255.0, 0.017374312090862334
256.0, 0.017259750426205377
257.0, 0.018539278638569492
258.0, 0.020003259927129178
259.0, 0.017099034470236203
260.0, 0.01948727773846782
261.0, 0.017912047479995395
262.0, 0.013490935954770297
263.0, 0.009079310586449466
264.0, 0.007338580107579826
265.0, 0.009506370759461091
266.0, 0.012505712812837227
267.0, 0.010976295206436958
268.0, 0.00790747563861787
269.0, 0.007331808991844977
270.0, 0.01028156221673867
271.0, 0.003219868421369283
272.0, 0.010393785194693715
273.0, 0.006417222277298943
274.0, 0.003769225117146939
275.0, 0.006200379607214925
276.0, 0.0036329627078139975
277.0, 0.010244068696635439
278.0, 0.01609733052415638
279.0, 0.017776223315079706
280.0, 0.018312423403632698
281.0, 0.020354746702765582
282.0, 0.020839590414915662
283.0, 0.017362169311237945
284.0, 0.018251236112443652
285.0, 0.02015405243424156
286.0, 0.020651748525360735
287.0, 0.01928364153549566
288.0, 0.02026726394649398
289.0, 0.018370246033077114
290.0, 0.01854605786265336
291.0, 0.02109623757982286
292.0, 0.023915404242635396
293.0, 0.02368797432128991
294.0, 0.025902968360649325
295.0, 0.030630884255297544
296.0, 0.03475399650376686
297.0, 0.03588317842773161
298.0, 0.034468452546946256
299.0, 0.03600481335341169
300.0, 0.04331422221565161
301.0, 0.04811121216716359
302.0, 0.054149045319156035
303.0, 0.06063187661495721
304.0, 0.06557125917773442
305.0, 0.0723621687318158
306.0, 0.08148256308244757
307.0, 0.08566108540420858
308.0, 0.09081751579105549
309.0, 0.0991726913220644
310.0, 0.10833533613450168
311.0, 0.11581011568610669
312.0, 0.13450635867594019
313.0, 0.1474033702670122
314.0, 0.16169646717457795
315.0, 0.18019639849340938
316.0, 0.19430905191395195
317.0, 0.2185425452534408
318.0, 0.23473513151020212
319.0, 0.2519095382783378
320.0, 0.2726394780944171
321.0, 0.29322618373807896
322.0, 0.3023949637385726
323.0, 0.3030088962082682
324.0, 0.30335577679394143
325.0, 0.3012379067887818
326.0, 0.2937817727342643
327.0, 0.27945452253713304
328.0, 0.2610854807243783
329.0, 0.2492972397943741
330.0, 0.23366817136983756
331.0, 0.2199734260779667
332.0, 0.2061099026683782
333.0, 0.1872365923481518
334.0, 0.17600763497460672
335.0, 0.16208440076196726
336.0, 0.15073979741282972
337.0, 0.13868443667886982
338.0, 0.12579520935281435
339.0, 0.1154632607431013
340.0, 0.1071582805492294
341.0, 0.0983546693152521
342.0, 0.09327976412259957
343.0, 0.08976478468202483
344.0, 0.08728630475070974
345.0, 0.08860462276718285
346.0, 0.0935109954724562
347.0, 0.09637090847426498
348.0, 0.09882261587400029
349.0, 0.10173329849927669
350.0, 0.10437926069355402
351.0, 0.10445315005183617
352.0, 0.10950458419670626
353.0, 0.10854662025287554
354.0, 0.10848897083782054
355.0, 0.1121698913721933
356.0, 0.11785854456527595
357.0, 0.11866125751337146
358.0, 0.1177272977492803
359.0, 0.11479108304938448
360.0, 0.11464197337060673
361.0, 0.10898508136366988
362.0, 0.09650367008097428
363.0, 0.10084284567802451
364.0, 0.09484825357043722
365.0, 0.10169534950185861
366.0, 0.10454891600878803
367.0, 0.09769657583485744
368.0, 0.08855679017930779
369.0, 0.10114780857057305
370.0, 0.10579518418291332
371.0, 0.12176803892945126
372.0, 0.12428953590802592
373.0, 0.11809133564378173
374.0, 0.11712519496396658
375.0, 0.11774446359442962
376.0, 0.10362285246165454
377.0, 0.10338670754023964
378.0, 0.09865987880657102
379.0, 0.09277417631537466
380.0, 0.09438167242643097
381.0, 0.09250229365242323
382.0, 0.09267967612907832
383.0, 0.09565906912377335
384.0, 0.10356162641142219
385.0, 0.10943750348428355
386.0, 0.10969403391730258
387.0, 0.12242438600072711
388.0, 0.13313787891989023
389.0, 0.1406017853016785
390.0, 0.14940779950547253
391.0, 0.1555621853077182
392.0, 0.15444943755219867
393.0, 0.15194034832819253
394.0, 0.14400342039470068
395.0, 0.13818123716677122
396.0, 0.12500413714990033
397.0, 0.10728302017109749
398.0, 0.09075623132044144
399.0, 0.07226770566394293
400.0, 0.060596369494426885
401.0, 0.05342107680459043
402.0, 0.043723257014577924
403.0, 0.03452305685674934
404.0, 0.030674101047261402
405.0, 0.030555527931410763
406.0, 0.030405601315724565
407.0, 0.02441475538938077
408.0, 0.020045485861425523
409.0, 0.017145537245020926
410.0, 0.01509536237783384
411.0, 0.018080302636605896
412.0, 0.023941051795930087
413.0, 0.026993603699118497
414.0, 0.02369989675407539
415.0, 0.018884680634295346
416.0, 0.017560223885625507
417.0, 0.019424567107815628
418.0, 0.011258652522819585
419.0, 0.015427034790659348
420.0, 0.008253707130080796
421.0, 0.0021944784558348865
422.0, 0.006186434009145773
423.0, 0.011324996874435968
424.0, 0.0065947957365745675
425.0, 0.002458284151791551
426.0, 0.0005974779565824164
427.0, 0.000977763352341004
428.0, 0.002412308033154734
429.0, 0.0033025958440786305
430.0, 0.003956056623218279
431.0, 0.001020722253579479
432.0, 0.0026916492682651496
433.0, 0.004429811191285085
434.0, 0.004934675194186699
435.0, 0.005650869438949258
436.0, 0.0026446149435993835
437.0, 0.002482877197468021
438.0, 0.0012210460934665042
439.0, 0.002491493246014067
440.0, 0.006087620513815209
441.0, 0.008380969401809482
442.0, 0.004232108291296124
443.0, 0.007187448008285293
444.0, 0.006224732401191102
445.0, 0.0038209418110642015
446.0, 0.0015015000731677763
447.0, 0.00013727292409660997
448.0, 0.00031302211132752883
449.0, 0.0012465152887189963
450.0, 0.0010701477116469502
451.0, 0.00241287113957852
452.0, 0.005912831728689735
453.0, 0.010194410390405483
454.0, 0.013178378471599575
455.0, 0.020822628163419656
456.0, 0.025423172002426955
457.0, 0.03238906649183911
458.0, 0.043485311603175605
459.0, 0.05483102419465725
460.0, 0.06273175270899958
461.0, 0.08165591689292558
462.0, 0.09912145628128688
463.0, 0.11972109360233267
464.0, 0.13499380395590643
465.0, 0.14267965147499637
466.0, 0.141258226920227
467.0, 0.1212967931757372
468.0, 0.10575427056738826
469.0, 0.08620656601354382
470.0, 0.07247119043693576
471.0, 0.06030300967089604
472.0, 0.04756102265024882
473.0, 0.04163489835172773
474.0, 0.03895618241096677
475.0, 0.027606011022744792
476.0, 0.02418592658684179
477.0, 0.02167805918615693
478.0, 0.016051754463225917
479.0, 0.011282440844323243
480.0, 0.014928326950008484
481.0, 0.013579956236408104
482.0, 0.010896253711948264
483.0, 0.007841188995605411
484.0, 0.005641915571112425
485.0, 0.005567351423284037
486.0, 0.00833229944784716
487.0, 0.008160757158503923
488.0, 0.0072504765494652585
489.0, 0.011124741511282595
490.0, 0.011070857303592075
491.0, 0.004752727565297972
492.0, 0.0021639791743552446
493.0, 0.009082022080848457
494.0, 0.008124488149739702
495.0, 0.009969472161627439
496.0, 0.012507688871363996
497.0, 0.013705643422844707
498.0, 0.0134189188843674
499.0, 0.013215806766494588
500.0, 0.028187912838618674
501.0, 0.02865157584024107
502.0, 0.035068435358611406
503.0, 0.04097689640623657
504.0, 0.0385712506807196
505.0, 0.03335206499832675
506.0, 0.03176140043572701
507.0, 0.026586510061875825
508.0, 0.033405981038009576
509.0, 0.04137647224761427
510.0, 0.04332714480400658
511.0, 0.04067129316251151
512.0, 0.04098348822652186
513.0, 0.04622427548882493
514.0, 0.050143104488275816
515.0, 0.049587417514548406
516.0, 0.0531013967229868
517.0, 0.0602661980506348
518.0, 0.05677531876949921
519.0, 0.061952332744517016
520.0, 0.062093287660727976
521.0, 0.060937339073345656
522.0, 0.058628470136509674
523.0, 0.05719543072596525
524.0, 0.05776550481781632
525.0, 0.05525450896865776
526.0, 0.04431523514100802
527.0, 0.048622550398259766
528.0, 0.04670776154408219
529.0, 0.041067715253090345
530.0, 0.039844772018709215
531.0, 0.04415698102053625
532.0, 0.03559952404361797
533.0, 0.04486205946955234
534.0, 0.048275798737647195
535.0, 0.051740494282984315
536.0, 0.05437123306311875
537.0, 0.05499876427629809
538.0, 0.0617964595607702
539.0, 0.0687298010651358
540.0, 0.0633946054288094
541.0, 0.06418346030117635
542.0, 0.0654504056700431
543.0, 0.06449626883745006
544.0, 0.06456182874057806
545.0, 0.06236181737041955
546.0, 0.06455151346539142
547.0, 0.06165075785746668
548.0, 0.06272525635399809
549.0, 0.0660011028281713
550.0, 0.06973793294854833
551.0, 0.0771280661418773
552.0, 0.08212457612198014
553.0, 0.09290010930974839
554.0, 0.09014124211271894
555.0, 0.08807489654157945
556.0, 0.08699240042403025
557.0, 0.08180629661158549
558.0, 0.07748620914927486
559.0, 0.06599950183865641
560.0, 0.06260485408361216
561.0, 0.053492861883758035
562.0, 0.046895187503541866
563.0, 0.04082624993733499
564.0, 0.02958449558989626
565.0, 0.03148688735261121
566.0, 0.027982688755647925
567.0, 0.02010629082649076
568.0, 0.01820815685147831
569.0, 0.017182110890937977
570.0, 0.014262922687047071
571.0, 0.013355294198804398
572.0, 0.011181984450725945
573.0, 0.011703432708018513
574.0, 0.015787495650982836
575.0, 0.01678630148994922
576.0, 0.01652208080410808
577.0, 0.016184014695580957
578.0, 0.011948287495017296
579.0, 0.008723507678363291
580.0, 0.006100347965070361
581.0, 0.002640029387211204
582.0, 0.000860275450333058
583.0, 0.0016400556467588503
584.0, 0.00325017707975323
585.0, 0.002702206795684039
586.0, 0.007184033988020835
587.0, 0.0026528150040199
588.0, 0.002122618611090592
589.0, 0.004465794429515633
590.0, 0.004700044458969278
591.0, 0.0016422032477006474
592.0, 0.002851839173284754
593.0, 0.0018294837565208393
594.0, 0.0023898392968902528
595.0, 0.0013849673336303726
596.0, 0.0018583482336753574
597.0, 0.0024825552116370967
598.0, 0.0012172367553114965
599.0, 0.0036464985687680346
600.0, 0.010185923238376228
601.0, 0.004239689804858162
602.0, 0.004203937041710179
603.0, 0.004014311292651985
604.0, 0.0036295750678933415
605.0, 0.006381599235743182
606.0, 0.0012379297770843615
607.0, 0.0011575168948639875
608.0, 0.005859150973909858
609.0, 0.0053148691938639785
610.0, 0.003020048193785432
611.0, 0.0027374079559274326
612.0, 0.0041357381914284876
613.0, 0.00392415695377915
614.0, 0.0068374072784411054
615.0, 0.008058856754869954
616.0, 0.006930561241918421
617.0, 0.00729898227286181
618.0, 0.010886997515150149
619.0, 0.014515716907689654
620.0, 0.010808612253795997
621.0, 0.013097823119508021
622.0, 0.00888958235691961
623.0, 0.00983007276346757
624.0, 0.011865365551219323
625.0, 0.01197854063999018
626.0, 0.01272523094223226
627.0, 0.018778633939908893
628.0, 0.01360874254307358
629.0, 0.012057399475936221
630.0, 0.018951787034846252
631.0, 0.023465311860081516
632.0, 0.023025114083035
633.0, 0.023806328030576574
634.0, 0.029467470061941035
635.0, 0.033320223310204344
636.0, 0.029212875486476848
637.0, 0.032814984423345676
638.0, 0.03470326391291291
639.0, 0.035934566104360265
640.0, 0.04233599072736563
641.0, 0.04861106694499705
642.0, 0.06029095726609262
643.0, 0.0598521328947679
644.0, 0.06416526696311384
645.0, 0.07113835549220468
646.0, 0.08250000920352388
647.0, 0.09912729562705373
648.0, 0.11436657085593208
649.0, 0.12494887995754927
650.0, 0.14876080721039434
651.0, 0.1681239511436263
652.0, 0.1881566762761767
653.0, 0.21080584048707804
654.0, 0.23404568997547398
655.0, 0.25587026486808157
656.0, 0.28196542589004514
657.0, 0.3058916617746403
658.0, 0.3300962046379827
659.0, 0.35401873866523026
660.0, 0.3764411829914097
661.0, 0.3971275591167864
662.0, 0.4180033467377381
663.0, 0.44364112811139655
664.0, 0.475422703492564
665.0, 0.49365347807504123
666.0, 0.5074018953805434
667.0, 0.5117401496523178
668.0, 0.5032042954194527
669.0, 0.4845725923678228
670.0, 0.4612197771666901
671.0, 0.42969626910696657
672.0, 0.38235231806547654
673.0, 0.3386274540490179
674.0, 0.2982476877194718
675.0, 0.260943680934156
676.0, 0.2272364126356512
677.0, 0.19576573750562012
678.0, 0.16853823572777657
679.0, 0.1641026414391296
680.0, 0.14731541869682285
681.0, 0.12365378931008413
682.0, 0.10621355595163214
683.0, 0.09470572508343734
684.0, 0.07960342435260902
685.0, 0.08243461514121846
686.0, 0.0748346411479787
687.0, 0.06565799389943008
688.0, 0.05461498422625648
689.0, 0.05050404102920187
690.0, 0.05018873292922068
691.0, 0.04574284148290234
692.0, 0.04386836607456914
693.0, 0.03759901439490609
694.0, 0.03722477893736436
695.0, 0.03938358867782902
696.0, 0.035530474731940966
697.0, 0.0324711756046099
698.0, 0.03513754993219519
699.0, 0.03496493985090322
700.0, 0.030638188083302976
701.0, 0.03052114421428753
702.0, 0.023095976802741842
703.0, 0.020350668501397776
704.0, 0.019716455977646444
705.0, 0.019290014984903278
706.0, 0.020099727441462052
707.0, 0.018509175889871582
708.0, 0.020527984117343696
709.0, 0.022732596907978096
710.0, 0.026210963118605417
711.0, 0.022631161985774865
712.0, 0.01580972363928639
713.0, 0.012979323014489865
714.0, 0.014995269778410824
715.0, 0.020940205736375565
716.0, 0.012347679581087375
717.0, 0.019362130899067444
718.0, 0.021758585066666773
719.0, 0.02069963498244725
720.0, 0.021826828711446578
721.0, 0.025542547204822904
722.0, 0.026560512475835043
723.0, 0.025998497231819444
724.0, 0.023981894569273535
725.0, 0.024065913661715642
726.0, 0.0253559134157048
727.0, 0.0250502394374533
728.0, 0.023031454928511517
729.0, 0.022134480473251193
730.0, 0.022133348197284602
731.0, 0.02063445018559629
732.0, 0.021983658679315555
733.0, 0.020870907213876314
734.0, 0.01642942004720893
735.0, 0.014535008318984952
736.0, 0.015920773911749564
737.0, 0.010923067982820714
738.0, 0.006874187892574234
739.0, 0.015202997947871697
740.0, 0.01715840838287758
741.0, 0.01168635024748805
742.0, 0.005491189206680798
743.0, 0.0031551688538453745
744.0, 0.004644390970004188
745.0, 0.007343627964089442
746.0, 0.00045578896753965554
747.0, 0.0036991469581578234
748.0, 0.008490269299305164
749.0, 0.006216377966800701
750.0, 0.0037376391320504037
751.0, 0.0034215037181510176
752.0, 0.0013921854589018833
753.0, 0.005436296817977707
754.0, 0.0031069116770939924
755.0, 0.007164295874535358
756.0, 0.0030476886114578286
757.0, 0.0010097770065053417
758.0, 0.0011210291150002046
759.0, 0.003136617494052668
760.0, 0.009075378415542812
761.0, 0.004683712015277754
762.0, 0.005585234450502367
763.0, 0.0026379272724640374
764.0, 0.00559543381346885
765.0, 0.005142954966768036
766.0, 0.005809326993218036
767.0, 0.009848776486183423
768.0, 0.007531610419307836
769.0, 0.0047575699610125114
770.0, 0.004880958157081557
771.0, 0.0028359999610234783
772.0, 0.00913474819266469
773.0, 0.008426350398771983
774.0, 0.004779993415855733
775.0, 0.007990155489972405
776.0, 0.01244143401973904
777.0, 0.007433886072648654
778.0, 0.007808286950933174
779.0, 0.008654149819315756
780.0, 0.004151351785231381
781.0, 0.0011967226538757338
782.0, 0.0013598479059058666
783.0, 0.0015343163674375684
784.0, 0.00045711592144744386
785.0, 0.00047649582099963596
786.0, 0.001459096699909203
787.0, 0.0020449106044730563
788.0, 0.0010157860068215313
789.0, 0.0018956421194502382
790.0, 0.0037007892796291388
791.0, 0.0036667430971266276
792.0, 0.003727191301334095
793.0, 0.013189934288437535
794.0, 0.0025031842627653775
795.0, 0.0036661406920785017
796.0, 0.004917542257485581
797.0, 0.004598350228221846
798.0, 0.003068083331051715
799.0, 0.0027323149272607122
800.0, 0.005934341248295594
801.0, 0.006994660837493346
802.0, 0.0059027304455253945
803.0, 0.006278777455353794
804.0, 0.003143212355333224
805.0, 0.004328855724174718
806.0, 0.006934171300750554
807.0, 0.008405213460049315
808.0, 0.010347126430233776
809.0, 0.005932603425582001
810.0, 0.006850392065215614
811.0, 0.0018932009528788362
812.0, 0.002877219811964828
813.0, 0.004845759719877762
814.0, 0.005080670668278289
815.0, 0.0041352123751422784
816.0, 0.003152705046746065
817.0, 0.001619173643091248
818.0, 0.0003786373564515689
819.0, 0.0028081461952062176
820.0, 0.004025071433925759
821.0, 0.005557872829083498
822.0, 0.005913942794317495
823.0, 0.0038047890073597203
824.0, 0.0009593803937014529
825.0, 0.000880170370830385
826.0, 0.0001269668805212816
827.0, 0.004423915924017469
828.0, 0.008763968559378969
829.0, 0.008436738942308217
830.0, 0.008354225173608919
831.0, 0.006225682171012707
832.0, 0.004368834209190858
833.0, 0.00929427691617303
834.0, 0.0022415690515589495
835.0, 0.0023276327208328436
836.0, 0.001349581144530075
837.0, 0.004359483353173276
838.0, 0.005411986660220424
839.0, 0.005113261776439263
840.0, 0.006436980086568194
841.0, 0.007554157123046221
842.0, 0.002038105283272308
843.0, 0.0021561584484642684
844.0, 0.00467781131708698
845.0, 0.004280310631225753
846.0, 0.005491706915192343
847.0, 0.00546629250979836
848.0, 0.004771694454690955
849.0, 0.004416475104458979
850.0, 0.003519922686773023
851.0, 0.009425510688274949
852.0, 0.0022004010956761153
853.0, 0.015162203641578706
854.0, 0.013901586517860344
855.0, 0.011028612121769761
856.0, 0.0060131135524701665
857.0, 0.0009139463107765509
858.0, 0.0020559564819700197
859.0, 0.00391412650121415
860.0, 0.008353729739055078
861.0, 0.011536685078706086
862.0, 0.012388273657624287
863.0, 0.008072236753370512
864.0, 0.009618592052526683
865.0, 0.009506776548533297
866.0, 0.0035951224240274235
867.0, 0.0047176891000419085
868.0, 0.012014680949550206
869.0, 0.008969370564382963
870.0, 0.007220469944012568
871.0, 0.0026425569533480428
872.0, 0.004657134794903553
873.0, 0.008988191687977869
874.0, 0.010264051340160583
875.0, 0.00872165758056035
876.0, 0.008117295566417037
877.0, 0.011160436941703888
878.0, 0.005131306496075214
879.0, 0.007180368852183286
880.0, 0.012582044972966437
881.0, 0.013955675476940026
882.0, 0.012712236084660862
883.0, 0.01024585281620097
884.0, 0.009104153169534933
885.0, 0.016468585210491566
886.0, 0.01711258779400281
887.0, 0.013411233447629472
888.0, 0.008547655305420041
889.0, 0.014857591571419332
890.0, 0.020267417543683237
891.0, 0.020437522508707732
892.0, 0.018834916568030387
893.0, 0.017963687136560293
894.0, 0.015981014529143477
895.0, 0.01417300722118615
896.0, 0.020481338321518418
897.0, 0.022147735985879644
898.0, 0.017014909662071212
899.0, 0.017541958399292245
900.0, 0.017347444516961522
901.0, 0.011966201682042264
902.0, 0.009170294256461351
903.0, 0.008632191718280842
904.0, 0.007966457045930945
905.0, 0.013826539770341983
906.0, 0.017321290847333692
907.0, 0.013056755690974017
908.0, 0.014862586544628697
909.0, 0.018106278813715716
910.0, 0.01579081589685071
911.0, 0.01578779021244087
912.0, 0.027142051345662485
913.0, 0.023430329092677813
914.0, 0.017518800365715667
915.0, 0.018571073466273496
916.0, 0.019280993624609142
917.0, 0.021341017352136244
918.0, 0.02249968384418834
919.0, 0.022055194792438622
920.0, 0.022624641100872953
921.0, 0.02356311965443862
922.0, 0.026473337095900273
923.0, 0.03317276122718634
924.0, 0.02776226140565279
925.0, 0.03501471011341192
926.0, 0.03597013274682448
927.0, 0.03714695543898079
928.0, 0.03996400291289048
929.0, 0.038753291898051545
930.0, 0.04580305174562948
931.0, 0.04609820030156799
932.0, 0.05158683491481891
933.0, 0.04671791621507157
934.0, 0.03977866781108768
935.0, 0.04220514594929696
936.0, 0.04336443143106937
937.0, 0.043170606836283064
938.0, 0.04483105921703517
939.0, 0.04017926955293957
940.0, 0.04492465729260474
941.0, 0.043802345576697446
942.0, 0.03972136003811429
943.0, 0.03858709748754583
944.0, 0.03408791718703565
945.0, 0.03002391171394519
946.0, 0.026287542741570535
947.0, 0.02299445912321496
948.0, 0.022966876886006567
949.0, 0.02142720731963632
950.0, 0.019052694788197395
951.0, 0.022456228873527148
952.0, 0.019417978919562758
953.0, 0.017139989971749443
954.0, 0.020245566444659163
955.0, 0.020874371381728398
956.0, 0.019296843744820758
957.0, 0.02149069227318742
958.0, 0.02265289337088623
959.0, 0.025596073379344404
960.0, 0.028260964224808314
961.0, 0.029892361591393288
962.0, 0.03335316075776299
963.0, 0.03200336446679414
964.0, 0.03129479910175986
965.0, 0.02876866385162235
966.0, 0.027997216363925072
967.0, 0.03619214353720468
968.0, 0.03310589767634959
969.0, 0.03820503219746448
970.0, 0.043233557785270084
971.0, 0.04087391685115511
972.0, 0.04135708896146123
973.0, 0.050007828373614255
974.0, 0.0570782634686838
975.0, 0.060993697473018124
976.0, 0.06495017583144493
977.0, 0.06495357164157334
978.0, 0.06950653770739794
979.0, 0.0742990915479943
980.0, 0.08126509622327523
981.0, 0.08164253687749852
982.0, 0.09443239072468383
983.0, 0.10601190242549077
984.0, 0.11591780839252291
985.0, 0.13233737643827817
986.0, 0.15316662275614026
987.0, 0.17049301630963504
988.0, 0.20136884045386916
989.0, 0.22552138656781479
990.0, 0.26163600118257485
991.0, 0.3103589792243512
992.0, 0.35909379208957
993.0, 0.43055494785373627
994.0, 0.5050237637333576
995.0, 0.5770790370121115
996.0, 0.6642755793067422
997.0, 0.7389284946062097
998.0, 0.8110981556324336
999.0, 0.88670698854492
1000.0, 0.938532685840671
1001.0, 0.9790164095935481
1002.0, 0.9964788876551992
1003.0, 0.9909004207877172
1004.0, 0.9672905984855457
1005.0, 0.9284799663466572
1006.0, 0.875979822384936
1007.0, 0.8142548071749021
1008.0, 0.7476673287948042
1009.0, 0.6889013834406339
1010.0, 0.6201771314806496
1011.0, 0.5519219093840132
1012.0, 0.5052785755881499
1013.0, 0.45670975521751855
1014.0, 0.41474857881609956
1015.0, 0.38128791455651434
1016.0, 0.34103123138567315
1017.0, 0.30788455310374213
1018.0, 0.27134758514846846
1019.0, 0.2512503195825434
1020.0, 0.23257067219168318
1021.0, 0.20691921081605666
1022.0, 0.1883715361832244
1023.0, 0.17125031522436
1024.0, 0.1583924020879642
1025.0, 0.14835058616821173
1026.0, 0.13350669388015995
1027.0, 0.11851294810108676
1028.0, 0.11629702464703184
1029.0, 0.10767408582252225
1030.0, 0.0881700343859593
1031.0, 0.08314508221776554
1032.0, 0.07858902486523998
1033.0, 0.06747948230555344
1034.0, 0.05809647876797462
1035.0, 0.05914768183574451
1036.0, 0.06026453591168653
1037.0, 0.04973456837167248
1038.0, 0.05365052773191202
1039.0, 0.04977513050477585
1040.0, 0.048583466748079715
1041.0, 0.0433186179085579
1042.0, 0.04179147470747309
1043.0, 0.0420012151144741
1044.0, 0.04022524775953342
1045.0, 0.04007569005990022
1046.0, 0.04126724235183433
1047.0, 0.038283333610905274
1048.0, 0.03419734094594103
1049.0, 0.034703466192245895
1050.0, 0.023509615958316278
1051.0, 0.03795565239894631
1052.0, 0.03327995816400991
1053.0, 0.03197786891364372
1054.0, 0.02630206901327708
1055.0, 0.02596462683289285
1056.0, 0.026083160629573655
1057.0, 0.022632395873425193
1058.0, 0.02593178457429002
1059.0, 0.020134165030504088
1060.0, 0.01570953287104076
1061.0, 0.01500516840169577
1062.0, 0.011733923732212484
1063.0, 0.016921392370535915
1064.0, 0.01476461732917033
1065.0, 0.01652869699857715
1066.0, 0.017149167021010332
1067.0, 0.018685058677235626
1068.0, 0.022501661521331248
1069.0, 0.013937098677833631
1070.0, 0.010459820754046644
1071.0, 0.013498835888176863
1072.0, 0.018190468761192697
1073.0, 0.014598947138661842
1074.0, 0.022603340055608195
1075.0, 0.017225773542671206
1076.0, 0.01630137884338165
1077.0, 0.01672652111376461
1078.0, 0.011162945351595035
1079.0, 0.007518681338193919
1080.0, 0.010575211134365253
1081.0, 0.01717997035300869
1082.0, 0.010551402379430284
1083.0, 0.02033306792481317
1084.0, 0.01895122582062198
1085.0, 0.017026174238367657
1086.0, 0.01854079475779276
1087.0, 0.018403786510106136
1088.0, 0.017044769523408616
1089.0, 0.015940818896373787
1090.0, 0.012830926721155645
1091.0, 0.008405393015854388
1092.0, 0.01102876162263104
1093.0, 0.01796596159733316
1094.0, 0.024470085355896135
1095.0, 0.012442577862378856
1096.0, 0.004807928601249607
1097.0, 0.009211888395148067
1098.0, 0.00862153812865145
1099.0, 0.008602490184967239
1100.0, 0.011976719815119524
1101.0, 0.009694194162613122
1102.0, 0.003225407814868175
1103.0, 0.004016305833584415
1104.0, 0.00839619376854005
1105.0, 0.006139724018870803
1106.0, 0.0061737294965494485
1107.0, 0.010451391622144923
1108.0, 0.0057928564736492456
1109.0, 0.004603493412812723
1110.0, 0.004489565884378736
1111.0, 0.005764871853699607
1112.0, 0.008679491198392788
1113.0, 0.009206535994961632
1114.0, 0.013604176029626897
1115.0, 0.023943251557440717
1116.0, 0.018321969189869648
1117.0, 0.028160792148420016
1118.0, 0.01870589242910257
1119.0, 0.02215438664136908
1120.0, 0.030263574944882392
1121.0, 0.026649657013422836
1122.0, 0.022401805183258468
1123.0, 0.02433770145593113
1124.0, 0.025713364303939203
1125.0, 0.024795242882464538
1126.0, 0.019622137625683565
1127.0, 0.02130204580762858
1128.0, 0.014091903723541473
1129.0, 0.011527945873257419
1130.0, 0.008616993199021943
1131.0, 0.007367274464985622
1132.0, 0.00850772888579843
1133.0, 0.010297876221845062
1134.0, 0.008882994745986033
1135.0, 0.008419281520496178
1136.0, 0.009152018581165431
1137.0, 0.0022057091231016237
1138.0, 0.006875246593836547
1139.0, 0.02175409766180609
1140.0, 0.00985699480463947
1141.0, 0.006726105629245089
1142.0, 0.00846473081099082
1143.0, 0.007746132503967873
1144.0, 0.007884954414062317
1145.0, 0.004326657964729293
1146.0, 0.004746215256810435
1147.0, 0.006283198017016416
1148.0, 0.003679908528098477
1149.0, 0.009260397476430302
1150.0, 0.002204072310080059
1151.0, 0.0079544986414097
1152.0, 0.002804594116527163
1153.0, 0.00347809775403243
1154.0, 0.009926581882382015
1155.0, 0.005140882970791237
1156.0, 0.004304210417023137
1157.0, 0.004731864354408863
1158.0, 0.003308444275125106
1159.0, 0.0018621321204691757
1160.0, 0.0035319633823538248
1161.0, 0.007454598544862492
1162.0, 0.0016513225264392047
1163.0, 0.002422139891069537
1164.0, 0.006966502670671417
1165.0, 0.014458503073675725
1166.0, 0.004291581758083353
1167.0, 0.01190400842239391
1168.0, 0.008701546575488318
1169.0, 0.006616267344995649
1170.0, 0.006900496807889869
1171.0, 0.003551545881661788
1172.0, 0.0031856402301334696
1173.0, 0.008524399847937068
1174.0, 0.0049547353764576845
1175.0, 0.001119064227435563
1176.0, 0.010015702267664319
1177.0, 0.004490257180698196
1178.0, 0.005381309548638477
1179.0, 0.0016408249539148277
1180.0, 0.0003132015965068378
1181.0, 0.002894790664112935
1182.0, 0.0026922944058047093
1183.0, 0.004140205735220586
1184.0, 0.008151530062966962
1185.0, 0.006643933720230252
1186.0, 0.0011572378816809893
1187.0, 0.001639533564455373
1188.0, 0.00871480263379049
1189.0, 0.002064965249869567
1190.0, 0.005318330111516343
1191.0, 0.011945785305206328
1192.0, 0.014696121161473837
1193.0, 0.0049465055261508845
1194.0, 0.0075545043419581424
1195.0, 0.007827353307902832
1196.0, 0.005048931516252913
1197.0, 0.006422838351223248
1198.0, 0.005313423749951451
1199.0, 0.0031592114154530278
1200.0, 0.002537831599066513
1201.0, 0.004105618491238722
1202.0, 0.0017233187813559016
1203.0, 0.002792550692563782
1204.0, 0.0027832350852024174
1205.0, 0.002472853866666767
1206.0, 0.0034811781775688426
1207.0, 0.008560162039545714
1208.0, 0.014403662048770836
1209.0, 0.011433502747569985
1210.0, 0.005777984885108959
1211.0, 0.005579481200051712
1212.0, 0.003439685555177167
1213.0, 0.008736308509755252
1214.0, 0.016122795324008524
1215.0, 0.0055779470105993476
1216.0, 0.011684645078986956
1217.0, 0.0131633370619346
1218.0, 0.006057332603797988
1219.0, 0.002645013050549599
1220.0, 0.005154413831323091
1221.0, 0.00711738389097242
1222.0, 0.005638493273767794
1223.0, 0.002448982044945567
1224.0, 0.003709698539770199
1225.0, 0.012169177989716666
1226.0, 0.01533789098108618
1227.0, 0.005767731042125331
1228.0, 0.00972413556325447
1229.0, 0.010483660632023821
1230.0, 0.013383177883359881
1231.0, 0.011899068144325238
1232.0, 0.0032015037958046605
1233.0, 0.0012926576765940393
1234.0, 0.0045682449993232534
1235.0, 0.008139044043718319
1236.0, 0.010224194925665042
1237.0, 0.010475201346523293
1238.0, 0.014174251508372256
1239.0, 0.017550728871757536
1240.0, 0.0033904888124480633
1241.0, 0.01344661884814014
1242.0, 0.00557826590716965
1243.0, 0.013782431492640829
1244.0, 0.01140756286067163
1245.0, 0.0031608684809323385
1246.0, 0.008652085603127075
1247.0, 0.013009020431062727
1248.0, 0.013239764083185274
1249.0, 0.011754393655526373
1250.0, 0.006743976698772079
1251.0, 0.001922129638938633
1252.0, 0.0012644563100437055
1253.0, 0.001089895402440298
1254.0, 0.0024895090538766566
1255.0, 0.002893390592872495
1256.0, 0.004368293520361748
1257.0, 0.0004889510688630876
1258.0, 0.005671173163450614
1259.0, 0.007894968060535568
1260.0, 0.010454466709939238
1261.0, 0.006512866792897728
1262.0, 0.008037311596257524
1263.0, 0.014347966470232709
1264.0, 0.01937576722996162
1265.0, 0.014167395265300394
1266.0, 0.0034654700059256432
1267.0, 0.0008408510554440067
1268.0, 0.0021094014085909505
1269.0, 0.005861802824911896
1270.0, 0.00905759471201449
1271.0, 0.001875468477803093
1272.0, 0.012040162472077953
1273.0, 0.002175680423217078
1274.0, 0.002718076867887425
1275.0, 0.0051951763352906305
1276.0, 0.0038576477734439166
1277.0, 0.0014553805667281343
1278.0, 0.007494553563140895
1279.0, 0.007517114792997806
1280.0, 0.001213193194634335
1281.0, 0.0028605012431348973
1282.0, 0.005557820370881892
1283.0, 0.0048242569869164295
1284.0, 0.011267257327631952
1285.0, 0.000840521786697601
1286.0, 0.009219629648088402
1287.0, 0.0019953755565039386
1288.0, 0.003813755683165715
1289.0, 0.01240215158989168
1290.0, 0.012795608634599389
1291.0, 0.01657474507788836
1292.0, 0.016493702201453776
1293.0, 0.010498942287349723
1294.0, 0.007833508069929421
1295.0, 0.0068763134403631325
1296.0, 0.00472563522946519
1297.0, 0.008071708974207021
1298.0, 0.014604940670527013
1299.0, 0.014978362081514181
1300.0, 0.0019488921022745445
1301.0, 0.0029801539348780904
1302.0, 0.0047948853599687775
1303.0, 0.011457104902061256
1304.0, 0.01253037084805764
1305.0, 0.011486113689411508
1306.0, 0.009041951420308
1307.0, 0.009144013992529695
1308.0, 0.013126367287565452
1309.0, 0.013932796725413263
1310.0, 0.013238012338519027
1311.0, 0.015693760002416717
1312.0, 0.01804110000582458
1313.0, 0.015714480702684042
1314.0, 0.011005001162244905
1315.0, 0.011496939515936831
1316.0, 0.010599769361321058
1317.0, 0.014559282675838841
1318.0, 0.00781553226326228
1319.0, 0.007025904551795063
1320.0, 0.014333886911853309
1321.0, 0.013684950960804684
1322.0, 0.005170250716195876
1323.0, 0.009106095349745177
1324.0, 0.010889473515111497
1325.0, 0.013411361411627305
1326.0, 0.010645299147254227
1327.0, 0.008318115885709956
1328.0, 0.013960843020378212
1329.0, 0.012226733122015434
1330.0, 0.008370076921211798
1331.0, 0.016442986226335988
1332.0, 0.019741910692714384
1333.0, 0.02064079902130007
1334.0, 0.026071621894790255
1335.0, 0.022614632897817517
1336.0, 0.0217483319866955
1337.0, 0.018900327430903415
1338.0, 0.013812473861282657
1339.0, 0.013787024262213675
1340.0, 0.010674441123922096
1341.0, 0.016914041791782065
1342.0, 0.01988543337521367
1343.0, 0.019011754715875104
1344.0, 0.019353964618664024
1345.0, 0.015045065783254053
1346.0, 0.010230899188966846
1347.0, 0.007100620339159356
1348.0, 0.006067235449766036
1349.0, 0.01171565220067268
1350.0, 0.007234804337275672
1351.0, 0.007272571486215528
1352.0, 0.017112939077743992
1353.0, 0.01259916876909454
1354.0, 0.011963751506979852
1355.0, 0.021766329590275652
1356.0, 0.014371699533595076
1357.0, 0.013900851944529714
1358.0, 0.008337076580047974
1359.0, 0.01031917999525488
1360.0, 0.015218359313536026
1361.0, 0.016320163572123493
1362.0, 0.01600062935231852
1363.0, 0.011971519791742876
1364.0, 0.013661206628374598
1365.0, 0.013345600510919164
1366.0, 0.01187347705960429
1367.0, 0.003284614270740443
1368.0, 0.018867671318078184
1369.0, 0.009950204348072655
1370.0, 0.004662761321378341
1371.0, 0.009917352299604821
1372.0, 0.02105526402353604
1373.0, 0.011474234839775933
1374.0, 0.014630240108531608
1375.0, 0.012533356430639306
1376.0, 0.008695643333724046
1377.0, 0.011516252926055962
1378.0, 0.011107792202678973
1379.0, 0.009473398045688624
1380.0, 0.014282401109933522
1381.0, 0.015356650283613767
1382.0, 0.007845679422767099
1383.0, 0.004120062756134106
1384.0, 0.011162973292707825
1385.0, 0.009525558930435302
1386.0, 0.0032696792344895672
1387.0, 0.011568467642611116
1388.0, 0.009977459621445646
1389.0, 0.008928239651728077
1390.0, 0.006717344795746637
1391.0, 0.012817303131468779
1392.0, 0.008295057350804888
1393.0, 0.014453297380707279
1394.0, 0.01704005641161122
1395.0, 0.01378003796728311
1396.0, 0.014077460885361414
1397.0, 0.015663808908379654
1398.0, 0.015116006073298998
1399.0, 0.016545754133854302
1400.0, 0.014485028338346875
1401.0, 0.005128033576684495
1402.0, 0.007793620715824793
1403.0, 0.01140887508952098
1404.0, 0.02225479341897315
1405.0, 0.03514086338090834
1406.0, 0.038091842583442
1407.0, 0.03816072506930295
1408.0, 0.017281477856019925
1409.0, 0.02593396635369189
1410.0, 0.019386824875971462
1411.0, 0.011361580714934675
1412.0, 0.006859129515964367
1413.0, 0.005965753316634948
1414.0, 0.009431098669437291
1415.0, 0.01235497012613031
1416.0, 0.012784894636005822
1417.0, 0.011005060461039296
1418.0, 0.00988167262578492
1419.0, 0.007541268777442946
1420.0, 0.005057019806731629
1421.0, 0.011710578578111077
1422.0, 0.012592872697398469
1423.0, 0.011421539561425637
1424.0, 0.0021243957524237776
1425.0, 0.00492945295510044
1426.0, 0.0024089902311736407
1427.0, 0.008478474419459963
1428.0, 0.01125749124443361
1429.0, 0.006615414995523303
1430.0, 0.017772927307519483
1431.0, 0.013129135814225631
1432.0, 0.006675674530075317
1433.0, 0.01331285962890958
1434.0, 0.011736647852851586
1435.0, 0.012629689320202163
1436.0, 0.011400384110019045
1437.0, 0.011900623066810953
1438.0, 0.01091024822820088
1439.0, 0.010664019126764365
1440.0, 0.015337141737069956
1441.0, 0.013100554499086587
1442.0, 0.01525579318421496
1443.0, 0.014278658404782277
1444.0, 0.011937490310250697
1445.0, 0.018904446262347274
1446.0, 0.009112684324664494
1447.0, 0.006367302381438457
1448.0, 0.018544193454384045
1449.0, 0.011440342289217448
1450.0, 0.019821679745022507
1451.0, 0.010286308996416898
1452.0, 0.008792254641049763
1453.0, 0.019529949274019024
1454.0, 0.010050100386130485
1455.0, 0.012910608166710365
1456.0, 0.008409351186966927
1457.0, 0.012894743749510232
1458.0, 0.02054221335778308
1459.0, 0.017961363492069844
1460.0, 0.01351344378558795
1461.0, 0.008167302850817935
1462.0, 0.0023625246816708742
1463.0, 0.006891647503887052
1464.0, 0.015211217291251248
1465.0, 0.013099269221872361
1466.0, 0.0050754726905105595
1467.0, 0.021211552811550644
1468.0, 0.012747946036990546
1469.0, 0.010847602167306927
1470.0, 0.01794087174296337
1471.0, 0.010509523766694163
1472.0, 0.00831974091078614
1473.0, 0.008308214168282068
1474.0, 0.011091384436416574
1475.0, 0.010263509128204014
1476.0, 0.008383785885671749
1477.0, 0.01635002815294143
1478.0, 0.016435809465274186
1479.0, 0.014949544878976708
1480.0, 0.01170286063399209
1481.0, 0.007062254838618603
1482.0, 0.003828085655066265
1483.0, 0.004238912705513215
1484.0, 0.004559718366205975
1485.0, 0.006050188349092627
1486.0, 0.008325788890268566
1487.0, 0.0036116174942277595
1488.0, 0.0014021183662480446
1489.0, 0.007122845540975729
1490.0, 0.014786131343014283
1491.0, 0.014264203398289405
1492.0, 0.004454852703009977
1493.0, 0.007653229889732988
1494.0, 0.0018531138665573064
1495.0, 0.0006079592256193695
1496.0, 0.005403398249069383
1497.0, 0.0016668865926370317
1498.0, 0.0007420553724881915
1499.0, 0.0048474948753457125
1500.0, 0.00862224888531465
1501.0, 0.010484488436374543
1502.0, 0.014988851954841167
1503.0, 0.014674587390276708
1504.0, 0.01311262950543895
1505.0, 0.013514821166706064
1506.0, 0.015646661503890547
1507.0, 0.016644926285386906
1508.0, 0.015133829215563046
1509.0, 0.01395365980201382
1510.0, 0.009902936386596098
1511.0, 0.004233967578978538
1512.0, 0.008179320815907476
1513.0, 0.017531126375849037
1514.0, 0.016631833429243646
1515.0, 0.00941551449643861
1516.0, 0.01534320289072709
1517.0, 0.01453042397918421
1518.0, 0.01087079252146511
1519.0, 0.010440845679789012
1520.0, 0.019463947924140308
1521.0, 0.008386397272341074
1522.0, 0.013311086096367847
1523.0, 0.004746047471100098
1524.0, 0.019466778915083832
1525.0, 0.009396654266264775
1526.0, 0.01062785376863917
1527.0, 0.012638249212204874
1528.0, 0.016684456163362185
1529.0, 0.014987528093523632
1530.0, 0.01723272498828918
1531.0, 0.017834851607193627
1532.0, 0.012394746444552936
1533.0, 0.012558796344238348
1534.0, 0.016287232048897274
1535.0, 0.01388045717705939
1536.0, 0.008497740820255046
1537.0, 0.010938580603435352
1538.0, 0.01343951822527996
1539.0, 0.009328181984891926
1540.0, 0.006496752263946808
1541.0, 0.008867238512458506
1542.0, 0.014114624745301767
1543.0, 0.013091354611033827
1544.0, 0.016075839045824214
1545.0, 0.008861236319054182
1546.0, 0.011767786718231074
1547.0, 0.008701412673715325
1548.0, 0.003076132403419498
1549.0, 0.002094462726176999
1550.0, 0.016108109082820024
1551.0, 0.01955097361409805
1552.0, 0.012788799041509818
1553.0, 0.014550057081089886
1554.0, 0.021715937432065586
1555.0, 0.020262481974591667
1556.0, 0.019448597342759992
1557.0, 0.013081916302758557
1558.0, 0.017144155395387422
1559.0, 0.017908916384905143
1560.0, 0.013403269687258877
1561.0, 0.01849193795440284
1562.0, 0.02198319996426996
1563.0, 0.012351425626811203
1564.0, 0.014613481246812245
1565.0, 0.014901039477985267
1566.0, 0.016261610457210432
1567.0, 0.016051920519556534
1568.0, 0.006516135721987975
1569.0, 0.0024876778328960496
1570.0, 0.002789380098119801
1571, 0.0
1572, 0.0
1573, 0.0
1574, 0.0
1575, 0.0
1576, 0.0
1577, 0.0
1578, 0.0
1579, 0.0
1580, 0.0
1581, 0.0
1582, 0.0
1583, 0.0
1584, 0.0
1585, 0.0
1586, 0.0
1587, 0.0
1588, 0.0
1589, 0.0
1590, 0.0
1591, 0.0
1592, 0.0
1593, 0.0
1594, 0.0
1595, 0.0
1596, 0.0
1597, 0.0
1598, 0.0
1599, 0.0
