30, 0.0
31, 0.0
32, 0.0
33, 0.0
34, 0.0
35, 0.0
36, 0.0
37, 0.0
38, 0.0
39, 0.0
40, 0.0
41, 0.0
42, 0.0
43, 0.0
44, 0.0
45, 0.0
46, 0.0
47, 0.0
48, 0.0
49, 0.0
50, 0.0
51, 0.0
52, 0.0
53, 0.0
54, 0.0
55, 0.0
56, 0.0
57, 0.0
58, 0.0
59, 0.0
60, 0.0
61, 0.0
62, 0.0
63, 0.0
64, 0.0
65, 0.0
66, 0.0
67, 0.0
68, 0.0
69, 0.0
70, 0.0
71, 0.0
72, 0.0
73, 0.0
74, 0.0
75, 0.0
76, 0.0
77, 0.0
78, 0.0
79, 0.0
80, 0.0
81, 0.0
82, 0.0
83, 0.0
84, 0.0
85, 0.0
86, 0.0
87, 0.0
88, 0.0
89, 0.0
90, 0.0
91, 0.0
92, 0.0
93, 0.0
94, 0.0
95, 0.0
96, 0.0
97, 0.0
98, 0.0
99, 0.0
100, 0.0
101, 0.0
102, 0.0
103, 0.0
104, 0.0
105, 0.0
106, 0.0
107, 0.0
108, 0.0
109, 0.0
110, 0.0
111, 0.0
112.0, 0.0019282413312275203
113.0, 0.0047664082425671215
114.0, 0.0046840150020590905
115.0, 0.008475684247969455
116.0, 0.0038413062493202667
117.0, 0.0026064865274594766
118.0, 0.005042995594304505
119.0, 0.004511330430298038
120.0, 0.0013089258301969234
121.0, 0.0005682104212370786
122.0, 0.00045477766859605657
123.0, 0.0014625473016118403
124.0, 0.0039022342648269946
125.0, 0.0025831864986981977
126.0, 0.0028278063621973155
127.0, 0.007758002268446892
128.0, 0.011196087949815288
129.0, 0.010647920215605709
130.0, 0.019682789028302453
131.0, 0.023364370170526196
132.0, 0.025544591981573304
133.0, 0.02707893423179133
134.0, 0.029068068287356585
135.0, 0.03332105305047048
136.0, 0.03772128605044104
137.0, 0.03891387220336099
138.0, 0.04055771677462782
139.0, 0.04279984292450118
140.0, 0.04278541612403303
141.0, 0.040409634557241135
142.0, 0.0402265840629093
143.0, 0.03905106293025589
144.0, 0.03671765597039634
145.0, 0.034695800581322815
146.0, 0.03602442432526675
147.0, 0.03497898696526142
148.0, 0.029389563585814682
149.0, 0.024890261576314132
150.0, 0.02517923435761452
151.0, 0.02384834725563618
152.0, 0.02039252604557809
153.0, 0.020521829339965044
154.0, 0.017330993169294474
155.0, 0.009377004617945866
156.0, 0.0038431664584248834
157.0, 0.0030954542779640824
158.0, 0.0031033700366218065
159.0, 0.004007534319917699
160.0, 0.005046645751290224
161.0, 0.004979318676140353
162.0, 0.003414530606113855
163.0, 0.004602489985687883
164.0, 0.0047296426476894395
165.0, 0.00454728894048506
166.0, 0.005604057020727848
167.0, 0.007349069285533241
168.0, 0.004551748976808433
169.0, 0.005658439054562409
170.0, 0.008332906004441356
171.0, 0.009738515281007276
172.0, 0.008399872844963708
173.0, 0.00772033344342268
174.0, 0.006565107766788429
175.0, 0.0058509689831011975
176.0, 0.006272579278132857
177.0, 0.007740192065061376
178.0, 0.004558124422716473
179.0, 0.006620468564076753
180.0, 0.007070165771158524
181.0, 0.009193234515839126
182.0, 0.015176037727752542
183.0, 0.014054647080870987
184.0, 0.009569916396720248
185.0, 0.012292593123219885
186.0, 0.014881357274872763
187.0, 0.0143508737534287
188.0, 0.015735213215507672
189.0, 0.018247177528469848
190.0, 0.02001345980496336
191.0, 0.021095349781552388
192.0, 0.021122632280449433
193.0, 0.01960341713433249
194.0, 0.016469016679258538
195.0, 0.0211152404747761
196.0, 0.020835129366391574
197.0, 0.01790251872169778
198.0, 0.0164492714543022
199.0, 0.017758250854140928
200.0, 0.015593040219471692
201.0, 0.018601245847256698
202.0, 0.020340677416125927
203.0, 0.017408170160549595
204.0, 0.010956280902173987
205.0, 0.01638400101224776
206.0, 0.017086307486456485
207.0, 0.017341776945000515
208.0, 0.018500729184809907
209.0, 0.020975993190867705
210.0, 0.025208720764655863
211.0, 0.028482787729600615
212.0, 0.03260667276222462
213.0, 0.03500293615331623
214.0, 0.03783661558675246
215.0, 0.04736769822644349
216.0, 0.043852183933607285
217.0, 0.04764278046554835
218.0, 0.04808788257503559
219.0, 0.04559161039402528
220.0, 0.045293391679702075
221.0, 0.05307140048662215
222.0, 0.048256677493846364
223.0, 0.04770970863608125
224.0, 0.04667960104626813
225.0, 0.04411821148348125
226.0, 0.04600589679947285
227.0, 0.04588025926587836
228.0, 0.04951262425054743
229.0, 0.046181897188279974
230.0, 0.04167463059712735
231.0, 0.04439257868152153
232.0, 0.04459284813806846
233.0, 0.03851421478494367
234.0, 0.03663876394149151
235.0, 0.03651522034574629
236.0, 0.03590326512947212
237.0, 0.034679390498236436
238.0, 0.029108965823320596
239.0, 0.026729208924949305
240.0, 0.024992330751532687
241.0, 0.024582114251155533
242.0, 0.025569146219435276
243.0, 0.021299398850768213
244.0, 0.023061171373713874
245.0, 0.025787660854656155
246.0, 0.026134596891275275
247.0, 0.024399124336984438
248.0, 0.024222708594024298
249.0, 0.023513405606207582
250.0, 0.021899014927473644
251.0, 0.018275496595111268
252.0, 0.015870793613020084
253.0, 0.01674045136013653
254.0, 0.01603665983166564
255.0, 0.01314640822508078
256.0, 0.012722330140973117
257.0, 0.012406344938756236
258.0, 0.012225055899824975
259.0, 0.013571161150842172
260.0, 0.009991183398087505
261.0, 0.010964604894130462
262.0, 0.010099680188280679
263.0, 0.009237706670951024
264.0, 0.009147004643845913
265.0, 0.005364767636372075
266.0, 0.0028662411205325217
267.0, 0.003236986660925857
268.0, 0.004923606796687405
269.0, 0.004820984685938035
270.0, 0.001190073536493279
271.0, 0.001181092799031274
272.0, 0.00418748623432244
273.0, 0.007662892018091229
274.0, 0.008675351705951037
275.0, 0.00721363885635632
276.0, 0.006459185163056924
277.0, 0.0067097916427468875
278.0, 0.009499869376331141
279.0, 0.010897246042585167
280.0, 0.010774531435083005
281.0, 0.009782112022958393
282.0, 0.007460097647665561
283.0, 0.009985278778963423
284.0, 0.012053795395058044
285.0, 0.012338610502704442
286.0, 0.0121507049067332
287.0, 0.013834258985901824
288.0, 0.016968841577892663
289.0, 0.023186615001073364
290.0, 0.023045397795667166
291.0, 0.02407435471027101
292.0, 0.028135678874055083
293.0, 0.02822204730206874
294.0, 0.02438007283674453
295.0, 0.02746783237117701
296.0, 0.031640053986673224
297.0, 0.035056327772449575
298.0, 0.03941198573690976
299.0, 0.05085287499643171
300.0, 0.05090358925278483
301.0, 0.05657596446931815
302.0, 0.06067846285231293
303.0, 0.0650165115180622
304.0, 0.07336158834281666
305.0, 0.07749678742604146
306.0, 0.07995786677445091
307.0, 0.08127626919512185
308.0, 0.08828925643615569
309.0, 0.09866750897248842
310.0, 0.10459032864841086
311.0, 0.12156300445853639
312.0, 0.12854415023034937
313.0, 0.14111867930616978
314.0, 0.1561114103115692
315.0, 0.17058143472581327
316.0, 0.18674870829220153
317.0, 0.1987377580134038
318.0, 0.21201197342013164
319.0, 0.2237591298931564
320.0, 0.23092420981561987
321.0, 0.23415815910828428
322.0, 0.24136453770273714
323.0, 0.2432760142237117
324.0, 0.24181873853276115
325.0, 0.23746399661842393
326.0, 0.22992942448848724
327.0, 0.2185392441418396
328.0, 0.2023926978352944
329.0, 0.18786494867646966
330.0, 0.17020775122753634
331.0, 0.15669037422149143
332.0, 0.14502426147116734
333.0, 0.12931952498549898
334.0, 0.12230515277519594
335.0, 0.10902305969486793
336.0, 0.09973531972786655
337.0, 0.09167886484749678
338.0, 0.08295542471751788
339.0, 0.07449042349288863
340.0, 0.06988328692141817
341.0, 0.0592228190852592
342.0, 0.05464092192562326
343.0, 0.052713313864454985
344.0, 0.050732492029253506
345.0, 0.050495579566653834
346.0, 0.05149226196817397
347.0, 0.051152235009899016
348.0, 0.047680264469225284
349.0, 0.0427955514196718
350.0, 0.03998751241325458
351.0, 0.04323030609857972
352.0, 0.0485740947126521
353.0, 0.054996454786238755
354.0, 0.05004960106650146
355.0, 0.042230063405542584
356.0, 0.039728536910179406
357.0, 0.036927451544883146
358.0, 0.0383066666082491
359.0, 0.040634333756453846
360.0, 0.037384677195435236
361.0, 0.032977410820409336
362.0, 0.03300668096429414
363.0, 0.035730414481993183
364.0, 0.035198805763793514
365.0, 0.03393378202301688
366.0, 0.03261610670435675
367.0, 0.03178931189607126
368.0, 0.03150522890627005
369.0, 0.030892781976347483
370.0, 0.0354822424090948
371.0, 0.03347887452200671
372.0, 0.033987391564182734
373.0, 0.03729775910932239
374.0, 0.03834970862697363
375.0, 0.03117469498254023
376.0, 0.02746817507776786
377.0, 0.031247087861069982
378.0, 0.031021242932391366
379.0, 0.027406231402369034
380.0, 0.026573235354285536
381.0, 0.03065336322828817
382.0, 0.0332765788651179
383.0, 0.03499460309904703
384.0, 0.0370268219624605
385.0, 0.03881606838307052
386.0, 0.03944457935866278
387.0, 0.03970186652043706
388.0, 0.04048754750780044
389.0, 0.04047141379896071
390.0, 0.038095626776268376
391.0, 0.036906172519056056
392.0, 0.03927705725544588
393.0, 0.03773063232771961
394.0, 0.03694645598156715
395.0, 0.03113930879748918
396.0, 0.027176302639115538
397.0, 0.02472396160050676
398.0, 0.02204081904708827
399.0, 0.023417245669284426
400.0, 0.018938061883280923
401.0, 0.0199880195061051
402.0, 0.022030376882972456
403.0, 0.02105155135197256
404.0, 0.017111546894280193
405.0, 0.01749979326223792
406.0, 0.025074835715156018
407.0, 0.026147889477947016
408.0, 0.025429640715425184
409.0, 0.025426420739688312
410.0, 0.02557277617961013
411.0, 0.02216759360590937
412.0, 0.028503033529431204
413.0, 0.02736721818412703
414.0, 0.02617402385297122
415.0, 0.02441436082797908
416.0, 0.021960174467691773
417.0, 0.02253839372064288
418.0, 0.015145949873883813
419.0, 0.013971960097378935
420.0, 0.014306688748862855
421.0, 0.013768588265408215
422.0, 0.01242252899269973
423.0, 0.011681653899953296
424.0, 0.002958454003027248
425.0, 0.0023856907289783297
426.0, 0.0031620818899126923
427.0, 0.0031405995361493176
428.0, 0.0037304569102841094
429.0, 0.0073120098745313375
430.0, 0.005701489707921064
431.0, 0.002562268968584107
432.0, 0.003382972740237818
433.0, 0.004475633372585569
434.0, 0.0036234001657907975
435.0, 0.0014329044152764242
436.0, 0.000373070670367652
437.0, 7.685067985199905e-05
438.0, 0.002453138953490733
439.0, 0.003996090350661765
440.0, 0.0038146538178958815
441.0, 0.0032405123959664294
442.0, 0.004218911338029967
443.0, 0.0072463498617411845
444.0, 0.003359586011244403
445.0, 0.0017867932845999472
446.0, 0.0018307406229572023
447.0, 0.0012373876664696255
448.0, 0.003108116396168666
449.0, 0.0012411489945705542
450.0, 0.0002824849009889936
451.0, 0.0008095007969508431
452.0, 0.00188166649994844
453.0, 0.002271517888449652
454.0, 0.0013690680861235258
455.0, 0.0010336481604702296
456.0, 0.0012064825252328176
457.0, 0.001327671442999975
458.0, 0.0018603247700236494
459.0, 0.003526119629348897
460.0, 0.00641447499277861
461.0, 0.00792309608478502
462.0, 0.010010712841287656
463.0, 0.011624740560460473
464.0, 0.012206364969287483
465.0, 0.012211628572746444
466.0, 0.01231693059866311
467.0, 0.012333853665619694
468.0, 0.011559835775651846
469.0, 0.010064669953651522
470.0, 0.01000435169763796
471.0, 0.011114222371655626
472.0, 0.01074370435704456
473.0, 0.005785464488868063
474.0, 0.007606131236667175
475.0, 0.004723069459836639
476.0, 0.003725866997307249
477.0, 0.0028747057957495977
478.0, 0.003382321474359546
479.0, 0.0071622787074218704
480.0, 0.0022283440377454224
481.0, 0.004596524087713182
482.0, 0.003109395756865297
483.0, 0.0019089299113833607
484.0, 0.0025478799575988226
485.0, 0.003224954637192072
486.0, 0.00011821509764594739
487.0, 0.002545941625859659
488.0, 0.0053978531495510055
489.0, 0.006479613546557561
490.0, 0.00646770161712264
491.0, 0.0053834035746975865
492.0, 0.0025421106949719396
493.0, 0.004871073006558459
494.0, 0.005437992109122301
495.0, 0.009424891878542065
496.0, 0.014180271054814893
497.0, 0.01574835218326111
498.0, 0.01595453437015782
499.0, 0.0313890872428336
500.0, 0.025753531498609136
501.0, 0.02981061809593778
502.0, 0.033850476067972354
503.0, 0.03428916683487418
504.0, 0.03432296234104994
505.0, 0.039880167312525194
506.0, 0.033383477454273204
507.0, 0.03727975025391399
508.0, 0.030710982367805506
509.0, 0.03089554918624905
510.0, 0.03845856677179399
511.0, 0.03997079174281963
512.0, 0.03189819423444342
513.0, 0.037918644982229896
514.0, 0.034432174432558166
515.0, 0.03254734680454712
516.0, 0.03221746986224862
517.0, 0.033159324720961246
518.0, 0.038585516451012616
519.0, 0.032405419988610955
520.0, 0.03912378527032784
521.0, 0.03737993014085588
522.0, 0.03356815598463231
523.0, 0.03155962486240043
524.0, 0.030154039186219065
525.0, 0.027491174421886196
526.0, 0.024449134476766183
527.0, 0.023975154981323334
528.0, 0.02181469338928796
529.0, 0.019664970912327055
530.0, 0.018512165946338314
531.0, 0.017309121595466416
532.0, 0.022127816581791974
533.0, 0.021468299162353634
534.0, 0.020677387306289593
535.0, 0.019466710395873856
536.0, 0.020538719275485718
537.0, 0.024108808747371972
538.0, 0.022642537585782427
539.0, 0.021854238997928287
540.0, 0.02430526391955113
541.0, 0.02388526473218387
542.0, 0.024846946108209592
543.0, 0.02852936630035273
544.0, 0.03166452975647806
545.0, 0.03217188441434639
546.0, 0.035000738541070706
547.0, 0.0355147415382874
548.0, 0.03531757978855026
549.0, 0.03883610024910257
550.0, 0.04586698593130005
551.0, 0.049838214706019
552.0, 0.051614044995844856
553.0, 0.048586484650789366
554.0, 0.04732916351298751
555.0, 0.05016952318916055
556.0, 0.04938049098967242
557.0, 0.04169052071229244
558.0, 0.04178068811412777
559.0, 0.039815754311871634
560.0, 0.03330311697525918
561.0, 0.027800820269654587
562.0, 0.026629333256925767
563.0, 0.025330171381208414
564.0, 0.018271737323706117
565.0, 0.013376407448974002
566.0, 0.01476944954198875
567.0, 0.013474238101745877
568.0, 0.012384470149347019
569.0, 0.014376563245989474
570.0, 0.015454092648499871
571.0, 0.008681422686759917
572.0, 0.005204132719743693
573.0, 0.014278897352126702
574.0, 0.00563819959521848
575.0, 0.0027432040509629183
576.0, 0.006961648514517666
577.0, 0.009452886424659749
578.0, 0.006127555102199211
579.0, 0.010793009716199453
580.0, 0.004442506922776977
581.0, 0.007244837988861313
582.0, 0.006996047072748239
583.0, 0.004709488459332001
584.0, 0.004449588417243816
585.0, 0.0012641297950886218
586.0, 0.006162415979463473
587.0, 0.0021487182574270155
588.0, 0.004118558922913993
589.0, 0.0037877513435046473
590.0, 0.0017490684624658181
591.0, 0.003608658609921501
592.0, 0.007778355169641553
593.0, 0.005168967550422812
594.0, 0.003414899354005365
595.0, 0.0013544968869322667
596.0, 0.0008939346188263662
597.0, 0.0033207881704033953
598.0, 0.007005142575245446
599.0, 0.006418754583022062
600.0, 0.0035163938424822468
601.0, 0.002044805131920491
602.0, 0.006833146911809876
603.0, 0.005772778098099682
604.0, 0.0021374014526974066
605.0, 0.005674221639214731
606.0, 0.0035117483722341704
607.0, 0.0024320865917346842
608.0, 0.00391107886755367
609.0, 0.0022530025135468756
610.0, 0.003620977728421515
611.0, 0.007785098528536135
612.0, 0.009332115593495324
613.0, 0.010344298445565767
614.0, 0.006707715170927206
615.0, 0.007991947228909318
616.0, 0.00642524067650364
617.0, 0.0065877313395826635
618.0, 0.009910911028637103
619.0, 0.011382220611543595
620.0, 0.004915018433289956
621.0, 0.015319862313177373
622.0, 0.016401209308408434
623.0, 0.013009929312217321
624.0, 0.015406048201216238
625.0, 0.02041469098330546
626.0, 0.019950783435503255
627.0, 0.023394538035184972
628.0, 0.014781270698824352
629.0, 0.018434314313560927
630.0, 0.023621860681626253
631.0, 0.02555720517887707
632.0, 0.02683345639280605
633.0, 0.03116578525761167
634.0, 0.03442492625288541
635.0, 0.03731361503484605
636.0, 0.03882040059014795
637.0, 0.03985914077586383
638.0, 0.04365939973558521
639.0, 0.04936100676263069
640.0, 0.05509817664988595
641.0, 0.0628608967902474
642.0, 0.06888691322099488
643.0, 0.0734943882308071
644.0, 0.08350358960801747
645.0, 0.09588412058635122
646.0, 0.1078920572587394
647.0, 0.12136878828564973
648.0, 0.14185995328853385
649.0, 0.1615944686916895
650.0, 0.18505279441851782
651.0, 0.2094409240334397
652.0, 0.23467629799082992
653.0, 0.2618735974477846
654.0, 0.2921197894513555
655.0, 0.3250359908257148
656.0, 0.3567052370380013
657.0, 0.39152121718506644
658.0, 0.42269926204790015
659.0, 0.45386969242706227
660.0, 0.4925803429927721
661.0, 0.5313507357931335
662.0, 0.5555099873959247
663.0, 0.5849886365051687
664.0, 0.603876758815429
665.0, 0.62776925917292
666.0, 0.6404155646574465
667.0, 0.6373820579291485
668.0, 0.6161299151376474
669.0, 0.5800578352997942
670.0, 0.5467918712740242
671.0, 0.4945357111478086
672.0, 0.44581155228499286
673.0, 0.3958204410765784
674.0, 0.34881700082933603
675.0, 0.305639625346223
676.0, 0.26668468729486505
677.0, 0.23484240223488934
678.0, 0.19859285472777238
679.0, 0.16604694116652227
680.0, 0.15140310491038064
681.0, 0.13664610658153178
682.0, 0.1207235182298347
683.0, 0.10699741790184843
684.0, 0.0943734187411124
685.0, 0.08570332450122044
686.0, 0.07652577979712179
687.0, 0.07236187152695517
688.0, 0.06399673050402833
689.0, 0.059224143688542695
690.0, 0.05599687409928346
691.0, 0.048199468444286055
692.0, 0.04597209616013558
693.0, 0.04242412450799798
694.0, 0.03506958754031542
695.0, 0.03793279398469025
696.0, 0.03941047117374192
697.0, 0.034518164569015686
698.0, 0.028668103665728455
699.0, 0.030173622107451652
700.0, 0.03223956119181598
701.0, 0.03124514018004121
702.0, 0.030498565470111493
703.0, 0.028131019882778142
704.0, 0.02631844353275984
705.0, 0.025425589604919276
706.0, 0.02379837031782606
707.0, 0.02194865703407407
708.0, 0.02158327613089163
709.0, 0.020131071726419765
710.0, 0.018951046777340018
711.0, 0.01956866588202859
712.0, 0.019418839126811183
713.0, 0.017013105233102673
714.0, 0.015250174317231073
715.0, 0.015740252387252386
716.0, 0.017289334965426534
717.0, 0.013894964503291772
718.0, 0.012558385687766193
719.0, 0.012064901303239473
720.0, 0.011093793559647527
721.0, 0.010585345694496472
722.0, 0.011396657816478712
723.0, 0.011245462865603595
724.0, 0.010137288665187693
725.0, 0.01504059793677162
726.0, 0.012921215417194301
727.0, 0.008630923568430747
728.0, 0.009013907918404862
729.0, 0.012231415722494062
730.0, 0.01706830683402713
731.0, 0.009296103867808303
732.0, 0.008442164820406108
733.0, 0.008192931142641777
734.0, 0.006530920120383492
735.0, 0.006213560654685578
736.0, 0.008550686310562817
737.0, 0.009403795894839001
738.0, 0.008387803648629105
739.0, 0.004818363070533481
740.0, 0.00605827872409489
741.0, 0.00722994655541294
742.0, 0.008230406586799454
743.0, 0.008521353360797849
744.0, 0.007645033695139328
745.0, 0.007970276844730173
746.0, 0.004105179601396024
747.0, 0.005808085290262063
748.0, 0.0023505821608360285
749.0, 0.00306963779347185
750.0, 0.003893195662635239
751.0, 0.004315664160510761
752.0, 0.007851273584425956
753.0, 0.0039007480615883385
754.0, 0.004980065689541427
755.0, 0.0018703525253000123
756.0, 0.00468113634777015
757.0, 0.00698966731034676
758.0, 0.00529770449047216
759.0, 0.0024723593626571083
760.0, 0.002743706606485151
761.0, 0.0015275913288816962
762.0, 0.0029240970126562433
763.0, 0.002963275192628411
764.0, 0.005283959669919137
765.0, 0.0035372839594480852
766.0, 0.0009871388603138276
767.0, 0.0011265340963027154
768.0, 0.001037657114846252
769.0, 0.0051858806646938
770.0, 0.0045805130980924305
771.0, 0.006592446854320205
772.0, 0.0038422755882064038
773.0, 0.0052832069458400846
774.0, 0.006251343598130486
775.0, 0.002543240178713047
776.0, 0.002240450509785696
777.0, 0.0006155773674571137
778.0, 0.0027769125782610357
779.0, 0.001601129945365899
780.0, 0.004792994329439693
781.0, 0.005709885603231567
782.0, 0.003283262582651812
783.0, 0.0019880903088441374
784.0, 0.003639460213932438
785.0, 0.001004741526400253
786.0, 0.001122150847300276
787.0, 0.0028449446755850105
788.0, 0.004094216372400826
789.0, 0.002998662866070394
790.0, 0.0025997739113457308
791.0, 0.0054498688063861845
792.0, 0.007805175731378923
793.0, 0.0015123438895093667
794.0, 0.0019607947412447883
795.0, 0.0012136163324812552
796.0, 0.00039143524738594635
797.0, 0.002433416201954577
798.0, 0.004520400936052426
799.0, 0.004246967593163762
800.0, 0.004203514304953127
801.0, 0.0061856037146458724
802.0, 0.0013881141545818141
803.0, 0.0008639298629694405
804.0, 0.0004501766792794194
805.0, 0.002341342002492856
806.0, 0.004195397871592561
807.0, 0.0033660269836548002
808.0, 0.0011291863844427178
809.0, 0.0012257308021755037
810.0, 0.004765905356022949
811.0, 0.001987378920603636
812.0, 0.0026357022147593585
813.0, 0.0024880668008988418
814.0, 0.0013987028246185995
815.0, 0.0011773738768926837
816.0, 0.0020393727921220184
817.0, 0.0023065218509567714
818.0, 0.004255411888126148
819.0, 0.0027903308346396132
820.0, 0.00413768783477392
821.0, 0.0026335896538949907
822.0, 0.0037609946628633113
823.0, 0.0055729158540882544
824.0, 0.003534704829188269
825.0, 0.0030560043829970436
826.0, 0.006113207380826123
827.0, 0.0021634900912848518
828.0, 0.0009116921921980352
829.0, 0.0020258108596272906
830.0, 0.0023513496736815146
831.0, 0.0026837946554943994
832.0, 0.0031116056844933994
833.0, 0.0012725652609119214
834.0, 0.0008215463535145197
835.0, 0.001874046293240891
836.0, 0.002162762254863333
837.0, 0.00121365663318537
838.0, 0.0011468036127376836
839.0, 0.0008083793549599108
840.0, 0.00043492521226850135
841.0, 0.0015279192649267173
842.0, 0.0027415730827320198
843.0, 0.005554921306910448
844.0, 0.004425163905248006
845.0, 0.0035960974242359224
846.0, 0.0015865825647531399
847.0, 0.0006394428961657389
848.0, 0.001278747824482045
849.0, 0.002383289044402609
850.0, 0.0031943100697817417
851.0, 0.0031469252509836515
852.0, 0.008841700397926876
853.0, 0.00841078720274824
854.0, 0.005750831868021311
855.0, 0.0026565966482578122
856.0, 0.0037623697362869483
857.0, 0.004878400021187346
858.0, 0.0027436025685604825
859.0, 0.009582262169619557
860.0, 0.004679264544154304
861.0, 0.008937002530856757
862.0, 0.007343473050792659
863.0, 0.003186522976810237
864.0, 0.0006966654376424518
865.0, 0.0023854752477401302
866.0, 0.005709224401810017
867.0, 0.006590823642152347
868.0, 0.00942025005296216
869.0, 0.007901386192680103
870.0, 0.002439329637931318
871.0, 0.005666287728271163
872.0, 0.003557961793841178
873.0, 0.005866953550119408
874.0, 0.009634241902814785
875.0, 0.007327144480122676
876.0, 0.008010435332501174
877.0, 0.0087866494105174
878.0, 0.009305609645491097
879.0, 0.010182236044520811
880.0, 0.009832067221917762
881.0, 0.006585801128372121
882.0, 0.005529328508806461
883.0, 0.0073286074416581155
884.0, 0.007377375806961785
885.0, 0.005739451409794625
886.0, 0.010019685015707075
887.0, 0.0011748626994927316
888.0, 0.006564254751382538
889.0, 0.011281423311771836
890.0, 0.00686206724263465
891.0, 0.0036463555707777883
892.0, 0.005537952875982221
893.0, 0.005683573994822426
894.0, 0.007148469558563045
895.0, 0.005787423837160388
896.0, 0.009095244259898
897.0, 0.010419215706494152
898.0, 0.00698448845274
899.0, 0.005245610794306867
900.0, 0.007396286663843347
901.0, 0.007921573385561664
902.0, 0.004829463923120865
903.0, 0.010053561256968602
904.0, 0.008509727989547558
905.0, 0.005996241750332704
906.0, 0.007119720425580804
907.0, 0.007566438631405717
908.0, 0.006312033370582353
909.0, 0.006714224900706307
910.0, 0.008320520388235279
911.0, 0.007518509719399332
912.0, 0.007912890561529372
913.0, 0.012622339835008487
914.0, 0.01749804319579063
915.0, 0.0127031773386358
916.0, 0.010651116141108453
917.0, 0.014838774064856423
918.0, 0.015980146456356044
919.0, 0.014477419101655018
920.0, 0.017214089705877178
921.0, 0.014817215574085961
922.0, 0.02001634661315333
923.0, 0.016048693638857855
924.0, 0.014617149776775973
925.0, 0.014079813786752137
926.0, 0.01172015191884591
927.0, 0.012792784390993692
928.0, 0.018448678730261583
929.0, 0.02296872547208729
930.0, 0.023808518446560775
931.0, 0.025652094909911185
932.0, 0.023250389909511664
933.0, 0.026021206751155185
934.0, 0.02758381490227225
935.0, 0.03057010743827466
936.0, 0.033850995606219646
937.0, 0.03676311572403638
938.0, 0.036827036671248044
939.0, 0.03145690003290669
940.0, 0.03459449395863189
941.0, 0.03034974699917799
942.0, 0.03212147811634608
943.0, 0.03286738861304726
944.0, 0.03319514421743552
945.0, 0.029873925847852888
946.0, 0.025883887991622712
947.0, 0.023417287831784792
948.0, 0.021506032257620177
949.0, 0.025768586342835215
950.0, 0.023481361338251395
951.0, 0.022784879674036796
952.0, 0.019094646847965684
953.0, 0.01889636157149393
954.0, 0.017137062841047296
955.0, 0.016791386372671368
956.0, 0.017612156231538115
957.0, 0.016861032677875094
958.0, 0.018382688823705418
959.0, 0.0166471167476282
960.0, 0.028269082237321427
961.0, 0.02404596237195921
962.0, 0.025953197716032154
963.0, 0.02508612241910249
964.0, 0.02390593045568826
965.0, 0.024262666313648377
966.0, 0.025982470107601942
967.0, 0.03066391996724517
968.0, 0.03730281734701381
969.0, 0.03341019958692324
970.0, 0.038507608786399944
971.0, 0.03521626716728815
972.0, 0.04289919937055162
973.0, 0.047655356279691675
974.0, 0.05137562002114572
975.0, 0.05360940986871442
976.0, 0.05422460501037727
977.0, 0.06309013900847596
978.0, 0.07046987767603534
979.0, 0.07499201027727832
980.0, 0.08393726599195107
981.0, 0.0910748840491222
982.0, 0.09972671371908372
983.0, 0.11423285196909158
984.0, 0.12970041415965572
985.0, 0.14574341021369092
986.0, 0.16638325219283126
987.0, 0.18913322677295683
988.0, 0.2213060317845297
989.0, 0.2619956935332698
990.0, 0.3003246977244388
991.0, 0.34624100197093666
992.0, 0.40799262230872974
993.0, 0.4851904276459981
994.0, 0.5629042540059958
995.0, 0.6377951230092863
996.0, 0.7180833629720662
997.0, 0.7955309448334793
998.0, 0.8664184835639753
999.0, 0.929714674304792
1000.0, 0.965575298477586
1001.0, 0.9880337826517734
1002.0, 0.9977765474794638
1003.0, 0.9835223138437208
1004.0, 0.9514548310515818
1005.0, 0.9060743819257453
1006.0, 0.8449871094655188
1007.0, 0.781969686459488
1008.0, 0.718665676301468
1009.0, 0.6388568367393381
1010.0, 0.5826946460458322
1011.0, 0.5233878174262915
1012.0, 0.4665396278392156
1013.0, 0.41793659512044723
1014.0, 0.3749742102722138
1015.0, 0.3343798832268563
1016.0, 0.2979184835312499
1017.0, 0.267704139480796
1018.0, 0.24077484815514713
1019.0, 0.2231349799464148
1020.0, 0.19062722670744542
1021.0, 0.18134046284222388
1022.0, 0.1609049715221285
1023.0, 0.14383571615241933
1024.0, 0.13108210012677635
1025.0, 0.11996501021538747
1026.0, 0.11204459642840907
1027.0, 0.10085942329831665
1028.0, 0.08972012010656591
1029.0, 0.08366341290963168
1030.0, 0.07456514199833092
1031.0, 0.06534874144713247
1032.0, 0.059147028833048274
1033.0, 0.06125236309950026
1034.0, 0.060356096377466334
1035.0, 0.054782539719642066
1036.0, 0.04992615804289112
1037.0, 0.04436917292684458
1038.0, 0.04164750939351075
1039.0, 0.039634958790435784
1040.0, 0.03844576136256791
1041.0, 0.03693496845218587
1042.0, 0.033481348857972576
1043.0, 0.03089549180177046
1044.0, 0.030333655349982537
1045.0, 0.02862068088025182
1046.0, 0.027173424912620422
1047.0, 0.0300208076890175
1048.0, 0.0321760449157704
1049.0, 0.02861183335565851
1050.0, 0.025907666754654033
1051.0, 0.02701589636765872
1052.0, 0.025939851608211818
1053.0, 0.023152482278365794
1054.0, 0.020020681365547206
1055.0, 0.02195390706205917
1056.0, 0.02307042959118553
1057.0, 0.02025482036371194
1058.0, 0.020590124352443836
1059.0, 0.017721771096194286
1060.0, 0.0196730576153052
1061.0, 0.016429191909699506
1062.0, 0.018071324056601234
1063.0, 0.020402622339225785
1064.0, 0.022034711162156603
1065.0, 0.015899176839968495
1066.0, 0.014461982422788249
1067.0, 0.01659945080591547
1068.0, 0.013268532343218715
1069.0, 0.013013976483777367
1070.0, 0.01281552121410546
1071.0, 0.013707618866212407
1072.0, 0.013089087908474305
1073.0, 0.01550339411993168
1074.0, 0.013066408859430698
1075.0, 0.014756468234015914
1076.0, 0.015579432395898573
1077.0, 0.014443136908789955
1078.0, 0.01305488175853465
1079.0, 0.01563616615953155
1080.0, 0.02419087897916405
1081.0, 0.018817374628808427
1082.0, 0.0206125082934611
1083.0, 0.02343680833140848
1084.0, 0.0189541586499154
1085.0, 0.017047862457706557
1086.0, 0.020096251711624564
1087.0, 0.01848259384788537
1088.0, 0.017049374929611845
1089.0, 0.01971101235661128
1090.0, 0.02032124609765819
1091.0, 0.016065234855166068
1092.0, 0.01183034482935063
1093.0, 0.016239997067691712
1094.0, 0.01629562744554725
1095.0, 0.009153791467883457
1096.0, 0.009642247338560273
1097.0, 0.010009487347166987
1098.0, 0.009025718717076005
1099.0, 0.011176872629194031
1100.0, 0.013019396010421852
1101.0, 0.011324171252905219
1102.0, 0.013011472906775484
1103.0, 0.016771116154935123
1104.0, 0.004797992589699702
1105.0, 0.012546336821790304
1106.0, 0.010360546413518246
1107.0, 0.009805451615382349
1108.0, 0.011131471922767214
1109.0, 0.005818967209740093
1110.0, 0.007782097032567313
1111.0, 0.010415977143435095
1112.0, 0.006917597897341132
1113.0, 0.008375938089639061
1114.0, 0.011359623413495801
1115.0, 0.014545482090439567
1116.0, 0.014967813704344643
1117.0, 0.016968319913453198
1118.0, 0.017496225425536225
1119.0, 0.018064954851869496
1120.0, 0.017847576422503997
1121.0, 0.016784147901888754
1122.0, 0.01630225927528706
1123.0, 0.01493378044261773
1124.0, 0.01489264277359698
1125.0, 0.018104763511018154
1126.0, 0.009466921830583506
1127.0, 0.005569303729946823
1128.0, 0.010517952224149555
1129.0, 0.013623993990952219
1130.0, 0.012974751548413214
1131.0, 0.008687587422205616
1132.0, 0.0032079405862233132
1133.0, 0.0040710420103821756
1134.0, 0.005225459491911486
1135.0, 0.004331620455661774
1136.0, 0.0058955929679939826
1137.0, 0.005457059236392311
1138.0, 0.004922070030013078
1139.0, 0.007144738583649918
1140.0, 0.0004223417047495093
1141.0, 0.004146155314800129
1142.0, 0.005379694218422315
1143.0, 0.0033256376670925255
1144.0, 0.005607959515620786
1145.0, 0.004276173901735555
1146.0, 0.0034106625876473965
1147.0, 0.004204771657585472
1148.0, 0.0017454916531369398
1149.0, 0.0026398491047943656
1150.0, 0.0015255945240029334
1151.0, 0.006516988032603464
1152.0, 0.010152605716880862
1153.0, 0.0021897144716187767
1154.0, 0.0059047156142481025
1155.0, 0.01052979941344739
1156.0, 0.007400823084551782
1157.0, 0.0028891802517194577
1158.0, 0.0027195320335703824
1159.0, 0.002727145991412619
1160.0, 0.0012718258378116
1161.0, 0.003601690162495992
1162.0, 0.0030590527631330156
1163.0, 0.0045923767936958465
1164.0, 0.002563211123540157
1165.0, 0.0027930523178150424
1166.0, 0.0016289490972999478
1167.0, 0.00694658266189262
1168.0, 0.009088315549169345
1169.0, 0.004693530158767912
1170.0, 0.0007064472429784895
1171.0, 0.0019023030579004775
1172.0, 0.004372560564515448
1173.0, 0.003521639322089623
1174.0, 0.0022645341219047046
1175.0, 0.0026788663493910515
1176.0, 0.005549545813170063
1177.0, 0.0043848124884229
1178.0, 0.0010196406620808995
1179.0, 0.00254792238224556
1180.0, 0.00243426183905453
1181.0, 0.0030950172248205023
1182.0, 0.005575351324838474
1183.0, 0.0050335531033174966
1184.0, 0.003639681411147489
1185.0, 0.004887701145530576
1186.0, 0.0055357164792802565
1187.0, 0.011062120620673334
1188.0, 0.00621185501894938
1189.0, 0.004507702904807873
1190.0, 0.0013179801391488232
1191.0, 0.0037141769740722842
1192.0, 0.007386567192197875
1193.0, 0.0077381186556086815
1194.0, 0.00596608416229375
1195.0, 0.003688326595089432
1196.0, 0.0026251337185973275
1197.0, 0.0024921751996990825
1198.0, 0.0028485056050652838
1199.0, 0.004261997634538873
1200.0, 0.0027961443831605558
1201.0, 0.004755089208983958
1202.0, 0.004042873260160797
1203.0, 0.005119311022598834
1204.0, 0.0051591189424852755
1205.0, 0.001371737978443678
1206.0, 0.0008508022873051134
1207.0, 0.006223691859143598
1208.0, 0.0072268625003882305
1209.0, 0.003951119050187554
1210.0, 0.0073489304816346775
1211.0, 0.010828355078823992
1212.0, 0.0022695065553410515
1213.0, 0.0069105911401647485
1214.0, 0.007016568667538383
1215.0, 0.0026541608849643553
1216.0, 0.00709526543910018
1217.0, 0.008575454494695607
1218.0, 0.011859530834839127
1219.0, 0.005523875614073661
1220.0, 0.004919800673129114
1221.0, 0.006506730223965326
1222.0, 0.003849684386116509
1223.0, 0.004863204523421828
1224.0, 0.007582295153065246
1225.0, 0.002851771267439894
1226.0, 0.0042039092274754235
1227.0, 0.002053966912946344
1228.0, 0.004563143860027906
1229.0, 0.0013638152969715248
1230.0, 0.003925133719565347
1231.0, 0.004590579792276505
1232.0, 0.0020916520409104723
1233.0, 0.004124353458039049
1234.0, 0.005153768574953777
1235.0, 0.006067340030440611
1236.0, 0.006085167515984497
1237.0, 0.005703107226735467
1238.0, 0.007530412234021839
1239.0, 0.008990465899464997
1240.0, 0.008104778591673627
1241.0, 0.008928481180887859
1242.0, 0.008574399392803527
1243.0, 0.008653401859601624
1244.0, 0.009867330231743845
1245.0, 0.00930498080522944
1246.0, 0.010141501770072907
1247.0, 0.010675504406304076
1248.0, 0.008139671215896434
1249.0, 0.0054047858225331645
1250.0, 0.003799134165059415
1251.0, 0.002737740816301822
1252.0, 0.0015556505239101364
1253.0, 0.0007496922277026843
1254.0, 0.002816456891656537
1255.0, 0.003018745903598152
1256.0, 0.0027760664377841607
1257.0, 0.0003797947532764303
1258.0, 0.0010390272756167962
1259.0, 0.0042965722571778955
1260.0, 0.00910835639830834
1261.0, 0.011392471578821594
1262.0, 0.009912474881778236
1263.0, 0.00681718423298777
1264.0, 0.0062579744858146085
1265.0, 0.007012906188198315
1266.0, 0.0070598040287209824
1267.0, 0.00693749379824466
1268.0, 0.004718860072241187
1269.0, 0.003093456996038515
1270.0, 0.005854635012517893
1271.0, 0.003901364972363912
1272.0, 0.009174863365542584
1273.0, 0.008930127342853403
1274.0, 0.004947434448014184
1275.0, 0.006126873209051096
1276.0, 0.006387046698698694
1277.0, 0.006849872312987339
1278.0, 0.008622886258791849
1279.0, 0.0079562683235361
1280.0, 0.006920794050073711
1281.0, 0.007590607564242885
1282.0, 0.005470049015051694
1283.0, 0.002018642733231412
1284.0, 0.0013639112244605107
1285.0, 0.008161891123051481
1286.0, 0.012153666109592783
1287.0, 0.009731816037199845
1288.0, 0.01256905336096659
1289.0, 0.0076865307681733
1290.0, 0.004886661117575276
1291.0, 0.0023332764934841455
1292.0, 0.002819550144113471
1293.0, 0.005037229645258442
1294.0, 0.003936984058672325
1295.0, 0.0037810534259285775
1296.0, 0.004964057354841256
1297.0, 0.0021934326123425676
1298.0, 0.0021275619480080068
1299.0, 0.0031597097867820966
1300.0, 0.0017523539640048413
1301.0, 0.0004961263909283396
1302.0, 0.00721844861896965
1303.0, 0.008854733714453389
1304.0, 0.005871575163175358
1305.0, 0.004469741657694446
1306.0, 0.001716156350310685
1307.0, 0.0038990323237386437
1308.0, 0.004576486175997594
1309.0, 0.006159824605268596
1310.0, 0.009758204209698928
1311.0, 0.007578373112260359
1312.0, 0.005495232608542758
1313.0, 0.010937864378769056
1314.0, 0.008990708205614574
1315.0, 0.014542636385377153
1316.0, 0.013627414892224271
1317.0, 0.011357573817368965
1318.0, 0.01432874571779767
1319.0, 0.007212927057088982
1320.0, 0.0041472081768791965
1321.0, 0.007782351371230324
1322.0, 0.008326379443766055
1323.0, 0.009133946259794915
1324.0, 0.0066111078899884
1325.0, 0.01335435623375255
1326.0, 0.01682537452259239
1327.0, 0.010444359341624895
1328.0, 0.007875480220518354
1329.0, 0.006539808743824733
1330.0, 0.0022050558464036486
1331.0, 0.006665595752445519
1332.0, 0.006698556071982043
1333.0, 0.015584646955439548
1334.0, 0.011031726517926943
1335.0, 0.010723930734347914
1336.0, 0.012290898981532988
1337.0, 0.010433561234607737
1338.0, 0.013211390412814288
1339.0, 0.014033845855592317
1340.0, 0.012211243568301229
1341.0, 0.012793747808254128
1342.0, 0.013882498705023921
1343.0, 0.011457840629731982
1344.0, 0.009202242157502075
1345.0, 0.013269223636696748
1346.0, 0.01685229794716412
1347.0, 0.010281156233100745
1348.0, 0.00831634973768239
1349.0, 0.0038973990723015243
1350.0, 0.01310786624393039
1351.0, 0.015340150076661821
1352.0, 0.009874082400729324
1353.0, 0.008549331907733744
1354.0, 0.00852221012066337
1355.0, 0.00738817288862221
1356.0, 0.00842934548377815
1357.0, 0.00984430437365173
1358.0, 0.009704890917441951
1359.0, 0.007079856972788116
1360.0, 0.006501946675403093
1361.0, 0.008597831713452573
1362.0, 0.00905637067981656
1363.0, 0.009229862593994503
1364.0, 0.01005538596893528
1365.0, 0.006782017409983464
1366.0, 0.008670681772146766
1367.0, 0.005325164867046003
1368.0, 0.013056770539531581
1369.0, 0.007129190348945807
1370.0, 0.013336150790191757
1371.0, 0.010240896144852999
1372.0, 0.009920008352616264
1373.0, 0.006288795191342352
1374.0, 0.005619289264942641
1375.0, 0.004482684125714468
1376.0, 0.005787969627627735
1377.0, 0.007718563885082154
1378.0, 0.007242336223170126
1379.0, 0.004374296078928906
1380.0, 0.005560301339180962
1381.0, 0.012066479104492529
1382.0, 0.0116515091488713
1383.0, 0.007081578874607334
1384.0, 0.007768692911452294
1385.0, 0.006059272416832809
1386.0, 0.005472740263140018
1387.0, 0.006700653248923722
1388.0, 0.010299094040611854
1389.0, 0.006065953292900631
1390.0, 0.0018312848446225651
1391.0, 0.011936554338763814
1392.0, 0.01078513551499109
1393.0, 0.006371699648154644
1394.0, 0.007845453703521318
1395.0, 0.007623156467777615
1396.0, 0.00918267515878689
1397.0, 0.011250679610904257
1398.0, 0.010262876584070655
1399.0, 0.011299838879291531
1400.0, 0.010971577032357058
1401.0, 0.005581416141953488
1402.0, 0.008764202410643898
1403.0, 0.007981159797682748
1404.0, 0.0032931476697748785
1405.0, 0.008610665013847456
1406.0, 0.007316050993950621
1407.0, 0.011580041872431616
1408.0, 0.005624221238435582
1409.0, 0.00989721277081959
1410.0, 0.01445093456352833
1411.0, 0.010180232251184732
1412.0, 0.008362653620203896
1413.0, 0.0067018777964999035
1414.0, 0.0042535486070835946
1415.0, 0.006180497575725528
1416.0, 0.006432787316243394
1417.0, 0.008325262826341913
1418.0, 0.012153897965613123
1419.0, 0.011696791540081302
1420.0, 0.01130934216139307
1421.0, 0.009879516475600621
1422.0, 0.008869581732832005
1423.0, 0.007778363255486922
1424.0, 0.006518645886298527
1425.0, 0.004749255294210312
1426.0, 0.004559179706013085
1427.0, 0.004507727138409449
1428.0, 0.004946675907676024
1429.0, 0.009679304928705666
1430.0, 0.01510118953079009
1431.0, 0.012873386701785602
1432.0, 0.010315247745161914
1433.0, 0.00326215907817256
1434.0, 0.002713266281238425
1435.0, 0.006852340378342699
1436.0, 0.009457672771472607
1437.0, 0.012517323380954492
1438.0, 0.013093122115397317
1439.0, 0.010203046483712763
1440.0, 0.007427745097644291
1441.0, 0.004514961058844964
1442.0, 0.004554826366549044
1443.0, 0.005696202160137774
1444.0, 0.008778513664742024
1445.0, 0.006721020362258106
1446.0, 0.00747251248651461
1447.0, 0.00679885063525413
1448.0, 0.013356896803247595
1449.0, 0.00749069279660733
1450.0, 0.0014946797760000971
1451.0, 0.014912706480499572
1452.0, 0.012125713356683821
1453.0, 0.006542725476300935
1454.0, 0.005678755177878293
1455.0, 0.0029540005742759775
1456.0, 0.00297765628665703
1457.0, 0.003255575856829472
1458.0, 0.010486437430660798
1459.0, 0.011405970197428034
1460.0, 0.00703864140434696
1461.0, 0.010898545010389416
1462.0, 0.010875063333061409
1463.0, 0.002840237923554084
1464.0, 0.0055341873433019835
1465.0, 0.013974434999856383
1466.0, 0.009727116796283956
1467.0, 0.00340630104412935
1468.0, 0.005122093551849128
1469.0, 0.005797225294218651
1470.0, 0.0025993610196660523
1471.0, 0.0027558720637687988
1472.0, 0.010728353201599688
1473.0, 0.010716557412830485
1474.0, 0.01513749545844901
1475.0, 0.01525066952708778
1476.0, 0.012205819924716503
1477.0, 0.011666411161459953
1478.0, 0.010194340152523126
1479.0, 0.008047472639094116
1480.0, 0.004445878713992306
1481.0, 0.001202050172480278
1482.0, 0.001743950886345841
1483.0, 0.0022786622863061132
1484.0, 0.007140007555690596
1485.0, 0.009577384368235619
1486.0, 0.005952103400316918
1487.0, 0.010174916486443414
1488.0, 0.008588752269027729
1489.0, 0.0036335311616540814
1490.0, 0.0014938007323780887
1491.0, 0.003967495440144959
1492.0, 0.005045581136219781
1493.0, 0.0059171823936090395
1494.0, 0.006905955895243388
1495.0, 0.007606005746965565
1496.0, 0.003298359649896274
1497.0, 0.007673246391287251
1498.0, 0.007875774701097848
1499.0, 0.005495867334307756
1500.0, 0.013644634892808101
1501.0, 0.01058189490148892
1502.0, 0.013607577485836206
1503.0, 0.009972779742064284
1504.0, 0.0068386041475155595
1505.0, 0.006332482705536728
1506.0, 0.007710121373535167
1507.0, 0.00923182738142218
1508.0, 0.008736748400141894
1509.0, 0.0076694109222414835
1510.0, 0.008344698990324511
1511.0, 0.005639952494390192
1512.0, 0.002849155775699028
1513.0, 0.005653460373194481
1514.0, 0.0028715593959242024
1515.0, 0.0037760233376724728
1516.0, 0.0028509404187091144
1517.0, 0.007950883184049358
1518.0, 0.012567959556597936
1519.0, 0.008408351057362068
1520.0, 0.007403720107007747
1521.0, 0.014651626507850044
1522.0, 0.005084964408586002
1523.0, 0.0066060128900225215
1524.0, 0.003136323532736791
1525.0, 0.004438928241685341
1526.0, 0.005483659311907681
1527.0, 0.005858832348792619
1528.0, 0.010939835379258054
1529.0, 0.004247098556367566
1530.0, 0.009505812315252687
1531.0, 0.007241445900733787
1532.0, 0.003827091275394592
1533.0, 0.005234755119055181
1534.0, 0.005917754375448209
1535.0, 0.00697883948563997
1536.0, 0.007461035459887526
1537.0, 0.00632105851555352
1538.0, 0.007790445509328851
1539.0, 0.009243976461408433
1540.0, 0.008356980991795406
1541.0, 0.006919748448045884
1542.0, 0.005429019862178674
1543.0, 0.00958476880298225
1544.0, 0.006775620081269075
1545.0, 0.00630213400479398
1546.0, 0.011480824515809684
1547.0, 0.006824239359125326
1548.0, 0.002018436046543375
1549.0, 0.004323150119384273
1550.0, 0.00089326286112313
1551.0, 0.0084962008675145
1552.0, 0.012523517652980353
1553.0, 0.0053700293724968495
1554.0, 0.008883327315375354
1555.0, 0.008424235476162698
1556.0, 0.009771445729601341
1557.0, 0.009962238488748318
1558.0, 0.009466145786977163
1559.0, 0.008129614505395975
1560.0, 0.007325754651526251
1561.0, 0.005072629058734836
1562.0, 0.0025889137114119367
1563.0, 0.0013044756291347328
1564.0, 0.0017713445480498332
1565.0, 0.0025105136037510693
1566.0, 0.0016022240501935123
1567.0, 0.003830615850567074
1568.0, 0.005335895504947026
1569.0, 0.002238237801572374
1570.0, 1.321505351110808e-05
1571, 0.0
1572, 0.0
1573, 0.0
1574, 0.0
1575, 0.0
1576, 0.0
1577, 0.0
1578, 0.0
1579, 0.0
1580, 0.0
1581, 0.0
1582, 0.0
1583, 0.0
1584, 0.0
1585, 0.0
1586, 0.0
1587, 0.0
1588, 0.0
1589, 0.0
1590, 0.0
1591, 0.0
1592, 0.0
1593, 0.0
1594, 0.0
1595, 0.0
1596, 0.0
1597, 0.0
1598, 0.0
1599, 0.0
