30, 0.0
31, 0.0
32, 0.0
33, 0.0
34, 0.0
35, 0.0
36, 0.0
37, 0.0
38, 0.0
39, 0.0
40, 0.0
41, 0.0
42, 0.0
43, 0.0
44, 0.0
45, 0.0
46, 0.0
47, 0.0
48, 0.0
49, 0.0
50, 0.0
51, 0.0
52, 0.0
53, 0.0
54, 0.0
55, 0.0
56, 0.0
57, 0.0
58, 0.0
59, 0.0
60, 0.0
61, 0.0
62, 0.0
63, 0.0
64, 0.0
65, 0.0
66, 0.0
67, 0.0
68, 0.0
69, 0.0
70, 0.0
71, 0.0
72, 0.0
73, 0.0
74, 0.0
75, 0.0
76, 0.0
77, 0.0
78, 0.0
79, 0.0
80, 0.0
81, 0.0
82, 0.0
83, 0.0
84, 0.0
85, 0.0
86, 0.0
87, 0.0
88, 0.0
89, 0.0
90, 0.0
91, 0.0
92, 0.0
93, 0.0
94, 0.0
95, 0.0
96, 0.0
97, 0.0
98, 0.0
99, 0.0
100, 0.0
101, 0.0
102, 0.0
103, 0.0
104, 0.0
105, 0.0
106, 0.0
107, 0.0
108, 0.0
109, 0.0
110, 0.0
111, 0.0
112, 0.0
113, 0.0
114, 0.0
115, 0.0
116, 0.0
117, 0.0
118, 0.0
119, 0.0
120, 0.0
121, 0.0
122, 0.0
123, 0.0
124, 0.0
125, 0.0
126, 0.0
127, 0.0
128, 0.0
129, 0.0
130, 0.0
131, 0.0
132, 0.0
133, 0.0
134, 0.0
135, 0.0
136, 0.0
137, 0.0
138, 0.0
139, 0.0
140, 0.0
141, 0.0
142, 0.0
143, 0.0
144, 0.0
145, 0.0
146, 0.0
147, 0.0
148, 0.0
149, 0.0
150, 0.0
151, 0.0
152, 0.0
153, 0.0
154, 0.0
155, 0.0
156, 0.0
157, 0.0
158, 0.0
159, 0.0
160.0, 0.004885449356773601
161.0, 0.015816204768721913
162.0, 0.008697349423675019
163.0, 0.0030598135866898805
164.0, 0.015212883758484964
165.0, 0.024072382802712625
166.0, 0.027501266655863655
167.0, 0.03381322006046217
168.0, 0.036801253513696064
169.0, 0.023288958163754786
170.0, 0.029457960221642758
171.0, 0.03552383658647021
172.0, 0.03096619181971367
173.0, 0.02244331922071911
174.0, 0.03049871706501093
175.0, 0.021859964130077545
176.0, 0.0207903144270018
177.0, 0.03626802919518472
178.0, 0.052187670697604535
179.0, 0.02776508812721887
180.0, 0.022720242097940425
181.0, 0.03270984608389046
182.0, 0.03200011410059643
183.0, 0.03428787793588718
184.0, 0.0188912779155392
185.0, 0.011227376187308583
186.0, 0.014460571642859814
187.0, 0.005378761942348129
188.0, 0.016550240816601735
189.0, 0.00732367707720896
190.0, 0.010409216363878215
191.0, 0.03801348408247622
192.0, 0.007595414978819782
193.0, 0.01428947218349819
194.0, 0.006264452822776823
195.0, 0.019712368904743354
196.0, 0.011106376060930135
197.0, 0.0031485807128934615
198.0, 0.0046816238047512355
199.0, 0.01099469787359561
200.0, 0.01407847038444247
201.0, 0.005656961537238461
202.0, 0.006522767842408816
203.0, 0.010959171462643313
204.0, 0.015672296518856516
205.0, 0.019897414926028683
206.0, 0.0037071580464954905
207.0, 0.0016519251085220753
208.0, 0.0023779649855899996
209.0, 0.005968432136127365
210.0, 0.0011979913827712806
211.0, 0.0016677732629079138
212.0, 0.004227415254259621
213.0, 0.0028003617595257937
214.0, 0.0024643654182921987
215.0, 0.014643303196580238
216.0, 0.0077769622983682035
217.0, 0.007843257850217682
218.0, 0.01746277717086473
219.0, 0.018709131816186567
220.0, 0.021320013209168865
221.0, 0.010926513851788992
222.0, 0.0070605044070194065
223.0, 0.023669383170671465
224.0, 0.02813088775247815
225.0, 0.032394387964718344
226.0, 0.03243333168799731
227.0, 0.0234942606074699
228.0, 0.012557942017887564
229.0, 0.042006633837771076
230.0, 0.04583151826859647
231.0, 0.04181099451576342
232.0, 0.05107604152855814
233.0, 0.05845325254248103
234.0, 0.044471739819489764
235.0, 0.03960955116304244
236.0, 0.04856386137758522
237.0, 0.06105571768066754
238.0, 0.07491233714079563
239.0, 0.08084955428087082
240.0, 0.09006070979014494
241.0, 0.09994118670363478
242.0, 0.09842562022974892
243.0, 0.10488837401836155
244.0, 0.10907483026439971
245.0, 0.11578223547605791
246.0, 0.12691707447394046
247.0, 0.12859085175740959
248.0, 0.1261260255664017
249.0, 0.12995198887496992
250.0, 0.1391192138314648
251.0, 0.1532465993592402
252.0, 0.1809208765521367
253.0, 0.18924785456014273
254.0, 0.19331791924080172
255.0, 0.20375119123238236
256.0, 0.21679362282347697
257.0, 0.2318521029977816
258.0, 0.23554512420642054
259.0, 0.23954041301470647
260.0, 0.2487455522136449
261.0, 0.2573217423200539
262.0, 0.25950809532876257
263.0, 0.2610433821412226
264.0, 0.25944646657413506
265.0, 0.25319951948714475
266.0, 0.24592712727473992
267.0, 0.23468648589664146
268.0, 0.2581529891025571
269.0, 0.5056386055011558
270.0, 0.993089086907553
271.0, 0.8248273109027688
272.0, 0.6323640474060215
273.0, 0.4377460520687905
274.0, 0.2725619217465571
275.0, 0.209762789738391
276.0, 0.20316400662050066
277.0, 0.2250403746585685
278.0, 0.23852307516478394
279.0, 0.2556759043063227
280.0, 0.31008548638703615
281.0, 0.3516816824264644
282.0, 0.4049451977414226
283.0, 0.4707890406869736
284.0, 0.5578946589309751
285.0, 0.6669109915622358
286.0, 0.654756026754427
287.0, 0.6380166558052335
288.0, 0.6238007604268994
289.0, 0.5845250334306696
290.0, 0.5174938565212865
291.0, 0.43057999685757875
292.0, 0.35817114673617545
293.0, 0.2946825333319696
294.0, 0.23376199777801818
295.0, 0.1948677018744962
296.0, 0.1488640200937181
297.0, 0.11569648957668956
298.0, 0.09726816456138487
299.0, 0.08683441455255028
300.0, 0.08420584850912562
301.0, 0.08740481375668468
302.0, 0.08191175571641794
303.0, 0.07054674535496093
304.0, 0.0632230818523531
305.0, 0.06400722152793034
306.0, 0.08514068382172824
307.0, 0.09581826868149033
308.0, 0.10891139330744298
309.0, 0.14412534962919027
310.0, 0.15303574710728152
311.0, 0.15810655183323985
312.0, 0.17396383134793658
313.0, 0.19477898417720685
314.0, 0.20354283760081943
315.0, 0.1977139981537578
316.0, 0.18413234010081383
317.0, 0.1692297382052299
318.0, 0.15418951223641633
319.0, 0.13000255618838844
320.0, 0.08756141316784796
321.0, 0.06931816873583213
322.0, 0.05324393769170567
323.0, 0.03952529474124167
324.0, 0.04278568361895747
325.0, 0.0358626780230477
326.0, 0.03714766887158699
327.0, 0.04196039503308621
328.0, 0.03988186867682787
329.0, 0.028176134336529258
330.0, 0.025642048176533774
331.0, 0.03372015478868973
332.0, 0.03365096427224102
333.0, 0.030487871685493554
334.0, 0.035976209607010826
335.0, 0.020035660213547322
336.0, 0.020921134406805313
337.0, 0.02810525971681251
338.0, 0.029653738019411766
339.0, 0.02528572612006246
340.0, 0.01624129093837345
341.0, 0.027432889052019148
342.0, 0.04388054685555411
343.0, 0.056024336058807606
344.0, 0.06666034349759267
345.0, 0.08385000110611196
346.0, 0.08220832396694192
347.0, 0.0814324569376888
348.0, 0.08404834520096041
349.0, 0.08014180810421372
350.0, 0.06287190877343801
351.0, 0.06147349387399206
352.0, 0.053045654723591566
353.0, 0.031866234888297054
354.0, 0.01919923440591991
355.0, 0.048515453040285206
356.0, 0.027665612038869372
357.0, 0.017054695691629117
358.0, 0.022338677470446367
359.0, 0.02155749127148807
360.0, 0.011558847559602702
361.0, 0.008853954618551003
362.0, 0.0019485893804114768
363.0, 0.005668677567846965
364.0, 0.006307329959220253
365.0, 0.005653696967312406
366.0, 0.007530459236524281
367.0, 0.014372760276247088
368.0, 0.012983270123898862
369.0, 0.0020429049474029754
370.0, 0.007744697047368671
371.0, 0.01736839691765957
372.0, 0.012397858276951237
373.0, 0.00478727215220723
374.0, 0.0009740352379446105
375.0, 0.0036446155041215834
376.0, 0.0016981606836699286
377.0, 0.00767111889002782
378.0, 0.017141388144557068
379.0, 0.01574417840535516
380.0, 0.007388494605367564
381.0, 0.006748037822892563
382.0, 0.007359941641039848
383.0, 0.01058417097725833
384.0, 0.010253579974890582
385.0, 0.005930173408990199
386.0, 0.008036552786328975
387.0, 0.00410272087934275
388.0, 0.003721336824527855
389.0, 0.007326341801261173
390.0, 0.0011454869950621115
391.0, 0.01049884228749768
392.0, 0.012639534081620614
393.0, 0.0015666092680972957
394.0, 0.0013234558128928688
395.0, 0.012345363669043942
396.0, 0.014486353042342212
397.0, 0.014655757053083052
398.0, 0.005002246749324764
399.0, 0.005381970223236306
400.0, 0.016328411454073995
401.0, 0.019332448845705605
402.0, 0.00957622118441394
403.0, 0.003992695742760805
404.0, 0.0024461320437501517
405.0, 0.010982436429575262
406.0, 0.017500805079301678
407.0, 0.003031252954973456
408.0, 0.008195928107649592
409.0, 0.018029493579809156
410.0, 0.02188790362249624
411.0, 0.019153205789416265
412.0, 0.014254210427037083
413.0, 0.013907765953041135
414.0, 0.01867128740363306
415.0, 0.024812642410834786
416.0, 0.023604177715353003
417.0, 0.017865437097230864
418.0, 0.02499783214524142
419.0, 0.029391912921880585
420.0, 0.01598893611838622
421.0, 0.012490829303394341
422.0, 0.02435529207425726
423.0, 0.02933140634143035
424.0, 0.015203729947697498
425.0, 0.02276885752783379
426.0, 0.022161773452786488
427.0, 0.01676009895989378
428.0, 0.02284518155449305
429.0, 0.020196441790592507
430.0, 0.03139689479667894
431.0, 0.030605417538426223
432.0, 0.028837543973299365
433.0, 0.02741635099250982
434.0, 0.0105531518624452
435.0, 0.014303563795453493
436.0, 0.013919877704053462
437.0, 0.022876689882349265
438.0, 0.03014988052740561
439.0, 0.02120138245765419
440.0, 0.013673404207485883
441.0, 0.010747975725631822
442.0, 0.002142133697755958
443.0, 0.0008610054058254349
444.0, 0.0049592451057099375
445.0, 0.0076089739829471375
446.0, 0.003722669235680126
447.0, 0.015539338431919424
448.0, 0.01982759308193777
449.0, 0.01279607899629378
450.0, 0.006836986248678905
451.0, 0.006551068160977773
452.0, 0.02170026838161973
453.0, 0.011514946457839383
454.0, 0.004132841056039442
455.0, 0.009787551043880719
456.0, 0.02463770566408632
457.0, 0.01271674209428111
458.0, 0.00939942066500042
459.0, 0.006385374165519301
460.0, 0.02181287971497746
461.0, 0.02307595299918636
462.0, 0.03016321872022163
463.0, 0.02139061246873681
464.0, 0.01627538436712026
465.0, 0.009250110656119359
466.0, 0.017680312109574926
467.0, 0.04200448555344071
468.0, 0.03819216662504194
469.0, 0.027034480048220916
470.0, 0.02905778312572242
471.0, 0.025049790106104787
472.0, 0.0142543836401573
473.0, 0.027688790756536227
474.0, 0.034871581711463095
475.0, 0.03890234013770524
476.0, 0.02615580195126568
477.0, 0.013417622703962098
478.0, 0.016544873867600507
479.0, 0.020396846933939422
480.0, 0.02745085184700762
481.0, 0.009082927432434657
482.0, 0.0020400795120475816
483.0, 0.009252930658163077
484.0, 0.010217835217630452
485.0, 0.014303377053942058
486.0, 0.027675851133275677
487.0, 0.021035390292248705
488.0, 0.005446448721821493
489.0, 0.0010516277053410207
490.0, 0.008304165133826208
491.0, 0.01740872519111112
492.0, 0.024876945928134137
493.0, 0.020228501058379738
494.0, 0.019124449853190298
495.0, 0.023659524026307284
496.0, 0.01552947737621915
497.0, 0.009892297846937086
498.0, 0.014633624738147454
499.0, 0.019288137827853095
500.0, 0.018178764348353138
501.0, 0.010497003490204777
502.0, 0.0007501943950536236
503.0, 0.01226024300142185
504.0, 0.009947368963561501
505.0, 0.013356293728571042
506.0, 0.014423133789300796
507.0, 0.004231248405103615
508.0, 0.006833253014474934
509.0, 0.013875646179210416
510.0, 0.005963183856886366
511.0, 0.017760360866820743
512.0, 0.02598191073028467
513.0, 0.005198321948673336
514.0, 0.01210367980843262
515.0, 0.0035663590271935554
516.0, 0.002086454991031032
517.0, 0.004989309500667741
518.0, 0.01628538728279974
519.0, 0.028390095079274317
520.0, 0.004188082716950497
521.0, 0.005523886528901698
522.0, 0.011681092142825606
523.0, 0.011780210522803584
524.0, 0.009320754801120611
525.0, 0.012581436507571368
526.0, 0.025798043683943048
527.0, 0.015583689942556465
528.0, 0.012545437213035953
529.0, 0.0201186210553266
530.0, 0.02080838136294696
531.0, 0.005209547236091954
532.0, 0.020910762925703555
533.0, 0.0044616818725301466
534.0, 0.003553043972528811
535.0, 0.0077965799927053655
536.0, 0.009713993628005223
537.0, 0.011166229374214192
538.0, 0.015650548154633803
539.0, 0.013297793573127627
540.0, 0.00046672184034143166
541.0, 0.0009728045571675502
542.0, 0.0056983310368568735
543.0, 0.02158069854086345
544.0, 0.02527453678857854
545.0, 0.014852228696484154
546.0, 0.010747116389831788
547.0, 0.01629567986436231
548.0, 0.015558038416308836
549.0, 0.00440479328622982
550.0, 0.005301802336460004
551.0, 0.005719985709967692
552.0, 0.0019091725681023573
553.0, 0.009151765011987261
554.0, 0.01975322652555145
555.0, 0.015499204053332468
556.0, 0.00435514551938725
557.0, 0.010323581549076106
558.0, 0.012657855400339162
559.0, 0.01414268070098616
560.0, 0.015022891505567739
561.0, 0.010786729030502087
562.0, 0.015938015405647404
563.0, 0.02189199840187032
564.0, 0.01583912450616736
565.0, 0.00721629285532553
566.0, 0.017446693640624795
567.0, 0.005283510249025701
568.0, 0.002181169450214986
569.0, 0.006210084669804207
570.0, 0.00918707894383708
571.0, 0.007666792121199544
572.0, 0.013945898588378011
573.0, 0.010411697817279086
574.0, 0.009753709064449079
575.0, 0.015777617589698464
576.0, 0.00766618230560873
577.0, 0.0019218292031575634
578.0, 0.005007962553355863
579.0, 0.001688974596779626
580.0, 0.010473225319480126
581.0, 0.00428105241240982
582.0, 0.022005146080339166
583.0, 0.017818991243920723
584.0, 0.01168101465783281
585.0, 0.0121265521077724
586.0, 0.014532742013288089
587.0, 0.015041053704085988
588.0, 0.013586033512584448
589.0, 0.010501797959540189
590.0, 0.010235664529262577
591.0, 0.007946728498316255
592.0, 0.004857669718373286
593.0, 0.00397661142048224
594.0, 0.004019280984345098
595.0, 0.01000650874218184
596.0, 0.013540220032910584
597.0, 0.008754552165885401
598.0, 0.00779882038089099
599.0, 0.006064364086289184
600.0, 0.012132191593525356
601.0, 0.010592392571238502
602.0, 0.01636972993931197
603.0, 0.011653635442939562
604.0, 0.011710314783006633
605.0, 0.011706490021614994
606.0, 0.007578813934275829
607.0, 0.00030236118965863506
608.0, 0.004538283494171279
609.0, 0.013888095179531984
610.0, 0.008741566949316052
611.0, 0.0020443013116402593
612.0, 0.006430682107217103
613.0, 0.008107384552043842
614.0, 0.004422555719566252
615.0, 0.008233237814169226
616.0, 0.013578727673403145
617.0, 0.023123819225261185
618.0, 0.019721175786286918
619.0, 0.0017400221675702673
620.0, 0.008224909576927494
621.0, 0.0094945710025405
622.0, 0.0036540125302641363
623.0, 0.0001808564557776836
624.0, 0.003906786515620179
625.0, 0.010300076367765702
626.0, 0.009899228023891706
627.0, 0.006351540050828066
628.0, 0.0026146141135487545
629.0, 0.0074954326438802805
630.0, 0.0030963341273233403
631.0, 0.0035126042445613043
632.0, 0.011273901575835861
633.0, 0.0030043918857960887
634.0, 0.011318672976070757
635.0, 0.012664610165719695
636.0, 0.022756986352933273
637.0, 0.02477680663106793
638.0, 0.010510745460516712
639.0, 0.003040202261321615
640.0, 0.003785029375330956
641.0, 0.02289741182674548
642.0, 0.020518115549999404
643.0, 0.021804554973968757
644.0, 0.01821128601178004
645.0, 0.013256566366468192
646.0, 0.016567298592406274
647.0, 0.013165576274404105
648.0, 0.008748102605546194
649.0, 0.004115546091260234
650.0, 0.008794693109175866
651.0, 0.004398952065665687
652.0, 0.006783505322437914
653.0, 0.02566106969942588
654.0, 0.022579433578796142
655.0, 0.021948354770675818
656.0, 0.01987093327489386
657.0, 0.02191886487733654
658.0, 0.014596028032019944
659.0, 0.002640529813020616
660.0, 0.0026575495590750522
661.0, 0.0037694725086641918
662.0, 0.012799148897509141
663.0, 0.016310987200174112
664.0, 0.005128537679255062
665.0, 0.007255215798910652
666.0, 0.014455070198580283
667.0, 0.001465336527389673
668.0, 0.013897384428825446
669.0, 0.01311864753453072
670.0, 0.012816555076799034
671.0, 0.004629476530169313
672.0, 0.008657178472620047
673.0, 0.015350108588966658
674.0, 0.0009682482310067048
675.0, 0.0005859540309882945
676.0, 0.012607231258135692
677.0, 0.013995674366068134
678.0, 0.0077907664071465415
679.0, 0.01028011150582086
680.0, 0.0214979127322039
681.0, 0.025583298160873548
682.0, 0.012774142747827457
683.0, 0.006291725870579031
684.0, 0.010127083888596383
685.0, 0.022062064252975615
686.0, 0.02398853280884902
687.0, 0.011958593523929546
688.0, 0.008224674084391303
689.0, 0.02652704740393365
690.0, 0.017052456848345422
691.0, 0.014836653383413903
692.0, 0.016936389151938742
693.0, 0.019326459351463758
694.0, 0.022528034531876556
695.0, 0.02357033584984648
696.0, 0.020606297627037487
697.0, 0.02748503289372442
698.0, 0.013638044587589472
699.0, 0.01529444724481892
700.0, 0.017836033671294334
701.0, 0.015513944885809946
702.0, 0.014146418098520977
703.0, 0.015115173357091503
704.0, 0.016193242856123898
705.0, 0.00994634215891363
706.0, 0.021822575405121575
707.0, 0.019561802403863234
708.0, 0.022030078638434973
709.0, 0.019308683326338203
710.0, 0.017321229778068905
711.0, 0.01913325451632256
712.0, 0.017258551872272064
713.0, 0.021684502197691354
714.0, 0.01804901116160523
715.0, 0.02442166170197566
716.0, 0.020299835461857946
717.0, 0.021494405908078412
718.0, 0.015849775644709695
719.0, 0.012201306848102783
720.0, 0.04380733077396252
721.0, 0.03704718520763046
722.0, 0.019725980827179405
723.0, 0.020617123374395988
724.0, 0.020143627288428306
725.0, 0.009221796229057971
726.0, 0.01565267918976204
727.0, 0.013363354267839975
728.0, 0.018272501837916486
729.0, 0.016601546743638805
730.0, 0.026450750337667528
731.0, 0.023929766576793
732.0, 0.009532459328213734
733.0, 0.017576349512090427
734.0, 0.019066502186266324
735.0, 0.015358116731675864
736.0, 0.019858192552446984
737.0, 0.017344525606483658
738.0, 0.02380194364410469
739.0, 0.0251297966427846
740.0, 0.020128131986167374
741.0, 0.03075218010299705
742.0, 0.018775739790778994
743.0, 0.018193711060840733
744.0, 0.026590545974040442
745.0, 0.009364644088830152
746.0, 0.0034880415376217395
747.0, 0.012609760880128315
748.0, 0.02536659246502657
749.0, 0.020536981809613577
750.0, 0.018900186358800385
751.0, 0.019074890158077888
752.0, 0.006587952945039886
753.0, 0.0009833194102135227
754.0, 0.01465162877997924
755.0, 0.02312422744289073
756.0, 0.00747698172225366
757.0, 0.008106057324284974
758.0, 0.020745008364250986
759.0, 0.020225717139261995
760.0, 0.01643473411680045
761.0, 0.01286686648917295
762.0, 0.018061572997368217
763.0, 0.01910826908193817
764.0, 0.010083213725334647
765.0, 0.012781157197282627
766.0, 0.016817721246589118
767.0, 0.006977664975986163
768.0, 0.0013707560235822417
769.0, 0.004325597934803084
770.0, 0.001162052667427256
771.0, 0.018084956286020765
772.0, 0.006668343337622899
773.0, 0.009891244799321438
774.0, 0.006242982195746801
775.0, 0.014415483609079802
776.0, 0.005545616391999451
777.0, 0.009574099258607381
778.0, 0.007131522993973918
779.0, 0.02348339248334547
780.0, 0.018969513137407433
781.0, 0.004332226903938511
782.0, 0.02059381362864099
783.0, 0.008262567147188959
784.0, 0.00016881415204152996
785.0, 0.0021419911872947407
786.0, 0.004093486277262009
787.0, 0.008353933444233583
788.0, 0.019787942731065957
789.0, 0.02656276385917084
790.0, 0.01387595061724079
791.0, 0.010341303220463066
792.0, 0.018117338641747905
793.0, 0.009865804317624773
794.0, 0.013665252239751654
795.0, 0.0157634966010788
796.0, 0.001365741193952523
797.0, 0.009576830731901164
798.0, 0.0010190334666014052
799.0, 0.0015153197377632181
800.0, 0.0053310865015576
801.0, 0.0032814134490022086
802.0, 0.004893916680457163
803.0, 0.004112294640949554
804.0, 0.005450737981099423
805.0, 0.004113124028434285
806.0, 0.004117772863331736
807.0, 0.0024412519650678565
808.0, 0.007118112779305745
809.0, 0.020985306062738494
810.0, 0.01150608667592617
811.0, 0.012492283026888918
812.0, 0.017044293612793658
813.0, 0.009147692994116866
814.0, 0.004271303824939227
815.0, 0.01141160163951879
816.0, 0.018880510533277564
817.0, 0.00769899236977768
818.0, 0.012686083836547506
819.0, 0.011018317144365622
820.0, 0.0015315126333747232
821.0, 0.008538446253708934
822.0, 0.02867432425060206
823.0, 0.023574473150674805
824.0, 0.006954206189220397
825.0, 0.007411431608716914
826.0, 0.004430385198870791
827.0, 0.024575983578907064
828.0, 0.01993080587619091
829.0, 0.01446573762619496
830.0, 0.012600946943949908
831.0, 0.0050303607196146675
832.0, 0.01242426423336267
833.0, 0.019780178213384375
834.0, 0.013020285475433217
835.0, 0.012520886438304922
836.0, 0.015936939507791747
837.0, 0.0134657036184724
838.0, 0.01633742377872395
839.0, 0.013086151667381163
840.0, 0.017716662510882192
841.0, 0.00806171847842414
842.0, 0.009729014456121943
843.0, 0.011299780713136224
844.0, 0.01347584891916158
845.0, 0.013297069901886916
846.0, 0.015526328621823278
847.0, 0.011614682396288222
848.0, 0.012140333094320605
849.0, 0.0163120658870895
850.0, 0.008345307903457739
851.0, 0.014108762203557633
852.0, 0.01983112443719961
853.0, 0.01258703327618156
854.0, 0.006315157539198369
855.0, 0.012832038215849797
856.0, 0.01596156781591832
857.0, 0.007166477932106678
858.0, 0.004838812003410071
859.0, 0.012268075818039478
860.0, 0.007935684266323854
861.0, 0.022869387616540036
862.0, 0.034783598339638996
863.0, 0.012428930958186753
864.0, 0.012223708556575537
865.0, 0.02835575384929341
866.0, 0.0254284321585179
867.0, 0.012520740908968363
868.0, 0.012008641825936868
869.0, 0.006188107465911408
870.0, 0.01739007263704645
871.0, 0.01423696488744259
872.0, 0.010886083006372595
873.0, 0.012449195369877724
874.0, 0.0037448005296445053
875.0, 0.004774036592592684
876.0, 0.0036691380694567443
877.0, 0.012702275136589211
878.0, 0.01626543048729223
879.0, 0.00963318848071519
880.0, 0.007297892381844024
881.0, 0.004898432683062891
882.0, 0.010284308042113098
883.0, 0.00808233115058237
884.0, 0.01262315962017483
885.0, 0.010943479409109438
886.0, 0.0035213474195979096
887.0, 0.007486397643051607
888.0, 0.009978367179316723
889.0, 0.007050859880151787
890.0, 0.009064808899272867
891.0, 0.013425062318334171
892.0, 0.004037265356973057
893.0, 0.003940346596719466
894.0, 0.021955473990548865
895.0, 0.020071169896358758
896.0, 0.009262767914115146
897.0, 0.018500257915053445
898.0, 0.020133375081011214
899.0, 0.007775397190129358
900.0, 0.025173136143332876
901.0, 0.011273941890920455
902.0, 0.01763739025849084
903.0, 0.007641465021890904
904.0, 0.0029342475642322474
905.0, 0.006805457786928136
906.0, 0.006566938773394775
907.0, 0.00327704729762463
908.0, 0.006700559132352827
909.0, 0.021277673332659126
910.0, 0.0055035732799042685
911.0, 0.008564202583955509
912.0, 0.009860926488413059
913.0, 0.02784584943599231
914.0, 0.03393799369216852
915.0, 0.005796104855359296
916.0, 0.006672634954506672
917.0, 0.019337173136997943
918.0, 0.034644427498495674
919.0, 0.0036763534202398844
920.0, 0.005571078920888626
921.0, 0.001198677734854937
922.0, 0.00961611884382981
923.0, 0.010496024317592135
924.0, 0.01418645958529394
925.0, 0.018838914118121632
926.0, 0.02114765007125684
927.0, 0.0214186821898062
928.0, 0.021782474139682872
929.0, 0.021013325612398968
930.0, 0.012648265943918232
931.0, 0.015936650007433554
932.0, 0.010291062575913739
933.0, 0.006435013764865448
934.0, 0.012063082349142468
935.0, 0.011576237516383316
936.0, 0.015302299888705614
937.0, 0.007209981892913963
938.0, 0.005872492426576764
939.0, 0.016337125972590353
940.0, 0.005854804734368109
941.0, 0.011843858552784447
942.0, 0.009167780852118888
943.0, 0.013144721920776894
944.0, 0.016477755183456604
945.0, 0.017955334478968507
946.0, 0.00462218900594754
947.0, 0.006750636926588827
948.0, 0.019933125895955764
949.0, 0.02187521620869453
950.0, 0.016435127552906367
951.0, 0.005968013602595371
952.0, 0.012437017469041127
953.0, 0.016638774448383173
954.0, 0.003130236455354861
955.0, 0.004994762763735655
956.0, 0.011396568130817061
957.0, 0.02146287886888792
958.0, 0.01566754943412183
959.0, 0.017262903139598246
960.0, 0.020196720440117215
961.0, 0.008932434823375237
962.0, 0.020625579188777863
963.0, 0.021253654044359346
964.0, 0.019049575491805908
965.0, 0.007572284127660226
966.0, 0.011268383562998027
967.0, 0.02930899563730339
968.0, 0.01349915666387522
969.0, 0.006404778098249323
970.0, 0.007281015570088405
971.0, 0.008553524204482615
972.0, 0.01826566922582682
973.0, 0.005943607574291144
974.0, 0.003562969769822822
975.0, 0.006504250304230844
976.0, 0.009660927981465289
977.0, 0.007032181312036247
978.0, 0.017485406664433076
979.0, 0.009098937417017375
980.0, 0.01443029966628107
981.0, 0.012065284969184895
982.0, 0.00878170924040362
983.0, 0.013932272176664352
984.0, 0.01342594927437443
985.0, 0.00881892127154919
986.0, 0.014750216045741745
987.0, 0.00862575184058925
988.0, 0.012250841768842632
989.0, 0.013502347034243837
990.0, 0.009242947715073245
991.0, 0.00948771439412688
992.0, 0.007245203039453504
993.0, 0.013739278024469502
994.0, 0.010884927868602364
995.0, 0.018018445010747314
996.0, 0.01711515667884052
997.0, 0.00875866228562117
998.0, 0.01304238266406971
999.0, 0.01846647383880218
1000.0, 0.011883643039600971
1001.0, 0.00484779011470313
1002.0, 0.009656769144782171
1003.0, 0.0037815229741588836
1004.0, 0.0256009055848574
1005.0, 0.017154699200468526
1006.0, 0.00556517420376741
1007.0, 0.0033406545072075028
1008.0, 0.010087845502269195
1009.0, 0.019870278287172444
1010.0, 0.010968330517360455
1011.0, 0.005245212134889868
1012.0, 0.015641652415492906
1013.0, 0.00798231635570467
1014.0, 0.005547463117016351
1015.0, 0.014405806997032948
1016.0, 0.00679852952215613
1017.0, 0.018759887289842812
1018.0, 0.01265784043820111
1019.0, 0.02121600847026545
1020.0, 0.013318720665036386
1021.0, 0.01061196879005149
1022.0, 0.014871180223881864
1023.0, 0.010088664709227743
1024.0, 0.017619232159572167
1025.0, 0.009181766763834124
1026.0, 0.021298316054582895
1027.0, 0.017742132778316235
1028.0, 0.006520753174565434
1029.0, 0.010955871987755257
1030.0, 0.016316748666277435
1031.0, 0.01460890689417342
1032.0, 0.004910170168655343
1033.0, 0.0025938153050529805
1034.0, 0.006275644765407992
1035.0, 0.016183708328819064
1036.0, 0.012234481178813365
1037.0, 0.006090441896190292
1038.0, 0.007235199652544795
1039.0, 0.01815507084030788
1040.0, 0.0035265012644448064
1041.0, 0.024925210735919794
1042.0, 0.0025585329368158004
1043.0, 0.020825950748550086
1044.0, 0.03432255970332885
1045.0, 0.020926445158279763
1046.0, 0.01895895683188767
1047.0, 0.013283988967210631
1048.0, 0.017033208483143335
1049.0, 0.018870997800895083
1050.0, 0.007774496932986099
1051.0, 0.020001873394559062
1052.0, 0.008998673221876256
1053.0, 0.01050013388243184
1054.0, 0.01701495775798831
1055.0, 0.01824742218760321
1056.0, 0.004774201027673739
1057.0, 0.016471085890354602
1058.0, 0.004615782983539716
1059.0, 0.013494080066679986
1060.0, 0.021112639567108092
1061.0, 0.00901690523803225
1062.0, 0.0006538815566092026
1063.0, 0.006802947650197363
1064.0, 0.014886090740921409
1065.0, 0.012182694329084401
1066.0, 0.014346629774232442
1067.0, 0.020475061813387485
1068.0, 0.01601795958297937
1069.0, 0.00969776903269286
1070.0, 0.011404508088865832
1071.0, 0.013148619997846639
1072.0, 0.007898252737175288
1073.0, 0.010187806414064552
1074.0, 0.004176416643187486
1075.0, 0.006802931709851743
1076.0, 0.003865127851916278
1077.0, 0.010563801785636966
1078.0, 0.009806323157702674
1079.0, 0.015268002073470378
1080.0, 0.021417128563623978
1081.0, 0.02182954495313201
1082.0, 0.025891944529260285
1083.0, 0.021079753881423736
1084.0, 0.020880544266732887
1085.0, 0.01652145447830034
1086.0, 0.01662336944277375
1087.0, 0.01375745495681502
1088.0, 0.01943413033003644
1089.0, 0.015717198410758252
1090.0, 0.023174956927797544
1091.0, 0.009083039635481759
1092.0, 0.015307256432846654
1093.0, 0.021903490221413364
1094.0, 0.020884193531886596
1095.0, 0.02040275948384417
1096.0, 0.016595373610169117
1097.0, 0.011997360394277118
1098.0, 0.0028280559422655446
1099.0, 0.006198293675915049
1100.0, 0.023859566517340825
1101.0, 0.01950611824201559
1102.0, 0.005987539894082941
1103.0, 0.011673452048092642
1104.0, 0.018804961775316893
1105.0, 0.012938751244137115
1106.0, 0.02408887541281375
1107.0, 0.02304119407130207
1108.0, 0.008556441472356962
1109.0, 0.002754358829766773
1110.0, 0.01881490314015097
1111.0, 0.019588514808720807
1112.0, 0.002512734300397218
1113.0, 0.005491972263349788
1114.0, 0.023067633391631894
1115.0, 0.02652965489582133
1116.0, 0.008361231395902703
1117.0, 0.016872937816267534
1118.0, 0.03724205002966777
1119.0, 0.009660293330918442
1120.0, 0.004720258679023099
1121.0, 0.029253063733354952
1122.0, 0.0268364366268531
1123.0, 0.03700891779840321
1124.0, 0.039584325446570694
1125.0, 0.032970711188058235
1126.0, 0.026728513042505432
1127.0, 0.02583422408219674
1128.0, 0.02568447959037435
1129.0, 0.01182453736960857
1130.0, 0.011696127688449808
1131.0, 0.02931570755401986
1132.0, 0.02961032016585498
1133.0, 0.025159174044681203
1134.0, 0.022389750444874127
1135.0, 0.018677089696105143
1136.0, 0.037455408031023485
1137.0, 0.017047293147194532
1138.0, 0.025158191740648286
1139.0, 0.018656241599216885
1140.0, 0.02444525985208546
1141.0, 0.016667203545744573
1142.0, 0.013471143178598747
1143.0, 0.010704305236997499
1144.0, 0.01749891162130932
1145.0, 0.011127789689664665
1146.0, 0.024971245699958355
1147.0, 0.0050927013229385455
1148.0, 0.005863914330018554
1149.0, 0.020787113432761992
1150.0, 0.02212961673723573
1151.0, 0.02308381302987745
1152.0, 0.02477555721631152
1153.0, 0.025170021167548903
1154.0, 0.023129423998019687
1155.0, 0.012866433417765347
1156.0, 0.002747703259409301
1157.0, 0.020603445368318856
1158.0, 0.0021072599209082535
1159.0, 0.014629164612176093
1160.0, 0.017702785318584477
1161.0, 0.02360263832881594
1162.0, 0.015771641624653127
1163.0, 0.0014891976015092966
1164.0, 0.002514984360986996
1165.0, 0.01190938472961218
1166.0, 0.02053216968926682
1167.0, 0.023633551299461313
1168.0, 0.0270789022543425
1169.0, 0.01961168120468426
1170.0, 0.008533550987618871
1171.0, 0.008055845447872306
1172.0, 0.02132884977742961
1173.0, 0.027654066837874882
1174.0, 0.010439604847049144
1175.0, 0.014863022258233395
1176.0, 0.020052767606983525
1177.0, 0.013030151533838958
1178.0, 0.020353699305469996
1179.0, 0.0049948133401903055
1180.0, 0.017773506902845047
1181.0, 0.02677168836643132
1182.0, 0.0127053590611706
1183.0, 0.024111874648113714
1184.0, 0.017439788768863592
1185.0, 0.012769237147187
1186.0, 0.015227566082701167
1187.0, 0.027469671866271216
1188.0, 0.03497981302952914
1189.0, 0.03353114425024239
1190.0, 0.015427938702213052
1191.0, 0.0162009721751226
1192.0, 0.02919726965244812
1193.0, 0.016819111200417857
1194.0, 0.016646638757660634
1195.0, 0.01720048198413798
1196.0, 0.02145751881178528
1197.0, 0.022885349917437802
1198.0, 0.02595679829692963
1199.0, 0.024325717855332066
1200.0, 0.01514028146174569
1201.0, 0.02670226685935947
1202.0, 0.0268560938380807
1203.0, 0.013808091510163358
1204.0, 0.023384044963631726
1205.0, 0.02351602395948277
1206.0, 0.015542875471613054
1207.0, 0.019383158895514344
1208.0, 0.01982961450055089
1209.0, 0.01288856143711133
1210.0, 0.01680474353683145
1211.0, 0.02908250533695267
1212.0, 0.03393787842077911
1213.0, 0.01990032845197394
1214.0, 0.009934950965416713
1215.0, 0.030755638072886227
1216.0, 0.028096792598284306
1217.0, 0.003722117939182359
1218.0, 0.004161749799628919
1219.0, 0.014843859113801643
1220.0, 0.019220607198668267
1221.0, 0.015833868688953603
1222.0, 0.013828874199393939
1223.0, 0.0156330423665122
1224.0, 0.012766098073605734
1225.0, 0.025745798010246013
1226.0, 0.021686022007776827
1227.0, 0.019447013399019747
1228.0, 0.026732515297481364
1229.0, 0.00014613456764034528
1230.0, 0.0010818735464344685
1231.0, 0.005908790618254473
1232.0, 0.0105686993614958
1233.0, 0.007347154136080641
1234.0, 8.53384342939413e-06
1235, 0.0
1236, 0.0
1237, 0.0
1238, 0.0
1239, 0.0
1240, 0.0
1241, 0.0
1242, 0.0
1243, 0.0
1244, 0.0
1245, 0.0
1246, 0.0
1247, 0.0
1248, 0.0
1249, 0.0
1250, 0.0
1251, 0.0
1252, 0.0
1253, 0.0
1254, 0.0
1255, 0.0
1256, 0.0
1257, 0.0
1258, 0.0
1259, 0.0
1260, 0.0
1261, 0.0
1262, 0.0
1263, 0.0
1264, 0.0
1265, 0.0
1266, 0.0
1267, 0.0
1268, 0.0
1269, 0.0
1270, 0.0
1271, 0.0
1272, 0.0
1273, 0.0
1274, 0.0
1275, 0.0
1276, 0.0
1277, 0.0
1278, 0.0
1279, 0.0
1280, 0.0
1281, 0.0
1282, 0.0
1283, 0.0
1284, 0.0
1285, 0.0
1286, 0.0
1287, 0.0
1288, 0.0
1289, 0.0
1290, 0.0
1291, 0.0
1292, 0.0
1293, 0.0
1294, 0.0
1295, 0.0
1296, 0.0
1297, 0.0
1298, 0.0
1299, 0.0
1300, 0.0
1301, 0.0
1302, 0.0
1303, 0.0
1304, 0.0
1305, 0.0
1306, 0.0
1307, 0.0
1308, 0.0
1309, 0.0
1310, 0.0
1311, 0.0
1312, 0.0
1313, 0.0
1314, 0.0
1315, 0.0
1316, 0.0
1317, 0.0
1318, 0.0
1319, 0.0
1320, 0.0
1321, 0.0
1322, 0.0
1323, 0.0
1324, 0.0
1325, 0.0
1326, 0.0
1327, 0.0
1328, 0.0
1329, 0.0
1330, 0.0
1331, 0.0
1332, 0.0
1333, 0.0
1334, 0.0
1335, 0.0
1336, 0.0
1337, 0.0
1338, 0.0
1339, 0.0
1340, 0.0
1341, 0.0
1342, 0.0
1343, 0.0
1344, 0.0
1345, 0.0
1346, 0.0
1347, 0.0
1348, 0.0
1349, 0.0
1350, 0.0
1351, 0.0
1352, 0.0
1353, 0.0
1354, 0.0
1355, 0.0
1356, 0.0
1357, 0.0
1358, 0.0
1359, 0.0
1360, 0.0
1361, 0.0
1362, 0.0
1363, 0.0
1364, 0.0
1365, 0.0
1366, 0.0
1367, 0.0
1368, 0.0
1369, 0.0
1370, 0.0
1371, 0.0
1372, 0.0
1373, 0.0
1374, 0.0
1375, 0.0
1376, 0.0
1377, 0.0
1378, 0.0
1379, 0.0
1380, 0.0
1381, 0.0
1382, 0.0
1383, 0.0
1384, 0.0
1385, 0.0
1386, 0.0
1387, 0.0
1388, 0.0
1389, 0.0
1390, 0.0
1391, 0.0
1392, 0.0
1393, 0.0
1394, 0.0
1395, 0.0
1396, 0.0
1397, 0.0
1398, 0.0
1399, 0.0
1400, 0.0
1401, 0.0
1402, 0.0
1403, 0.0
1404, 0.0
1405, 0.0
1406, 0.0
1407, 0.0
1408, 0.0
1409, 0.0
1410, 0.0
1411, 0.0
1412, 0.0
1413, 0.0
1414, 0.0
1415, 0.0
1416, 0.0
1417, 0.0
1418, 0.0
1419, 0.0
1420, 0.0
1421, 0.0
1422, 0.0
1423, 0.0
1424, 0.0
1425, 0.0
1426, 0.0
1427, 0.0
1428, 0.0
1429, 0.0
1430, 0.0
1431, 0.0
1432, 0.0
1433, 0.0
1434, 0.0
1435, 0.0
1436, 0.0
1437, 0.0
1438, 0.0
1439, 0.0
1440, 0.0
1441, 0.0
1442, 0.0
1443, 0.0
1444, 0.0
1445, 0.0
1446, 0.0
1447, 0.0
1448, 0.0
1449, 0.0
1450, 0.0
1451, 0.0
1452, 0.0
1453, 0.0
1454, 0.0
1455, 0.0
1456, 0.0
1457, 0.0
1458, 0.0
1459, 0.0
1460, 0.0
1461, 0.0
1462, 0.0
1463, 0.0
1464, 0.0
1465, 0.0
1466, 0.0
1467, 0.0
1468, 0.0
1469, 0.0
1470, 0.0
1471, 0.0
1472, 0.0
1473, 0.0
1474, 0.0
1475, 0.0
1476, 0.0
1477, 0.0
1478, 0.0
1479, 0.0
1480, 0.0
1481, 0.0
1482, 0.0
1483, 0.0
1484, 0.0
1485, 0.0
1486, 0.0
1487, 0.0
1488, 0.0
1489, 0.0
1490, 0.0
1491, 0.0
1492, 0.0
1493, 0.0
1494, 0.0
1495, 0.0
1496, 0.0
1497, 0.0
1498, 0.0
1499, 0.0
1500, 0.0
1501, 0.0
1502, 0.0
1503, 0.0
1504, 0.0
1505, 0.0
1506, 0.0
1507, 0.0
1508, 0.0
1509, 0.0
1510, 0.0
1511, 0.0
1512, 0.0
1513, 0.0
1514, 0.0
1515, 0.0
1516, 0.0
1517, 0.0
1518, 0.0
1519, 0.0
1520, 0.0
1521, 0.0
1522, 0.0
1523, 0.0
1524, 0.0
1525, 0.0
1526, 0.0
1527, 0.0
1528, 0.0
1529, 0.0
1530, 0.0
1531, 0.0
1532, 0.0
1533, 0.0
1534, 0.0
1535, 0.0
1536, 0.0
1537, 0.0
1538, 0.0
1539, 0.0
1540, 0.0
1541, 0.0
1542, 0.0
1543, 0.0
1544, 0.0
1545, 0.0
1546, 0.0
1547, 0.0
1548, 0.0
1549, 0.0
1550, 0.0
1551, 0.0
1552, 0.0
1553, 0.0
1554, 0.0
1555, 0.0
1556, 0.0
1557, 0.0
1558, 0.0
1559, 0.0
1560, 0.0
1561, 0.0
1562, 0.0
1563, 0.0
1564, 0.0
1565, 0.0
1566, 0.0
1567, 0.0
1568, 0.0
1569, 0.0
1570, 0.0
1571, 0.0
1572, 0.0
1573, 0.0
1574, 0.0
1575, 0.0
1576, 0.0
1577, 0.0
1578, 0.0
1579, 0.0
1580, 0.0
1581, 0.0
1582, 0.0
1583, 0.0
1584, 0.0
1585, 0.0
1586, 0.0
1587, 0.0
1588, 0.0
1589, 0.0
1590, 0.0
1591, 0.0
1592, 0.0
1593, 0.0
1594, 0.0
1595, 0.0
1596, 0.0
1597, 0.0
1598, 0.0
1599, 0.0
