30, 0.0
31, 0.0
32, 0.0
33, 0.0
34, 0.0
35, 0.0
36, 0.0
37, 0.0
38, 0.0
39, 0.0
40, 0.0
41, 0.0
42, 0.0
43, 0.0
44, 0.0
45, 0.0
46, 0.0
47, 0.0
48, 0.0
49, 0.0
50, 0.0
51, 0.0
52, 0.0
53, 0.0
54, 0.0
55, 0.0
56, 0.0
57, 0.0
58, 0.0
59, 0.0
60, 0.0
61, 0.0
62, 0.0
63, 0.0
64, 0.0
65, 0.0
66, 0.0
67, 0.0
68, 0.0
69, 0.0
70, 0.0
71, 0.0
72, 0.0
73, 0.0
74, 0.0
75, 0.0
76, 0.0
77, 0.0
78, 0.0
79, 0.0
80, 0.0
81, 0.0
82, 0.0
83, 0.0
84, 0.0
85, 0.0
86, 0.0
87, 0.0
88, 0.0
89, 0.0
90, 0.0
91, 0.0
92, 0.0
93, 0.0
94, 0.0
95, 0.0
96, 0.0
97, 0.0
98, 0.0
99, 0.0
100, 0.0
101, 0.0
102, 0.0
103, 0.0
104, 0.0
105, 0.0
106, 0.0
107, 0.0
108, 0.0
109, 0.0
110, 0.0
111, 0.0
112, 0.0
113, 0.0
114, 0.0
115, 0.0
116, 0.0
117, 0.0
118, 0.0
119, 0.0
120, 0.0
121, 0.0
122, 0.0
123, 0.0
124, 0.0
125, 0.0
126, 0.0
127, 0.0
128, 0.0
129, 0.0
130, 0.0
131, 0.0
132, 0.0
133, 0.0
134, 0.0
135, 0.0
136, 0.0
137, 0.0
138, 0.0
139, 0.0
140, 0.0
141, 0.0
142, 0.0
143, 0.0
144, 0.0
145, 0.0
146, 0.0
147, 0.0
148, 0.0
149, 0.0
150, 0.0
151, 0.0
152, 0.0
153, 0.0
154, 0.0
155, 0.0
156, 0.0
157, 0.0
158, 0.0
159, 0.0
160, 0.0
161, 0.0
162, 0.0
163, 0.0
164.0, 0.0017955494328822895
165.0, 0.0015621328971687463
166.0, 0.006137106135338871
167.0, 0.0010379119635700888
168.0, 0.00017371586770605727
169.0, 0.0018523880127839034
170.0, 0.003061736812422884
171.0, 0.0014700747582623527
172.0, 0.002069095812556461
173.0, 0.004683835157780961
174.0, 0.006527308361303602
175.0, 0.005285003551557422
176.0, 0.01095724395294542
177.0, 0.012661689075747285
178.0, 0.012083052869304793
179.0, 0.014700483741173753
180.0, 0.01497526695723414
181.0, 0.014844057240371826
182.0, 0.012369237400458472
183.0, 0.008770047460692392
184.0, 0.010957370476715796
185.0, 0.013013237393749561
186.0, 0.012529383639829448
187.0, 0.010908175872178027
188.0, 0.01106924599107126
189.0, 0.011169528971010763
190.0, 0.011439202430443732
191.0, 0.013190684279605984
192.0, 0.01670912128972715
193.0, 0.019896339353099948
194.0, 0.02467933802997673
195.0, 0.032426054943089484
196.0, 0.03931736284418708
197.0, 0.03913217121410578
198.0, 0.039670307029184525
199.0, 0.03658059301457889
200.0, 0.0302811988269742
201.0, 0.023541268157136443
202.0, 0.01511061477402855
203.0, 0.011945062257011396
204.0, 0.010210568291328426
205.0, 0.00715955430170312
206.0, 0.007081106787494978
207.0, 0.004558115759601959
208.0, 0.0031512798408648308
209.0, 0.003685554790004552
210.0, 0.004090482450840826
211.0, 0.004205148643192865
212.0, 0.006483539149413951
213.0, 0.007304523375138017
214.0, 0.004875301951162687
215.0, 0.00718573432652657
216.0, 0.0044863750419899436
217.0, 0.0018050337624931365
218.0, 0.0010559135637315587
219.0, 0.0007414727249486918
220.0, 0.0008376688184255814
221.0, 0.0017050373568517035
222.0, 0.002442689199381558
223.0, 0.002280942846883498
224.0, 0.005838727176319461
225.0, 0.002830539537395112
226.0, 0.0022566571053909096
227.0, 0.005062373593192777
228.0, 0.0036036975409115047
229.0, 0.0020859037296936684
230.0, 0.005823495893609931
231.0, 0.010745032106940684
232.0, 0.010992946936357492
233.0, 0.006934982851239793
234.0, 0.011313926642290788
235.0, 0.016323217278689402
236.0, 0.018031784248953523
237.0, 0.020297861326547727
238.0, 0.019190609440434048
239.0, 0.019955580783485617
240.0, 0.022050825136029614
241.0, 0.023388243362136456
242.0, 0.02371111049123189
243.0, 0.019239030135425897
244.0, 0.016511091449276646
245.0, 0.01625224900863315
246.0, 0.01212525876647236
247.0, 0.010588885602021427
248.0, 0.011402144687658605
249.0, 0.01237007958594944
250.0, 0.012054952739350427
251.0, 0.01152526978148973
252.0, 0.007438747337400923
253.0, 0.006718567468613989
254.0, 0.007868839171383667
255.0, 0.003904984307644508
256.0, 0.00521218109768389
257.0, 0.0025627961318889334
258.0, 0.0006998689740608512
259.0, 0.0032761525589897525
260.0, 0.0025479436989661233
261.0, 0.004890400958176154
262.0, 0.004143825294859088
263.0, 0.0029622845495386983
264.0, 0.008616263521885428
265.0, 0.010433542551433283
266.0, 0.01113536075091237
267.0, 0.0130579601354185
268.0, 0.016521636771746832
269.0, 0.018914241917605486
270.0, 0.02128095781339024
271.0, 0.02398753460922778
272.0, 0.02538733396981335
273.0, 0.025850370758485047
274.0, 0.03141476794445793
275.0, 0.0362823489741127
276.0, 0.03846162590117453
277.0, 0.03656814671860137
278.0, 0.029971029591050472
279.0, 0.029829107610356075
280.0, 0.027565803429832923
281.0, 0.024162639334200698
282.0, 0.021111775758040633
283.0, 0.014526289706032529
284.0, 0.012625170188688833
285.0, 0.011077815652402855
286.0, 0.007348298822630677
287.0, 0.0036192557720727053
288.0, 0.004150317454934257
289.0, 0.0016986266905380828
290.0, 0.0010616053362009137
291.0, 0.0027739646273166724
292.0, 0.0004255941447146027
293.0, 0.00485728990585899
294.0, 0.007197205528129687
295.0, 0.007520746650867187
296.0, 0.009200517719548641
297.0, 0.012406392857610736
298.0, 0.010773692958630883
299.0, 0.012426953439290562
300.0, 0.01662742826367908
301.0, 0.017527649927668965
302.0, 0.021600562659719304
303.0, 0.029298785165533314
304.0, 0.03583002564015598
305.0, 0.03850415884562404
306.0, 0.03858416396308959
307.0, 0.04148906704590245
308.0, 0.04154954118801521
309.0, 0.03857365650962262
310.0, 0.03410386833914828
311.0, 0.027857279136513476
312.0, 0.01809094455413303
313.0, 0.013971216674840437
314.0, 0.0112105439076904
315.0, 0.0036288162442723437
316.0, 0.0027175781256771237
317.0, 0.002644462298724671
318.0, 0.0004216506892547382
319.0, 0.0022164248656565025
320.0, 0.0010027405143538154
321.0, 0.0006180414443528671
322.0, 0.001322055421810957
323.0, 0.0005266531987419598
324.0, 0.0005393163975837901
325.0, 0.0028428764115717114
326.0, 0.0008240605280954903
327.0, 0.0008841284400936172
328.0, 0.0018578049673675747
329.0, 0.0003762417074614486
330.0, 0.0029393519889198364
331.0, 0.0051868017613857275
332.0, 0.004484710856143771
333.0, 0.004455674788696003
334.0, 0.0095473635479635
335.0, 0.010978035831271386
336.0, 0.014870899446827264
337.0, 0.01668744614974718
338.0, 0.018078630563458417
339.0, 0.025220103897999203
340.0, 0.025033664034389003
341.0, 0.03268855952897924
342.0, 0.04277880912606915
343.0, 0.04860414624437782
344.0, 0.05350327778819707
345.0, 0.06492110907559885
346.0, 0.07546085772956056
347.0, 0.08253645455957091
348.0, 0.08913569723040649
349.0, 0.1020503320249815
350.0, 0.11528039602770644
351.0, 0.12452637665285522
352.0, 0.13443748883501191
353.0, 0.14744238969208742
354.0, 0.1556736453729745
355.0, 0.16341001255606424
356.0, 0.17270830317339894
357.0, 0.1816807364083637
358.0, 0.18802312343346084
359.0, 0.1923608437832417
360.0, 0.19488056790791833
361.0, 0.19932112404939029
362.0, 0.2003125126436052
363.0, 0.19110317841687913
364.0, 0.1847240391841366
365.0, 0.17382787541326253
366.0, 0.15680793849891644
367.0, 0.13661865562076625
368.0, 0.11750855631551188
369.0, 0.09717995165420183
370.0, 0.0842368931525218
371.0, 0.07140501346881964
372.0, 0.0582810554782133
373.0, 0.054207148240600904
374.0, 0.049503873033334894
375.0, 0.04351800626156756
376.0, 0.0374450380664804
377.0, 0.03308549553576479
378.0, 0.03332295969425123
379.0, 0.03605210481300591
380.0, 0.03463209635737975
381.0, 0.03400858090815944
382.0, 0.03734082712630748
383.0, 0.03875539794474461
384.0, 0.03949171400906188
385.0, 0.04158678098800867
386.0, 0.04625064546939028
387.0, 0.051806198136897776
388.0, 0.05243147355254356
389.0, 0.05361833334691988
390.0, 0.050812499904463834
391.0, 0.04718605067396928
392.0, 0.04428244173147633
393.0, 0.03624867020691513
394.0, 0.030884698675989884
395.0, 0.02644404879885579
396.0, 0.019985782734247493
397.0, 0.01240700873802137
398.0, 0.008951394441234042
399.0, 0.007378587581233785
400.0, 0.007115831596723402
401.0, 0.006905484215530192
402.0, 0.00552929993580909
403.0, 0.0024061468137557634
404.0, 0.0020648690374354397
405.0, 0.0007981320395473967
406.0, 0.001379088574247727
407.0, 0.0011182787583767701
408.0, 0.0011888308790614312
409.0, 0.0012499091053196406
410.0, 0.0005214313442729517
411.0, 0.0023703429385070755
412.0, 0.0025695977636263577
413.0, 0.0007564995755260463
414.0, 0.0019397791842870461
415.0, 0.002755127354735409
416.0, 0.0016156038850335687
417.0, 0.0002248668984203754
418.0, 0.000296939345504221
419.0, 0.0026155328308800855
420.0, 0.004523455713439014
421.0, 0.003374611136057382
422.0, 0.0005853352968157983
423.0, 0.0010198208393862316
424.0, 0.0012543905791247132
425.0, 0.005155425271514128
426.0, 0.00532621092901095
427.0, 0.0021997271070757865
428.0, 0.0054521108075975405
429.0, 0.007415700765400857
430.0, 0.006873518585637719
431.0, 0.007552037786326965
432.0, 0.010953982077292016
433.0, 0.012930348805594606
434.0, 0.013679601062592016
435.0, 0.017282498571218517
436.0, 0.019476575961198506
437.0, 0.020090646831576665
438.0, 0.02455633474949477
439.0, 0.02661737667267179
440.0, 0.028675138520691586
441.0, 0.03302209958244519
442.0, 0.038509056248344574
443.0, 0.042635238326234275
444.0, 0.04734197847336542
445.0, 0.04959330448683485
446.0, 0.053199010780646046
447.0, 0.05907301115678019
448.0, 0.06425977747098346
449.0, 0.06771301863909102
450.0, 0.06733432128457695
451.0, 0.06669232042030525
452.0, 0.06762252802556737
453.0, 0.0695051745345482
454.0, 0.07072936451266824
455.0, 0.07180035223540801
456.0, 0.07152050717032338
457.0, 0.07054009934138084
458.0, 0.07016341504515222
459.0, 0.07026825275809236
460.0, 0.07309436729214595
461.0, 0.06935511433651871
462.0, 0.06369129384482895
463.0, 0.06075572607678223
464.0, 0.05427680750446177
465.0, 0.04429742794525566
466.0, 0.03829734211975173
467.0, 0.03480831743432932
468.0, 0.03199331454515602
469.0, 0.031361723170113834
470.0, 0.02293833170329497
471.0, 0.020208729050807422
472.0, 0.019487808570995017
473.0, 0.017408989308124564
474.0, 0.015753975280517016
475.0, 0.014346211859150262
476.0, 0.010798120513570176
477.0, 0.010040458415024022
478.0, 0.011662234991393846
479.0, 0.011474960079300336
480.0, 0.008838605253505818
481.0, 0.005862924136529964
482.0, 0.006230115900493728
483.0, 0.006259712469257437
484.0, 0.004212179284853547
485.0, 0.004951060797923193
486.0, 0.00406299129757667
487.0, 0.0036290834743787563
488.0, 0.003409507800451399
489.0, 0.0030924696523611053
490.0, 0.00367834674904587
491.0, 0.005798876621566484
492.0, 0.00548857026232377
493.0, 0.004387168165677371
494.0, 0.004647057759663422
495.0, 0.005550636586204273
496.0, 0.0018560247451785954
497.0, 0.0006043375552006349
498.0, 0.003576644255691563
499.0, 0.0037166261071094513
500.0, 0.0012298260284698249
501.0, 0.0003905717881339405
502.0, 0.0003880701782358136
503.0, 0.0004321514941657755
504.0, 0.0008115622111475771
505.0, 0.0013622685442446422
506.0, 0.0017544281865690004
507.0, 0.002731925016218592
508.0, 0.0029077011959572664
509.0, 0.002208633205212525
510.0, 0.0012324967008252603
511.0, 0.0012638481810792318
512.0, 0.0027784652815958243
513.0, 0.005407302863480225
514.0, 0.0027729808087708875
515.0, 0.0002891084146714468
516.0, 0.0013522108068978371
517.0, 0.0031445231086798956
518.0, 0.0010844327783067573
519.0, 0.0005349035904134446
520.0, 0.00031659764915646654
521.0, 0.001785624867435069
522.0, 0.002173202414910182
523.0, 0.0019307499668621676
524.0, 0.0024507874124573624
525.0, 0.0029975950525081853
526.0, 0.002253410037431355
527.0, 0.0008185392940594201
528.0, 0.005228628797688145
529.0, 0.0024475116603473995
530.0, 0.00070721786556039
531.0, 0.0018645733777898942
532.0, 0.0021002949662437703
533.0, 0.00010270298021365309
534.0, 0.0036925002039378436
535.0, 0.004904023306915894
536.0, 0.005284757985574731
537.0, 0.004378005261020818
538.0, 0.0010177328037697343
539.0, 0.000478608950955506
540.0, 0.002340330952099109
541.0, 0.002333273542513484
542.0, 0.001350117162859728
543.0, 0.001529673509992004
544.0, 0.0011657472272429668
545.0, 0.003693751867872702
546.0, 0.00447148655077685
547.0, 0.0027768414830946883
548.0, 0.001811260725839164
549.0, 0.00315631664628855
550.0, 0.0020210450419721727
551.0, 0.005297980219588836
552.0, 0.0052323549987626835
553.0, 0.0034532366841510307
554.0, 0.0033591465080231512
555.0, 0.0043254820834711435
556.0, 0.002216901551377985
557.0, 0.0028109782237688685
558.0, 0.002772991130489081
559.0, 0.0022449274938932968
560.0, 0.0024743096031751228
561.0, 0.002037183884227737
562.0, 0.007437250630675232
563.0, 0.005873932025634489
564.0, 0.00397994914600355
565.0, 0.005413521173430168
566.0, 0.008035630206313935
567.0, 0.008886200098173943
568.0, 0.007005715843950816
569.0, 0.0038946959919669674
570.0, 0.0041007761529115744
571.0, 0.006318372354659876
572.0, 0.004230844778883594
573.0, 0.00247523599414249
574.0, 0.0022712114552729517
575.0, 0.005210295299821708
576.0, 0.006808880378473212
577.0, 0.0042879993332119995
578.0, 0.006103340352769073
579.0, 0.0038651201192976955
580.0, 0.003836709511871795
581.0, 0.004897695366376519
582.0, 0.00420407365308761
583.0, 0.00250953756281765
584.0, 0.0021388172238411773
585.0, 0.0028868385790881686
586.0, 0.004783967462861664
587.0, 0.004603043653578244
588.0, 0.0019717524877794395
589.0, 0.00035423668093129254
590.0, 0.0010777149483280992
591.0, 0.0013355804291745742
592.0, 0.0010386940040511884
593.0, 0.0014314590811379672
594.0, 0.0019114799739156595
595.0, 0.0002194188735822582
596.0, 0.0024167527443733363
597.0, 0.00339920665926003
598.0, 0.00470221147134879
599.0, 0.005222749477852633
600.0, 0.0023636599333585833
601.0, 0.00023105559328829553
602.0, 0.0013373625780131087
603.0, 0.002116212049154463
604.0, 0.002208808421732664
605.0, 0.0013429104600088957
606.0, 0.0007566527671629044
607.0, 0.0006455679187220636
608.0, 0.0015127412860719439
609.0, 0.00314765396167408
610.0, 0.003302407501535322
611.0, 0.00277104795662432
612.0, 0.005354127046040703
613.0, 0.005930298518020797
614.0, 0.0012311734604829306
615.0, 0.002412944645989263
616.0, 0.004634120084759084
617.0, 0.0023439479225571824
618.0, 0.0023397040565180565
619.0, 0.005605805298444988
620.0, 0.006693627466248328
621.0, 0.003948017527513706
622.0, 0.0017944123985211534
623.0, 0.0028446915626538925
624.0, 0.003310006658838532
625.0, 0.005538722822263145
626.0, 0.004148546211411464
627.0, 0.0050829129031357695
628.0, 0.005664805640353025
629.0, 0.002305582557204924
630.0, 0.0029701958285596654
631.0, 0.002400408058554853
632.0, 0.0030286093904381135
633.0, 0.0012378536725422377
634.0, 0.0011791154263558906
635.0, 0.0036618623372838568
636.0, 0.0010156867585095794
637.0, 0.005042370731765234
638.0, 0.005271819377050557
639.0, 0.005005899510040993
640.0, 0.004176021556178051
641.0, 0.0009442863947128988
642.0, 0.002897072451463014
643.0, 0.00593618751146298
644.0, 0.003251750220392403
645.0, 0.0004978695991574016
646.0, 0.000712348970327193
647.0, 0.0022045335747253704
648.0, 0.0031330485360849323
649.0, 0.004548208188296595
650.0, 0.002304154478841622
651.0, 0.003376647891105281
652.0, 0.0063098550652966835
653.0, 0.005460508193849392
654.0, 0.006564290810445679
655.0, 0.005467826214060098
656.0, 0.003746180295762208
657.0, 0.002813461427653
658.0, 0.0031509468071214005
659.0, 0.004624011507193668
660.0, 0.007129440763085104
661.0, 0.011838134389616038
662.0, 0.008522167396187084
663.0, 0.0033717955932319097
664.0, 0.0019218800121581071
665.0, 0.00364013567105051
666.0, 0.007310464335702291
667.0, 0.007102037285826756
668.0, 0.004793486035336144
669.0, 0.006260486560049419
670.0, 0.007942254981756427
671.0, 0.006112622648685673
672.0, 0.007146610101243875
673.0, 0.007488186862040709
674.0, 0.006316056791865204
675.0, 0.005466605119221785
676.0, 0.00499183453778971
677.0, 0.003991780498423799
678.0, 0.003495492928689696
679.0, 0.007903698320007018
680.0, 0.00789644370315841
681.0, 0.009438368195900836
682.0, 0.011975507368333329
683.0, 0.01032171142072165
684.0, 0.005017202866619488
685.0, 0.009964943175825214
686.0, 0.00440480168192366
687.0, 0.004876566426887241
688.0, 0.00729799012180444
689.0, 0.006804575813693743
690.0, 0.007505700807185003
691.0, 0.0061920396584081595
692.0, 0.004890753356576497
693.0, 0.00491961348734345
694.0, 0.005746256464206896
695.0, 0.0067583622948826924
696.0, 0.007445283269110881
697.0, 0.0070011640749824315
698.0, 0.003372867163217052
699.0, 0.004646543959254182
700.0, 0.0077618901940591815
701.0, 0.008367425452246327
702.0, 0.005856878648430655
703.0, 0.0033171857759310415
704.0, 0.0034930625919276773
705.0, 0.0026637251159965228
706.0, 0.0030433742786976324
707.0, 0.003867587856774344
708.0, 0.0034883904513073115
709.0, 0.002371493181040522
710.0, 0.002145731016973003
711.0, 0.004135300225508531
712.0, 0.003464389143491343
713.0, 0.0035384626508400898
714.0, 0.00437065620822771
715.0, 0.002792080792839286
716.0, 0.002270052464578302
717.0, 0.0004120316503443395
718.0, 0.00013584195430088695
719.0, 0.0015361143712375417
720.0, 0.0018368657202126536
721.0, 0.0008560596263290117
722.0, 0.002402922251602427
723.0, 0.0009652803749028173
724.0, 0.0019478320731097162
725.0, 0.0003005914308655984
726.0, 0.0009915959407174174
727.0, 0.0010014729984690138
728.0, 0.0006658175368391765
729.0, 0.0024004212845588277
730.0, 0.0010658801743371094
731.0, 0.0016577169112441217
732.0, 0.0013003390348539888
733.0, 0.0007245666188385137
734.0, 0.000855583051899938
735.0, 0.0011566556805638869
736.0, 0.0016425319498498915
737.0, 0.0014982634122201045
738.0, 0.0013544345647124652
739.0, 0.0020385237872502025
740.0, 0.0022916689413404064
741.0, 0.0005545599934317682
742.0, 0.0010358703049340107
743.0, 0.0006098295116309855
744.0, 0.0012603108758531864
745.0, 0.000927505263840239
746.0, 0.0008016050669818031
747.0, 0.0014689450630199618
748.0, 0.00020253803707803166
749.0, 0.003173024931683386
750.0, 0.00045289236714147986
751.0, 0.00033288278230474345
752.0, 0.0010447811416156715
753.0, 0.001032910616927906
754.0, 0.0011150491665575229
755.0, 0.0012764251542933223
756.0, 0.0004199474595595208
757.0, 0.0012347706458892599
758.0, 0.0008842040853068852
759.0, 0.001195090134170442
760.0, 0.0010734851688485952
761.0, 0.0042022822332458305
762.0, 0.003175235927157327
763.0, 0.004265957151969334
764.0, 0.004101503211043086
765.0, 0.007477789322770966
766.0, 0.013916504024540147
767.0, 0.01785282199059257
768.0, 0.017260159302956903
769.0, 0.01833049176317579
770.0, 0.02197880633620961
771.0, 0.026612097727714588
772.0, 0.030850186414371223
773.0, 0.033334912188771264
774.0, 0.034315972131322724
775.0, 0.03687968718926147
776.0, 0.041715584457581695
777.0, 0.04314714817512765
778.0, 0.04207088355337934
779.0, 0.04095092273603776
780.0, 0.041585122988888015
781.0, 0.04266514899454389
782.0, 0.039653926476933894
783.0, 0.03898921436417445
784.0, 0.03647874157631598
785.0, 0.034183646027536846
786.0, 0.03331178066612376
787.0, 0.033040562623762086
788.0, 0.031354834119121426
789.0, 0.026666610011283027
790.0, 0.026348185228525826
791.0, 0.02429819726049371
792.0, 0.022954262480822104
793.0, 0.020185645136596455
794.0, 0.01584436427381933
795.0, 0.016815338994090247
796.0, 0.012689951101268308
797.0, 0.00958707908857744
798.0, 0.007245175785196875
799.0, 0.0077572165476131605
800.0, 0.01028989398882214
801.0, 0.012462848699109887
802.0, 0.015401086497115852
803.0, 0.02148436487486944
804.0, 0.023782353831060296
805.0, 0.02719472866452141
806.0, 0.03165775250950495
807.0, 0.03695419675935402
808.0, 0.04521769705415946
809.0, 0.05461488519570933
810.0, 0.05969097381535582
811.0, 0.06996557353894542
812.0, 0.07658616454669344
813.0, 0.08220204213614739
814.0, 0.09068391857492197
815.0, 0.09911178707352555
816.0, 0.1038085460084548
817.0, 0.10550013731560769
818.0, 0.11051142517188983
819.0, 0.11360372917968806
820.0, 0.12106184821799235
821.0, 0.1334419573390527
822.0, 0.1484880416172225
823.0, 0.17153107674056886
824.0, 0.1951856389254565
825.0, 0.2255061429201482
826.0, 0.26029590726071544
827.0, 0.30160504112110237
828.0, 0.35193122666306614
829.0, 0.40701259962736724
830.0, 0.4616947478126591
831.0, 0.5354357570337992
832.0, 0.6117615236558249
833.0, 0.698498819477735
834.0, 0.7879705428212099
835.0, 0.8762048316713873
836.0, 0.9527839856944643
837.0, 0.9931337480185369
838.0, 0.9945141838854644
839.0, 0.9464347141178244
840.0, 0.8590978545454696
841.0, 0.7536854579360008
842.0, 0.6407508534287825
843.0, 0.5321653218265291
844.0, 0.4401798309749568
845.0, 0.36358478863212446
846.0, 0.30024533328466063
847.0, 0.24924247419438275
848.0, 0.21266945255312658
849.0, 0.1814588433242956
850.0, 0.1516179327410937
851.0, 0.1274347896280047
852.0, 0.10998643738224036
853.0, 0.0991522417363276
854.0, 0.08454640354789889
855.0, 0.07696419150667713
856.0, 0.07001457195102462
857.0, 0.06188056730419689
858.0, 0.057084287327839225
859.0, 0.05617221557192914
860.0, 0.05552362049282415
861.0, 0.05489553912571227
862.0, 0.05764633559596607
863.0, 0.06168371108563472
864.0, 0.06472633849635179
865.0, 0.06942361151601653
866.0, 0.07789187072222838
867.0, 0.08326138997744056
868.0, 0.09427516513985089
869.0, 0.10495717360720136
870.0, 0.113585135232993
871.0, 0.12701863535533228
872.0, 0.14442720708639584
873.0, 0.16104023033824694
874.0, 0.17899594924663031
875.0, 0.1979379045271221
876.0, 0.21451757566317875
877.0, 0.2280089330558565
878.0, 0.23730867777360734
879.0, 0.23866106584652658
880.0, 0.22552518105275163
881.0, 0.1988548822639935
882.0, 0.17157285514640644
883.0, 0.1372871557870912
884.0, 0.11110098537013503
885.0, 0.0884069474128172
886.0, 0.06978979684951943
887.0, 0.05479715433715113
888.0, 0.04202867399395121
889.0, 0.034316801813843084
890.0, 0.029641331191636658
891.0, 0.02237584169978938
892.0, 0.017017601186918793
893.0, 0.014219934564494795
894.0, 0.010698599572923788
895.0, 0.008307238882564148
896.0, 0.008053355218125703
897.0, 0.003124164189585332
898.0, 0.004166784338942055
899.0, 0.00042480988268575755
900.0, 0.001976571934105457
901.0, 0.0030818830855544616
902.0, 0.000756795487094303
903.0, 0.002448861253877646
904.0, 0.00012060388841100982
905.0, 0.0013884767826719692
906.0, 0.001258252456144095
907.0, 0.0013478097375861434
908.0, 0.0008212053385512055
909.0, 0.0014883642585487224
910.0, 0.0031561229476949055
911.0, 0.0025549215756635454
912.0, 0.003056012421588323
913.0, 0.0015924028078311094
914.0, 0.004759845098103477
915.0, 0.0023866983851415858
916.0, 0.0024412912210557613
917.0, 0.002852893117181176
918.0, 0.0017483042690895343
919.0, 0.0007787972456809718
920.0, 0.00036321119377007876
921.0, 0.00031805296156758617
922.0, 0.00250267717978513
923.0, 0.004228857850737122
924.0, 0.0047460923549958135
925.0, 0.005399852791015026
926.0, 0.005778039189434506
927.0, 0.005490078951636039
928.0, 0.006601093124425253
929.0, 0.009821955894936068
930.0, 0.011906880682805607
931.0, 0.012919941970716976
932.0, 0.014428729376773827
933.0, 0.01673813949743949
934.0, 0.017857122432033752
935.0, 0.017948589653876027
936.0, 0.018739285477724195
937.0, 0.015202802765921444
938.0, 0.009216640789460002
939.0, 0.007675094338080869
940.0, 0.00716584353381441
941.0, 0.007101811079622638
942.0, 0.008070261277998437
943.0, 0.006790778665914931
944.0, 0.0011250602610775556
945.0, 0.0012042376132635935
946.0, 0.0035802699876074226
947.0, 0.005027357592378719
948.0, 0.003578239717629661
949.0, 0.0024274942609149373
950.0, 0.00195632079310974
951.0, 0.001745218299638281
952.0, 0.0034217010412382126
953.0, 0.00558913411241533
954.0, 0.0023118025914860884
955.0, 0.0044883996895482645
956.0, 0.005593848621855957
957.0, 0.0018687868114933988
958.0, 0.001493670137353978
959.0, 0.003940959647488789
960.0, 0.0017337408717889894
961.0, 0.0024259171022836365
962.0, 0.004357308205590411
963.0, 0.003211254882766868
964.0, 0.0007834714215551959
965.0, 0.00022594880632975265
966.0, 0.001357807520817787
967.0, 0.0029745730097804255
968.0, 0.0026016868539422513
969.0, 0.0006886037741254763
970.0, 0.001984207796142156
971.0, 0.00333466057213538
972.0, 0.0020036904068612338
973.0, 0.00042731387891977606
974.0, 0.0015094584973748557
975.0, 0.0031773722953989127
976.0, 0.0025800972623713967
977.0, 0.001619022330999131
978.0, 0.0031823664698609803
979.0, 0.0002491390256584492
980.0, 0.007450228594409622
981.0, 0.006464313218868344
982.0, 0.0036955604873784523
983.0, 0.005765395861743774
984.0, 0.006205473863768107
985.0, 0.002566608056767254
986.0, 0.0051081398793323745
987.0, 0.004468234196157021
988.0, 0.0042232435976170225
989.0, 0.005445666117457219
990.0, 0.005276491259870327
991.0, 0.004100206633964534
992.0, 0.004066578448605519
993.0, 0.004043920901723604
994.0, 0.0027959267940177316
995.0, 0.004267482366866333
996.0, 0.008466135801866824
997.0, 0.004886929522219424
998.0, 0.0035901825291690228
999.0, 0.006222192529199715
1000.0, 0.007210510176371818
1001.0, 0.006798243658183704
1002.0, 0.008584821371046037
1003.0, 0.010309587074341637
1004.0, 0.00801680047140393
1005.0, 0.008905157608034049
1006.0, 0.009432865252711156
1007.0, 0.010364363614597596
1008.0, 0.00788219923823677
1009.0, 0.008554374632873606
1010.0, 0.009444865826041055
1011.0, 0.007309460804877594
1012.0, 0.007872569236858962
1013.0, 0.007590216140973211
1014.0, 0.009632021265393614
1015.0, 0.006361816401017971
1016.0, 0.0059296021366354555
1017.0, 0.004175640876118634
1018.0, 0.004534033613939241
1019.0, 0.007491362793412718
1020.0, 0.007317705785517217
1021.0, 0.0036125944420525805
1022.0, 0.004140128369100971
1023.0, 0.0039054963791813543
1024.0, 0.0026533986607054664
1025.0, 0.0011728659044932968
1026.0, 0.0006139842256976621
1027.0, 0.0010365976512228862
1028.0, 0.0024650569122956515
1029.0, 0.0021275590045571526
1030.0, 0.0030628753549888804
1031.0, 0.0022661326644804773
1032.0, 0.0027338637217976898
1033.0, 0.0019837813163023996
1034.0, 0.004989476769397358
1035.0, 0.003762917825470097
1036.0, 0.002271896652993092
1037.0, 0.0021065341880397662
1038.0, 0.001898054657881307
1039.0, 0.001999523597456808
1040.0, 0.0019726588720026523
1041.0, 0.0003281121767490217
1042.0, 0.00018114942392370617
1043.0, 0.00013544846272471744
1044.0, 0.0003518699860274997
1045.0, 0.0003167117823884886
1046.0, 0.00011416749561433717
1047.0, 7.845833357794404e-05
1048.0, 0.0014751830228308905
1049.0, 0.003041325064597183
1050.0, 0.0028042373140727992
1051.0, 0.006511443357856487
1052.0, 0.00332417652068859
1053.0, 0.0013675302464511983
1054.0, 0.0023214495475705503
1055.0, 0.002622976258362753
1056.0, 0.0007808602001731842
1057.0, 0.0012469709710918985
1058.0, 0.004191369159478486
1059.0, 0.0028872043693614195
1060.0, 0.0049308342135874
1061.0, 0.0024342240513802156
1062.0, 0.00392802751810889
1063.0, 0.0031435933873652927
1064.0, 0.0027726399573954415
1065.0, 0.002427083565565567
1066.0, 0.0019922641626536402
1067.0, 0.001266815150594146
1068.0, 0.0004334395177456341
1069.0, 0.002123919093986133
1070.0, 0.0030339724151296856
1071.0, 0.0023361470489787874
1072.0, 0.0013897857422921866
1073.0, 0.0031316222024130144
1074.0, 0.002089144565971102
1075.0, 0.0008207082130449537
1076.0, 0.0010985919179087999
1077.0, 0.0005163576076411548
1078.0, 0.0010784663857515606
1079.0, 0.002899635212203352
1080.0, 0.0044578942343570386
1081.0, 0.0024381070412093004
1082.0, 0.0032694981505203904
1083.0, 0.0018275451983116226
1084.0, 0.0004349191467384342
1085.0, 0.0003073216310429693
1086.0, 0.0013549005816882627
1087.0, 0.002539264373057279
1088.0, 0.00142700444764318
1089.0, 0.005339821377622653
1090.0, 0.004367525150135459
1091.0, 0.0044387979030867065
1092.0, 0.0039960059817937005
1093.0, 0.0029545759321241206
1094.0, 0.002814342729597698
1095.0, 0.0018277624249390147
1096.0, 0.0013750453925399336
1097.0, 0.003074179700709719
1098.0, 0.0034245850888327102
1099.0, 0.0038527441657760257
1100.0, 0.005839989180688771
1101.0, 0.0032135808464706607
1102.0, 0.0011328053914088014
1103.0, 0.0006833176549250446
1104.0, 0.0002543899021337786
1105.0, 0.0003366211042773399
1106.0, 0.001264016891645807
1107.0, 0.0017802583412531194
1108.0, 0.0017777588556897523
1109.0, 0.00041270130378678004
1110.0, 0.0025649683893391698
1111.0, 0.0008875120697100212
1112.0, 0.0027472469362944583
1113.0, 0.003452461388437562
1114.0, 0.004915874883988499
1115.0, 0.0012418667987140687
1116.0, 0.0005341439674325066
1117.0, 0.003046491928595875
1118.0, 0.0016099152292162811
1119.0, 0.0012786751449773582
1120.0, 0.004061421012633047
1121.0, 0.0009552335020510666
1122.0, 0.0018648382807259507
1123.0, 0.0011603169596287083
1124.0, 0.002512753203500604
1125.0, 0.003752123067152148
1126.0, 0.0006452310083354856
1127.0, 0.0006964186119334987
1128.0, 0.00297839501603575
1129.0, 0.00017660165211053167
1130.0, 0.0014771759258966923
1131.0, 0.0025459401030529525
1132.0, 0.003248011003464681
1133.0, 0.0020160720500910436
1134.0, 0.004449386707683782
1135.0, 0.003330641001216978
1136.0, 0.001960133112498077
1137.0, 0.0013619804946415756
1138.0, 0.00045966610670725595
1139.0, 0.0020931367176254606
1140.0, 0.005095878730171794
1141.0, 0.0035309459838528743
1142.0, 0.004790056358110948
1143.0, 0.003043060086664115
1144.0, 0.0032066024296275955
1145.0, 0.002823011688001553
1146.0, 0.0008861148284615544
1147.0, 9.839865714548232e-05
1148.0, 0.0016324306226415252
1149.0, 0.0014748817449053665
1150.0, 0.0013180360973590432
1151.0, 0.004883225151819869
1152.0, 0.0030797978578002675
1153.0, 0.0008307893143841204
1154.0, 0.002620293996238257
1155.0, 0.0040872245837254234
1156.0, 0.0028565495138233926
1157.0, 0.002253013940006191
1158.0, 0.0006475970551359797
1159.0, 0.0006216155243089989
1160.0, 0.0008616150150753785
1161.0, 0.002824496043069825
1162.0, 0.002111480820834415
1163.0, 0.00042224012859634895
1164.0, 0.0023241700321217345
1165.0, 0.0015808211896156225
1166.0, 0.001709873456097401
1167.0, 0.0032678077353323325
1168.0, 0.004054577653266641
1169.0, 0.0020451577925029857
1170.0, 0.0009595669622049626
1171.0, 0.002574568873277841
1172.0, 0.004435851918528137
1173.0, 0.002811955363518818
1174.0, 0.0006832287933973997
1175.0, 0.0013477332080625035
1176.0, 0.004197464637061758
1177.0, 0.0032867343910692164
1178.0, 0.004476680374392024
1179.0, 0.0023212535273597723
1180.0, 0.004420853865103465
1181.0, 0.005060913637482492
1182.0, 0.0035732929261725714
1183.0, 0.002650834098572118
1184.0, 0.001294032279726542
1185.0, 0.0003756008886732165
1186.0, 0.0010494989393442836
1187.0, 0.00019990547199704356
1188.0, 0.001291535523294014
1189.0, 0.00383837561516772
1190.0, 0.0007855348451423397
1191.0, 0.002926466687638879
1192.0, 0.0025562705803136953
1193.0, 0.002742920719716797
1194.0, 0.002563506050010861
1195.0, 0.0012516480090763176
1196.0, 0.0022780126083333163
1197.0, 0.0036694302202934233
1198.0, 0.0019096956465708957
1199.0, 0.0013471407109408855
1200.0, 0.001965230493014639
1201.0, 0.002878131964726234
1202.0, 0.004900763700097861
1203.0, 0.00316375498683264
1204.0, 0.005672535596872798
1205.0, 0.0026266772849284402
1206.0, 0.000516300549016841
1207.0, 0.0033649778279286834
1208.0, 0.004505482659729421
1209.0, 0.003821160011014035
1210.0, 0.004557201184672641
1211.0, 0.002054884283480215
1212.0, 0.0036600710248849877
1213.0, 0.0032885329786109057
1214.0, 0.0021850913922137867
1215.0, 0.005276788926831812
1216.0, 0.0041453625394703535
1217.0, 0.0016726284464008891
1218.0, 0.0019782696967868825
1219.0, 0.002539357700650386
1220.0, 0.002546160198226115
1221.0, 0.003706145731010224
1222.0, 0.004213294626256756
1223.0, 0.002581345333081062
1224.0, 0.004208316451420599
1225.0, 0.007303749008295536
1226.0, 0.002851519608269271
1227.0, 0.004485812875974268
1228.0, 0.00424921089140453
1229.0, 0.0017311153863136613
1230.0, 0.0006623773548650491
1231.0, 0.002363702853087088
1232.0, 0.0027076580327319855
1233.0, 0.0026348423012173905
1234.0, 0.004865215975424717
1235.0, 0.005971341578434822
1236.0, 0.0034954549494414138
1237.0, 0.0029319970727091148
1238.0, 0.0038575582294249153
1239.0, 0.0005623457914784174
1240.0, 0.0034111990242280993
1241.0, 0.003312651872374113
1242.0, 0.004117345498417383
1243.0, 0.0037587964267952814
1244.0, 0.006063186924493853
1245.0, 0.007439342394920465
1246.0, 0.0054801388465496505
1247.0, 0.004026834968175546
1248.0, 0.003398644943791754
1249.0, 0.002117100147744707
1250.0, 0.0020918603935533957
1251.0, 0.0019388449406241217
1252.0, 0.0030728409135634604
1253.0, 0.0010184077537925148
1254.0, 0.003708107368929197
1255.0, 0.006524681628228687
1256.0, 0.0026435914336969592
1257.0, 0.0007581074868586919
1258.0, 0.002572101177173403
1259.0, 0.003347610092538757
1260.0, 0.0031721999859006807
1261.0, 0.0036946963873893306
1262.0, 0.004371560849288998
1263.0, 0.004296336980861042
1264.0, 0.002588652897066207
1265.0, 8.274932275247847e-05
1266.0, 0.0011671394406100597
1267.0, 0.0019437694136921865
1268.0, 0.003344247260863661
1269.0, 0.004468375407045221
1270.0, 0.005509804679657292
1271.0, 0.0029197878015648406
1272.0, 0.0055765201529352154
1273.0, 0.0021715659411954647
1274.0, 0.0004189780874128773
1275.0, 0.002513071377727127
1276.0, 0.0037705073108458454
1277.0, 0.005452122201549011
1278.0, 0.005078077289006794
1279.0, 0.0008188622550189368
1280.0, 0.0028595809639789787
1281.0, 0.0013941459450631604
1282.0, 0.003773597574431417
1283.0, 0.004633182789266431
1284.0, 0.0025156650217173096
1285.0, 0.0042739862887242715
1286.0, 0.000991576554739631
1287.0, 0.002157303581309011
1288.0, 0.0017549461556679797
1289.0, 0.00014963040135004019
1290.0, 0.002226633326355071
1291.0, 0.004801546571205202
1292.0, 0.004597757667635373
1293.0, 0.00339524578937201
1294.0, 0.005255194611517965
1295.0, 0.0020839724534715866
1296.0, 0.0008810751169228416
1297.0, 0.0001265685210430625
1298.0, 0.0015289231535780426
1299.0, 0.0018961703192361867
1300.0, 0.002675207668306556
1301.0, 0.0017695561668885377
1302.0, 0.002130563413640964
1303.0, 5.677462504827355e-05
1304, 0.0
1305, 0.0
1306, 0.0
1307, 0.0
1308, 0.0
1309, 0.0
1310, 0.0
1311, 0.0
1312, 0.0
1313, 0.0
1314, 0.0
1315, 0.0
1316, 0.0
1317, 0.0
1318, 0.0
1319, 0.0
1320, 0.0
1321, 0.0
1322, 0.0
1323, 0.0
1324, 0.0
1325, 0.0
1326, 0.0
1327, 0.0
1328, 0.0
1329, 0.0
1330, 0.0
1331, 0.0
1332, 0.0
1333, 0.0
1334, 0.0
1335, 0.0
1336, 0.0
1337, 0.0
1338, 0.0
1339, 0.0
1340, 0.0
1341, 0.0
1342, 0.0
1343, 0.0
1344, 0.0
1345, 0.0
1346, 0.0
1347, 0.0
1348, 0.0
1349, 0.0
1350, 0.0
1351, 0.0
1352, 0.0
1353, 0.0
1354, 0.0
1355, 0.0
1356, 0.0
1357, 0.0
1358, 0.0
1359, 0.0
1360, 0.0
1361, 0.0
1362, 0.0
1363, 0.0
1364, 0.0
1365, 0.0
1366, 0.0
1367, 0.0
1368, 0.0
1369, 0.0
1370, 0.0
1371, 0.0
1372, 0.0
1373, 0.0
1374, 0.0
1375, 0.0
1376, 0.0
1377, 0.0
1378, 0.0
1379, 0.0
1380, 0.0
1381, 0.0
1382, 0.0
1383, 0.0
1384, 0.0
1385, 0.0
1386, 0.0
1387, 0.0
1388, 0.0
1389, 0.0
1390, 0.0
1391, 0.0
1392, 0.0
1393, 0.0
1394, 0.0
1395, 0.0
1396, 0.0
1397, 0.0
1398, 0.0
1399, 0.0
1400, 0.0
1401, 0.0
1402, 0.0
1403, 0.0
1404, 0.0
1405, 0.0
1406, 0.0
1407, 0.0
1408, 0.0
1409, 0.0
1410, 0.0
1411, 0.0
1412, 0.0
1413, 0.0
1414, 0.0
1415, 0.0
1416, 0.0
1417, 0.0
1418, 0.0
1419, 0.0
1420, 0.0
1421, 0.0
1422, 0.0
1423, 0.0
1424, 0.0
1425, 0.0
1426, 0.0
1427, 0.0
1428, 0.0
1429, 0.0
1430, 0.0
1431, 0.0
1432, 0.0
1433, 0.0
1434, 0.0
1435, 0.0
1436, 0.0
1437, 0.0
1438, 0.0
1439, 0.0
1440, 0.0
1441, 0.0
1442, 0.0
1443, 0.0
1444, 0.0
1445, 0.0
1446, 0.0
1447, 0.0
1448, 0.0
1449, 0.0
1450, 0.0
1451, 0.0
1452, 0.0
1453, 0.0
1454, 0.0
1455, 0.0
1456, 0.0
1457, 0.0
1458, 0.0
1459, 0.0
1460, 0.0
1461, 0.0
1462, 0.0
1463, 0.0
1464, 0.0
1465, 0.0
1466, 0.0
1467, 0.0
1468, 0.0
1469, 0.0
1470, 0.0
1471, 0.0
1472, 0.0
1473, 0.0
1474, 0.0
1475, 0.0
1476, 0.0
1477, 0.0
1478, 0.0
1479, 0.0
1480, 0.0
1481, 0.0
1482, 0.0
1483, 0.0
1484, 0.0
1485, 0.0
1486, 0.0
1487, 0.0
1488, 0.0
1489, 0.0
1490, 0.0
1491, 0.0
1492, 0.0
1493, 0.0
1494, 0.0
1495, 0.0
1496, 0.0
1497, 0.0
1498, 0.0
1499, 0.0
1500, 0.0
1501, 0.0
1502, 0.0
1503, 0.0
1504, 0.0
1505, 0.0
1506, 0.0
1507, 0.0
1508, 0.0
1509, 0.0
1510, 0.0
1511, 0.0
1512, 0.0
1513, 0.0
1514, 0.0
1515, 0.0
1516, 0.0
1517, 0.0
1518, 0.0
1519, 0.0
1520, 0.0
1521, 0.0
1522, 0.0
1523, 0.0
1524, 0.0
1525, 0.0
1526, 0.0
1527, 0.0
1528, 0.0
1529, 0.0
1530, 0.0
1531, 0.0
1532, 0.0
1533, 0.0
1534, 0.0
1535, 0.0
1536, 0.0
1537, 0.0
1538, 0.0
1539, 0.0
1540, 0.0
1541, 0.0
1542, 0.0
1543, 0.0
1544, 0.0
1545, 0.0
1546, 0.0
1547, 0.0
1548, 0.0
1549, 0.0
1550, 0.0
1551, 0.0
1552, 0.0
1553, 0.0
1554, 0.0
1555, 0.0
1556, 0.0
1557, 0.0
1558, 0.0
1559, 0.0
1560, 0.0
1561, 0.0
1562, 0.0
1563, 0.0
1564, 0.0
1565, 0.0
1566, 0.0
1567, 0.0
1568, 0.0
1569, 0.0
1570, 0.0
1571, 0.0
1572, 0.0
1573, 0.0
1574, 0.0
1575, 0.0
1576, 0.0
1577, 0.0
1578, 0.0
1579, 0.0
1580, 0.0
1581, 0.0
1582, 0.0
1583, 0.0
1584, 0.0
1585, 0.0
1586, 0.0
1587, 0.0
1588, 0.0
1589, 0.0
1590, 0.0
1591, 0.0
1592, 0.0
1593, 0.0
1594, 0.0
1595, 0.0
1596, 0.0
1597, 0.0
1598, 0.0
1599, 0.0
