30, 0.0
31, 0.0
32, 0.0
33, 0.0
34, 0.0
35, 0.0
36, 0.0
37, 0.0
38, 0.0
39, 0.0
40, 0.0
41, 0.0
42, 0.0
43, 0.0
44, 0.0
45, 0.0
46, 0.0
47, 0.0
48, 0.0
49, 0.0
50, 0.0
51, 0.0
52, 0.0
53, 0.0
54, 0.0
55, 0.0
56, 0.0
57, 0.0
58, 0.0
59, 0.0
60, 0.0
61, 0.0
62, 0.0
63, 0.0
64, 0.0
65, 0.0
66, 0.0
67, 0.0
68, 0.0
69, 0.0
70, 0.0
71, 0.0
72, 0.0
73, 0.0
74, 0.0
75, 0.0
76, 0.0
77, 0.0
78, 0.0
79, 0.0
80, 0.0
81, 0.0
82, 0.0
83, 0.0
84, 0.0
85, 0.0
86, 0.0
87, 0.0
88, 0.0
89, 0.0
90, 0.0
91, 0.0
92, 0.0
93, 0.0
94, 0.0
95, 0.0
96, 0.0
97, 0.0
98, 0.0
99, 0.0
100, 0.0
101, 0.0
102, 0.0
103, 0.0
104, 0.0
105, 0.0
106, 0.0
107, 0.0
108, 0.0
109, 0.0
110, 0.0
111, 0.0
112, 0.0
113, 0.0
114, 0.0
115, 0.0
116, 0.0
117, 0.0
118, 0.0
119, 0.0
120, 0.0
121, 0.0
122, 0.0
123, 0.0
124, 0.0
125, 0.0
126, 0.0
127, 0.0
128, 0.0
129, 0.0
130, 0.0
131, 0.0
132, 0.0
133, 0.0
134, 0.0
135, 0.0
136, 0.0
137, 0.0
138, 0.0
139, 0.0
140, 0.0
141, 0.0
142, 0.0
143, 0.0
144, 0.0
145, 0.0
146, 0.0
147, 0.0
148, 0.0
149, 0.0
150, 0.0
151, 0.0
152, 0.0
153, 0.0
154, 0.0
155, 0.0
156, 0.0
157, 0.0
158, 0.0
159, 0.0
160, 0.0
161, 0.0
162, 0.0
163, 0.0
164, 0.0
165, 0.0
166, 0.0
167, 0.0
168, 0.0
169, 0.0
170, 0.0
171, 0.0
172, 0.0
173, 0.0
174, 0.0
175, 0.0
176, 0.0
177, 0.0
178, 0.0
179, 0.0
180, 0.0
181, 0.0
182, 0.0
183.0, 0.0002999282219652259
184.0, 0.0049758600582127015
185.0, 0.012595425655842265
186.0, 0.011535812568116326
187.0, 0.013497005458010193
188.0, 0.019915785802890752
189.0, 0.032200844584402165
190.0, 0.020812884450666036
191.0, 0.024812713306731283
192.0, 0.03546690534485378
193.0, 0.03576656741745517
194.0, 0.03784155766388011
195.0, 0.04219437126769751
196.0, 0.047996669107228274
197.0, 0.047660535303079524
198.0, 0.04656206608011986
199.0, 0.0453882914397292
200.0, 0.04461519008421038
201.0, 0.04502669365457134
202.0, 0.04223873137806531
203.0, 0.03815948745743334
204.0, 0.03734666439395459
205.0, 0.03679605972720567
206.0, 0.03664516367607705
207.0, 0.03675873378899999
208.0, 0.0355019709936142
209.0, 0.034589810048444504
210.0, 0.033184968216862766
211.0, 0.03055710821035923
212.0, 0.03078669906086774
213.0, 0.02820000149059959
214.0, 0.024354369857800904
215.0, 0.023304160740457294
216.0, 0.027641022213680935
217.0, 0.03106606609932986
218.0, 0.032807970379113205
219.0, 0.039620939005767186
220.0, 0.04674334897073242
221.0, 0.054067813478637594
222.0, 0.06154560601520193
223.0, 0.06981394441738173
224.0, 0.07748006369368858
225.0, 0.0826034151194327
226.0, 0.08048486755035221
227.0, 0.08154456243929947
228.0, 0.08222333266711061
229.0, 0.08194518250599778
230.0, 0.0819644986546096
231.0, 0.0744242009713854
232.0, 0.06725050722242551
233.0, 0.06538486246347988
234.0, 0.0625861970700634
235.0, 0.055719696160480454
236.0, 0.04860479386152372
237.0, 0.048049097692510236
238.0, 0.04469607838472992
239.0, 0.04181135054915899
240.0, 0.04004584503541131
241.0, 0.040161698021531765
242.0, 0.03963074099725674
243.0, 0.0423093687622455
244.0, 0.04991961986653061
245.0, 0.051207914841139214
246.0, 0.06385887453651022
247.0, 0.0782375291333744
248.0, 0.08256397918279328
249.0, 0.08741530179335219
250.0, 0.11076876522729134
251.0, 0.14619936749380982
252.0, 0.16875778219885643
253.0, 0.205178312706795
254.0, 0.250086194810109
255.0, 0.3019716879416029
256.0, 0.3581752876578422
257.0, 0.4161412193862443
258.0, 0.4729660952457892
259.0, 0.5262332288747591
260.0, 0.5706017804986997
261.0, 0.6221126897880999
262.0, 0.6688616918637983
263.0, 0.6858919331220683
264.0, 0.7042675281441716
265.0, 0.7208807073656662
266.0, 0.716445405968925
267.0, 0.5962681165376401
268.0, 0.494803003258287
269.0, 0.4170825224742181
270.0, 0.3649197645625468
271.0, 0.2945373860128206
272.0, 0.25504910896942723
273.0, 0.2238636377936833
274.0, 0.17884487126540524
275.0, 0.14995608489592444
276.0, 0.12441617184547513
277.0, 0.10407957373821533
278.0, 0.09603948546384103
279.0, 0.08055706653195162
280.0, 0.06272947043058452
281.0, 0.047658370478333816
282.0, 0.05945319991871341
283.0, 0.04814588776675956
284.0, 0.04411811719383437
285.0, 0.06099213993266324
286.0, 0.05451771257780805
287.0, 0.05813137491802972
288.0, 0.07057239391224218
289.0, 0.09175129303641442
290.0, 0.11579897766699133
291.0, 0.14439343354088854
292.0, 0.17929320143222627
293.0, 0.2253403917831321
294.0, 0.25804603004354765
295.0, 0.2985346384289358
296.0, 0.3437128464678059
297.0, 0.3552201351072057
298.0, 0.37425531433197556
299.0, 0.3950744608435576
300.0, 0.4063901124047299
301.0, 0.25805374353273414
302.0, 0.17917057671580897
303.0, 0.13451907630619156
304.0, 0.09654550255911389
305.0, 0.07055052363730312
306.0, 0.05531652057778751
307.0, 0.045292620735467075
308.0, 0.03105156878785704
309.0, 0.0220509255711057
310.0, 0.014744037210559002
311.0, 0.00869335998746075
312.0, 0.004193311185847353
313.0, 0.0024640495698533397
314.0, 0.0032096079869017554
315.0, 0.005709124756489806
316.0, 0.004000623526305857
317.0, 0.0045689550251100846
318.0, 0.007638737751513569
319.0, 0.01316556775824915
320.0, 0.00511366524770107
321.0, 0.005218942190759615
322.0, 0.009307262648842577
323.0, 0.01306897954992236
324.0, 0.012629082015827974
325.0, 0.009935542264210914
326.0, 0.010054855310264262
327.0, 0.023880432739123235
328.0, 0.010831705598553436
329.0, 0.008309582979610961
330.0, 0.01577592111748503
331.0, 0.007976864120598899
332.0, 0.013860471316551947
333.0, 0.0140261094336032
334.0, 0.005448241120102732
335.0, 0.015214751076100225
336.0, 0.012211724381356726
337.0, 0.008583150917532438
338.0, 0.011016043233373515
339.0, 0.0158300962400133
340.0, 0.020804995291215152
341.0, 0.024541366999623903
342.0, 0.025521704505522942
343.0, 0.03247185049612805
344.0, 0.03701107260364409
345.0, 0.0428655869990621
346.0, 0.057056160973413796
347.0, 0.06628802833704771
348.0, 0.07406524993106738
349.0, 0.08127870876866704
350.0, 0.08927916278171938
351.0, 0.1014402861773477
352.0, 0.12076054099556215
353.0, 0.14597425149747578
354.0, 0.1672994802487245
355.0, 0.19010681403368496
356.0, 0.2104996784346991
357.0, 0.22601246768955924
358.0, 0.22794159327412372
359.0, 0.2396179309856296
360.0, 0.2455840265330905
361.0, 0.2362796321595667
362.0, 0.21795805122713752
363.0, 0.20586638020056702
364.0, 0.19010734407907032
365.0, 0.16080058259905317
366.0, 0.1552237368408171
367.0, 0.14378238029829926
368.0, 0.12547667841241983
369.0, 0.09918923227429502
370.0, 0.10878853459494613
371.0, 0.10612214183519332
372.0, 0.09804867686669552
373.0, 0.10923792133088853
374.0, 0.10168627343669048
375.0, 0.0997098093926018
376.0, 0.10551950016766105
377.0, 0.11363929936788793
378.0, 0.1048840507952021
379.0, 0.10569303092827136
380.0, 0.1151755260793691
381.0, 0.09044943462566733
382.0, 0.0803175686987277
383.0, 0.07966266895273988
384.0, 0.08526716892821687
385.0, 0.08277857156884362
386.0, 0.0728639827740055
387.0, 0.06715569207121398
388.0, 0.07149002752371744
389.0, 0.0687881291703134
390.0, 0.056964770091302096
391.0, 0.04587639430182181
392.0, 0.04317519279275906
393.0, 0.03379312921244535
394.0, 0.026219898843957
395.0, 0.02509524159203477
396.0, 0.03597634268749576
397.0, 0.025421780392327162
398.0, 0.03279729560929605
399.0, 0.04140210052467482
400.0, 0.024066982181391722
401.0, 0.028532665617083876
402.0, 0.03102088058385776
403.0, 0.0305642100723376
404.0, 0.02866716587635588
405.0, 0.04265809057726761
406.0, 0.04818149678785393
407.0, 0.04436369174038015
408.0, 0.03645517010810909
409.0, 0.05705864690683814
410.0, 0.07305041768351316
411.0, 0.08403619154896379
412.0, 0.10996001651347373
413.0, 0.13434704566992142
414.0, 0.15126636432159438
415.0, 0.1683218927506588
416.0, 0.2284027174074449
417.0, 0.26257276369590893
418.0, 0.28047929423103823
419.0, 0.28826783514944154
420.0, 0.3069295872175929
421.0, 0.31988332863971874
422.0, 0.31135389076086073
423.0, 0.27527799599750374
424.0, 0.21992600794530015
425.0, 0.1847332435397715
426.0, 0.16179889248459545
427.0, 0.1461390396518537
428.0, 0.12010154262989026
429.0, 0.10868104694995295
430.0, 0.09689034786864191
431.0, 0.07720046600986136
432.0, 0.07635568722385633
433.0, 0.09072932190936067
434.0, 0.10701903308616284
435.0, 0.11575319990337682
436.0, 0.1145930335329568
437.0, 0.11912828885504152
438.0, 0.1274407440792738
439.0, 0.13794151206851726
440.0, 0.14262522771993044
441.0, 0.1676875009809543
442.0, 0.18864457168573973
443.0, 0.18188624161139347
444.0, 0.2057163944423516
445.0, 0.23892062731966338
446.0, 0.27254073465992246
447.0, 0.29679271891146314
448.0, 0.3685361339251877
449.0, 0.42371693687219675
450.0, 0.46997998446484873
451.0, 0.5177717439439384
452.0, 0.5867023844968511
453.0, 0.6551158297871863
454.0, 0.7110414362713892
455.0, 0.7388809336499595
456.0, 0.7154673907257931
457.0, 0.718686088014723
458.0, 0.7294904584652776
459.0, 0.7158082488478509
460.0, 0.725152065746207
461.0, 0.7074931771594019
462.0, 0.6724389065277183
463.0, 0.6380344719204821
464.0, 0.6139031933089402
465.0, 0.5724882607925372
466.0, 0.5151527744298698
467.0, 0.446072645315195
468.0, 0.4171874230833513
469.0, 0.3775461608884756
470.0, 0.33261426453614057
471.0, 0.296974236130174
472.0, 0.2874224693287543
473.0, 0.25396700838982994
474.0, 0.2196067170656925
475.0, 0.22893777930008635
476.0, 0.2043591628638935
477.0, 0.18643648994646772
478.0, 0.1725950902110681
479.0, 0.1536511297028199
480.0, 0.16447223508665168
481.0, 0.15270164984269557
482.0, 0.12777303017115166
483.0, 0.11106436043662446
484.0, 0.11567123881750259
485.0, 0.10043460404334084
486.0, 0.0790374071767559
487.0, 0.07782691099358117
488.0, 0.06423721197155854
489.0, 0.0618638951565428
490.0, 0.06278917278281858
491.0, 0.0526088803765002
492.0, 0.03373543957405909
493.0, 0.03192376041487465
494.0, 0.03731507433223083
495.0, 0.033727162418247594
496.0, 0.03514917279204027
497.0, 0.030108349290777894
498.0, 0.022751971389247793
499.0, 0.019332101477124296
500.0, 0.027206821364622016
501.0, 0.026535501314857466
502.0, 0.022927671851735512
503.0, 0.024070410971749036
504.0, 0.033119797109167626
505.0, 0.02391399198770676
506.0, 0.01509529062095788
507.0, 0.027880334600178136
508.0, 0.027177369474280195
509.0, 0.029155881010877616
510.0, 0.02978423778371263
511.0, 0.025096487506515646
512.0, 0.03052919895425403
513.0, 0.039570469212602946
514.0, 0.04240829905223062
515.0, 0.03141635643383682
516.0, 0.041155989090504094
517.0, 0.045074719438463653
518.0, 0.055563227887252556
519.0, 0.08045617612671768
520.0, 0.08808202275428836
521.0, 0.0842298549203922
522.0, 0.09117615537665973
523.0, 0.12111334010510759
524.0, 0.14294681468087547
525.0, 0.17714098718507545
526.0, 0.2175889403744488
527.0, 0.2606013347920934
528.0, 0.3020998982666813
529.0, 0.3889407031376859
530.0, 0.4838324626937028
531.0, 0.5760535028910467
532.0, 0.7052906264915512
533.0, 0.7882789974353702
534.0, 0.8633715593965954
535.0, 0.935674351216862
536.0, 0.9611804059976008
537.0, 0.9869382092384097
538.0, 0.9724611937932162
539.0, 0.9095448568784937
540.0, 0.8118698315399361
541.0, 0.7093498119255273
542.0, 0.6114991540690861
543.0, 0.52143552156437
544.0, 0.44232932334735164
545.0, 0.3735257292970209
546.0, 0.3169059449064189
547.0, 0.2685905124943586
548.0, 0.2193171547141025
549.0, 0.18158230615100715
550.0, 0.15627649791804807
551.0, 0.13872317979676826
552.0, 0.12086683186699913
553.0, 0.09702267911447172
554.0, 0.08768426838247555
555.0, 0.082033980799204
556.0, 0.06444090351104297
557.0, 0.06410464450035577
558.0, 0.06157252461483157
559.0, 0.06188856803256873
560.0, 0.0695313832149785
561.0, 0.050842616031573376
562.0, 0.04132986731560953
563.0, 0.04044768754824115
564.0, 0.04540663162628336
565.0, 0.02283515837569951
566.0, 0.017025659936599852
567.0, 0.025447455089426887
568.0, 0.0415268996294768
569.0, 0.02522389310434115
570.0, 0.02198369063309082
571.0, 0.03084718110791193
572.0, 0.04398315125912089
573.0, 0.025805619058751984
574.0, 0.013880549535175285
575.0, 0.020071569527514134
576.0, 0.035258089141229694
577.0, 0.021337449285553377
578.0, 0.01942539858722897
579.0, 0.013510420373407305
580.0, 0.007606391155875609
581.0, 0.01573293578724609
582.0, 0.025287028502407504
583.0, 0.02009188649077144
584.0, 0.015351569686057547
585.0, 0.03485462903624392
586.0, 0.0191073440898704
587.0, 0.006969605268928142
588.0, 0.008271733620722355
589.0, 0.030002816375899195
590.0, 0.021264682010633775
591.0, 0.02534441143041658
592.0, 0.023311449861226546
593.0, 0.006144913526859157
594.0, 0.011659922132770919
595.0, 0.008844526074287883
596.0, 0.012638638542916275
597.0, 0.02592744196478814
598.0, 0.029221182041737917
599.0, 0.012369877188654375
600.0, 0.006346457795612719
601.0, 0.01490413337665793
602.0, 0.02328348425107492
603.0, 0.008886310338853445
604.0, 0.0037205729025834968
605.0, 0.006406779789752508
606.0, 0.004660953577717593
607.0, 0.019004123537172905
608.0, 0.025174820347948122
609.0, 0.020431630617778154
610.0, 0.0038333327082446726
611.0, 0.004361271372122126
612.0, 0.003450437458070076
613.0, 0.0020717102360672994
614.0, 0.0012237085391131534
615.0, 0.0037620016651460546
616.0, 0.002090310427193522
617.0, 0.006517880774413471
618.0, 0.017432952623737518
619.0, 0.009284662182573284
620.0, 0.0066483769943856685
621.0, 0.005726870946588763
622.0, 0.0050641755769778845
623.0, 0.003459257038197546
624.0, 0.015231011103424088
625.0, 0.013183610629145621
626.0, 0.006671932816683681
627.0, 0.018634386274734425
628.0, 0.013397777427294736
629.0, 0.016958964063815956
630.0, 0.020970412451993384
631.0, 0.01579507126600703
632.0, 0.008922461980114647
633.0, 0.016170314710637415
634.0, 0.017685853514130333
635.0, 0.0048669462512668914
636.0, 0.006219379332209042
637.0, 0.002553019784090443
638.0, 0.0005832317513466182
639.0, 0.0018680628708316516
640.0, 0.00363092896739267
641.0, 0.008341585181030313
642.0, 0.012452960989934373
643.0, 0.015070950520391993
644.0, 0.01568551894198542
645.0, 0.02148083994401499
646.0, 0.023097164189138108
647.0, 0.02336125885130662
648.0, 0.02570147656687657
649.0, 0.02201184934572059
650.0, 0.014909452923691838
651.0, 0.008292910475751373
652.0, 0.004327048295847294
653.0, 0.0013634947316528867
654.0, 0.021617022895666332
655.0, 0.027175269882285975
656.0, 0.01747125604572956
657.0, 0.029746080659590127
658.0, 0.012660342682004031
659.0, 0.008405573957461136
660.0, 0.021976701692130403
661.0, 0.050933482074297924
662.0, 0.032677929190551826
663.0, 0.030331014814765973
664.0, 0.03190180775724253
665.0, 0.025886526839283625
666.0, 0.02698473490758056
667.0, 0.01411382250892281
668.0, 0.009396019557259657
669.0, 0.016641861886352294
670.0, 0.004895092360444702
671.0, 0.0022956051470112144
672.0, 0.00915941991571652
673.0, 0.016636616533788184
674.0, 0.0052729731588322445
675.0, 0.020472832489748613
676.0, 0.021461979213322338
677.0, 0.01680847362664427
678.0, 0.019336062213393672
679.0, 0.025007706575259466
680.0, 0.019952480783843297
681.0, 0.016019646768120004
682.0, 0.017605784038877876
683.0, 0.010102950370566076
684.0, 0.024187751716948366
685.0, 0.038524721364021186
686.0, 0.04331417698190959
687.0, 0.028532793847073874
688.0, 0.023185089105191042
689.0, 0.014076999243227134
690.0, 0.0072156603718100025
691.0, 0.011357423729701818
692.0, 0.03566061075243612
693.0, 0.03540179623838195
694.0, 0.03418613324373098
695.0, 0.04492916897644176
696.0, 0.05826324638338032
697.0, 0.04639466749981838
698.0, 0.040211739507248226
699.0, 0.04188289441510116
700.0, 0.03615483648650227
701.0, 0.04952048209581065
702.0, 0.05355142133909692
703.0, 0.055471404426313035
704.0, 0.06505193692020367
705.0, 0.04629515025008422
706.0, 0.057014429135654326
707.0, 0.07574613465516092
708.0, 0.08733922737791663
709.0, 0.07569207776867617
710.0, 0.057920682785710886
711.0, 0.0693194300168778
712.0, 0.08935385982373091
713.0, 0.059418933031482074
714.0, 0.08036575277798477
715.0, 0.07812863076419986
716.0, 0.06849753983681532
717.0, 0.0685828115544026
718.0, 0.05270652766411431
719.0, 0.05160748030588834
720.0, 0.0641222075227203
721.0, 0.08164314967248784
722.0, 0.07504047000233684
723.0, 0.06381930884382017
724.0, 0.06157242852378806
725.0, 0.06191988506251292
726.0, 0.052194101132763605
727.0, 0.0470904257649471
728.0, 0.06361852790319387
729.0, 0.06328653240119367
730.0, 0.032890572661139136
731.0, 0.06020120590532471
732.0, 0.06923602395679102
733.0, 0.06202297351400502
734.0, 0.04755712037247708
735.0, 0.0452353150708254
736.0, 0.03994202293706738
737.0, 0.043602956905401995
738.0, 0.05553223971683164
739.0, 0.07217174455523215
740.0, 0.06960691132966942
741.0, 0.07736021573305356
742.0, 0.07342277819919599
743.0, 0.05852219286499942
744.0, 0.0662450001960912
745.0, 0.08114486611304839
746.0, 0.09679585267863414
747.0, 0.10261521620865244
748.0, 0.08724488114944035
749.0, 0.09372725438468936
750.0, 0.10520772970722403
751.0, 0.11966803163368527
752.0, 0.13781421887859083
753.0, 0.1689960474046291
754.0, 0.1687780569654619
755.0, 0.18302607397255025
756.0, 0.20750348598523582
757.0, 0.2194027600492523
758.0, 0.23470141677858736
759.0, 0.2716378702392225
760.0, 0.30653032157094123
761.0, 0.32741226322056827
762.0, 0.367361855774171
763.0, 0.3970456147115391
764.0, 0.4346389912019743
765.0, 0.48061617818924585
766.0, 0.5262642509773062
767.0, 0.5495613136216403
768.0, 0.6165055640114079
769.0, 0.6670961725753004
770.0, 0.6655851381132978
771.0, 0.7343938451385211
772.0, 0.7038067867876966
773.0, 0.6695990777094781
774.0, 0.6521556464294186
775.0, 0.6319708788063834
776.0, 0.5557576309739268
777.0, 0.5002702629482719
778.0, 0.44757415290176417
779.0, 0.38070560537629206
780.0, 0.32562863787462243
781.0, 0.28021873749072357
782.0, 0.23941391521362282
783.0, 0.20226143440456504
784.0, 0.1702736645532307
785.0, 0.145199889650577
786.0, 0.12369870785666132
787.0, 0.1057204649739631
788.0, 0.09128490437421174
789.0, 0.08076738293479482
790.0, 0.07321230950659209
791.0, 0.06344999891820305
792.0, 0.05399694404838188
793.0, 0.054250315437711145
794.0, 0.051162069424590104
795.0, 0.045040924406918696
796.0, 0.04089340248928699
797.0, 0.041558891323305355
798.0, 0.03649362147870852
799.0, 0.04168599681224434
800.0, 0.03141047574913482
801.0, 0.016995171107264513
802.0, 0.03685747140032647
803.0, 0.030905172414627438
804.0, 0.01946415453065572
805.0, 0.017117731663510875
806.0, 0.02765861340431318
807.0, 0.010273464830919189
808.0, 0.023137365944311133
809.0, 0.022645936916926943
810.0, 0.010861487405073929
811.0, 0.010042703596072615
812.0, 0.008284758420623761
813.0, 0.01777936257381278
814.0, 0.017256842613523834
815.0, 0.0025237614832985767
816.0, 0.0171187969210469
817.0, 0.01715234941239024
818.0, 0.016706621897335548
819.0, 0.015031828204370285
820.0, 0.008430454940720346
821.0, 0.023580506165707962
822.0, 0.014631607942642736
823.0, 0.0070910652912357895
824.0, 0.013758629724486453
825.0, 0.03470875655456612
826.0, 0.029409070364904123
827.0, 0.019060891818817222
828.0, 0.012515051940869099
829.0, 0.015626374356644136
830.0, 0.018462767635650267
831.0, 0.026693978261129778
832.0, 0.028344217174957095
833.0, 0.020080875192650928
834.0, 0.0042051606293490515
835.0, 0.013211975526686523
836.0, 0.008719261083685596
837.0, 0.006684406082258414
838.0, 0.016360461386404998
839.0, 0.010923346345297149
840.0, 0.013495843425834932
841.0, 0.00868983907066536
842.0, 0.006256715231626664
843.0, 0.024958051384939926
844.0, 0.016712875125007447
845.0, 0.017087474731382148
846.0, 0.02071528839473314
847.0, 0.02141423104717946
848.0, 0.008263681037362048
849.0, 0.004872015889079397
850.0, 0.003349196351495938
851.0, 0.0022171086890579086
852.0, 0.0018392891882066673
853.0, 0.012067092108326414
854.0, 0.005099323716139678
855.0, 0.003896787664350908
856.0, 0.010333325119143881
857.0, 0.014445902477254056
858.0, 0.015037130477503005
859.0, 0.01912487381928059
860.0, 0.01696667659563254
861.0, 0.008631665171600317
862.0, 0.01903619286268126
863.0, 0.028359316906274534
864.0, 0.023044906426486565
865.0, 0.013359341128429313
866.0, 0.01205729826846923
867.0, 0.004780490561475986
868.0, 0.00485740814105389
869.0, 0.015202035826524822
870.0, 0.02545960877401299
871.0, 0.012914342361228058
872.0, 0.004710855864668512
873.0, 0.007720419329975788
874.0, 0.010972317234515817
875.0, 0.00935206398077065
876.0, 0.011551752912320138
877.0, 0.012270426517656826
878.0, 0.013998038473962
879.0, 0.01792226774236635
880.0, 0.023783003797433346
881.0, 0.020233098205510384
882.0, 0.02015713774859416
883.0, 0.016998188378595902
884.0, 0.010450974998477618
885.0, 0.003853297090349949
886.0, 0.014314429663044076
887.0, 0.01009342906436516
888.0, 0.005903307702838598
889.0, 0.010865578142741285
890.0, 0.026584508801556855
891.0, 0.013173058106463536
892.0, 0.010708962977019022
893.0, 0.01309724000400197
894.0, 0.012437047114155522
895.0, 0.02060746611214551
896.0, 0.02054949247616799
897.0, 0.013764112723843246
898.0, 0.007126891432276088
899.0, 0.009296313913193091
900.0, 0.0030844397603711146
901.0, 0.008742703193274786
902.0, 0.008825725544221112
903.0, 0.002098759403653093
904.0, 0.002990613012281221
905.0, 0.01965833084639846
906.0, 0.011574019017843475
907.0, 0.0065514530666819955
908.0, 0.019034748665617593
909.0, 0.027225500519145063
910.0, 0.022307133254834424
911.0, 0.012651783565529384
912.0, 0.0051724478991214675
913.0, 0.005942500047967018
914.0, 0.017548119591043142
915.0, 0.009027391617518385
916.0, 0.0074602231605492755
917.0, 0.011935648069744492
918.0, 0.010955317310138192
919.0, 0.005379762415351444
920.0, 0.015514613579353485
921.0, 0.018347810358444336
922.0, 0.01243253662576894
923.0, 0.015213220462727708
924.0, 0.017721811739296517
925.0, 0.021119568151610132
926.0, 0.023057308537903387
927.0, 0.02100316362189429
928.0, 0.011247713921245184
929.0, 0.010686401125432688
930.0, 0.011627426278248358
931.0, 0.01446790104276756
932.0, 0.020849046240598215
933.0, 0.035208442564290135
934.0, 0.012634321720970784
935.0, 0.004431784458418436
936.0, 0.01564881661690893
937.0, 0.03547686448254049
938.0, 0.012667586204056423
939.0, 0.027791444574375424
940.0, 0.03372133807967028
941.0, 0.02467650014948681
942.0, 0.013747581728302313
943.0, 0.022417395090404593
944.0, 0.024116279309615976
945.0, 0.015593369003828001
946.0, 0.005999751216390956
947.0, 0.01649458910115462
948.0, 0.03500958897766069
949.0, 0.035652462259371
950.0, 0.03094046070726852
951.0, 0.027863791090170446
952.0, 0.02550367716999059
953.0, 0.03740135873299137
954.0, 0.0361302422417338
955.0, 0.0326683866268508
956.0, 0.03305200293177641
957.0, 0.025680500776073183
958.0, 0.026696288709976444
959.0, 0.02457858778260211
960.0, 0.019326308716878435
961.0, 0.01354234043178331
962.0, 0.014551156591685913
963.0, 0.013150474728760035
964.0, 0.013052967170053015
965.0, 0.016543157044318878
966.0, 0.024256438672784344
967.0, 0.028761828933053103
968.0, 0.021751374276715852
969.0, 0.023403391546697502
970.0, 0.026457043388784195
971.0, 0.01787930258362555
972.0, 0.02294490725423027
973.0, 0.027331872194688314
974.0, 0.03417686142336019
975.0, 0.03640865427695087
976.0, 0.024775535814083458
977.0, 0.048223171418182983
978.0, 0.05203835397976783
979.0, 0.0419058947921823
980.0, 0.03534988720162514
981.0, 0.0573185913101261
982.0, 0.042906527374935825
983.0, 0.04268233967099701
984.0, 0.06675891826249568
985.0, 0.08630591725358856
986.0, 0.03657321554696895
987.0, 0.07951775178020246
988.0, 0.07662556846066483
989.0, 0.06312954573440319
990.0, 0.06056069628750846
991.0, 0.07647450030261421
992.0, 0.082521036828766
993.0, 0.08911960227480488
994.0, 0.08868155736110417
995.0, 0.08476634970986907
996.0, 0.0970552950007194
997.0, 0.10793345107441538
998.0, 0.10291908259015806
999.0, 0.10234873800029418
1000.0, 0.1035235880686603
1001.0, 0.06388018570332665
1002.0, 0.12035249918202105
1003.0, 0.11062377162569656
1004.0, 0.0970737025727469
1005.0, 0.10731282683629421
1006.0, 0.08723531283042825
1007.0, 0.0997367888125199
1008.0, 0.10837439279129495
1009.0, 0.10795119072603282
1010.0, 0.10374331885909996
1011.0, 0.11809040448902772
1012.0, 0.10511865323026065
1013.0, 0.0991345666892474
1014.0, 0.10135500103652624
1015.0, 0.10657933261006697
1016.0, 0.10122390004065923
1017.0, 0.10351324885289674
1018.0, 0.10894793170964184
1019.0, 0.11099007918654204
1020.0, 0.10536672636752069
1021.0, 0.0919493363907489
1022.0, 0.09430154414418694
1023.0, 0.11212679508975575
1024.0, 0.11363216325917513
1025.0, 0.0966588490689325
1026.0, 0.12271621737675598
1027.0, 0.10830682634568677
1028.0, 0.11423838488192237
1029.0, 0.11988753093841295
1030.0, 0.11794342338259406
1031.0, 0.13653898577723794
1032.0, 0.12876524327596015
1033.0, 0.12485134802719915
1034.0, 0.127306768008442
1035.0, 0.13622857533076957
1036.0, 0.1508124595378204
1037.0, 0.1389440996113909
1038.0, 0.13457939187675627
1039.0, 0.14258288854870546
1040.0, 0.15577355313640143
1041.0, 0.1510750501447755
1042.0, 0.16956861309120258
1043.0, 0.15556211202225514
1044.0, 0.14392336639922917
1045.0, 0.15104555441108092
1046.0, 0.166825237727272
1047.0, 0.15325046456430008
1048.0, 0.15896387906532472
1049.0, 0.15965390411846228
1050.0, 0.15626216506495189
1051.0, 0.17599937579063388
1052.0, 0.15901659772557533
1053.0, 0.15532011998477713
1054.0, 0.15728630598283178
1055.0, 0.1559639795248878
1056.0, 0.14229970487625684
1057.0, 0.13463598078954764
1058.0, 0.13888318995835677
1059.0, 0.14386273184307838
1060.0, 0.14917281115199058
1061.0, 0.1602683843727146
1062.0, 0.16928446245222553
1063.0, 0.17808429448261878
1064.0, 0.17786661540649257
1065.0, 0.17386877676453572
1066.0, 0.1771259928226037
1067.0, 0.19008351496239315
1068.0, 0.18610557424876378
1069.0, 0.2045200620223187
1070.0, 0.2132176097733762
1071.0, 0.1802248248185408
1072.0, 0.20900031485454212
1073.0, 0.23779467729507853
1074.0, 0.2457070838682761
1075.0, 0.24929114278804795
1076.0, 0.26577479007840726
1077.0, 0.28320081501616323
1078.0, 0.2803588933436644
1079.0, 0.2769595917296256
1080.0, 0.29708428937000114
1081.0, 0.3366709744124209
1082.0, 0.32390711476617234
1083.0, 0.3317966762878656
1084.0, 0.33226841336518054
1085.0, 0.34637329534363986
1086.0, 0.3703718340245379
1087.0, 0.3577423569076065
1088.0, 0.37019820958897276
1089.0, 0.374083461790767
1090.0, 0.37108716988242235
1091.0, 0.3702835234051048
1092.0, 0.3854598533110094
1093.0, 0.3834947557709142
1094.0, 0.38131061503152236
1095.0, 0.39055091210764326
1096.0, 0.4095589220449188
1097.0, 0.42444734988872124
1098.0, 0.37775475194160446
1099.0, 0.38316698872385324
1100.0, 0.37241630712872986
1101.0, 0.352990614853738
1102.0, 0.34325744963181853
1103.0, 0.2826370238480613
1104.0, 0.2945193342296489
1105.0, 0.2797470015204939
1106.0, 0.2567966326640066
1107.0, 0.24392828250332857
1108.0, 0.19976574154849705
1109.0, 0.2181260271182774
1110.0, 0.21055917146452166
1111.0, 0.20191248365291647
1112.0, 0.20326125644721812
1113.0, 0.19247857872750368
1114.0, 0.18597689902724301
1115.0, 0.17364643236186753
1116.0, 0.15390001058138278
1117.0, 0.13136944543976278
1118.0, 0.1154812210522533
1119.0, 0.11722089002977706
1120.0, 0.12381649612598297
1121.0, 0.12510024291985744
1122.0, 0.13116724069271724
1123.0, 0.15332602795846376
1124.0, 0.16397249410301046
1125.0, 0.13286051405995183
1126.0, 0.12177837367234821
1127.0, 0.10849474992634166
1128.0, 0.07865929220156008
1129.0, 0.07959269078818296
1130.0, 0.06406148110197467
1131.0, 0.05698134485281058
1132.0, 0.06639252758265532
1133.0, 0.07871050770954523
1134.0, 0.05799698868495977
1135.0, 0.04925280710790404
1136.0, 0.04814122070373926
1137.0, 0.0657920539031869
1138.0, 0.07327308469139082
1139.0, 0.0345161592481263
1140.0, 0.04636802531603461
1141.0, 0.04053971427145119
1142.0, 0.029002384861876052
1143.0, 0.020307711243916435
1144.0, 0.01837895394514893
1145.0, 0.015433464063641851
1146.0, 0.023410695826361138
1147.0, 0.027075662590970828
1148.0, 0.024416070498131888
1149.0, 0.019696386727709535
1150.0, 0.023231916668990233
1151.0, 0.014273517164481216
1152.0, 0.0125006652997994
1153.0, 0.007421053711561059
1154.0, 0.006292616410701915
1155.0, 0.020905307669804713
1156.0, 0.012904038208123313
1157.0, 0.018585105014581133
1158.0, 0.013138596467978372
1159.0, 0.0047151245886474236
1160.0, 0.0033680763570494163
1161.0, 0.0014823353368748357
1162.0, 0.010635160321887386
1163.0, 0.010157280979395049
1164.0, 0.01193972288317244
1165.0, 0.01753798678977326
1166.0, 0.015111458546647725
1167.0, 0.013633323233468516
1168.0, 0.013606412514504009
1169.0, 0.012539814129606624
1170.0, 0.01009992374305195
1171.0, 0.006788113962667458
1172.0, 0.001994004017694212
1173.0, 0.0021970362283573563
1174.0, 0.008939236573996338
1175.0, 0.00920385839459468
1176.0, 0.004595984137581317
1177.0, 0.025124420948813297
1178.0, 0.017533385781357054
1179.0, 0.010369756330897678
1180.0, 0.009476915209701203
1181.0, 0.013941990592303048
1182.0, 0.018233535298551026
1183.0, 0.016787501460705064
1184.0, 0.021124148531141813
1185.0, 0.023748141557404998
1186.0, 0.024845163665258397
1187.0, 0.02486916169902317
1188.0, 0.020498285622632173
1189.0, 0.02671807986593737
1190.0, 0.02040758266515541
1191.0, 0.018730357241563342
1192.0, 0.023933454175539493
1193.0, 0.025238751694264677
1194.0, 0.0304621006808572
1195.0, 0.020231159668998827
1196.0, 0.03452191199509469
1197.0, 0.03979336099096165
1198.0, 0.015412170706027437
1199.0, 0.034100699249472226
1200.0, 0.023043948252506746
1201.0, 0.03205273139495335
1202.0, 0.03317124845998793
1203.0, 0.031408124395386
1204.0, 0.05639074575197717
1205.0, 0.01374492442150042
1206.0, 0.027825199449335314
1207.0, 0.029848820842940528
1208.0, 0.030921177390217155
1209.0, 0.04171827141638892
1210.0, 0.006223018563595431
1211.0, 0.02118397159548668
1212.0, 0.02945285459981557
1213.0, 0.0321362553630105
1214.0, 0.028503146388168858
1215.0, 0.016579054001717
1216.0, 0.025255236114624192
1217.0, 0.034666627179854304
1218.0, 0.02410112072968159
1219.0, 0.015944447871170303
1220.0, 0.025691445259466313
1221.0, 0.02671501261381674
1222.0, 0.024614992795960116
1223.0, 0.03283327036833066
1224.0, 0.038567801332691866
1225.0, 0.0336158040155317
1226.0, 0.02012474422720297
1227.0, 0.039524363798239655
1228.0, 0.03084558724997361
1229.0, 0.015519151190312946
1230.0, 0.010865924778788387
1231.0, 0.019406491906637752
1232.0, 0.020702347805921624
1233.0, 0.02134570308981144
1234.0, 0.01434541666456807
1235.0, 0.02317514320205945
1236.0, 0.03547522667359115
1237.0, 0.028298834408634503
1238.0, 0.01295023327837029
1239.0, 0.03862660492367696
1240.0, 0.04153787907204779
1241.0, 0.031182990270828905
1242.0, 0.024738630177317783
1243.0, 0.03351183402509893
1244.0, 0.01691543667073858
1245.0, 0.021681911192763144
1246.0, 0.024722861154682658
1247.0, 0.026094884258875392
1248.0, 0.030560554721596286
1249.0, 0.036314468073815734
1250.0, 0.031098577359960418
1251.0, 0.02156223809959355
1252.0, 0.01668596574075699
1253.0, 0.01741311018178755
1254.0, 0.018277592517455362
1255.0, 0.010074112046423767
1256.0, 0.014802071453258537
1257.0, 0.008224990093720883
1258.0, 0.005080297631125227
1259.0, 0.015702153367759212
1260.0, 0.03438191084939984
1261.0, 0.012628235302108657
1262.0, 0.011200564243962166
1263.0, 0.01854656045451333
1264.0, 0.025632508928494172
1265.0, 0.030437297966337856
1266.0, 0.0450945481093667
1267.0, 0.015654304662079274
1268.0, 0.00576814531772348
1269.0, 0.007513854091247768
1270.0, 0.016578422674315592
1271.0, 0.026301337728540097
1272.0, 0.002213864684106141
1273.0, 0.007823660759642598
1274.0, 0.010972886802847841
1275.0, 0.010844888275261746
1276.0, 0.01080090898288382
1277.0, 0.014332509710419503
1278.0, 0.02316507118306153
1279.0, 0.008887500528654821
1280.0, 0.01923344691232265
1281.0, 0.02882627445071085
1282.0, 0.019639423020636097
1283.0, 0.015531380419831532
1284.0, 0.010004657195527239
1285.0, 0.006760145548653506
1286.0, 0.010878998140938253
1287.0, 0.014125165933946728
1288.0, 0.009000969654947653
1289.0, 0.004516829066218675
1290.0, 0.004048422885461972
1291.0, 0.006238466467462104
1292.0, 0.01067296863662042
1293.0, 0.013223116970791197
1294.0, 0.010183939346079526
1295.0, 0.008707716149929942
1296.0, 0.004647233196606453
1297.0, 0.0034437414019218844
1298.0, 0.004751876755041513
1299.0, 0.006741064990229532
1300.0, 0.008317914925124553
1301.0, 0.01877821101600468
1302.0, 0.014956093462641373
1303.0, 0.009290572420073213
1304.0, 0.009739766476772061
1305.0, 0.01570179969743672
1306.0, 0.017735286694864558
1307.0, 0.016323124184369087
1308.0, 0.017940709880166415
1309.0, 0.018131396782427575
1310.0, 0.01663097707178482
1311.0, 0.0157095313603405
1312.0, 0.01933556453929519
1313.0, 0.024759427920995045
1314.0, 0.020305826061682398
1315.0, 0.012118045459958508
1316.0, 0.007684083673054573
1317.0, 0.011804657900917403
1318.0, 0.02265283809152844
1319.0, 0.030029752600444645
1320.0, 0.016662600623659738
1321.0, 0.017177099437986877
1322.0, 0.02149706502871843
1323.0, 0.010939621266088682
1324.0, 0.0018603837164192106
1325.0, 0.02614208313865905
1326.0, 0.013836606797699595
1327.0, 0.023369737803621945
1328.0, 0.04055250417010618
1329.0, 0.026495789207339547
1330.0, 0.005014394771641442
1331.0, 0.010789137942345458
1332.0, 0.014817006107792926
1333.0, 0.02589920112742817
1334.0, 0.03120487243067527
1335.0, 0.01785600534401571
1336.0, 0.027959743515522308
1337.0, 0.030343842612805726
1338.0, 0.046543139167855616
1339.0, 0.06456609782646253
1340.0, 0.06395744704867731
1341.0, 0.03785546244268328
1342.0, 0.04729576348591769
1343.0, 0.048282147599686735
1344.0, 0.03640034620777608
1345.0, 0.032841261288024594
1346.0, 0.0406928092206386
1347.0, 0.04601934733835121
1348.0, 0.031042700286506297
1349.0, 0.05438885788716602
1350.0, 0.05856529809603534
1351.0, 0.0454916518148259
1352.0, 0.04060580783485691
1353.0, 0.0653369098817625
1354.0, 0.06820243058080767
1355.0, 0.05759781436269164
1356.0, 0.056478157006262894
1357.0, 0.04947357988875804
1358.0, 0.04219746842715418
1359.0, 0.050851584765136015
1360.0, 0.055251226223597766
1361.0, 0.05083601155150278
1362.0, 0.04946948256935921
1363.0, 0.04723666876682771
1364.0, 0.0401808671118129
1365.0, 0.03163450010379778
1366.0, 0.04876519489872228
1367.0, 0.03500869356927632
1368.0, 0.04244929079550788
1369.0, 0.051989509373288306
1370.0, 0.047931767632480894
1371.0, 0.030442646959027795
1372.0, 0.029380729013937932
1373.0, 0.04419716051061941
1374.0, 0.04048034716574022
1375.0, 0.035888008818636186
1376.0, 0.03940219067927105
1377.0, 0.0456227253647211
1378.0, 0.03080734304394463
1379.0, 0.014197048628490631
1380.0, 0.024378152930896475
1381.0, 0.025667921001446648
1382.0, 0.020058828806909557
1383.0, 0.024011997362097963
1384.0, 0.035499198356421735
1385.0, 0.029757178023067113
1386.0, 0.03532406008995682
1387.0, 0.040101484465911746
1388.0, 0.03172065308652052
1389.0, 0.016181383231660306
1390.0, 0.030209310353945803
1391.0, 0.030582287869761252
1392.0, 0.046495875752228764
1393.0, 0.03024202847551117
1394.0, 0.008102290125217633
1395.0, 0.013074303143776602
1396.0, 0.04192866784923043
1397.0, 0.019210959838678668
1398.0, 0.02132797576164893
1399.0, 0.022709300035488753
1400.0, 0.030041587163802688
1401.0, 0.0380708385683256
1402.0, 0.0258943108203642
1403.0, 0.030936458572546233
1404.0, 0.025429278897640163
1405.0, 0.0188876842490574
1406.0, 0.010968673704892408
1407.0, 0.011304334643123838
1408.0, 0.02774945085397605
1409.0, 0.014332794162606698
1410.0, 0.029092556773529406
1411.0, 0.030504356323919932
1412.0, 0.01768354059503287
1413.0, 0.017800571221257187
1414.0, 0.04052256034867189
1415.0, 0.0014577188023976832
1416.0, 0.026209403657879386
1417.0, 0.027490706957566755
1418.0, 0.026062774755580012
1419.0, 0.019471234560284895
1420.0, 0.012620688329715753
1421.0, 0.04216147084003956
1422.0, 0.023952880065949235
1423.0, 0.020635419035623933
1424.0, 0.012514149660530107
1425.0, 0.011992980944612052
1426.0, 0.023684723113956228
1427.0, 0.02965044505722067
1428.0, 0.011584489176915938
1429.0, 0.0034525029591122064
1430.0, 0.016386829311705837
1431.0, 0.015222353253791355
1432.0, 0.005252992893774901
1433.0, 0.017030827434646362
1434.0, 0.014876894608074504
1435.0, 0.014517029299308122
1436.0, 0.007399154179415819
1437.0, 0.0018150164655569507
1438.0, 6.89938571683645e-06
1439, 0.0
1440, 0.0
1441, 0.0
1442, 0.0
1443, 0.0
1444, 0.0
1445, 0.0
1446, 0.0
1447, 0.0
1448, 0.0
1449, 0.0
1450, 0.0
1451, 0.0
1452, 0.0
1453, 0.0
1454, 0.0
1455, 0.0
1456, 0.0
1457, 0.0
1458, 0.0
1459, 0.0
1460, 0.0
1461, 0.0
1462, 0.0
1463, 0.0
1464, 0.0
1465, 0.0
1466, 0.0
1467, 0.0
1468, 0.0
1469, 0.0
1470, 0.0
1471, 0.0
1472, 0.0
1473, 0.0
1474, 0.0
1475, 0.0
1476, 0.0
1477, 0.0
1478, 0.0
1479, 0.0
1480, 0.0
1481, 0.0
1482, 0.0
1483, 0.0
1484, 0.0
1485, 0.0
1486, 0.0
1487, 0.0
1488, 0.0
1489, 0.0
1490, 0.0
1491, 0.0
1492, 0.0
1493, 0.0
1494, 0.0
1495, 0.0
1496, 0.0
1497, 0.0
1498, 0.0
1499, 0.0
1500, 0.0
1501, 0.0
1502, 0.0
1503, 0.0
1504, 0.0
1505, 0.0
1506, 0.0
1507, 0.0
1508, 0.0
1509, 0.0
1510, 0.0
1511, 0.0
1512, 0.0
1513, 0.0
1514, 0.0
1515, 0.0
1516, 0.0
1517, 0.0
1518, 0.0
1519, 0.0
1520, 0.0
1521, 0.0
1522, 0.0
1523, 0.0
1524, 0.0
1525, 0.0
1526, 0.0
1527, 0.0
1528, 0.0
1529, 0.0
1530, 0.0
1531, 0.0
1532, 0.0
1533, 0.0
1534, 0.0
1535, 0.0
1536, 0.0
1537, 0.0
1538, 0.0
1539, 0.0
1540, 0.0
1541, 0.0
1542, 0.0
1543, 0.0
1544, 0.0
1545, 0.0
1546, 0.0
1547, 0.0
1548, 0.0
1549, 0.0
1550, 0.0
1551, 0.0
1552, 0.0
1553, 0.0
1554, 0.0
1555, 0.0
1556, 0.0
1557, 0.0
1558, 0.0
1559, 0.0
1560, 0.0
1561, 0.0
1562, 0.0
1563, 0.0
1564, 0.0
1565, 0.0
1566, 0.0
1567, 0.0
1568, 0.0
1569, 0.0
1570, 0.0
1571, 0.0
1572, 0.0
1573, 0.0
1574, 0.0
1575, 0.0
1576, 0.0
1577, 0.0
1578, 0.0
1579, 0.0
1580, 0.0
1581, 0.0
1582, 0.0
1583, 0.0
1584, 0.0
1585, 0.0
1586, 0.0
1587, 0.0
1588, 0.0
1589, 0.0
1590, 0.0
1591, 0.0
1592, 0.0
1593, 0.0
1594, 0.0
1595, 0.0
1596, 0.0
1597, 0.0
1598, 0.0
1599, 0.0
