30, 0.0
31, 0.0
32, 0.0
33, 0.0
34, 0.0
35, 0.0
36, 0.0
37, 0.0
38, 0.0
39, 0.0
40, 0.0
41, 0.0
42, 0.0
43, 0.0
44, 0.0
45, 0.0
46, 0.0
47, 0.0
48, 0.0
49, 0.0
50, 0.0
51, 0.0
52, 0.0
53, 0.0
54, 0.0
55, 0.0
56, 0.0
57, 0.0
58, 0.0
59, 0.0
60, 0.0
61, 0.0
62, 0.0
63, 0.0
64, 0.0
65, 0.0
66, 0.0
67, 0.0
68, 0.0
69, 0.0
70, 0.0
71, 0.0
72, 0.0
73, 0.0
74, 0.0
75, 0.0
76, 0.0
77, 0.0
78, 0.0
79, 0.0
80, 0.0
81, 0.0
82, 0.0
83, 0.0
84, 0.0
85, 0.0
86, 0.0
87, 0.0
88, 0.0
89, 0.0
90, 0.0
91, 0.0
92, 0.0
93, 0.0
94, 0.0
95, 0.0
96, 0.0
97, 0.0
98, 0.0
99, 0.0
100, 0.0
101, 0.0
102, 0.0
103, 0.0
104, 0.0
105, 0.0
106, 0.0
107, 0.0
108, 0.0
109, 0.0
110, 0.0
111, 0.0
112, 0.0
113, 0.0
114, 0.0
115, 0.0
116, 0.0
117, 0.0
118, 0.0
119, 0.0
120, 0.0
121, 0.0
122, 0.0
123, 0.0
124, 0.0
125, 0.0
126, 0.0
127, 0.0
128, 0.0
129, 0.0
130, 0.0
131, 0.0
132, 0.0
133, 0.0
134, 0.0
135, 0.0
136, 0.0
137, 0.0
138, 0.0
139, 0.0
140, 0.0
141, 0.0
142, 0.0
143, 0.0
144, 0.0
145, 0.0
146, 0.0
147, 0.0
148, 0.0
149.0, 1.2741093697659283e-05
150.0, 0.0071138784606791985
151.0, 0.02535304892709047
152.0, 0.04170630724602607
153.0, 0.05616873133755598
154.0, 0.06834367497472588
155.0, 0.07890457152617382
156.0, 0.08898307470563083
157.0, 0.09659949241913958
158.0, 0.09090204271293753
159.0, 0.0911056573824426
160.0, 0.0989461993250971
161.0, 0.10974858503838342
162.0, 0.11829389833242743
163.0, 0.12567297867734883
164.0, 0.13398422041378955
165.0, 0.13985601622406887
166.0, 0.1377632782036933
167.0, 0.1325678394807162
168.0, 0.12632969362377489
169.0, 0.117381683962
170.0, 0.10310099359583152
171.0, 0.08372923012198358
172.0, 0.06627942586085368
173.0, 0.050986299468721345
174.0, 0.038812217627892116
175.0, 0.02951275991027937
176.0, 0.017303586467110534
177.0, 0.010372610289262682
178.0, 0.004127995529990292
179.0, 0.0018548818050345174
180.0, 0.0010679750304538006
181.0, 0.002586710152027491
182.0, 0.002401330016380325
183.0, 0.0009602298535479396
184.0, 0.0049152745656452545
185.0, 0.00979614163068911
186.0, 0.018853237975377787
187.0, 0.026318299320626314
188.0, 0.029734200271446916
189.0, 0.03234827545671475
190.0, 0.044751121400302574
191.0, 0.04857271577276181
192.0, 0.04766135790973092
193.0, 0.05379664466797788
194.0, 0.05472075389442813
195.0, 0.05972165491022604
196.0, 0.06136064258264673
197.0, 0.058766307512692996
198.0, 0.0616272431074909
199.0, 0.057179400341478365
200.0, 0.06121633949410181
201.0, 0.06289039848647915
202.0, 0.05803124471604414
203.0, 0.06619292831209228
204.0, 0.06828146501519783
205.0, 0.06942427744558645
206.0, 0.07261849083066252
207.0, 0.07479461863167314
208.0, 0.07131608309540409
209.0, 0.06962875287220507
210.0, 0.06357501180323226
211.0, 0.05299134849632671
212.0, 0.046591005413321715
213.0, 0.045163753153918317
214.0, 0.04075327160755892
215.0, 0.04082065168249969
216.0, 0.05240841798510639
217.0, 0.04821304635522077
218.0, 0.04790650241065457
219.0, 0.04891673259922108
220.0, 0.04937403536158421
221.0, 0.051240910809542344
222.0, 0.052357003484813494
223.0, 0.04923013554949239
224.0, 0.04475368397559823
225.0, 0.04164649210395739
226.0, 0.03858127037352357
227.0, 0.04056605922845013
228.0, 0.04001124733690741
229.0, 0.03265467348597268
230.0, 0.022793568575590867
231.0, 0.019614285421074143
232.0, 0.019610787842288636
233.0, 0.014088287913835634
234.0, 0.0070906865191388
235.0, 0.004444587708055869
236.0, 0.0035653156264344554
237.0, 0.006180493720307832
238.0, 0.006706136820394169
239.0, 0.007092269783368878
240.0, 0.004308705471283805
241.0, 0.00802821679040689
242.0, 0.006856954323699515
243.0, 0.003741238056564811
244.0, 0.003587402434839305
245.0, 0.0011384527944070903
246.0, 0.0015891837005900552
247.0, 0.0008953117442485807
248.0, 0.006287759881693389
249.0, 0.01287304717271522
250.0, 0.01945556139959274
251.0, 0.02526919913913739
252.0, 0.03129885996986052
253.0, 0.04053535796331134
254.0, 0.053100487741644456
255.0, 0.06289271713848595
256.0, 0.07381456222633027
257.0, 0.08896173194783029
258.0, 0.105860264645197
259.0, 0.1198194111149392
260.0, 0.13360142163743288
261.0, 0.1475637455966026
262.0, 0.15755106162168928
263.0, 0.16186907104717888
264.0, 0.16246852338920442
265.0, 0.147685294167082
266.0, 0.13821748790570115
267.0, 0.12615401485552918
268.0, 0.10348703961345644
269.0, 0.0917057440496003
270.0, 0.07266159042131075
271.0, 0.054679558360817004
272.0, 0.040478949784979894
273.0, 0.02831814775764004
274.0, 0.018668123269574954
275.0, 0.014566047990764476
276.0, 0.01395038278855548
277.0, 0.010860898957858786
278.0, 0.0031175331568008527
279.0, 0.0022520670038742767
280.0, 0.002135565567772448
281.0, 0.0026861009810653855
282.0, 0.0009975880182345829
283.0, 0.0014330796195483164
284.0, 0.003813183533482063
285.0, 0.0005529582176442956
286.0, 0.0018515846079894766
287.0, 0.006431354610985004
288.0, 0.010756037138901534
289.0, 0.011490012051914878
290.0, 0.01716632787168974
291.0, 0.02382526097074557
292.0, 0.0270880784029431
293.0, 0.03114855419926874
294.0, 0.04004122102165164
295.0, 0.04918687883077734
296.0, 0.055642180699769325
297.0, 0.05930882877198525
298.0, 0.060123243091610865
299.0, 0.04956753015798522
300.0, 0.040977984176812476
301.0, 0.03293890149623085
302.0, 0.023320613733173973
303.0, 0.016174377788675923
304.0, 0.009835467706537482
305.0, 0.009557596888486652
306.0, 0.01044594968500352
307.0, 0.007604359185260504
308.0, 0.0013108285862695938
309.0, 0.004445430357846331
310.0, 0.0062399636814931434
311.0, 0.006964746748690992
312.0, 0.00800490635158462
313.0, 0.0047969758733480096
314.0, 0.006341891205129885
315.0, 0.004844137034024167
316.0, 0.0027632230354256125
317.0, 0.003054990172688125
318.0, 0.000950070587641699
319.0, 0.00044779529057336373
320.0, 0.0018576748368810557
321.0, 0.003040284319501308
322.0, 0.0030597541201130346
323.0, 0.010283590320077272
324.0, 0.011027173073165631
325.0, 0.010778570450937382
326.0, 0.012390871714377288
327.0, 0.014630977444641084
328.0, 0.01303625271624167
329.0, 0.00969997619754744
330.0, 0.009924120102871387
331.0, 0.015801324348039526
332.0, 0.021992483939535092
333.0, 0.02061087883582565
334.0, 0.020584058573136634
335.0, 0.021627621574150126
336.0, 0.02129370153476038
337.0, 0.019246465185317155
338.0, 0.016485704818076107
339.0, 0.017626963207881652
340.0, 0.00896272035129629
341.0, 0.004652860862815641
342.0, 0.00735591915634079
343.0, 0.007555150336068259
344.0, 0.009658669161519667
345.0, 0.010899758325249934
346.0, 0.012222826668360418
347.0, 0.015683568325680495
348.0, 0.02166018858842293
349.0, 0.02810457279905878
350.0, 0.03207757593588711
351.0, 0.03344668676479981
352.0, 0.03989391498998235
353.0, 0.054199919275850765
354.0, 0.05742257531648394
355.0, 0.06283423582763566
356.0, 0.06999063583351682
357.0, 0.07662141690456975
358.0, 0.08206842232696883
359.0, 0.08683392425824746
360.0, 0.08938477829408176
361.0, 0.09271111757630032
362.0, 0.08975719485067837
363.0, 0.07781772728998079
364.0, 0.06653776262493817
365.0, 0.05960951797753114
366.0, 0.05238108461637158
367.0, 0.04388037239853597
368.0, 0.03476926913285872
369.0, 0.027672083660570234
370.0, 0.02496094586598348
371.0, 0.024494175320009786
372.0, 0.026355879651455184
373.0, 0.02832363340006039
374.0, 0.027837471338317696
375.0, 0.028401484662577407
376.0, 0.030470398981932413
377.0, 0.03454364472504535
378.0, 0.037429548125898174
379.0, 0.03603884537355365
380.0, 0.03638703458019877
381.0, 0.03787049400896807
382.0, 0.04000796343437452
383.0, 0.040172180259376945
384.0, 0.03832393877197699
385.0, 0.03853429816482577
386.0, 0.030612095940702806
387.0, 0.028213929950482226
388.0, 0.026674462748032163
389.0, 0.023296427041774072
390.0, 0.022458604462585623
391.0, 0.01461117561284559
392.0, 0.01129132702093438
393.0, 0.012180744484679493
394.0, 0.010174473102822323
395.0, 0.0033771477682451407
396.0, 0.0021841701666673124
397.0, 0.0025464502520586353
398.0, 0.001105555733748831
399.0, 0.000924371431528702
400.0, 0.0025893220058652443
401.0, 0.005719019395470893
402.0, 0.006938020241589228
403.0, 0.0050555087004999525
404.0, 0.005012676768639775
405.0, 0.004454633468252034
406.0, 0.0008171455261962684
407.0, 0.0037262961101800747
408.0, 0.0037532628171522463
409.0, 0.004249141655777532
410.0, 0.007879410610002042
411.0, 0.013015146024691329
412.0, 0.014341317000639713
413.0, 0.017447024110582878
414.0, 0.02331623301500855
415.0, 0.031406737875628296
416.0, 0.03916893685584493
417.0, 0.044233579871843454
418.0, 0.05187924192963843
419.0, 0.05242591892744624
420.0, 0.055667231414242
421.0, 0.05857453229629064
422.0, 0.05642778885115427
423.0, 0.056527880093882064
424.0, 0.055267936970065296
425.0, 0.05409439383863491
426.0, 0.05432343151832468
427.0, 0.054524467370105086
428.0, 0.05284456827957328
429.0, 0.05609358880674498
430.0, 0.05977529766485106
431.0, 0.06723628343549462
432.0, 0.07285278934232306
433.0, 0.07335284770773103
434.0, 0.0835272510971422
435.0, 0.09590440409840367
436.0, 0.10868714744685569
437.0, 0.12302932644955389
438.0, 0.1431851402039216
439.0, 0.17038650263144525
440.0, 0.1914816898535372
441.0, 0.21412847910568306
442.0, 0.2498554508572347
443.0, 0.288939381815853
444.0, 0.3237558151652151
445.0, 0.37101026319617497
446.0, 0.43127922006989833
447.0, 0.49013662628036
448.0, 0.5526387076119804
449.0, 0.6249381513165062
450.0, 0.7055665533953182
451.0, 0.7871540208707775
452.0, 0.8632945206737732
453.0, 0.9292188537385262
454.0, 0.9762134733996776
455.0, 0.9984626548289742
456.0, 0.9976485702489878
457.0, 0.9951347883347416
458.0, 0.9973418816627498
459.0, 0.9882037080091609
460.0, 0.9599240378022148
461.0, 0.9189922744168844
462.0, 0.8821511268333672
463.0, 0.8353839152262562
464.0, 0.7742477543448802
465.0, 0.700559714646582
466.0, 0.6271072308378947
467.0, 0.5636879749444008
468.0, 0.500650156232233
469.0, 0.43491130498497754
470.0, 0.3863965908064151
471.0, 0.3442401993309882
472.0, 0.2995221492568531
473.0, 0.2619714394825197
474.0, 0.22350985363042628
475.0, 0.20020821693931928
476.0, 0.17033884502380484
477.0, 0.14069751073813222
478.0, 0.12543207895395556
479.0, 0.11196857665134081
480.0, 0.0999072863474418
481.0, 0.08907086651056352
482.0, 0.07445075900963156
483.0, 0.06073846462654575
484.0, 0.05428367255598015
485.0, 0.051554555070083705
486.0, 0.04111817296291738
487.0, 0.035412581835760466
488.0, 0.03458045421493361
489.0, 0.03233090757589091
490.0, 0.02491336347946889
491.0, 0.021374841390314404
492.0, 0.017724076135812308
493.0, 0.018078996182630324
494.0, 0.013568787520194282
495.0, 0.007019135674200427
496.0, 0.008854963237172355
497.0, 0.00979304098205017
498.0, 0.007298555531260054
499.0, 0.003905445192989616
500.0, 0.002398111766905774
501.0, 0.0038233498258718403
502.0, 0.0049751181128767155
503.0, 0.0028555428034826337
504.0, 0.005773499040925051
505.0, 0.005418216461618308
506.0, 0.0038586995402165097
507.0, 0.0025970773363332574
508.0, 0.0029651481510293925
509.0, 0.0034027616529295453
510.0, 0.001655557304475074
511.0, 0.0039935000717952075
512.0, 0.006005894242701995
513.0, 0.0033508867243135934
514.0, 0.006704119654256633
515.0, 0.00827501060605661
516.0, 0.011989915740978985
517.0, 0.016215394390884253
518.0, 0.021195235652199877
519.0, 0.026840432977215025
520.0, 0.03190096911464796
521.0, 0.037444787115310116
522.0, 0.04752017138701166
523.0, 0.060510127450596925
524.0, 0.07487563209812315
525.0, 0.09044827340420922
526.0, 0.10731753360719994
527.0, 0.1252327821551048
528.0, 0.15177835949108254
529.0, 0.17757177969497473
530.0, 0.2063907798048789
531.0, 0.23874565487386323
532.0, 0.26663898821338267
533.0, 0.28795236402049373
534.0, 0.31214893328493704
535.0, 0.32064057189827205
536.0, 0.3168616871799291
537.0, 0.3051976504521362
538.0, 0.28313726957258506
539.0, 0.2518599797122719
540.0, 0.2193052239178339
541.0, 0.19041654271723416
542.0, 0.15815440155930852
543.0, 0.13030642604977846
544.0, 0.1138595211062979
545.0, 0.09386675228962568
546.0, 0.08054959988798534
547.0, 0.06987801371718443
548.0, 0.05841471617888229
549.0, 0.04740029792200154
550.0, 0.03974500580614257
551.0, 0.036457747503889616
552.0, 0.034333667189614454
553.0, 0.02672154087609807
554.0, 0.019109172508380477
555.0, 0.01735005373274436
556.0, 0.017883269187334183
557.0, 0.013456450519553388
558.0, 0.013976308924647211
559.0, 0.012425637939533348
560.0, 0.014342367409844521
561.0, 0.014108243227931912
562.0, 0.009285020456225113
563.0, 0.008620560848268604
564.0, 0.010534872412924015
565.0, 0.009981329963152439
566.0, 0.007563152068102797
567.0, 0.0034548138174438654
568.0, 0.0026250686143111947
569.0, 0.007089307331535649
570.0, 0.007414184964618481
571.0, 0.0012053729680744502
572.0, 0.0035033455367735264
573.0, 0.005014711797121857
574.0, 0.0024787530559872767
575.0, 0.0018789899427482644
576.0, 0.0018034252958445466
577.0, 0.0028193816153086596
578.0, 0.0026921435441467907
579.0, 0.00030231080760935425
580.0, 0.000829571871950005
581.0, 0.0017665302499415472
582.0, 0.005650963845402515
583.0, 0.004620178860730028
584.0, 0.003919669283822733
585.0, 0.004023707449512889
586.0, 0.0056368487707406725
587.0, 0.006685906945876166
588.0, 0.005479721106687508
589.0, 0.005935130115725614
590.0, 0.007589047336262179
591.0, 0.01153431042238807
592.0, 0.005611229541275643
593.0, 0.0002682850355449888
594.0, 0.0012743312078533774
595.0, 0.0007067484867006022
596.0, 0.007851760038489268
597.0, 0.007714520113463131
598.0, 0.006168980368960783
599.0, 0.0052109336357551266
600.0, 0.0064273886720117804
601.0, 0.009188163445297968
602.0, 0.00867000295558861
603.0, 0.006348695108992787
604.0, 0.007728209109155929
605.0, 0.009992929397336996
606.0, 0.011745723812462264
607.0, 0.011190331716517697
608.0, 0.007728853077434937
609.0, 0.00825128919738939
610.0, 0.0068401645190305236
611.0, 0.008551072285192562
612.0, 0.009414096123277697
613.0, 0.009615370924590612
614.0, 0.008951566981497931
615.0, 0.004791548569358272
616.0, 0.0034168318802154972
617.0, 0.005286213088817053
618.0, 0.0027467930744941613
619.0, 0.004589998258809479
620.0, 0.001794968875755689
621.0, 0.0014888435778872059
622.0, 0.0014043539384520423
623.0, 0.0013128914439631083
624.0, 0.0006943088714705031
625.0, 0.002793962865007617
626.0, 0.0014115831488664516
627.0, 0.0013871072694033118
628.0, 0.0040357874478475055
629.0, 0.0005545744637781259
630.0, 0.0011264433733457026
631.0, 0.0029908078346805745
632.0, 0.00541717005649408
633.0, 0.004916615390626516
634.0, 0.0011944898322603851
635.0, 0.0010374816805331112
636.0, 0.0012752906893614233
637.0, 0.0032789203416955315
638.0, 0.006219069767712935
639.0, 0.0029991979437677084
640.0, 0.0013607526565342118
641.0, 0.0037947040090523
642.0, 0.00031474254205467026
643.0, 0.0014874544203798308
644.0, 0.0044031002335636685
645.0, 0.002078992205703927
646.0, 0.004076241968356581
647.0, 0.007908064990347387
648.0, 0.0056156924043545345
649.0, 0.0002439799057746775
650.0, 0.0031512259455745524
651.0, 0.0023176786064052317
652.0, 0.0039447745574550785
653.0, 0.002743948487286857
654.0, 0.003461991138362499
655.0, 0.006754409019749937
656.0, 0.004314751966150136
657.0, 0.006221570471167734
658.0, 0.007886909675207502
659.0, 0.006283322203233082
660.0, 0.00698824652319951
661.0, 0.008938558226721398
662.0, 0.009802832314998301
663.0, 0.010020171898564089
664.0, 0.005551070398149152
665.0, 0.0054797702531420665
666.0, 0.00772931432831385
667.0, 0.010932734017054125
668.0, 0.010395455828336677
669.0, 0.005922348368489413
670.0, 0.005393777732957434
671.0, 0.008587354430597516
672.0, 0.009091061637908373
673.0, 0.011944135584299475
674.0, 0.018018826399774143
675.0, 0.017772483327330727
676.0, 0.012156509796760435
677.0, 0.013763313832486825
678.0, 0.013043323093794981
679.0, 0.012170316642193523
680.0, 0.009156475085351137
681.0, 0.006821890402822752
682.0, 0.0034022423214966854
683.0, 0.002333499943853135
684.0, 0.00510078758533794
685.0, 0.001031846055149684
686.0, 0.00392154695798406
687.0, 0.0006572064063672836
688.0, 0.00024477594291629856
689.0, 0.002205139714323908
690.0, 0.003908704858113014
691.0, 0.003805806157859219
692.0, 0.0004970476837020114
693.0, 0.00034935154039662
694.0, 0.0031529033774625637
695.0, 0.0011895503807585962
696.0, 0.001159981061641356
697.0, 0.003248328957021306
698.0, 0.003792065570694416
699.0, 0.004094619853230055
700.0, 0.0025157891269960183
701.0, 0.007233414106072039
702.0, 0.013032151875807307
703.0, 0.011392275476302177
704.0, 0.006978543308113607
705.0, 0.008140523459190457
706.0, 0.015118922307657443
707.0, 0.01727681364733099
708.0, 0.014005113592253012
709.0, 0.014606751510632851
710.0, 0.009538544980911196
711.0, 0.006969557632714597
712.0, 0.008800711016058789
713.0, 0.006788687890343648
714.0, 0.00014061169787841598
715.0, 0.006912533271559687
716.0, 0.00355896515051437
717.0, 0.006946111773806191
718.0, 0.00568257331173384
719.0, 0.005218868686853996
720.0, 0.007251357853877729
721.0, 0.005110437387730393
722.0, 0.001998125662993427
723.0, 0.0017446416750122407
724.0, 0.0035801103742161074
725.0, 0.005813875934434596
726.0, 0.007042438130428907
727.0, 0.006937122490065931
728.0, 0.008337723575859
729.0, 0.009034103493282666
730.0, 0.001402891475790077
731.0, 0.0022188117768645412
732.0, 0.002346447752159875
733.0, 0.008817036093376224
734.0, 0.00908843063342752
735.0, 0.002457290282670302
736.0, 0.0023236174921034596
737.0, 0.008213371826316141
738.0, 0.01015157876956161
739.0, 0.011724419404129972
740.0, 0.01195115157631263
741.0, 0.010622809375818379
742.0, 0.013367571687947156
743.0, 0.018848638176505367
744.0, 0.02037144159614186
745.0, 0.017210372999738828
746.0, 0.01812840970831487
747.0, 0.019900121253646506
748.0, 0.023524193722792693
749.0, 0.0258320846020589
750.0, 0.027788234789446954
751.0, 0.029904731650563864
752.0, 0.0330378701153074
753.0, 0.03845886079906223
754.0, 0.04279657699410898
755.0, 0.0499794990591442
756.0, 0.04964884825421255
757.0, 0.058224125962453896
758.0, 0.0681840392868953
759.0, 0.07198339219490502
760.0, 0.07599022261594426
761.0, 0.08596289556704606
762.0, 0.09173531533336148
763.0, 0.10098291551058669
764.0, 0.1163161043398498
765.0, 0.1247296692087467
766.0, 0.12987211887142786
767.0, 0.13813914997348908
768.0, 0.14725544908735533
769.0, 0.15120750555664753
770.0, 0.15736930700920562
771.0, 0.15972845089595888
772.0, 0.1632639928862449
773.0, 0.15233847957739882
774.0, 0.14471553504777412
775.0, 0.1365717933472532
776.0, 0.12355494389591606
777.0, 0.11321159433958952
778.0, 0.09757213848873938
779.0, 0.08556663264167437
780.0, 0.07381614135334714
781.0, 0.05803904128045773
782.0, 0.0460853087966902
783.0, 0.03774136933285375
784.0, 0.030050954985129462
785.0, 0.0241853921986416
786.0, 0.021086597338967176
787.0, 0.016671884097770855
788.0, 0.012765094528567982
789.0, 0.00973243193896565
790.0, 0.00761604171949862
791.0, 0.00644590064801032
792.0, 0.005954050044326658
793.0, 0.005317109941864735
794.0, 0.004882886398794154
795.0, 0.006755990373634894
796.0, 0.001969328185372907
797.0, 0.003539779460321993
798.0, 0.005573936153438913
799.0, 0.005179487638196896
800.0, 0.0017803507680794128
801.0, 0.0005855136661215655
802.0, 0.0017380151704392258
803.0, 0.0017304124710716255
804.0, 0.0033886301309618448
805.0, 0.0009787053087434475
806.0, 0.0010298090638584912
807.0, 0.0011671901835664125
808.0, 0.0009207799662853904
809.0, 0.0008662158723896511
810.0, 0.0014984146973984196
811.0, 0.005213744460573955
812.0, 0.005273361205567449
813.0, 0.0005438138493750705
814.0, 0.0009130040993809109
815.0, 0.001939340565784949
816.0, 0.0018193327479938328
817.0, 0.0013405827989207393
818.0, 0.001996783151924835
819.0, 0.001758181943043353
820.0, 0.0003055681189362736
821.0, 0.0011320131016395907
822.0, 0.0016180179707987745
823.0, 0.0025444325527366357
824.0, 0.0009330929949415126
825.0, 0.00570762479506194
826.0, 0.00316557533699964
827.0, 0.00249124398650203
828.0, 0.0030640174828509164
829.0, 0.0010839044354852558
830.0, 0.0006882733262460825
831.0, 0.0038738472587321313
832.0, 0.0021139307698519205
833.0, 0.006366994988977827
834.0, 0.00465279861450817
835.0, 0.002312534325021796
836.0, 0.004607493598249615
837.0, 0.005636612332359715
838.0, 0.0031166668857028003
839.0, 0.0025175903581583486
840.0, 0.0013557448145511393
841.0, 0.0018619505027370363
842.0, 0.007302304204967623
843.0, 0.005841782595930731
844.0, 0.004256675311672266
845.0, 0.006778119864862689
846.0, 0.007481050766950706
847.0, 0.00694664581504662
848.0, 0.006107701120806105
849.0, 0.0006546252557824587
850.0, 0.00444335081436909
851.0, 0.0077884587865908236
852.0, 0.003822897802187639
853.0, 0.00389627871050854
854.0, 0.006765748142883739
855.0, 0.006320249066176104
856.0, 0.005729378484024937
857.0, 0.005986286262013132
858.0, 0.006013820644676978
859.0, 0.004335673839656393
860.0, 0.005906111675789758
861.0, 0.007826736711419304
862.0, 0.005978305059968695
863.0, 0.0033415741871048055
864.0, 0.005030059985437319
865.0, 0.008588320487617183
866.0, 0.0072422593249170065
867.0, 0.0062961983048044
868.0, 0.0051032946480170415
869.0, 0.010832496213323944
870.0, 0.009441513554383937
871.0, 0.007126720865446048
872.0, 0.006850207904107137
873.0, 0.008722271758271078
874.0, 0.007563496439727623
875.0, 0.005279915151206847
876.0, 0.008570862498637845
877.0, 0.004363370086447107
878.0, 0.009560214754024104
879.0, 0.010532077128821135
880.0, 0.007339804351083392
881.0, 0.0067630721416317725
882.0, 0.004680197714434331
883.0, 0.004476786310198229
884.0, 0.007193619675127477
885.0, 0.0057507145310710175
886.0, 0.006234744948347846
887.0, 0.007600024214840164
888.0, 0.011264678111769682
889.0, 0.0035986297786651167
890.0, 0.00530165444204558
891.0, 0.004953458948895022
892.0, 0.007695163592976971
893.0, 0.013438735622804562
894.0, 0.011275166779378107
895.0, 0.00450712822852072
896.0, 0.006707549523594487
897.0, 0.0021172992872448217
898.0, 0.003365359508061677
899.0, 0.008934601259514249
900.0, 0.005568207317930067
901.0, 0.0030543167763955694
902.0, 0.005593751188634254
903.0, 0.005545733098326577
904.0, 0.003767272887897172
905.0, 0.006334282245351981
906.0, 0.007144778096023259
907.0, 0.004085953278710414
908.0, 0.005858476448444153
909.0, 0.008937510252134715
910.0, 0.003929703055765199
911.0, 0.0025986818394220447
912.0, 0.005977004678143211
913.0, 0.0074573339928738925
914.0, 0.004407834990681789
915.0, 0.0006264756542217129
916.0, 0.0018059985086333085
917.0, 0.0015527294284493982
918.0, 0.0003241544774907855
919.0, 0.006316174980163395
920.0, 0.006691976318593164
921.0, 0.001241085184055233
922.0, 0.0010037301095429316
923.0, 0.0024028616837938003
924.0, 0.0014270762751046708
925.0, 0.0007474027081284502
926.0, 0.0014392926739829719
927.0, 0.001753454308976211
928.0, 0.0002949109220464472
929.0, 0.0006021171932902398
930.0, 0.0014676840152409577
931.0, 0.0007969515348240085
932.0, 0.0026366580446791723
933.0, 0.0027767579609141776
934.0, 0.003674425585751585
935.0, 0.004883223133093842
936.0, 0.0029333396973826573
937.0, 0.003054357038124462
938.0, 0.007640405023935025
939.0, 0.004382792633348609
940.0, 0.005458888939388559
941.0, 0.004280196693972724
942.0, 0.006883351375704221
943.0, 0.009155250115055323
944.0, 0.00871803525662202
945.0, 0.007041557389426926
946.0, 0.006442074904232414
947.0, 0.006813534114833057
948.0, 0.008693850723501196
949.0, 0.011306966186943693
950.0, 0.008342230586229196
951.0, 0.008921445201533637
952.0, 0.010339706308758696
953.0, 0.009684257835317584
954.0, 0.011293295935197203
955.0, 0.007516896519106845
956.0, 0.008778537476341188
957.0, 0.011428438886548145
958.0, 0.011931622194270611
959.0, 0.011402028019571138
960.0, 0.009582983108694884
961.0, 0.010738525188412024
962.0, 0.010133291585241596
963.0, 0.008996359920189531
964.0, 0.01117620592106448
965.0, 0.011268813019087163
966.0, 0.010895289298545368
967.0, 0.008743043677038103
968.0, 0.008848965761763212
969.0, 0.010916633588204256
970.0, 0.010200440599015382
971.0, 0.00951224361558519
972.0, 0.01226110255308673
973.0, 0.01220129188748473
974.0, 0.015295425243013108
975.0, 0.011561362901957478
976.0, 0.014492101172520788
977.0, 0.01125378900160762
978.0, 0.01040662273747986
979.0, 0.012759645255637608
980.0, 0.0125708079070248
981.0, 0.011684547023188448
982.0, 0.014280359455310226
983.0, 0.015100275961036361
984.0, 0.012634531600526222
985.0, 0.014959703846481811
986.0, 0.0140088074254938
987.0, 0.008746600613993207
988.0, 0.010683396504603556
989.0, 0.009132574136335978
990.0, 0.00869713921922514
991.0, 0.007695216550115967
992.0, 0.003965816850760707
993.0, 0.006349237909498724
994.0, 0.008818580731524483
995.0, 0.008572089195487085
996.0, 0.007386902101423536
997.0, 0.00327500606214684
998.0, 0.007079651816801166
999.0, 0.006535685106801714
1000.0, 0.0006286630684602308
1001.0, 0.00012713347455807687
1002.0, 0.0014423328728650523
1003.0, 0.005367783577499006
1004.0, 0.004614163954478562
1005.0, 0.003169437842028291
1006.0, 0.0017883728087272161
1007.0, 0.00026219103983277076
1008.0, 0.0016373591932684639
1009.0, 0.002900555426498732
1010.0, 0.00037624280687996854
1011.0, 0.0015754319918260483
1012.0, 0.002227040204632347
1013.0, 0.001210538103324993
1014.0, 0.000305821062376701
1015.0, 0.0013047010197526957
1016.0, 0.0004679337119970616
1017.0, 0.0013880355271008282
1018.0, 0.0021724320869775573
1019.0, 0.002382892951323534
1020.0, 0.0018514347166868712
1021.0, 0.0029700565522007
1022.0, 0.0010537689757242207
1023.0, 0.0011820625744302137
1024.0, 0.002764554656418828
1025.0, 0.00588128999449899
1026.0, 0.004632083969646747
1027.0, 0.0002888600236869209
1028.0, 0.0013755276957194925
1029.0, 0.002021555753610058
1030.0, 0.0009161571690700779
1031.0, 0.00045945305121169685
1032.0, 0.004637989897330537
1033.0, 0.005318539252228252
1034.0, 0.004246181700687043
1035.0, 0.005804572048285677
1036.0, 0.003428907889267796
1037.0, 0.002329082255817873
1038.0, 0.003581036516967295
1039.0, 0.002630192186811607
1040.0, 0.0037455829246336946
1041.0, 0.005370104603719949
1042.0, 0.0060773801914751225
1043.0, 0.003644730667423247
1044.0, 0.006337659122686261
1045.0, 0.011919373805783182
1046.0, 0.010096947015370752
1047.0, 0.009904439606848895
1048.0, 0.010504403037082192
1049.0, 0.010035065683490118
1050.0, 0.011423890157693746
1051.0, 0.01051533783934268
1052.0, 0.01398979083561108
1053.0, 0.012280996083918317
1054.0, 0.01638307283014301
1055.0, 0.017778522922487012
1056.0, 0.01610845440287033
1057.0, 0.017035083962686794
1058.0, 0.02265317661154369
1059.0, 0.02242046977404566
1060.0, 0.019699606037292764
1061.0, 0.02231302285609087
1062.0, 0.02431945060946459
1063.0, 0.029309631375810174
1064.0, 0.033937398598530975
1065.0, 0.03257296279944038
1066.0, 0.03548045996258051
1067.0, 0.03779936669467523
1068.0, 0.03883996018804784
1069.0, 0.043307245828669794
1070.0, 0.039980535985383946
1071.0, 0.04653554589321373
1072.0, 0.047931999202233566
1073.0, 0.044570704559082644
1074.0, 0.048234833380481304
1075.0, 0.050121260861663075
1076.0, 0.05034618443544991
1077.0, 0.05412402989620403
1078.0, 0.05367144179821558
1079.0, 0.05681427007319797
1080.0, 0.0644709736661462
1081.0, 0.06644342251056004
1082.0, 0.07158071094474625
1083.0, 0.08047833631950521
1084.0, 0.08788273885093612
1085.0, 0.10095867331600183
1086.0, 0.10794028415316337
1087.0, 0.12260001133143118
1088.0, 0.13433127344750903
1089.0, 0.1493376911133176
1090.0, 0.16140028782240182
1091.0, 0.17129439419321726
1092.0, 0.18150954677058295
1093.0, 0.1921474467493763
1094.0, 0.20152487511700212
1095.0, 0.2074097790202365
1096.0, 0.21209149264448118
1097.0, 0.21520296100540487
1098.0, 0.21201238716139623
1099.0, 0.2064772383519565
1100.0, 0.20545808660083742
1101.0, 0.20827470357560246
1102.0, 0.20330262421202727
1103.0, 0.20606882986620023
1104.0, 0.20698705681990462
1105.0, 0.21295431207255078
1106.0, 0.2301898500843603
1107.0, 0.23419699369859742
1108.0, 0.23275971805659115
1109.0, 0.22681198327450144
1110.0, 0.2186890217431038
1111.0, 0.20541855116914132
1112.0, 0.18025919454578077
1113.0, 0.14881231720396054
1114.0, 0.11964196476215895
1115.0, 0.09131733673321542
1116.0, 0.06467556232640558
1117.0, 0.04637155511884628
1118.0, 0.03673474679154519
1119.0, 0.02891564026005383
1120.0, 0.02327380008194287
1121.0, 0.015599579626949545
1122.0, 0.0149250875112457
1123.0, 0.017885987124831474
1124.0, 0.01937962423348337
1125.0, 0.016416747530117473
1126.0, 0.011545820259551885
1127.0, 0.011886615473736756
1128.0, 0.010929888797461873
1129.0, 0.01070986133241917
1130.0, 0.008645514955603227
1131.0, 0.00918453042173889
1132.0, 0.010348923513561703
1133.0, 0.006064537518449729
1134.0, 0.005154558509936585
1135.0, 0.008231860862601612
1136.0, 0.005038793165173808
1137.0, 0.0029140783357085157
1138.0, 0.0069015641253570535
1139.0, 0.005799063653253156
1140.0, 0.006864012524898878
1141.0, 0.004286567539618985
1142.0, 0.0018613723254985847
1143.0, 0.006499685295815336
1144.0, 0.002532817572445875
1145.0, 0.0029408816381052867
1146.0, 0.002036210986828143
1147.0, 0.00014346087701712173
1148.0, 0.0013567845261843025
1149.0, 0.0019964168437321818
1150.0, 0.0008461168587727933
1151.0, 0.0013678665150764957
1152.0, 0.00249218284339685
1153.0, 0.004035838869978993
1154.0, 0.00019780739190545366
1155.0, 0.0003834326519635688
1156.0, 0.0002831925490028574
1157.0, 0.00155043779225338
1158.0, 0.0033691406724112452
1159.0, 0.00252857183999769
1160.0, 0.0006944648666676089
1161.0, 0.0028807361934964464
1162.0, 0.0012619734683168467
1163.0, 0.0015426986317760441
1164.0, 0.0038577689676234164
1165.0, 0.007426399266582268
1166.0, 0.0030181829669449203
1167.0, 0.0035356289820955697
1168.0, 0.005144604427497651
1169.0, 0.011971826630488094
1170.0, 0.01726737490569997
1171.0, 0.014565171665643832
1172.0, 0.010464599287512394
1173.0, 0.009627861774581803
1174.0, 0.011740271569720665
1175.0, 0.014906687221881489
1176.0, 0.016994793032617028
1177.0, 0.019489326776991184
1178.0, 0.02292438013729734
1179.0, 0.023501895618020983
1180.0, 0.024007891674467905
1181.0, 0.022749195035181167
1182.0, 0.020034409803276382
1183.0, 0.022814955289525006
1184.0, 0.028267595834889834
1185.0, 0.03113498122122114
1186.0, 0.02669026103942945
1187.0, 0.029522663919712405
1188.0, 0.02781105245911071
1189.0, 0.028699458266199795
1190.0, 0.03164247594428428
1191.0, 0.027077884194089623
1192.0, 0.031493922573454354
1193.0, 0.032963918964778974
1194.0, 0.03066371633491723
1195.0, 0.028266512922251415
1196.0, 0.02846446764107829
1197.0, 0.03286818062970795
1198.0, 0.03076607334382571
1199.0, 0.026811324543402053
1200.0, 0.030008854600066064
1201.0, 0.029058987465863856
1202.0, 0.02414694858425352
1203.0, 0.02454026769618437
1204.0, 0.024667587571410996
1205.0, 0.027891160894985847
1206.0, 0.023807976505742054
1207.0, 0.02339292730155023
1208.0, 0.02564888793459146
1209.0, 0.02491531102272692
1210.0, 0.02634665559903673
1211.0, 0.027229273681220315
1212.0, 0.025605580909523234
1213.0, 0.01636963130266045
1214.0, 0.023454471997672376
1215.0, 0.018006820331497305
1216.0, 0.02041501307752699
1217.0, 0.01978005756448058
1218.0, 0.020205621506812255
1219.0, 0.012181914278441418
1220.0, 0.017796500087592967
1221.0, 0.021437856611319944
1222.0, 0.012332173475960459
1223.0, 0.011101639369204155
1224.0, 0.011202533655470887
1225.0, 0.013223488446558813
1226.0, 0.012107370769400268
1227.0, 0.012433416815254726
1228.0, 0.011663098550108943
1229.0, 0.009166618743998916
1230.0, 0.007017403340683786
1231.0, 0.0026250431239152787
1232.0, 0.004548317074541939
1233.0, 0.006498944709070022
1234.0, 0.0055754074897402675
1235.0, 0.0055285002684817355
1236.0, 0.005882426474925843
1237.0, 0.002056303927518536
1238.0, 0.0011653261026565453
1239.0, 0.007581595779225995
1240.0, 0.005521008101675286
1241.0, 0.00018816827355366985
1242.0, 0.0024620571224197307
1243, 0.0
1244, 0.0
1245, 0.0
1246, 0.0
1247, 0.0
1248, 0.0
1249, 0.0
1250, 0.0
1251, 0.0
1252, 0.0
1253, 0.0
1254, 0.0
1255, 0.0
1256, 0.0
1257, 0.0
1258, 0.0
1259, 0.0
1260, 0.0
1261, 0.0
1262, 0.0
1263, 0.0
1264, 0.0
1265, 0.0
1266, 0.0
1267, 0.0
1268, 0.0
1269, 0.0
1270, 0.0
1271, 0.0
1272, 0.0
1273, 0.0
1274, 0.0
1275, 0.0
1276, 0.0
1277, 0.0
1278, 0.0
1279, 0.0
1280, 0.0
1281, 0.0
1282, 0.0
1283, 0.0
1284, 0.0
1285, 0.0
1286, 0.0
1287, 0.0
1288, 0.0
1289, 0.0
1290, 0.0
1291, 0.0
1292, 0.0
1293, 0.0
1294, 0.0
1295, 0.0
1296, 0.0
1297, 0.0
1298, 0.0
1299, 0.0
1300, 0.0
1301, 0.0
1302, 0.0
1303, 0.0
1304, 0.0
1305, 0.0
1306, 0.0
1307, 0.0
1308, 0.0
1309, 0.0
1310, 0.0
1311, 0.0
1312, 0.0
1313, 0.0
1314, 0.0
1315, 0.0
1316, 0.0
1317, 0.0
1318, 0.0
1319, 0.0
1320, 0.0
1321, 0.0
1322, 0.0
1323, 0.0
1324, 0.0
1325, 0.0
1326, 0.0
1327, 0.0
1328, 0.0
1329, 0.0
1330, 0.0
1331, 0.0
1332, 0.0
1333, 0.0
1334, 0.0
1335, 0.0
1336, 0.0
1337, 0.0
1338, 0.0
1339, 0.0
1340, 0.0
1341, 0.0
1342, 0.0
1343, 0.0
1344, 0.0
1345, 0.0
1346, 0.0
1347, 0.0
1348, 0.0
1349, 0.0
1350, 0.0
1351, 0.0
1352, 0.0
1353, 0.0
1354, 0.0
1355, 0.0
1356, 0.0
1357, 0.0
1358, 0.0
1359, 0.0
1360, 0.0
1361, 0.0
1362, 0.0
1363, 0.0
1364, 0.0
1365, 0.0
1366, 0.0
1367, 0.0
1368, 0.0
1369, 0.0
1370, 0.0
1371, 0.0
1372, 0.0
1373, 0.0
1374, 0.0
1375, 0.0
1376, 0.0
1377, 0.0
1378, 0.0
1379, 0.0
1380, 0.0
1381, 0.0
1382, 0.0
1383, 0.0
1384, 0.0
1385, 0.0
1386, 0.0
1387, 0.0
1388, 0.0
1389, 0.0
1390, 0.0
1391, 0.0
1392, 0.0
1393, 0.0
1394, 0.0
1395, 0.0
1396, 0.0
1397, 0.0
1398, 0.0
1399, 0.0
1400, 0.0
1401, 0.0
1402, 0.0
1403, 0.0
1404, 0.0
1405, 0.0
1406, 0.0
1407, 0.0
1408, 0.0
1409, 0.0
1410, 0.0
1411, 0.0
1412, 0.0
1413, 0.0
1414, 0.0
1415, 0.0
1416, 0.0
1417, 0.0
1418, 0.0
1419, 0.0
1420, 0.0
1421, 0.0
1422, 0.0
1423, 0.0
1424, 0.0
1425, 0.0
1426, 0.0
1427, 0.0
1428, 0.0
1429, 0.0
1430, 0.0
1431, 0.0
1432, 0.0
1433, 0.0
1434, 0.0
1435, 0.0
1436, 0.0
1437, 0.0
1438, 0.0
1439, 0.0
1440, 0.0
1441, 0.0
1442, 0.0
1443, 0.0
1444, 0.0
1445, 0.0
1446, 0.0
1447, 0.0
1448, 0.0
1449, 0.0
1450, 0.0
1451, 0.0
1452, 0.0
1453, 0.0
1454, 0.0
1455, 0.0
1456, 0.0
1457, 0.0
1458, 0.0
1459, 0.0
1460, 0.0
1461, 0.0
1462, 0.0
1463, 0.0
1464, 0.0
1465, 0.0
1466, 0.0
1467, 0.0
1468, 0.0
1469, 0.0
1470, 0.0
1471, 0.0
1472, 0.0
1473, 0.0
1474, 0.0
1475, 0.0
1476, 0.0
1477, 0.0
1478, 0.0
1479, 0.0
1480, 0.0
1481, 0.0
1482, 0.0
1483, 0.0
1484, 0.0
1485, 0.0
1486, 0.0
1487, 0.0
1488, 0.0
1489, 0.0
1490, 0.0
1491, 0.0
1492, 0.0
1493, 0.0
1494, 0.0
1495, 0.0
1496, 0.0
1497, 0.0
1498, 0.0
1499, 0.0
1500, 0.0
1501, 0.0
1502, 0.0
1503, 0.0
1504, 0.0
1505, 0.0
1506, 0.0
1507, 0.0
1508, 0.0
1509, 0.0
1510, 0.0
1511, 0.0
1512, 0.0
1513, 0.0
1514, 0.0
1515, 0.0
1516, 0.0
1517, 0.0
1518, 0.0
1519, 0.0
1520, 0.0
1521, 0.0
1522, 0.0
1523, 0.0
1524, 0.0
1525, 0.0
1526, 0.0
1527, 0.0
1528, 0.0
1529, 0.0
1530, 0.0
1531, 0.0
1532, 0.0
1533, 0.0
1534, 0.0
1535, 0.0
1536, 0.0
1537, 0.0
1538, 0.0
1539, 0.0
1540, 0.0
1541, 0.0
1542, 0.0
1543, 0.0
1544, 0.0
1545, 0.0
1546, 0.0
1547, 0.0
1548, 0.0
1549, 0.0
1550, 0.0
1551, 0.0
1552, 0.0
1553, 0.0
1554, 0.0
1555, 0.0
1556, 0.0
1557, 0.0
1558, 0.0
1559, 0.0
1560, 0.0
1561, 0.0
1562, 0.0
1563, 0.0
1564, 0.0
1565, 0.0
1566, 0.0
1567, 0.0
1568, 0.0
1569, 0.0
1570, 0.0
1571, 0.0
1572, 0.0
1573, 0.0
1574, 0.0
1575, 0.0
1576, 0.0
1577, 0.0
1578, 0.0
1579, 0.0
1580, 0.0
1581, 0.0
1582, 0.0
1583, 0.0
1584, 0.0
1585, 0.0
1586, 0.0
1587, 0.0
1588, 0.0
1589, 0.0
1590, 0.0
1591, 0.0
1592, 0.0
1593, 0.0
1594, 0.0
1595, 0.0
1596, 0.0
1597, 0.0
1598, 0.0
1599, 0.0
