30, 0.0
31, 0.0
32, 0.0
33, 0.0
34, 0.0
35, 0.0
36, 0.0
37, 0.0
38, 0.0
39, 0.0
40, 0.0
41, 0.0
42, 0.0
43, 0.0
44, 0.0
45, 0.0
46, 0.0
47, 0.0
48, 0.0
49, 0.0
50.0, 0.00042605155884095175
51.0, 0.001317717431054652
52.0, 0.0029278925782643753
53.0, 0.005591457521336335
54.0, 0.008588025230706653
55.0, 0.01170685461563914
56.0, 0.013729396682513596
57.0, 0.016447090210371544
58.0, 0.019753422283365532
59.0, 0.023675215723894062
60.0, 0.02628133349922081
61.0, 0.028204661470960016
62.0, 0.029527779641811358
63.0, 0.02950743515576992
64.0, 0.030188792841004317
65.0, 0.030671691288707115
66.0, 0.02929665434249802
67.0, 0.028571912258652684
68.0, 0.027505477270943168
69.0, 0.02576502500741855
70.0, 0.022058203313025507
71.0, 0.01791208090480562
72.0, 0.013918504025529275
73.0, 0.011070683125715722
74.0, 0.00832614013128255
75.0, 0.0061936467639060275
76.0, 0.0047509351519624534
77.0, 0.003184541144978956
78.0, 0.0014310433608304214
79.0, 0.0002100988594589576
80.0, 0.0006730230741572585
81.0, 0.0009375360914541792
82.0, 0.001168920016428961
83.0, 0.0013640110278345528
84.0, 0.0012200866401525874
85.0, 0.0016157002551663465
86.0, 0.002072187420288571
87.0, 0.0020900361336151667
88.0, 0.0011035772997943284
89.0, 0.00188393371234731
90.0, 0.0046061513272012515
91.0, 0.008073142124117253
92.0, 0.012719945940224367
93.0, 0.017484083030567737
94.0, 0.021509921805737738
95.0, 0.02686265536521291
96.0, 0.033036786272516154
97.0, 0.040122247329939506
98.0, 0.04893305223237314
99.0, 0.05859702041366084
100.0, 0.06951592437282397
101.0, 0.08218779137269235
102.0, 0.09540380358300111
103.0, 0.1103773178678712
104.0, 0.12704136202480917
105.0, 0.14548517485379364
106.0, 0.15701998588906727
107.0, 0.16743003585286337
108.0, 0.1788720682929766
109.0, 0.17288928477058832
110.0, 0.17166819774239644
111.0, 0.17123845290325668
112.0, 0.16309160480717536
113.0, 0.1565258465819139
114.0, 0.14952966149667474
115.0, 0.14181108221341404
116.0, 0.1383329937775064
117.0, 0.13597006912965168
118.0, 0.13392732846170874
119.0, 0.1312074028961814
120.0, 0.13034008878542566
121.0, 0.13020871829374162
122.0, 0.13074311376728107
123.0, 0.13270806150246792
124.0, 0.13452016995229157
125.0, 0.13553116367753312
126.0, 0.1350054557545394
127.0, 0.14138101810476056
128.0, 0.14516961304122097
129.0, 0.14718359535157935
130.0, 0.15309249665296756
131.0, 0.15998574453925363
132.0, 0.16546171862608527
133.0, 0.16820934895193387
134.0, 0.17620292145437125
135.0, 0.182668643445397
136.0, 0.1888755804914456
137.0, 0.1976195433687569
138.0, 0.20667481662871537
139.0, 0.2176645000077254
140.0, 0.23083042501196122
141.0, 0.24230981339788785
142.0, 0.25342305186010594
143.0, 0.2651039949830079
144.0, 0.27859373250800895
145.0, 0.2920782981394728
146.0, 0.3096244484971858
147.0, 0.329842481845999
148.0, 0.343154819973658
149.0, 0.36639624082916394
150.0, 0.39069988797427946
151.0, 0.4110935566258093
152.0, 0.4307713733110562
153.0, 0.45562520536856704
154.0, 0.48114128063046435
155.0, 0.4960968805266089
156.0, 0.5211278297398393
157.0, 0.5391090073744264
158.0, 0.5459942649176962
159.0, 0.5573203715772997
160.0, 0.5542363266955872
161.0, 0.5433978236421114
162.0, 0.5303829046088
163.0, 0.5153710621029463
164.0, 0.49006320509494766
165.0, 0.45865190311255283
166.0, 0.44381381576749235
167.0, 0.4160424592648766
168.0, 0.39090958660786534
169.0, 0.37640719573185216
170.0, 0.3517561644669488
171.0, 0.3308173374742971
172.0, 0.3143281738233277
173.0, 0.30476264984318313
174.0, 0.28957882951049224
175.0, 0.2807555556346693
176.0, 0.27882467179071424
177.0, 0.2665255988052955
178.0, 0.2600936767227359
179.0, 0.2550718018496824
180.0, 0.24823747035533142
181.0, 0.2407082246420062
182.0, 0.23409686181871447
183.0, 0.22762561308460724
184.0, 0.2188754213515652
185.0, 0.21290232091340375
186.0, 0.20490331728817082
187.0, 0.19382431071257086
188.0, 0.1877208473708085
189.0, 0.17988124048903034
190.0, 0.17040094652432639
191.0, 0.1590082539457956
192.0, 0.15486112874574431
193.0, 0.1483803579220407
194.0, 0.14009970668359634
195.0, 0.13494680422330044
196.0, 0.12699203589507127
197.0, 0.12074500411443811
198.0, 0.11797934283435592
199.0, 0.11563668905708717
200.0, 0.11221107532575413
201.0, 0.10899192257633193
202.0, 0.10770930180818003
203.0, 0.10642873397667502
204.0, 0.10445291041898253
205.0, 0.10209599444152813
206.0, 0.10103357811504231
207.0, 0.09856621755746364
208.0, 0.0958325121181634
209.0, 0.09329626695637745
210.0, 0.09081454851907443
211.0, 0.08860123139802688
212.0, 0.08657264267863587
213.0, 0.08465339714150634
214.0, 0.08316901769090519
215.0, 0.0816788161597072
216.0, 0.08027577444795818
217.0, 0.0796095392263267
218.0, 0.07880711948367124
219.0, 0.07785739023345759
220.0, 0.07678295969814494
221.0, 0.07672309105578833
222.0, 0.07634151166889773
223.0, 0.07567442917135907
224.0, 0.07471017870993084
225.0, 0.07578866974804155
226.0, 0.07581947087697462
227.0, 0.07497747345502781
228.0, 0.07505411227661904
229.0, 0.07237845780862123
230.0, 0.07037531695470194
231.0, 0.07015219472509639
232.0, 0.06811521359198813
233.0, 0.0663763243288084
234.0, 0.06504670140972996
235.0, 0.0643214277420044
236.0, 0.062208761185954475
237.0, 0.060778348514831444
238.0, 0.05975608402085173
239.0, 0.05796382214267869
240.0, 0.059381661171857045
241.0, 0.06073176527718977
242.0, 0.06121055490435738
243.0, 0.06196674647907787
244.0, 0.06390733985685283
245.0, 0.0664838754193892
246.0, 0.06936706097088818
247.0, 0.07623256282908017
248.0, 0.08195177106419667
249.0, 0.0885993627813745
250.0, 0.10084889497023158
251.0, 0.11055386564073344
252.0, 0.12170313407805854
253.0, 0.13486952976110467
254.0, 0.14922021188677992
255.0, 0.16149684334868736
256.0, 0.17618637236063261
257.0, 0.1951673444547204
258.0, 0.200057912947367
259.0, 0.20688737165343396
260.0, 0.20945823415550557
261.0, 0.1992816574380994
262.0, 0.19267665093486372
263.0, 0.182459300960067
264.0, 0.16777700667818293
265.0, 0.14731175531512794
266.0, 0.13260146733236108
267.0, 0.1184624078364778
268.0, 0.10406080798383867
269.0, 0.09456498049569183
270.0, 0.08501652144439804
271.0, 0.07694125360297313
272.0, 0.07150864052389852
273.0, 0.06994545091218718
274.0, 0.0671789768752908
275.0, 0.06526680964654392
276.0, 0.06767878059176313
277.0, 0.06748764861544894
278.0, 0.06942304101008709
279.0, 0.07304634477868122
280.0, 0.07478170684896
281.0, 0.07568442757232215
282.0, 0.0758497844821472
283.0, 0.07526206295383617
284.0, 0.07379530347042508
285.0, 0.0736369362897763
286.0, 0.07257929404034241
287.0, 0.06893820345818001
288.0, 0.06601046885275128
289.0, 0.06588040283766092
290.0, 0.06742326352071457
291.0, 0.0690200610267859
292.0, 0.07356715054597529
293.0, 0.07892066531661011
294.0, 0.08479861034655234
295.0, 0.09117704193185693
296.0, 0.09386483037377193
297.0, 0.09308302883329307
298.0, 0.08915009858333953
299.0, 0.08523461041924829
300.0, 0.07363674687906785
301.0, 0.06107984929371093
302.0, 0.051578293951412134
303.0, 0.04104840952925217
304.0, 0.03196842008868532
305.0, 0.024590786275348966
306.0, 0.019475338295135862
307.0, 0.01483900024226076
308.0, 0.011476883154329284
309.0, 0.008814060623326897
310.0, 0.005305349557869668
311.0, 0.004226246411253539
312.0, 0.0026718105854682634
313.0, 0.0005627021419554181
314.0, 0.0007906951490541123
315.0, 0.0005783472099397844
316.0, 0.001202900931781189
317.0, 0.0029765241243434664
318.0, 0.001581120059268659
319.0, 0.0007688928944477539
320.0, 0.0006256503868383567
321.0, 0.0012873576883512044
322.0, 0.0004865379509718221
323.0, 0.001512699353074691
324.0, 0.003338510166517146
325.0, 0.0043686940255528404
326.0, 0.004705751298759602
327.0, 0.006019858717349502
328.0, 0.0076482819755488195
329.0, 0.00721817246151683
330.0, 0.008665396905411963
331.0, 0.010686066188333143
332.0, 0.012592218910419603
333.0, 0.012183028434915252
334.0, 0.01293990208231438
335.0, 0.01337810648008406
336.0, 0.013005552323837141
337.0, 0.01393373399948641
338.0, 0.014612448840406628
339.0, 0.015038152458046192
340.0, 0.01518933050496695
341.0, 0.015378352699696339
342.0, 0.01679064901974577
343.0, 0.018369627189937652
344.0, 0.018727409083033036
345.0, 0.019729811294645024
346.0, 0.021448096474407933
347.0, 0.023967222846983986
348.0, 0.027555785811758812
349.0, 0.029844298917263912
350.0, 0.03535664701649154
351.0, 0.043391702699004164
352.0, 0.048656419190163835
353.0, 0.058530973672526014
354.0, 0.06783550562294652
355.0, 0.0753374076316526
356.0, 0.08304261205767811
357.0, 0.0898997683299999
358.0, 0.09367085196036985
359.0, 0.09350869682364712
360.0, 0.09564051904704408
361.0, 0.09118282736785685
362.0, 0.08513660192247027
363.0, 0.08119047859973767
364.0, 0.07739307648854604
365.0, 0.07172587173965841
366.0, 0.06617098623058187
367.0, 0.0631721682511757
368.0, 0.05577984106616474
369.0, 0.05082160271459342
370.0, 0.04701417685197659
371.0, 0.04141128382957092
372.0, 0.03552346036787288
373.0, 0.03166899241360333
374.0, 0.029070356877135828
375.0, 0.024824516218376006
376.0, 0.022185551127702197
377.0, 0.019624005742137154
378.0, 0.016883282887679422
379.0, 0.014219427879887697
380.0, 0.01271515827637969
381.0, 0.00989327480609081
382.0, 0.00584429720509289
383.0, 0.006946200805182861
384.0, 0.00612508994358628
385.0, 0.003996669643250422
386.0, 0.0011457963142162079
387.0, 0.002117430007526182
388.0, 0.0012064294947737892
389.0, 0.00020183404566096356
390.0, 0.0002938176790351527
391.0, 0.0016060898235995048
392.0, 0.0020104271006987588
393.0, 0.0020518273304568585
394.0, 0.0022175856645307896
395.0, 0.0025124966952440797
396.0, 0.0029049193219335854
397.0, 0.0034007828603256954
398.0, 0.004015422662670274
399.0, 0.0042219288962542295
400.0, 0.0047922661508072026
401.0, 0.005234252303144678
402.0, 0.004598759745610569
403.0, 0.00351927059322208
404.0, 0.0033357002333213063
405.0, 0.003415515562883641
406.0, 0.0019873304443941055
407.0, 0.002077226263689183
408.0, 0.0017343151601147044
409.0, 0.0013228614526938909
410.0, 0.002895384926090787
411.0, 0.004450457405642445
412.0, 0.005929956096038473
413.0, 0.0071950359062044455
414.0, 0.007726441655001365
415.0, 0.010113556295386269
416.0, 0.012205281422043439
417.0, 0.013440648859365434
418.0, 0.01408691761104597
419.0, 0.01686529729479151
420.0, 0.01975436228315429
421.0, 0.022149461405229574
422.0, 0.02494336290334036
423.0, 0.02722962886237455
424.0, 0.029378835617028233
425.0, 0.031771003517551855
426.0, 0.0365595703747144
427.0, 0.037715936181278255
428.0, 0.03970945688395516
429.0, 0.044448032235151716
430.0, 0.0435036666974819
431.0, 0.04783198210754937
432.0, 0.05221470871138739
433.0, 0.05343940071951234
434.0, 0.05626473480755265
435.0, 0.06388776337797693
436.0, 0.07230672003011186
437.0, 0.07860293183615553
438.0, 0.08892915255173543
439.0, 0.10142354594268996
440.0, 0.11524436319612633
441.0, 0.12967502702232422
442.0, 0.1455007107751476
443.0, 0.16291829688080453
444.0, 0.18402476034531495
445.0, 0.2110802473166165
446.0, 0.23739311458388734
447.0, 0.2762891275304543
448.0, 0.3245342042442135
449.0, 0.3784834279843201
450.0, 0.4467389279158753
451.0, 0.5316324731444227
452.0, 0.6236552414642549
453.0, 0.7108671782189785
454.0, 0.8208052163412156
455.0, 0.9041596866922216
456.0, 0.9622493601431398
457.0, 0.9983743743602304
458.0, 0.9894200629808474
459.0, 0.9313118532088697
460.0, 0.8486207029995829
461.0, 0.7769867656189918
462.0, 0.6730427808706152
463.0, 0.58322206953326
464.0, 0.5051994398666425
465.0, 0.43163017316572216
466.0, 0.3702810305473554
467.0, 0.32233970250411675
468.0, 0.28206255622879595
469.0, 0.240300079759738
470.0, 0.21315608901623684
471.0, 0.18699508693385095
472.0, 0.16157895603079467
473.0, 0.13818680891671467
474.0, 0.12554618514351262
475.0, 0.1115882015312897
476.0, 0.09811278068851624
477.0, 0.08968394749960137
478.0, 0.07924670233603136
479.0, 0.06996636692653285
480.0, 0.0625193584456444
481.0, 0.05772501391367553
482.0, 0.050716745620435356
483.0, 0.045078830733675954
484.0, 0.04117067164457566
485.0, 0.03922628841950324
486.0, 0.03602445313739329
487.0, 0.03354800578128656
488.0, 0.031326518862489446
489.0, 0.028420409683671755
490.0, 0.0286991312471943
491.0, 0.027043747081347276
492.0, 0.024382303410037776
493.0, 0.02252391576438278
494.0, 0.022128681512752883
495.0, 0.020307358104871064
496.0, 0.018377881631482827
497.0, 0.018384474603817764
498.0, 0.01902096812505092
499.0, 0.01817503219533291
500.0, 0.01738520706812026
501.0, 0.018743397151194163
502.0, 0.01752110903321657
503.0, 0.01742067949121078
504.0, 0.01719401222288596
505.0, 0.01525815215847831
506.0, 0.014827047104759728
507.0, 0.013636748020625125
508.0, 0.012005899616594325
509.0, 0.010305761018838566
510.0, 0.010386755349397078
511.0, 0.008392071512878161
512.0, 0.006812257793036404
513.0, 0.007899365745517197
514.0, 0.007050145581665455
515.0, 0.0071757457642378855
516.0, 0.008111382719573393
517.0, 0.009599461318146154
518.0, 0.0083968655131471
519.0, 0.0108058948606043
520.0, 0.013216996374614562
521.0, 0.013370601624161768
522.0, 0.015667992780975887
523.0, 0.018661689740893078
524.0, 0.02226460328018134
525.0, 0.026525425927834346
526.0, 0.0324078591593713
527.0, 0.03893715900189957
528.0, 0.048631451813860437
529.0, 0.06279343977370214
530.0, 0.08149634134901822
531.0, 0.10381756118291731
532.0, 0.13446557435765402
533.0, 0.1736826171755283
534.0, 0.21128663351090454
535.0, 0.2603284824206456
536.0, 0.29758651562301724
537.0, 0.3151796763862553
538.0, 0.3117897845298634
539.0, 0.28626662242963274
540.0, 0.24740194648267505
541.0, 0.20213734274509676
542.0, 0.16645439151517605
543.0, 0.13326202887052704
544.0, 0.10759418781464473
545.0, 0.08828400873818001
546.0, 0.07000106518977499
547.0, 0.057777622526233495
548.0, 0.04744849483364047
549.0, 0.0388217355410961
550.0, 0.032643341329394775
551.0, 0.027565620652474206
552.0, 0.023537333992571192
553.0, 0.019806096263667226
554.0, 0.015256155246683757
555.0, 0.01416046521251352
556.0, 0.0114864831624137
557.0, 0.009360044238524415
558.0, 0.010347133095915319
559.0, 0.007368155047750819
560.0, 0.005399329198867299
561.0, 0.0043325738470608105
562.0, 0.003954463422298576
563.0, 0.001955268355274183
564.0, 0.0009126057003890057
565.0, 0.0005344453966672426
566.0, 0.0005907741590176555
567.0, 0.0005996507986394682
568.0, 0.0007084345886622724
569.0, 0.0014248374090774475
570.0, 0.0024306294466480706
571.0, 0.0004541548606941528
572.0, 0.0014833255684969817
573.0, 0.0021834793071025486
574.0, 0.0016306687768318478
575.0, 0.0002886120130493828
576.0, 0.0020543556670324504
577.0, 0.002005834062600312
578.0, 0.00047998132153948935
579.0, 0.0009516727590673054
580.0, 0.0006854646297118395
581.0, 0.0006534977432872456
582.0, 0.00077505992388578
583.0, 0.0007014779673824519
584.0, 0.0025502265938901402
585.0, 0.0029145426842163685
586.0, 0.0027687794958859845
587.0, 0.0034975210670829546
588.0, 0.005541969512607801
589.0, 0.004511561349453556
590.0, 0.0033111550164354906
591.0, 0.004156685135611403
592.0, 0.0037373160109927745
593.0, 0.003953066111729002
594.0, 0.004258307986353311
595.0, 0.004320523609481428
596.0, 0.0038933017029493893
597.0, 0.004609749324981046
598.0, 0.004851781484786258
599.0, 0.004559895466560567
600.0, 0.005782668520767436
601.0, 0.0057181313280156906
602.0, 0.0051417210932123356
603.0, 0.005011946930864601
604.0, 0.007286981857328729
605.0, 0.005848533283311496
606.0, 0.005157048960817364
607.0, 0.006662148461335353
608.0, 0.011806379593317894
609.0, 0.007222508335775721
610.0, 0.0060155055065423116
611.0, 0.005577740192927724
612.0, 0.003200666159100328
613.0, 0.005627955788427152
614.0, 0.006185867246891156
615.0, 0.005500066848188383
616.0, 0.004337057816535342
617.0, 0.005710983860654125
618.0, 0.006057997218284707
619.0, 0.007134111635690911
620.0, 0.009054797538073516
621.0, 0.009680471461387032
622.0, 0.0104368886585135
623.0, 0.011246862905184672
624.0, 0.011827225766078317
625.0, 0.011569837533576755
626.0, 0.011843731524896357
627.0, 0.011666547728817483
628.0, 0.010373576853784554
629.0, 0.007238177741663696
630.0, 0.008411779916498753
631.0, 0.007113082435504675
632.0, 0.00535544187885466
633.0, 0.004743006594231412
634.0, 0.004133920123951472
635.0, 0.0031132096657660205
636.0, 0.0023784188485893366
637.0, 0.0019878278189820312
638.0, 0.000574100221091773
639.0, 0.0005358429827802404
640.0, 0.0007729873450686711
641.0, 0.0008892079059637651
642.0, 0.0005702520215478215
643.0, 0.0007361506918886035
644.0, 0.0010922922041026598
645.0, 0.001301451965930986
646.0, 0.0009345335133123959
647.0, 0.00030463710318048777
648.0, 0.00016946945827960518
649.0, 0.0006340975553508208
650.0, 0.001596897308710179
651.0, 0.0010142493778886835
652.0, 0.0007463577054044604
653.0, 0.0004945140722896122
654.0, 0.00023718566866092519
655.0, 0.0004949582244648352
656.0, 0.0010095857201598089
657.0, 0.0009284557752871716
658.0, 0.000483856207246042
659.0, 0.0006387653262202344
660.0, 0.00041087853284906104
661.0, 0.000947090557267232
662.0, 0.0012843005043889607
663.0, 0.00022263025829594342
664.0, 0.0009070960335853136
665.0, 0.0006995645615865492
666.0, 0.00030599926555886846
667.0, 0.0001801197968816759
668.0, 0.00017435875457755693
669.0, 0.00021111500524818202
670.0, 0.0002711769833644605
671.0, 0.0003620572737736301
672.0, 0.0005271346466689352
673.0, 0.0010455511795313583
674.0, 0.0016406917060614163
675.0, 0.002226082603968753
676.0, 0.0027284106779432403
677.0, 0.0008035284515851474
678.0, 0.0018760371416508413
679.0, 0.0029070965297480844
680.0, 0.001616124162751127
681.0, 0.0009772292505228774
682.0, 0.0015828111086041876
683.0, 0.001968440427814634
684.0, 0.0018766363565737522
685.0, 0.0025291352847801813
686.0, 0.0027157792940601735
687.0, 0.002268131553709429
688.0, 0.0020261811659085197
689.0, 0.0034574610388229204
690.0, 0.0011117177229020632
691.0, 0.001665260361133474
692.0, 0.0026025766223791115
693.0, 0.0017710117489883603
694.0, 0.0017251681399881983
695.0, 0.002580200407216161
696.0, 0.00306992192588461
697.0, 0.00303133780927972
698.0, 0.003797275607887383
699.0, 0.004010703711264697
700.0, 0.003562935137821926
701.0, 0.0031650266235444106
702.0, 0.004000440396207597
703.0, 0.0030525619768824374
704.0, 0.0037088962945353455
705.0, 0.00459909935795731
706.0, 0.004587538643525548
707.0, 0.004053562927466742
708.0, 0.004897184517826316
709.0, 0.00518819726770632
710.0, 0.004798294563072956
711.0, 0.005523221914167634
712.0, 0.0049283316756480715
713.0, 0.004264871325262575
714.0, 0.004705502990406708
715.0, 0.007492348264426475
716.0, 0.004499187305531701
717.0, 0.005853536641132375
718.0, 0.00693396410212825
719.0, 0.005340360781525966
720.0, 0.005048824542837272
721.0, 0.004805745799980926
722.0, 0.004549922615124565
723.0, 0.00480310834555132
724.0, 0.00677974404727654
725.0, 0.006175589652200852
726.0, 0.005328410737354684
727.0, 0.0060391452524996125
728.0, 0.00932150835744431
729.0, 0.006052607193465422
730.0, 0.007187586352575091
731.0, 0.008000142098596336
732.0, 0.007140048437588585
733.0, 0.007493682979271403
734.0, 0.008515962650488951
735.0, 0.008248220384390176
736.0, 0.008085769054130401
737.0, 0.010480856110315588
738.0, 0.010143678691635547
739.0, 0.009864034093747854
740.0, 0.011081738309109327
741.0, 0.013811268982561613
742.0, 0.012605362336584311
743.0, 0.013892281888660566
744.0, 0.014460410527262905
745.0, 0.014106128202068084
746.0, 0.014111713715774323
747.0, 0.01710653438975247
748.0, 0.017901170437196
749.0, 0.018116234394062694
750.0, 0.019387260740129975
751.0, 0.02138284607087609
752.0, 0.02186879210783974
753.0, 0.023180539484032966
754.0, 0.024963213906600265
755.0, 0.0239982160351221
756.0, 0.026733223301800824
757.0, 0.028401405886323342
758.0, 0.02856725846628268
759.0, 0.027650541093165924
760.0, 0.03141622588038047
761.0, 0.03156974645959502
762.0, 0.03218317380688805
763.0, 0.034890025948164406
764.0, 0.039085816985180044
765.0, 0.03720429223203924
766.0, 0.038387880325688836
767.0, 0.040634282947492426
768.0, 0.04006521698813253
769.0, 0.04236892160325551
770.0, 0.04450128865328169
771.0, 0.04415325115954464
772.0, 0.0425568107022383
773.0, 0.04908214754261559
774.0, 0.04760618712513272
775.0, 0.047151421639595514
776.0, 0.049091225622807245
777.0, 0.053116307690033435
778.0, 0.05337019399620096
779.0, 0.054570722287923576
780.0, 0.05532832656709587
781.0, 0.0556217533792329
782.0, 0.05857481002041055
783.0, 0.06280896493335357
784.0, 0.06238022453676011
785.0, 0.06043987998810992
786.0, 0.06269312277154998
787.0, 0.059073214532332136
788.0, 0.055351090112571964
789.0, 0.05203141896361753
790.0, 0.048522051733859345
791.0, 0.04125669957017144
792.0, 0.0374977049676906
793.0, 0.033613972001463245
794.0, 0.029040409512574812
795.0, 0.02405248559971892
796.0, 0.026185006185873477
797.0, 0.022214997488274445
798.0, 0.01940176081572977
799.0, 0.020214726084183173
800.0, 0.01983119162758158
801.0, 0.018208522572911688
802.0, 0.01904559824491308
803.0, 0.02049235080523751
804.0, 0.01992291658757421
805.0, 0.023527111390745602
806.0, 0.02549922838378981
807.0, 0.02753441124630766
808.0, 0.031206122114048416
809.0, 0.03901229447182076
810.0, 0.042711161615411976
811.0, 0.048551582801037815
812.0, 0.053811834251741957
813.0, 0.05472082515571816
814.0, 0.04800750555211915
815.0, 0.045672837989968594
816.0, 0.03933304306222772
817.0, 0.029378471621891826
818.0, 0.02415847620114727
819.0, 0.020435967002615716
820.0, 0.016306034983798283
821.0, 0.01333420128448462
822.0, 0.012232364871442483
823.0, 0.008185519139413493
824.0, 0.007173169595484219
825.0, 0.007410511465742705
826.0, 0.007030243402554159
827.0, 0.0035777744200082575
828.0, 0.006416904269977304
829.0, 0.005089710455023149
830.0, 0.0029674654625417955
831.0, 0.0025108038227932544
832.0, 0.0044671393409430726
833.0, 0.002417437508677756
834.0, 0.0025610181841378746
835.0, 0.00377622055601644
836.0, 0.003263757481643282
837.0, 0.0020506312223841474
838.0, 0.002894513427935145
839.0, 0.002511091141353719
840.0, 0.0008279157015633758
841.0, 0.0016815388467225035
842.0, 0.0009527369456664024
843.0, 0.0009124619482728348
844.0, 0.0017657968185123096
845.0, 0.0031060006509099013
846.0, 0.0019506210528255172
847.0, 0.0023039718012954125
848.0, 0.0018481740871243877
849.0, 0.0006820779784008385
850.0, 7.70857382500162e-05
851.0, 0.0016939525801777263
852.0, 0.0010079631445924395
853.0, 0.0003040429579921751
854.0, 0.0007200058545182469
855.0, 0.0013932791966567112
856.0, 0.0014495384871900249
857.0, 0.0017895034355732726
858.0, 0.0015668438805103448
859.0, 0.00012924453984823722
860.0, 0.0015553591153500924
861.0, 0.0011784999621032364
862.0, 0.0011304023531857543
863.0, 0.0015778951887231683
864.0, 0.0014335344417942127
865.0, 0.000759203224966811
866.0, 0.0004909178488354696
867.0, 0.001027968247377784
868.0, 0.0019140610647114796
869.0, 0.0003199901477093204
870.0, 0.0003333609944671202
871.0, 0.0002605551470704598
872.0, 0.00022573210109553415
873.0, 0.0006091822354542044
874.0, 0.001023390525354099
875.0, 0.0005203121382716765
876.0, 0.00023787288778938715
877.0, 0.0004588770630731884
878.0, 0.0009740104077115218
879.0, 0.0009772005615607696
880.0, 0.0010793271556026733
881.0, 0.00079740653092946
882.0, 0.00020105002623011292
883.0, 0.0006743313714333724
884.0, 0.0017851702220618665
885.0, 0.0013350696586901213
886.0, 0.001031648539194191
887.0, 0.00235291542955769
888.0, 0.0004536454314294513
889.0, 8.422211972987297e-05
890.0, 0.0006689676908253109
891.0, 0.001324551864622066
892.0, 0.0008852740851834084
893.0, 0.0009368309886112852
894.0, 0.0006700022079849648
895.0, 0.00038784613142081126
896.0, 0.0006728040309760668
897.0, 0.002732961584386461
898.0, 0.002086884757938483
899.0, 0.00156838759617658
900.0, 0.0015221950892076652
901.0, 0.0017908689979357038
902.0, 0.0009995478405649223
903.0, 0.0020909485381002076
904.0, 0.0018465550042961146
905.0, 0.0016402864591975016
906.0, 0.0035430335183544515
907.0, 0.0032020304483105087
908.0, 0.0022588270471976275
909.0, 0.002651025706222995
910.0, 0.003332083256569427
911.0, 0.0011841071530229333
912.0, 0.0021485850394506113
913.0, 0.002883264173668702
914.0, 0.0022540032102949283
915.0, 0.0010108305433600808
916.0, 0.00313045386336975
917.0, 0.0016446018173185421
918.0, 0.0007654898096256902
919.0, 0.0013569893283644848
920.0, 0.002887152375889708
921.0, 0.000704351347517114
922.0, 0.0011665940280883892
923.0, 0.0022406170396021404
924.0, 0.002815516397567162
925.0, 0.0022376496363664686
926.0, 0.0024534788511777353
927.0, 0.0009397011384619713
928.0, 0.0004759548217118463
929.0, 0.0010817302761358702
930.0, 0.0014624333959510766
931.0, 0.0008765856847581809
932.0, 0.0016884831337111092
933.0, 0.001837142564707737
934.0, 0.0009505676861827103
935.0, 0.0002403813162688082
936.0, 0.000582171416010665
937.0, 0.0008695555333761197
938.0, 0.0010102062547042978
939.0, 0.001148207194540537
940.0, 0.0018733305650253966
941.0, 0.0005671148163645439
942.0, 0.0007722800413857089
943.0, 0.0014877079391455777
944.0, 0.001512823077524714
945.0, 0.0003000846405175424
946.0, 0.0010068412489399828
947.0, 0.001067945286091482
948.0, 0.0017041480887482461
949.0, 0.0038536891398259845
950.0, 0.0016093081100259136
951.0, 0.0017892655812892487
952.0, 0.002400035956622776
953.0, 0.002132876013362954
954.0, 0.00022568185093383374
955.0, 0.0011504244088172042
956.0, 0.0019481295379470656
957.0, 0.001969332070317051
958.0, 0.0018689253449321913
959.0, 0.0030045424856310543
960.0, 0.0010475223790255897
961.0, 0.0010395438527584094
962.0, 0.0009443154174767986
963.0, 0.0003115815753149578
964.0, 0.00010002400442437186
965.0, 0.0010724915964646748
966.0, 0.001724312449509483
967.0, 0.0019403871233538534
968.0, 0.00191207786794543
969.0, 0.00226001430111691
970.0, 0.0012694211423209597
971.0, 0.002961308505729267
972.0, 0.004305652259274903
973.0, 0.003560439403970673
974.0, 0.0020507158723386317
975.0, 0.0032718553577314137
976.0, 0.0032344427721224312
977.0, 0.004426468439064736
978.0, 0.0075246683121039755
979.0, 0.006373519190962236
980.0, 0.005241321285021933
981.0, 0.007655187699405622
982.0, 0.009703987011497535
983.0, 0.00918770848249665
984.0, 0.014663294422096521
985.0, 0.01620857385921469
986.0, 0.017136657668018244
987.0, 0.019366718720372225
988.0, 0.02324520860664541
989.0, 0.022368695918811743
990.0, 0.02419708836226562
991.0, 0.028535898496820415
992.0, 0.031683802481298734
993.0, 0.030629756292980453
994.0, 0.03277520577781892
995.0, 0.030536491950002066
996.0, 0.026134651946654628
997.0, 0.0224196814350414
998.0, 0.021282970483377437
999.0, 0.014333509482320442
1000.0, 0.014027266115462848
1001.0, 0.013568143154602133
1002.0, 0.011481190082839524
1003.0, 0.008717855870946872
1004.0, 0.011867581757226353
1005.0, 0.009748932315129128
1006.0, 0.008261738966689271
1007.0, 0.008699127651759625
1008.0, 0.010282762315598448
1009.0, 0.009407280782476345
1010.0, 0.010743240898703831
1011.0, 0.010463551953485884
1012.0, 0.008862391266881382
1013.0, 0.008221175826634081
1014.0, 0.01265648565691181
1015.0, 0.010945494730051818
1016.0, 0.00983520846417745
1017.0, 0.010293355267863917
1018.0, 0.010721890254300186
1019.0, 0.009730233464512164
1020.0, 0.010614608470715044
1021.0, 0.011007865282574171
1022.0, 0.01091580397984799
1023.0, 0.011473505307485315
1024.0, 0.014466990717029764
1025.0, 0.011176164519986603
1026.0, 0.010847215547674599
1027.0, 0.013111907864741508
1028.0, 0.013597289804690205
1029.0, 0.011088647119942452
1030.0, 0.012895414612225216
1031.0, 0.013890552526251399
1032.0, 0.013642079851407028
1033.0, 0.013648538688288348
1034.0, 0.015612643563769426
1035.0, 0.014431967413105274
1036.0, 0.014961626844166746
1037.0, 0.016868450788927604
1038.0, 0.017796161145362713
1039.0, 0.01467716264963198
1040.0, 0.019271516597000854
1041.0, 0.01902262290995279
1042.0, 0.01727374372885344
1043.0, 0.02034203906493455
1044.0, 0.02077545679134005
1045.0, 0.017181058111830575
1046.0, 0.020076046025605865
1047.0, 0.023501373397673577
1048.0, 0.020456417005441558
1049.0, 0.02114466259276356
1050.0, 0.024523014011255426
1051.0, 0.02359024062824493
1052.0, 0.02124713447810008
1053.0, 0.021324608522485897
1054.0, 0.022934571231252525
1055.0, 0.021975076241849658
1056.0, 0.02422746821956659
1057.0, 0.024771361508054722
1058.0, 0.021296282415639214
1059.0, 0.024057961013554053
1060.0, 0.025633031527111282
1061.0, 0.023964431630949547
1062.0, 0.023875557471142887
1063.0, 0.02684834340751269
1064.0, 0.02549069965995108
1065.0, 0.02707006891054357
1066.0, 0.029023631461399465
1067.0, 0.028829950466535074
1068.0, 0.027726122968357053
1069.0, 0.03279904266767912
1070.0, 0.034757397570535586
1071.0, 0.03380455647359844
1072.0, 0.03507706747349197
1073.0, 0.03815947540323701
1074.0, 0.03654139924827822
1075.0, 0.03821534510412837
1076.0, 0.03959757966105633
1077.0, 0.039739680113103734
1078.0, 0.040244192464778804
1079.0, 0.0441312703544324
1080.0, 0.04453258328914124
1081.0, 0.04311258357358691
1082.0, 0.044681963637187766
1083.0, 0.0473763707167161
1084.0, 0.04716521481643775
1085.0, 0.05131223097841422
1086.0, 0.05421831396657019
1087.0, 0.05430509956381817
1088.0, 0.056021616290725745
1089.0, 0.0626046949076064
1090.0, 0.061933699105196735
1091.0, 0.06431458639921153
1092.0, 0.06909408479515981
1093.0, 0.06992231578675079
1094.0, 0.06545227397211266
1095.0, 0.07141538109745788
1096.0, 0.07172358287356038
1097.0, 0.07005923014112495
1098.0, 0.07046568732061699
1099.0, 0.0721041458971642
1100.0, 0.06607418738553918
1101.0, 0.06589981857201281
1102.0, 0.06405688378889635
1103.0, 0.06032217820571404
1104.0, 0.05636591006254266
1105.0, 0.05526002200926343
1106.0, 0.05436430068146195
1107.0, 0.04875640459329702
1108.0, 0.04763162693274224
1109.0, 0.04847334427505771
1110.0, 0.04404466989484642
1111.0, 0.043237618148378225
1112.0, 0.044522876922103556
1113.0, 0.041146592729372086
1114.0, 0.037786509272763245
1115.0, 0.03932489305290001
1116.0, 0.03792055146041714
1117.0, 0.03292127489084082
1118.0, 0.03289644679458183
1119.0, 0.03155362500245944
1120.0, 0.02674422209748973
1121.0, 0.02876832709005762
1122.0, 0.0313241588406291
1123.0, 0.028800611034505163
1124.0, 0.02684646310074992
1125.0, 0.026126836318395595
1126.0, 0.02203693673322451
1127.0, 0.021509472921498258
1128.0, 0.0221523525961396
1129.0, 0.019508998065479257
1130.0, 0.01587415590427243
1131.0, 0.016004414104286116
1132.0, 0.016926074611501463
1133.0, 0.014558557257946952
1134.0, 0.014997458244040054
1135.0, 0.014879137753261011
1136.0, 0.011784281078502677
1137.0, 0.012825095708880593
1138.0, 0.013756271502013567
1139.0, 0.011925109603735507
1140.0, 0.011314787944942842
1141.0, 0.01224034225073858
1142.0, 0.00946502935456858
1143.0, 0.008281905422988666
1144.0, 0.009405532673344612
1145.0, 0.009441577571476576
1146.0, 0.008390631281350234
1147.0, 0.008178291612289936
1148.0, 0.00813382226193164
1149.0, 0.00683516321268118
1150.0, 0.006637884142132883
1151.0, 0.006475791092691493
1152.0, 0.005135538840748954
1153.0, 0.0037897128653900324
1154.0, 0.005688958956082344
1155.0, 0.004584785773146441
1156.0, 0.003472750809267715
1157.0, 0.0041712313269695175
1158.0, 0.005736880642164774
1159.0, 0.002038505544089027
1160.0, 0.00383722369174921
1161.0, 0.004080693578664834
1162.0, 0.001999500376064778
1163.0, 0.0005860266739126749
1164.0, 0.0036925137632220807
1165.0, 0.0019068290116076728
1166.0, 0.0010065880376328715
1167.0, 0.0022062707682646548
1168.0, 0.00386929434888061
1169.0, 0.00028117889527855917
1170.0, 0.0033318508096130657
1171.0, 0.0021124775820285675
1172.0, 0.0009417116798056841
1173.0, 0.001949905222766237
1174.0, 0.004146327523916681
1175.0, 0.0015542259709392875
1176.0, 0.0024716522821485137
1177.0, 0.005000321324166693
1178.0, 0.005232083062112635
1179.0, 0.0021209049213395913
1180.0, 0.006816956863511841
1181.0, 0.006894411405324996
1182.0, 0.005841202362937042
1183.0, 0.0066047524614406454
1184.0, 0.007930356606840485
1185.0, 0.004025889389878575
1186.0, 0.0051921648760432084
1187.0, 0.008250379504369533
1188.0, 0.007695389455835025
1189.0, 0.007023314341368693
1190.0, 0.010686302829711378
1191.0, 0.007809111589571828
1192.0, 0.009183532990962284
1193.0, 0.011680082323511282
1194.0, 0.011780312297565034
1195.0, 0.009979272190234515
1196.0, 0.012531256437441022
1197.0, 0.015535891511056166
1198.0, 0.01324978173190518
1199.0, 0.01442956020383402
1200.0, 0.017263635374646997
1201.0, 0.016469800728807864
1202.0, 0.01931998743154038
1203.0, 0.02277940828958987
1204.0, 0.02168930570907987
1205.0, 0.021423876295554832
1206.0, 0.024099352541921398
1207.0, 0.024175368738647802
1208.0, 0.021229134323091273
1209.0, 0.02457642002456457
1210.0, 0.024288179788435473
1211.0, 0.020772847832896502
1212.0, 0.01978187815957247
1213.0, 0.025000378039791826
1214.0, 0.01921652951998602
1215.0, 0.01768416285842279
1216.0, 0.018885098885318023
1217.0, 0.018312130416986476
1218.0, 0.011656221841747595
1219.0, 0.014772535041988564
1220.0, 0.012803231722334284
1221.0, 0.010338112134264612
1222.0, 0.01045741962139565
1223.0, 0.012911184171844796
1224.0, 0.008043905697751867
1225.0, 0.007451851367986125
1226.0, 0.009527478897044845
1227.0, 0.008441021759989446
1228.0, 0.005440491472311484
1229.0, 0.00874974088878562
1230.0, 0.007357650511937959
1231.0, 0.00486045410408568
1232.0, 0.007256698865477844
1233.0, 0.00849111076536925
1234.0, 0.004256777211544723
1235.0, 0.005304831383234521
1236.0, 0.005049231291196037
1237.0, 0.0025407261901271606
1238.0, 0.0022012593857820423
1239.0, 0.004487137566347562
1240.0, 0.006327321543615614
1241.0, 0.0035990807571975774
1242.0, 0.004374469264900561
1243.0, 0.003052894025849314
1244.0, 0.0018576840926605796
1245.0, 0.0029089872129852284
1246.0, 0.005384540449570696
1247.0, 0.0029839794795107942
1248.0, 0.003975557605470678
1249.0, 0.004482372953577529
1250.0, 0.003605721730353448
1251.0, 0.002489431305097877
1252.0, 0.004102316740058876
1253.0, 0.0040483638319941855
1254.0, 0.002812980288117526
1255.0, 0.0037062916929616
1256.0, 0.005117912321136007
1257.0, 0.0022336374833737517
1258.0, 0.0035246609936081933
1259.0, 0.003176336683105384
1260.0, 0.0029830375568041224
1261.0, 0.004456567051201553
1262.0, 0.005924663014241516
1263.0, 0.0010583052113637826
1264.0, 0.00334566108500578
1265.0, 0.005589739162287646
1266.0, 0.0039143133936399375
1267.0, 0.0011708212203007339
1268.0, 0.0018498763093858204
1269.0, 0.00553135311421815
1270.0, 0.001353967719067334
1271.0, 0.004360709524291868
1272.0, 0.005577975078393013
1273.0, 0.0031828232872884066
1274.0, 0.002165851060480814
1275.0, 0.0037108569584029557
1276.0, 0.002913817491155239
1277.0, 0.0027048020890623656
1278.0, 0.002907453750103384
1279.0, 0.0028155609351131127
1280.0, 0.002077080879537624
1281.0, 0.005326937407487446
1282.0, 0.004568813556502556
1283.0, 0.003226697308207455
1284.0, 0.003696200474001522
1285.0, 0.005432690409225454
1286.0, 0.002799457352325392
1287.0, 0.001623229516605943
1288.0, 0.003085638584433248
1289.0, 0.002436927890171962
1290.0, 0.0016831272936418487
1291.0, 0.004119908942958871
1292.0, 0.005200599143699893
1293.0, 0.0018409668543921513
1294.0, 0.0034894914000888526
1295.0, 0.003729131453654391
1296.0, 0.0018219611258803023
1297.0, 0.0016891979109583237
1298.0, 0.0033059178257438815
1299.0, 0.001668820430469405
1300.0, 0.001690904762432408
1301.0, 0.0028731678015059565
1302.0, 0.0033090087809573452
1303.0, 0.0013936817799690834
1304.0, 0.0033447577534460125
1305.0, 0.001654780141883394
1306.0, 0.00044891872828242555
1307.0, 0.002038202905243664
1308.0, 0.004531078866448165
1309.0, 0.0016865813000995116
1310.0, 0.002472875495979809
1311.0, 0.004611874293003673
1312.0, 0.003887567379846319
1313.0, 0.003517433689265172
1314.0, 0.005155761245976159
1315.0, 0.0033153678517952815
1316.0, 0.0012290486408885826
1317.0, 0.006044978556670235
1318.0, 0.005242263083556251
1319.0, 0.001709845263427717
1320.0, 0.0019272015176530336
1321.0, 0.004637103076713951
1322.0, 0.002575761182267575
1323.0, 0.003510508193440709
1324.0, 0.004060881024229274
1325.0, 0.0028226725926644024
1326.0, 0.0013648626851394648
1327.0, 0.006092450522939486
1328.0, 0.00259997524935827
1329.0, 0.0007952922239923664
1330.0, 0.002091925820274841
1331.0, 0.0030380527806931285
1332.0, 0.0007236075071250614
1333.0, 0.0031557487468702812
1334.0, 0.0021475194788371415
1335.0, 0.0010101481887437637
1336.0, 0.0017970017528494298
1337.0, 0.0034511473223446084
1338.0, 0.0033283847142768237
1339.0, 0.0006956650353223525
1340.0, 0.0023546033504164574
1341.0, 0.0011778655654780372
1342.0, 0.0012717500652435231
1343.0, 0.003155000921125406
1344.0, 0.003998076517785786
1345.0, 0.0013509264541873523
1346.0, 0.0035093374975976215
1347.0, 0.004284654486643798
1348.0, 0.003279754264664794
1349.0, 0.0031029691304629153
1350.0, 0.00573149413637955
1351.0, 0.0022942365175108916
1352.0, 0.0017930152543326912
1353.0, 0.004136361338560681
1354.0, 0.003905282235410558
1355.0, 0.0015830005244190396
1356.0, 0.001957328852185818
1357.0, 0.006350865190549393
1358.0, 0.0026645811434147944
1359.0, 0.0024801433105725713
1360.0, 0.0034806503273063635
1361.0, 0.002942794259688665
1362.0, 0.0010795302155627937
1363.0, 0.006768401725539041
1364.0, 0.0034031369551713133
1365.0, 0.0011272561085354268
1366.0, 0.0038218906999953877
1367.0, 0.006227715748391614
1368.0, 0.001830617079560589
1369.0, 0.001754927249283428
1370.0, 0.0034737063343248387
1371.0, 0.002490447883017375
1372.0, 0.0020467308116356624
1373.0, 0.0027609171530782154
1374.0, 0.0029783253799678623
1375.0, 0.000676578314456796
1376.0, 0.0032992508718591588
1377.0, 0.00260404064189938
1378.0, 0.0017100058368814649
1379.0, 0.0033054258646523366
1380.0, 0.006191748596194603
1381.0, 0.0010491529365004642
1382.0, 0.004750067467417265
1383.0, 0.006724760448919652
1384.0, 0.004231412017874209
1385.0, 0.004200177421482854
1386.0, 0.009541378030575014
1387.0, 0.005447120109596467
1388.0, 0.003794735711580874
1389.0, 0.006335185158772503
1390.0, 0.004451927000456528
1391.0, 0.002007800887362562
1392.0, 0.004012997983058284
1393.0, 0.008226578113826826
1394.0, 0.004170161171382181
1395.0, 0.006344220778838724
1396.0, 0.007622809868526344
1397.0, 0.0058227714078991286
1398.0, 0.00349519773655825
1399.0, 0.0059727319585813595
1400.0, 0.004905768970819697
1401.0, 0.0034478867249887347
1402.0, 0.006897570942142084
1403.0, 0.007379864784464875
1404.0, 0.004658623770699936
1405.0, 0.007155995087363931
1406.0, 0.010460596635652028
1407.0, 0.0042648129167103515
1408.0, 0.006757384452595922
1409.0, 0.009189592760082117
1410.0, 0.007435247614766256
1411.0, 0.004809545875417579
1412.0, 0.007547525715217503
1413.0, 0.005632711556922753
1414.0, 0.005081990543646245
1415.0, 0.007597705395833025
1416.0, 0.007708737778471938
1417.0, 0.0031655461764923546
1418.0, 0.007601277301088812
1419.0, 0.007142438430218267
1420.0, 0.0030936188974404893
1421.0, 0.005359500368284044
1422.0, 0.008146979696211752
1423.0, 0.00593850726455581
1424.0, 0.0037011577993705034
1425.0, 0.009298007278366369
1426.0, 0.005440135432538129
1427.0, 0.003084108615122263
1428.0, 0.0053351634604624065
1429.0, 0.007122242075478014
1430.0, 0.0013895932043332757
1431.0, 0.0058007156634616985
1432.0, 0.00849826689886921
1433.0, 0.004667640736272002
1434.0, 0.0044958840553232194
1435.0, 0.00702878572954861
1436.0, 0.005382260077981857
1437.0, 0.0021529781025553772
1438.0, 0.006212940546936616
1439.0, 0.006161425135337798
1440.0, 0.00456148589710513
1441.0, 0.005467155630545124
1442.0, 0.007585898789049628
1443.0, 0.001822853848260049
1444.0, 0.00402852241018519
1445.0, 0.007039363696429377
1446.0, 0.003920742359555351
1447.0, 0.002745341930334868
1448.0, 0.0057964472390106365
1449.0, 0.006188511819728997
1450.0, 0.0005960292738486179
1451.0, 0.00652028272562303
1452.0, 0.004579772380144343
1453.0, 0.0021395539264463977
1454.0, 0.004297765716706071
1455.0, 0.008663426162707164
1456.0, 0.0036035714163378686
1457.0, 0.004807900290212289
1458.0, 0.006363789882510162
1459.0, 0.004554140912476768
1460.0, 0.004476536201069709
1461.0, 0.00717809608607624
1462.0, 0.00558628088391188
1463.0, 0.0018509693126022564
1464.0, 0.007762883042390579
1465.0, 0.007579059699470619
1466.0, 0.004490231112134476
1467.0, 0.004447069727632431
1468.0, 0.008326684471480036
1469.0, 0.003399174010368596
1470.0, 0.004502474446921582
1471.0, 0.008725242805047127
1472.0, 0.005936624161299762
1473.0, 0.004159882215171751
1474.0, 0.007955223884696012
1475.0, 0.007285678789040654
1476.0, 0.002530937923756394
1477.0, 0.006048056717338265
1478.0, 0.007771424557771267
1479.0, 0.0046579817284289945
1480.0, 0.0033289941952132163
1481.0, 0.008748580925197258
1482.0, 0.0027244970898924275
1483.0, 0.004116780944682989
1484.0, 0.008358651861140863
1485.0, 0.005449401859614254
1486.0, 0.0022599834746040385
1487.0, 0.005162759351575905
1488.0, 0.009414467686625032
1489.0, 0.0024307811337415984
1490.0, 0.005541210097299955
1491.0, 0.006699074853755168
1492.0, 0.004783434441221941
1493.0, 0.0047717683909742105
1494.0, 0.008449937975129287
1495.0, 0.003109854576709263
1496.0, 0.0031411170818491686
1497.0, 0.007666222182388632
1498.0, 0.005235062393303451
1499.0, 0.0035847631789711915
1500.0, 0.0069642651972697655
1501.0, 0.008748770009933314
1502.0, 0.002632156532026033
1503.0, 0.00621120433098273
1504.0, 0.007838371706942612
1505.0, 0.00505223887913186
1506.0, 0.004741654285365143
1507.0, 0.009161356574956838
1508.0, 0.005888113985840456
1509.0, 0.000897871617194311
1510.0, 0.008354795606614281
1511.0, 0.005993632852611504
1512.0, 0.0031144279779086745
1513.0, 0.005786961650518789
1514.0, 0.00934419875161811
1515.0, 0.0018891200151011796
1516.0, 0.007281325870443847
1517.0, 0.009174539912840243
1518.0, 0.004304010948981027
1519.0, 2.0985322821064422e-05
1520, 0.0
1521, 0.0
1522, 0.0
1523, 0.0
1524, 0.0
1525, 0.0
1526, 0.0
1527, 0.0
1528, 0.0
1529, 0.0
1530, 0.0
1531, 0.0
1532, 0.0
1533, 0.0
1534, 0.0
1535, 0.0
1536, 0.0
1537, 0.0
1538, 0.0
1539, 0.0
1540, 0.0
1541, 0.0
1542, 0.0
1543, 0.0
1544, 0.0
1545, 0.0
1546, 0.0
1547, 0.0
1548, 0.0
1549, 0.0
1550, 0.0
1551, 0.0
1552, 0.0
1553, 0.0
1554, 0.0
1555, 0.0
1556, 0.0
1557, 0.0
1558, 0.0
1559, 0.0
1560, 0.0
1561, 0.0
1562, 0.0
1563, 0.0
1564, 0.0
1565, 0.0
1566, 0.0
1567, 0.0
1568, 0.0
1569, 0.0
1570, 0.0
1571, 0.0
1572, 0.0
1573, 0.0
1574, 0.0
1575, 0.0
1576, 0.0
1577, 0.0
1578, 0.0
1579, 0.0
1580, 0.0
1581, 0.0
1582, 0.0
1583, 0.0
1584, 0.0
1585, 0.0
1586, 0.0
1587, 0.0
1588, 0.0
1589, 0.0
1590, 0.0
1591, 0.0
1592, 0.0
1593, 0.0
1594, 0.0
1595, 0.0
1596, 0.0
1597, 0.0
1598, 0.0
1599, 0.0
