30, 0.0
31, 0.0
32, 0.0
33, 0.0
34, 0.0
35, 0.0
36, 0.0
37, 0.0
38, 0.0
39, 0.0
40, 0.0
41, 0.0
42, 0.0
43, 0.0
44, 0.0
45, 0.0
46, 0.0
47, 0.0
48, 0.0
49, 0.0
50, 0.0
51, 0.0
52, 0.0
53, 0.0
54, 0.0
55, 0.0
56, 0.0
57, 0.0
58, 0.0
59, 0.0
60, 0.0
61, 0.0
62, 0.0
63, 0.0
64, 0.0
65, 0.0
66, 0.0
67, 0.0
68, 0.0
69, 0.0
70, 0.0
71, 0.0
72, 0.0
73, 0.0
74, 0.0
75, 0.0
76, 0.0
77, 0.0
78, 0.0
79, 0.0
80, 0.0
81, 0.0
82, 0.0
83, 0.0
84, 0.0
85, 0.0
86, 0.0
87, 0.0
88, 0.0
89, 0.0
90, 0.0
91, 0.0
92.0, 0.0034344417233015583
93.0, 0.00531873574079054
94.0, 0.0010706833626877802
95.0, 0.00929476939162873
96.0, 0.010980397829755718
97.0, 0.007333169932890383
98.0, 0.010807242123511522
99.0, 0.018537571199109384
100.0, 0.026478635975212546
101.0, 0.032220705992902714
102.0, 0.026814621468756572
103.0, 0.024670117029762826
104.0, 0.026987837896884685
105.0, 0.03709660333692022
106.0, 0.04412782555832666
107.0, 0.050992464418214783
108.0, 0.058855487012598726
109.0, 0.06464978762592123
110.0, 0.06878655771678338
111.0, 0.07085410828742707
112.0, 0.06935796376062117
113.0, 0.07803534067537239
114.0, 0.08702289991084736
115.0, 0.09407277208992212
116.0, 0.10620390713224113
117.0, 0.11301048684782562
118.0, 0.11624766506208822
119.0, 0.11722883371022738
120.0, 0.12425322141221679
121.0, 0.13899624870147698
122.0, 0.15871787836208556
123.0, 0.1597311905947456
124.0, 0.16054898319926636
125.0, 0.15675267400858345
126.0, 0.14353588950660526
127.0, 0.1373959834510244
128.0, 0.1324044985371426
129.0, 0.1292109104387228
130.0, 0.1325437213078383
131.0, 0.14003595250728984
132.0, 0.14832418713524875
133.0, 0.15592166269271104
134.0, 0.16331704613774825
135.0, 0.17303233049734593
136.0, 0.1856898765231929
137.0, 0.20342983021702665
138.0, 0.21279229583203949
139.0, 0.22146494680290357
140.0, 0.23067313135194925
141.0, 0.23051135862955877
142.0, 0.22769408732483687
143.0, 0.22234789738502578
144.0, 0.2139270173145675
145.0, 0.2028611181759047
146.0, 0.18822519203625512
147.0, 0.1709191159558274
148.0, 0.15599622008423894
149.0, 0.14363325506829352
150.0, 0.1367160895177827
151.0, 0.137788596924641
152.0, 0.13896092153488657
153.0, 0.14274961757231966
154.0, 0.1486605145899315
155.0, 0.15589965895907795
156.0, 0.17906329989184006
157.0, 0.2078492440649849
158.0, 0.23881507635217344
159.0, 0.25845994914198017
160.0, 0.2681634953686918
161.0, 0.273645187100011
162.0, 0.2803207007044149
163.0, 0.2741241466298247
164.0, 0.2583291462188892
165.0, 0.2357932029387818
166.0, 0.2171419131543542
167.0, 0.1946180216040037
168.0, 0.17367039757754713
169.0, 0.15717631035267196
170.0, 0.139575155728703
171.0, 0.12750926346510477
172.0, 0.11768540508965027
173.0, 0.10419809186018027
174.0, 0.09665243329435387
175.0, 0.09081470908521064
176.0, 0.08573318164634047
177.0, 0.08029134617702838
178.0, 0.07777765923703464
179.0, 0.07491902199596867
180.0, 0.06908346191554371
181.0, 0.07186467536783316
182.0, 0.0702783456555285
183.0, 0.0659287200901321
184.0, 0.06461025224265912
185.0, 0.06397045496854789
186.0, 0.06362250904857154
187.0, 0.0629556305006018
188.0, 0.05448116468597281
189.0, 0.05263494094247345
190.0, 0.05244851537444831
191.0, 0.04892218019303693
192.0, 0.05171257370679316
193.0, 0.05134121225661899
194.0, 0.04869019275673444
195.0, 0.049881246350790796
196.0, 0.05169022788412983
197.0, 0.05168410879268638
198.0, 0.049075383503072036
199.0, 0.051612119331839866
200.0, 0.052281827019126786
201.0, 0.052806691897683125
202.0, 0.05540138013196682
203.0, 0.05699843502366349
204.0, 0.05801435227080909
205.0, 0.057684789596954715
206.0, 0.052296563052614986
207.0, 0.04860118259183707
208.0, 0.045635802423090496
209.0, 0.0429950131931229
210.0, 0.03877894214870314
211.0, 0.03452223874083775
212.0, 0.031022717539386204
213.0, 0.02954576761754407
214.0, 0.027484310562351073
215.0, 0.02617049608712528
216.0, 0.024893507563152003
217.0, 0.019838912035225434
218.0, 0.018206313491712433
219.0, 0.017024497295892213
220.0, 0.015006788539217358
221.0, 0.010548051897483467
222.0, 0.00961437866848479
223.0, 0.00860991976830585
224.0, 0.002875005802334906
225.0, 0.004041142526085534
226.0, 0.003477724755353849
227.0, 0.001356707598727671
228.0, 0.0015925534284391895
229.0, 0.0033188233573637105
230.0, 0.003756006537600502
231.0, 0.002071759602200039
232.0, 0.003267958799759235
233.0, 0.0030355385226900357
234.0, 0.003975504183853167
235.0, 0.009060004907833034
236.0, 0.010591012009294251
237.0, 0.013851799142355115
238.0, 0.017574721371143825
239.0, 0.01697361638419187
240.0, 0.017400663428603278
241.0, 0.018470876066596014
242.0, 0.019637432640008997
243.0, 0.016302403994129574
244.0, 0.010676378118813811
245.0, 0.006033410539107496
246.0, 0.004999095515313927
247.0, 0.002665280522491867
248.0, 0.005934224507738548
249.0, 0.009597846081125443
250.0, 0.0027349518378382742
251.0, 0.007598769562705329
252.0, 0.011523611324837656
253.0, 0.012373229153421058
254.0, 0.010954079799161723
255.0, 0.011359343806394901
256.0, 0.011295555953347606
257.0, 0.009716760963887718
258.0, 0.01071048065921228
259.0, 0.009461279567113158
260.0, 0.008930936711013507
261.0, 0.012945134994735954
262.0, 0.010573375168828038
263.0, 0.008884561139153915
264.0, 0.00826884111822188
265.0, 0.008166458452489313
266.0, 0.006080126079818694
267.0, 0.004476260824989331
268.0, 0.0037430509309701624
269.0, 0.001117582430054483
270.0, 0.0023650992078280784
271.0, 0.00342182058707905
272.0, 0.0015664673848659369
273.0, 0.002609544038326878
274.0, 0.0026245497938849104
275.0, 0.0025157098037617994
276.0, 0.0037428680581169044
277.0, 0.003940397579938137
278.0, 0.0048209008087279105
279.0, 0.005884593815343625
280.0, 0.004525848895345872
281.0, 0.004724189293556307
282.0, 0.005824684394387467
283.0, 0.00756508017268295
284.0, 0.009004921461986346
285.0, 0.009301186813376511
286.0, 0.008592315328530708
287.0, 0.00687289682076285
288.0, 0.010431006132181767
289.0, 0.010521215246938302
290.0, 0.010207486584093742
291.0, 0.014525924931424426
292.0, 0.012727270579898687
293.0, 0.01394518813397124
294.0, 0.018585445400938663
295.0, 0.024626877427708176
296.0, 0.02528663753081829
297.0, 0.02763641846579697
298.0, 0.03362070415276755
299.0, 0.04132228557480566
300.0, 0.04598199738513618
301.0, 0.05119602699273896
302.0, 0.05922156287927643
303.0, 0.06944350631418382
304.0, 0.07675168665634767
305.0, 0.07926215452528991
306.0, 0.07387247716742593
307.0, 0.07266406119692989
308.0, 0.06843179717059474
309.0, 0.06130686488065908
310.0, 0.05270185530819842
311.0, 0.04572360257752424
312.0, 0.03791688581989437
313.0, 0.029915463139436063
314.0, 0.02797281660474239
315.0, 0.026715565217352882
316.0, 0.024668517462185558
317.0, 0.021548493678338464
318.0, 0.023338074543509113
319.0, 0.022886736869990227
320.0, 0.023443518957879526
321.0, 0.027762146362332586
322.0, 0.024847389684169833
323.0, 0.024017794683220666
324.0, 0.024907956605079322
325.0, 0.02692617893176448
326.0, 0.027853913995733243
327.0, 0.029934643299563312
328.0, 0.03287878161879999
329.0, 0.035282079042823634
330.0, 0.037140239942702456
331.0, 0.038582646058504394
332.0, 0.03960395711226752
333.0, 0.040029448278052195
334.0, 0.04087646733113866
335.0, 0.041284062533786844
336.0, 0.04105367408453658
337.0, 0.04274648283227412
338.0, 0.04510679390052538
339.0, 0.047394241868930514
340.0, 0.04905520045494331
341.0, 0.05197384393621772
342.0, 0.05343907332267468
343.0, 0.05475775935967481
344.0, 0.05765225354565242
345.0, 0.06113703411495594
346.0, 0.06297652789296021
347.0, 0.06376193928031863
348.0, 0.06503237164454387
349.0, 0.06377368703014474
350.0, 0.06450353465477368
351.0, 0.06665000309155493
352.0, 0.06534485475449912
353.0, 0.07058034611651544
354.0, 0.07487939337370599
355.0, 0.07690809035367965
356.0, 0.08262881963286285
357.0, 0.08517569221310822
358.0, 0.08502355984017752
359.0, 0.08280153700272685
360.0, 0.08691039831199875
361.0, 0.08378015909574224
362.0, 0.0782040162434851
363.0, 0.0736508453501544
364.0, 0.06654237008682763
365.0, 0.05901338742916627
366.0, 0.052903853742694434
367.0, 0.05059149528581236
368.0, 0.04247681374424361
369.0, 0.03676880332781125
370.0, 0.033407340087973025
371.0, 0.03171406397231211
372.0, 0.03029632174945385
373.0, 0.02896668683524982
374.0, 0.028011952771815337
375.0, 0.028343762799733028
376.0, 0.028174018439305937
377.0, 0.027264164898231177
378.0, 0.026227683763747747
379.0, 0.02797628395513434
380.0, 0.027362130210772724
381.0, 0.02515009750466892
382.0, 0.021929082829569468
383.0, 0.020371536444498992
384.0, 0.02350971235458149
385.0, 0.025257442387344613
386.0, 0.023190360271495646
387.0, 0.02350062297164675
388.0, 0.022849142690344614
389.0, 0.022443881901574977
390.0, 0.023016628647791065
391.0, 0.021534125665699455
392.0, 0.023998619569054778
393.0, 0.02699894054328951
394.0, 0.02738100441229978
395.0, 0.022945135054815977
396.0, 0.024542849182795867
397.0, 0.027681004582171126
398.0, 0.02640319734507993
399.0, 0.026362677570175578
400.0, 0.026409396155536828
401.0, 0.027641421018394077
402.0, 0.032203547029741514
403.0, 0.031165299934496623
404.0, 0.03549887981354999
405.0, 0.043448291554342815
406.0, 0.048637512264845334
407.0, 0.052909769700455474
408.0, 0.055836442525201736
409.0, 0.05867243156385311
410.0, 0.06549467449092303
411.0, 0.06920497850371164
412.0, 0.0727521730869164
413.0, 0.07634081625517228
414.0, 0.07822714246741895
415.0, 0.07528918755507898
416.0, 0.07303742899654879
417.0, 0.07215297177566887
418.0, 0.06786808691149547
419.0, 0.06749985679320325
420.0, 0.0650697829551751
421.0, 0.05956965759053669
422.0, 0.059663692678657905
423.0, 0.05807372483512365
424.0, 0.05892848470212717
425.0, 0.06343410667330684
426.0, 0.06413579721094795
427.0, 0.06268077654644402
428.0, 0.06521269855410503
429.0, 0.0745903888693776
430.0, 0.08096987057065069
431.0, 0.08723390280794978
432.0, 0.09535424369125944
433.0, 0.10693846967598658
434.0, 0.12730364999069002
435.0, 0.15072227423402115
436.0, 0.175028642505249
437.0, 0.19871166358807263
438.0, 0.22731231810349867
439.0, 0.25746841338418613
440.0, 0.2797107798751893
441.0, 0.2853679566947991
442.0, 0.2816591884650898
443.0, 0.2721440155338337
444.0, 0.256336793764008
445.0, 0.2335729167852902
446.0, 0.20730750466600653
447.0, 0.18731434038530584
448.0, 0.16613475575438413
449.0, 0.1349248826266097
450.0, 0.12175622235182675
451.0, 0.10717086732433244
452.0, 0.09270801246773659
453.0, 0.08097029472291992
454.0, 0.07360533258132292
455.0, 0.06477987833014161
456.0, 0.05717136515662013
457.0, 0.05487134686842336
458.0, 0.049477476005513596
459.0, 0.04635987921772247
460.0, 0.04501091881562307
461.0, 0.044365881012501246
462.0, 0.04163070752075016
463.0, 0.04053963528963345
464.0, 0.04035563495661323
465.0, 0.03962226373810661
466.0, 0.03797583313132642
467.0, 0.03812418685883975
468.0, 0.03931681370171228
469.0, 0.04008159705436263
470.0, 0.03984282545965733
471.0, 0.03875241094807369
472.0, 0.03696162093756687
473.0, 0.034670546947040706
474.0, 0.03728679434982677
475.0, 0.03886976362358134
476.0, 0.040300162624201795
477.0, 0.043795744635139355
478.0, 0.04371730863817591
479.0, 0.04549760534224195
480.0, 0.04875283788454559
481.0, 0.052230380518918096
482.0, 0.04963798545619975
483.0, 0.04603451882753296
484.0, 0.045838224973970304
485.0, 0.05581917586134472
486.0, 0.05388433973746823
487.0, 0.05416008099354499
488.0, 0.05616979951986172
489.0, 0.05772636544959244
490.0, 0.061129745400776425
491.0, 0.06224913522427874
492.0, 0.0643093206098795
493.0, 0.07251249751773023
494.0, 0.06911214654764347
495.0, 0.0705187910526177
496.0, 0.07494233287819169
497.0, 0.07878810922267729
498.0, 0.0798259929863504
499.0, 0.08281497110531563
500.0, 0.08690513428029695
501.0, 0.0907664642341629
502.0, 0.09559198327811824
503.0, 0.10002400220051579
504.0, 0.10534902280895711
505.0, 0.1131211611372052
506.0, 0.11609126727830628
507.0, 0.12305743231218993
508.0, 0.1306381642683197
509.0, 0.13516693289576634
510.0, 0.14261624181357146
511.0, 0.14699980876486593
512.0, 0.1527036249787384
513.0, 0.16365447326205218
514.0, 0.169826237318053
515.0, 0.17916757676722478
516.0, 0.18979278613698855
517.0, 0.20007826913713256
518.0, 0.20785194621559486
519.0, 0.22002215684282336
520.0, 0.238239309335269
521.0, 0.2630725608950702
522.0, 0.284225408549833
523.0, 0.3099043770907369
524.0, 0.35296767760243
525.0, 0.419513094242689
526.0, 0.4896207259555845
527.0, 0.5708328692919453
528.0, 0.6651779064627759
529.0, 0.7721372900459671
530.0, 0.8784952825534393
531.0, 0.9528295708174842
532.0, 0.9924294127097347
533.0, 0.9920187633743611
534.0, 0.9301487120128284
535.0, 0.8621976164488829
536.0, 0.7670325515695654
537.0, 0.6490790641516845
538.0, 0.5586496988235173
539.0, 0.46174858191538876
540.0, 0.3826570692168767
541.0, 0.3226634945395889
542.0, 0.26558704903278146
543.0, 0.2308064293438227
544.0, 0.19939941015693025
545.0, 0.16940678439317705
546.0, 0.1450274229695136
547.0, 0.13647154855422744
548.0, 0.12339255143828916
549.0, 0.10712176333262727
550.0, 0.09551275093405395
551.0, 0.08420332315277577
552.0, 0.07650457285775014
553.0, 0.07262910975804596
554.0, 0.07249937770219177
555.0, 0.06634550339790064
556.0, 0.06298485346011454
557.0, 0.0610322480972983
558.0, 0.05854280376404124
559.0, 0.05677386541267871
560.0, 0.05411083096609354
561.0, 0.05186881715802074
562.0, 0.050814134770499876
563.0, 0.0431575217455325
564.0, 0.040261553409484896
565.0, 0.039861273399033254
566.0, 0.0401430979417377
567.0, 0.037115692012767924
568.0, 0.03935252023219627
569.0, 0.039711830039185506
570.0, 0.036032391196929955
571.0, 0.03464868349292537
572.0, 0.035653378730760084
573.0, 0.03546143884250455
574.0, 0.03325805836679707
575.0, 0.030240734334522488
576.0, 0.02946624123299041
577.0, 0.02789123441064367
578.0, 0.025755145360300328
579.0, 0.02529244199776924
580.0, 0.02224661941615261
581.0, 0.02102513984712123
582.0, 0.020780381926586936
583.0, 0.019094361982825308
584.0, 0.01867831454734385
585.0, 0.01707625604700322
586.0, 0.0149675991686607
587.0, 0.01332769267212791
588.0, 0.013633260934044001
589.0, 0.011000972421002052
590.0, 0.008126242106045813
591.0, 0.007262440545356893
592.0, 0.008560579372012296
593.0, 0.008633886023549241
594.0, 0.008980184507306633
595.0, 0.009888593294774074
596.0, 0.007556616640750313
597.0, 0.009158358756827325
598.0, 0.01210072260522775
599.0, 0.014240326702505898
600.0, 0.010604912570775147
601.0, 0.00976799630875553
602.0, 0.008532365019547655
603.0, 0.006683879664470272
604.0, 0.005344606724038701
605.0, 0.007783541899788458
606.0, 0.007127833367157893
607.0, 0.005755459293847527
608.0, 0.008426753924571975
609.0, 0.003106942421900549
610.0, 0.0031630775294105404
611.0, 0.0041161984873858545
612.0, 0.0014952467305764572
613.0, 0.0043054995970086265
614.0, 0.0029299275756239987
615.0, 0.0008355760138789037
616.0, 0.00012372732152678476
617.0, 0.000452445984878601
618.0, 0.0027368980897684806
619.0, 0.0035038526375319244
620.0, 0.002518639427655813
621.0, 0.003988069291126666
622.0, 0.0027163573656438606
623.0, 0.0022811719568531998
624.0, 0.0025523800001973945
625.0, 0.0015649756836697282
626.0, 0.0032283924954655827
627.0, 0.0034947954948859553
628.0, 0.0025645722912300928
629.0, 0.0012192590996894042
630.0, 0.0021852012595643773
631.0, 0.0032488876284116007
632.0, 0.003942452599327208
633.0, 0.00385535839518926
634.0, 0.002341365401732183
635.0, 0.002966836658252233
636.0, 0.0026152481938642325
637.0, 0.0007175566929380932
638.0, 0.0018119496798362357
639.0, 0.0018056184987855482
640.0, 0.00264115315115378
641.0, 0.003544053527560249
642.0, 0.001221212963581742
643.0, 0.003095512383805161
644.0, 0.003885580260466458
645.0, 0.0029550838129232078
646.0, 0.00028165829211637336
647.0, 0.0018746879780667935
648.0, 0.0012370316362951158
649.0, 0.0014247920251199728
650.0, 0.004554436748529699
651.0, 0.004882922745917561
652.0, 0.005160867131563461
653.0, 0.004164122416199711
654.0, 0.0018920128723512938
655.0, 0.0008599312749900178
656.0, 0.0015206987661780154
657.0, 0.0026681820702452955
658.0, 0.0036516924765730187
659.0, 0.003612826280965971
660.0, 0.0035826263847599364
661.0, 0.004789286238044761
662.0, 0.005034966443782263
663.0, 0.0017585795365233697
664.0, 0.0033777749216873216
665.0, 0.0031241313115823884
666.0, 0.0033271382839739835
667.0, 0.004875708505924009
668.0, 0.0028764806061458525
669.0, 0.0043076694048002195
670.0, 0.003615020467870469
671.0, 0.0007786978874957697
672.0, 0.0014774368603382682
673.0, 0.007979881415142066
674.0, 0.008174780609397834
675.0, 0.005385658470730267
676.0, 0.007335803804384614
677.0, 0.006784202330661559
678.0, 0.009065372418941994
679.0, 0.009931254094387542
680.0, 0.00674336247949287
681.0, 0.008701453927207161
682.0, 0.007037061270407113
683.0, 0.007343519146366245
684.0, 0.010090221646392512
685.0, 0.00871737310224119
686.0, 0.01228422189555758
687.0, 0.013706820893123533
688.0, 0.014636105016314746
689.0, 0.01992009664215067
690.0, 0.015818056696841838
691.0, 0.018159126453550445
692.0, 0.021054345696056003
693.0, 0.019741885836921578
694.0, 0.023364884635425152
695.0, 0.02725367129444905
696.0, 0.030586305989313185
697.0, 0.032691032502169856
698.0, 0.032324862309246576
699.0, 0.03194847759706661
700.0, 0.03080108131694016
701.0, 0.02966693529053277
702.0, 0.030024976511836242
703.0, 0.029415279193786427
704.0, 0.02886048308680385
705.0, 0.029292016356222823
706.0, 0.03084372538166408
707.0, 0.028132425160052033
708.0, 0.030958503656154986
709.0, 0.03148318518814254
710.0, 0.02881834326535084
711.0, 0.029108134188777196
712.0, 0.024903472962401373
713.0, 0.02259589724218352
714.0, 0.023310852517996188
715.0, 0.027174922091645726
716.0, 0.019125975434561373
717.0, 0.023195955365035364
718.0, 0.025502144479704388
719.0, 0.019944919225440894
720.0, 0.02524358649084474
721.0, 0.021469453615055745
722.0, 0.021424177415198295
723.0, 0.02474302582671961
724.0, 0.02269300980695919
725.0, 0.01845336386996345
726.0, 0.020320798008879613
727.0, 0.02335338929665862
728.0, 0.0219467020898942
729.0, 0.01655426155354711
730.0, 0.01855468773149629
731.0, 0.016596159153912552
732.0, 0.010207238475967988
733.0, 0.016522303825951504
734.0, 0.011043345665963865
735.0, 0.006330255255842453
736.0, 0.005639562879708091
737.0, 0.010594267983427483
738.0, 0.006863762755017553
739.0, 0.0028956226231969234
740.0, 0.0009185083723096753
741.0, 0.0015899224132293734
742.0, 0.00025862551630738775
743.0, 0.0016274373515562436
744.0, 0.0051988863842307685
745.0, 0.0072730129208021166
746.0, 0.0005256903787039229
747.0, 0.0017916825280588655
748.0, 0.005871742292208864
749.0, 0.0067919328138267895
750.0, 0.0012647243844329222
751.0, 0.005568233014815821
752.0, 0.003490709639378191
753.0, 0.0012618409126003475
754.0, 0.0008920082925555316
755.0, 0.0018483244700476802
756.0, 0.0040346180417631106
757.0, 0.004628445500907799
758.0, 0.004517944770565131
759.0, 0.004874065243374585
760.0, 0.0038210640443595155
761.0, 0.003908467447064993
762.0, 0.0027161727733277263
763.0, 0.00032300666654575764
764.0, 0.0006272870779003236
765.0, 0.002085726256985264
766.0, 0.0018502234323664155
767.0, 0.0010702778930448834
768.0, 0.001638774500207737
769.0, 0.0022394750120253186
770.0, 0.0010915793490224664
771.0, 0.0004030371826453376
772.0, 0.0016046189425517397
773.0, 0.005879503903356226
774.0, 0.0024732965156418632
775.0, 0.0013930395758822796
776.0, 0.0030522903242433575
777.0, 0.005575594217517025
778.0, 0.0017060045326708216
779.0, 0.0008173979078769164
780.0, 0.0012391587932609606
781.0, 0.0016634366978543454
782.0, 0.0006533310947325629
783.0, 0.0030998572765474066
784.0, 0.002867195489525197
785.0, 0.0010071174371950684
786.0, 0.0005184679731862526
787.0, 0.0012235932081361791
788.0, 0.003401452970881423
789.0, 0.0049090780127025455
790.0, 0.00447365747162745
791.0, 0.0016954903150978838
792.0, 0.003836332449187522
793.0, 0.003637596109030882
794.0, 0.00242138008629756
795.0, 0.0035497209909640783
796.0, 0.00505722917241898
797.0, 0.00461224600352699
798.0, 0.0035059608369825824
799.0, 0.002706023472345495
800.0, 0.003252127179178631
801.0, 0.0017006468853749796
802.0, 0.0005298071829174818
803.0, 0.0007556783745378667
804.0, 0.0028892534499566466
805.0, 0.001960524315477704
806.0, 0.0018107399422427456
807.0, 0.0013026258564559242
808.0, 0.0013345766491875658
809.0, 0.00628296047850856
810.0, 0.00288366986774666
811.0, 0.0021300889816221157
812.0, 0.005022251582054195
813.0, 0.01020741344755276
814.0, 0.00502379447862541
815.0, 0.005437245489717414
816.0, 0.007695739925814954
817.0, 0.009517407499654658
818.0, 0.008718020184795238
819.0, 0.002801236136283629
820.0, 0.001330432531392962
821.0, 0.0014402008023623606
822.0, 0.000925189142515936
823.0, 0.005534538041208556
824.0, 0.0034386542816225636
825.0, 0.0025173834707804005
826.0, 0.004077948677091058
827.0, 0.00661101063747573
828.0, 0.008868929798463347
829.0, 0.007274321694187733
830.0, 0.0041650055861287135
831.0, 0.001765612744214237
832.0, 0.0028769929434306033
833.0, 0.0013590632979393472
834.0, 0.0017879288319419527
835.0, 0.0036497391176867604
836.0, 0.005112587343842562
837.0, 0.00397363198234044
838.0, 0.0043559920444736925
839.0, 0.005415181532655107
840.0, 0.006046538805954548
841.0, 0.004230540769729299
842.0, 0.0036774346572857157
843.0, 0.004548687619324181
844.0, 0.005221871242685113
845.0, 0.00435147567549534
846.0, 0.0028711113650015264
847.0, 0.003351180202267561
848.0, 0.0027516017929838715
849.0, 0.001767281987793783
850.0, 0.0029993634070630774
851.0, 0.0021968792566409456
852.0, 0.004581747443029573
853.0, 0.006971762325829196
854.0, 0.007568837657328484
855.0, 0.006762022722040152
856.0, 0.00884629938385639
857.0, 0.0063940537094358514
858.0, 0.00485964298996954
859.0, 0.009893871233289908
860.0, 0.007386399697772797
861.0, 0.0035182162385566833
862.0, 0.003430521529683774
863.0, 0.007297335406716441
864.0, 0.011921836326601406
865.0, 0.009553008309939838
866.0, 0.006560685179508765
867.0, 0.00558201314713598
868.0, 0.006613556179333315
869.0, 0.003081518272235969
870.0, 0.0052867983188751334
871.0, 0.004442940045612909
872.0, 0.003353664056548958
873.0, 0.005766847217389648
874.0, 0.0015491644407978143
875.0, 0.005768439476248386
876.0, 0.007426040555861976
877.0, 0.0049074553690049245
878.0, 0.002386914959965636
879.0, 0.009927400196266778
880.0, 0.007352627615605023
881.0, 0.0037515999793017816
882.0, 0.0038421110977214113
883.0, 0.003019341149133259
884.0, 0.006803393089351664
885.0, 0.005714378552469918
886.0, 0.0033279832329809523
887.0, 0.004269493573001336
888.0, 0.00583103844655458
889.0, 0.007945735117023647
890.0, 0.008454717946691266
891.0, 0.008371077908984377
892.0, 0.010261965898844542
893.0, 0.006683532135671247
894.0, 0.004631714499466843
895.0, 0.003255441733056353
896.0, 0.0022377896260225003
897.0, 0.0019603131156070747
898.0, 0.0022351465100678178
899.0, 0.00335908510573315
900.0, 0.0040680276320875855
901.0, 0.003879017894683344
902.0, 0.005709714394335622
903.0, 0.0052878508486035635
904.0, 0.005289227978997551
905.0, 0.005465022286776188
906.0, 0.0048890735947746495
907.0, 0.003347231594132671
908.0, 0.005084493829908638
909.0, 0.005838468613341302
910.0, 0.005268285833246362
911.0, 0.0054498363660538006
912.0, 0.003925097838542752
913.0, 0.004006494555148066
914.0, 0.003966758370230241
915.0, 0.002976102336712723
916.0, 0.001412117167025207
917.0, 0.0017096056819236051
918.0, 0.005402993163000814
919.0, 0.007098680690450613
920.0, 0.004597541236909012
921.0, 0.008873519843761744
922.0, 0.0035584279728074434
923.0, 0.0037635908533967632
924.0, 0.006573768732353901
925.0, 0.0059074793570310985
926.0, 0.0036927627891483556
927.0, 0.003411189328252975
928.0, 0.0041402903256699194
929.0, 0.005147335907991281
930.0, 0.005571132365743355
931.0, 0.0016106907821971698
932.0, 0.005507270765494175
933.0, 0.008514386231557017
934.0, 0.007341378977954671
935.0, 0.0033763625200526203
936.0, 0.0024468817862498904
937.0, 0.002533535834120998
938.0, 0.002850399585407632
939.0, 0.0032522117925138116
940.0, 0.004785931246895501
941.0, 0.003535422315616168
942.0, 0.0015422885310084808
943.0, 0.0017627012442820405
944.0, 0.0053032498505523745
945.0, 0.006850506246409632
946.0, 0.008880716054829934
947.0, 0.0073105168914403655
948.0, 0.004813509229947825
949.0, 0.004335982157760142
950.0, 0.001074162229815092
951.0, 0.004589648823636779
952.0, 0.006714060819289599
953.0, 0.005890286616341077
954.0, 0.003048752239779476
955.0, 0.001742343053188102
956.0, 0.003855777370212087
957.0, 0.005863310265298757
958.0, 0.007988015674671941
959.0, 0.012296410446694491
960.0, 0.007622793499009203
961.0, 0.011644524788329362
962.0, 0.01139802300471405
963.0, 0.006460213577910912
964.0, 0.00800130003032353
965.0, 0.004455017473044244
966.0, 0.008379590977188165
967.0, 0.011999025389042899
968.0, 0.011582615221576232
969.0, 0.009005617182835912
970.0, 0.014004411930273308
971.0, 0.014746279900858056
972.0, 0.015048469049402543
973.0, 0.01567025177289868
974.0, 0.009268490307590133
975.0, 0.0105760327860028
976.0, 0.01385487405249909
977.0, 0.014934754233732167
978.0, 0.012719246284440173
979.0, 0.014272244714537941
980.0, 0.012393776456239102
981.0, 0.013285013968586654
982.0, 0.012705681824553259
983.0, 0.008873833029578837
984.0, 0.015244416317871583
985.0, 0.010593403610546611
986.0, 0.01080472795123462
987.0, 0.014122220914378522
988.0, 0.015224218138997679
989.0, 0.007796832274490401
990.0, 0.009317765760609992
991.0, 0.011827902127908616
992.0, 0.012719205273011767
993.0, 0.011729779657914228
994.0, 0.01569467807348129
995.0, 0.015270921044709706
996.0, 0.01614318239334199
997.0, 0.017236057662331574
998.0, 0.016198769147334317
999.0, 0.017059020336868656
1000.0, 0.02227600721643192
1001.0, 0.025106147336142373
1002.0, 0.025387019120942034
1003.0, 0.024777374499953538
1004.0, 0.019071372636734498
1005.0, 0.02251773312347872
1006.0, 0.021944926443606037
1007.0, 0.019287051868052303
1008.0, 0.02139890882627624
1009.0, 0.021737270279297057
1010.0, 0.021662207103536477
1011.0, 0.02210003028793371
1012.0, 0.023098283024122458
1013.0, 0.02410850426322348
1014.0, 0.022212939820091128
1015.0, 0.022293041093898524
1016.0, 0.021306305426734895
1017.0, 0.01990342302013064
1018.0, 0.02038324219243648
1019.0, 0.024468708638218466
1020.0, 0.022545987809796646
1021.0, 0.025719191812128523
1022.0, 0.03210922955215465
1023.0, 0.03465167299303886
1024.0, 0.036552559610963764
1025.0, 0.03843496087660655
1026.0, 0.03894907079872469
1027.0, 0.04108845355391788
1028.0, 0.04797599295851331
1029.0, 0.04295290435292459
1030.0, 0.048487682338387336
1031.0, 0.05396945018777248
1032.0, 0.059625396531812085
1033.0, 0.0703502823274421
1034.0, 0.09478172337583471
1035.0, 0.11813342468141774
1036.0, 0.12744989868090417
1037.0, 0.1294761398512755
1038.0, 0.1353976326117984
1039.0, 0.12981829714912468
1040.0, 0.12471053807371014
1041.0, 0.11202514859627526
1042.0, 0.09633589246316085
1043.0, 0.08471725936667886
1044.0, 0.07309365829134722
1045.0, 0.06383905853724359
1046.0, 0.0530536477447999
1047.0, 0.04651623844370009
1048.0, 0.04750253982553562
1049.0, 0.03412243725949814
1050.0, 0.03836498489990464
1051.0, 0.037696548937629915
1052.0, 0.032251342941028445
1053.0, 0.027487271708298414
1054.0, 0.030785761776951616
1055.0, 0.025065295580095764
1056.0, 0.025990610451505237
1057.0, 0.027077364477485818
1058.0, 0.02311991967835339
1059.0, 0.022952343918232376
1060.0, 0.022151335715944076
1061.0, 0.020112656809579795
1062.0, 0.02035877193068896
1063.0, 0.02409379440913917
1064.0, 0.02669137602249802
1065.0, 0.020737826582156574
1066.0, 0.017151340251747374
1067.0, 0.017863291059503284
1068.0, 0.021293968514301934
1069.0, 0.021478330381410962
1070.0, 0.020958765119558218
1071.0, 0.021207097035266867
1072.0, 0.022123168747964755
1073.0, 0.02453647673863935
1074.0, 0.030231526151804775
1075.0, 0.030060232405134214
1076.0, 0.028002673541080648
1077.0, 0.025186123279604237
1078.0, 0.02488812781691679
1079.0, 0.03098053630585143
1080.0, 0.02870269912369056
1081.0, 0.029212510526727423
1082.0, 0.027489828398078404
1083.0, 0.025724797474445074
1084.0, 0.02817563721707
1085.0, 0.024845838060972802
1086.0, 0.027974277827670885
1087.0, 0.02909561799156982
1088.0, 0.027757299408429133
1089.0, 0.027137968669129514
1090.0, 0.03573499342611418
1091.0, 0.02607067862571117
1092.0, 0.027085886375145526
1093.0, 0.029904163010023636
1094.0, 0.02518068929257244
1095.0, 0.02220060413097375
1096.0, 0.02411434857821724
1097.0, 0.025661122332358153
1098.0, 0.02482248490886987
1099.0, 0.02157765929383336
1100.0, 0.018603376996009745
1101.0, 0.021090037386085454
1102.0, 0.021148950849360717
1103.0, 0.022570424890606948
1104.0, 0.02511871943572214
1105.0, 0.02454764547346483
1106.0, 0.023130961197770923
1107.0, 0.019524701622210535
1108.0, 0.017567016109432333
1109.0, 0.018728127987492797
1110.0, 0.022253255944592036
1111.0, 0.02031676012798338
1112.0, 0.022836193451871017
1113.0, 0.020811948406986514
1114.0, 0.01734579707378748
1115.0, 0.017403530162792034
1116.0, 0.018966676224532443
1117.0, 0.01894672294876633
1118.0, 0.020868105349403164
1119.0, 0.019420102436823863
1120.0, 0.01326913848631726
1121.0, 0.011327535422324293
1122.0, 0.019884940391770498
1123.0, 0.015741059615708746
1124.0, 0.013756700890224302
1125.0, 0.015698636132513166
1126.0, 0.009149427231896918
1127.0, 0.012113956750362566
1128.0, 0.007846410285086734
1129.0, 0.009995940181822819
1130.0, 0.013396174017669064
1131.0, 0.0068605792584476065
1132.0, 0.0067059340927350134
1133.0, 0.010463969528902278
1134.0, 0.009527496550840665
1135.0, 0.0060432685819420025
1136.0, 0.004295730808676045
1137.0, 0.00691053348151294
1138.0, 0.0056080570566228345
1139.0, 0.007733589043457112
1140.0, 0.007124610289792568
1141.0, 0.0032257062474008997
1142.0, 0.004384297943071489
1143.0, 0.01121784552353204
1144.0, 0.005524252042009775
1145.0, 0.0061879209630935255
1146.0, 0.010305083265739125
1147.0, 0.004101597460622525
1148.0, 0.0014908817726099457
1149.0, 0.006325189973450336
1150.0, 0.005879669745679159
1151.0, 0.006723883529816453
1152.0, 0.012366947829216247
1153.0, 0.0009251655329769702
1154.0, 0.0004328947704668039
1155.0, 0.006554940096422404
1156.0, 0.008135675465020212
1157.0, 0.0035890003120758983
1158.0, 0.004020796789015751
1159.0, 0.0014563042923832613
1160.0, 0.0034605131515763623
1161.0, 0.004382549534661423
1162.0, 0.0035916433080603305
1163.0, 0.0029931406051166517
1164.0, 0.002009968302846349
1165.0, 0.0007166584598669134
1166.0, 0.0015962039014425563
1167.0, 0.002578540566770365
1168.0, 0.002497538658751898
1169.0, 0.004446087106832416
1170.0, 0.005004892399331948
1171.0, 0.006410394968661301
1172.0, 0.006540604815866298
1173.0, 0.00577658703425824
1174.0, 0.00651142642621841
1175.0, 0.005253401844418173
1176.0, 0.0022214798195464604
1177.0, 0.0026607354577010077
1178.0, 0.005081682612246546
1179.0, 0.005605795209405245
1180.0, 0.0004343790663616869
1181.0, 0.007046485877377747
1182.0, 0.004511325003206393
1183.0, 0.0021167107966168445
1184.0, 0.005702775186175787
1185.0, 0.012162113437234513
1186.0, 0.003829549370733058
1187.0, 0.004816308401122507
1188.0, 0.004946233953985848
1189.0, 0.00332060803682486
1190.0, 0.0026992408890868106
1191.0, 0.0017716893968191207
1192.0, 0.003794348756374254
1193.0, 0.0070335794940601945
1194.0, 0.007151446260179508
1195.0, 0.003566600205281912
1196.0, 0.001744545534518496
1197.0, 0.007874066139298195
1198.0, 0.006793280524112562
1199.0, 0.0045430769636605845
1200.0, 0.004221581676780871
1201.0, 0.005955051808561112
1202.0, 0.003956995112169901
1203.0, 0.0022605417396574976
1204.0, 0.002271680658495611
1205.0, 0.002934685449508486
1206.0, 0.0029153825531818473
1207.0, 0.00128477863992586
1208.0, 0.003527875729443641
1209.0, 0.004028193927783145
1210.0, 0.006572961338643676
1211.0, 0.008713780137603426
1212.0, 0.0067651463122636235
1213.0, 0.0072212197144487416
1214.0, 0.008640079499011038
1215.0, 0.005315896047700728
1216.0, 0.007296092338116765
1217.0, 0.01269693013257782
1218.0, 0.001719491793261186
1219.0, 0.0016318740516886997
1220.0, 0.008965187151354958
1221.0, 0.008711288262411309
1222.0, 0.0057298011938038355
1223.0, 0.00979085208780301
1224.0, 0.014152256787897922
1225.0, 0.0044408765941040765
1226.0, 0.00863503926364159
1227.0, 0.013675063340270391
1228.0, 0.010972408678342519
1229.0, 0.0032272393923303017
1230.0, 0.007582986819928534
1231.0, 0.010159845470261374
1232.0, 0.012606279668737029
1233.0, 0.011094499311695986
1234.0, 0.0047293322701656955
1235.0, 0.004622597093785057
1236.0, 0.001639627975082732
1237.0, 0.007798653490913328
1238.0, 0.007744118632716998
1239.0, 0.005381418176257304
1240.0, 0.015181898381817334
1241.0, 0.01242246986353162
1242.0, 0.006217437284316469
1243.0, 0.00989456245354779
1244.0, 0.01237212306079044
1245.0, 0.007814653191182314
1246.0, 0.006911394746362442
1247.0, 0.01232455109680205
1248.0, 0.0055273451862976495
1249.0, 0.009538517288743387
1250.0, 0.013168363711246092
1251.0, 0.0016470541289784636
1252.0, 0.004931423295050063
1253.0, 0.01155107120238188
1254.0, 0.010413589874661235
1255.0, 0.010395709779376542
1256.0, 0.014412264164118612
1257.0, 0.017403278515899602
1258.0, 0.008917215439755325
1259.0, 0.00938069527227272
1260.0, 0.011925603172570569
1261.0, 0.012982598256509313
1262.0, 0.01204658627620673
1263.0, 0.012456435856525703
1264.0, 0.012160205767477896
1265.0, 0.013006080743544188
1266.0, 0.01267450333716481
1267.0, 0.010908976487260098
1268.0, 0.01008315073351063
1269.0, 0.017650450574207627
1270.0, 0.012339556054286261
1271.0, 0.007635593819198509
1272.0, 0.009768171949595082
1273.0, 0.012330221424858775
1274.0, 0.004138702654482343
1275.0, 0.0052953209986113265
1276.0, 0.015314013408357556
1277.0, 0.009720241466787257
1278.0, 0.005035259553974194
1279.0, 0.011453596299426324
1280.0, 0.019710887115746402
1281.0, 0.005093958215403506
1282.0, 0.011665464794388986
1283.0, 0.010602888096249003
1284.0, 0.005082785116685042
1285.0, 0.005308069293834258
1286.0, 0.013230473871289774
1287.0, 0.004937526278651452
1288.0, 0.008921390906529067
1289.0, 0.007339056990575472
1290.0, 0.0025237374637533004
1291.0, 0.00476265666206567
1292.0, 0.013382753926130643
1293.0, 0.00978082250716894
1294.0, 0.006005238215627037
1295.0, 0.006809975347870953
1296.0, 0.008613833210972133
1297.0, 0.004943057173371517
1298.0, 0.006040775544760883
1299.0, 0.009715691034955743
1300.0, 0.008809683352246448
1301.0, 0.011397034104176624
1302.0, 0.01654814279089502
1303.0, 0.01305994316960744
1304.0, 0.004098889045422175
1305.0, 0.011924685757410028
1306.0, 0.012339048548699948
1307.0, 0.009630658447311292
1308.0, 0.00810407979857992
1309.0, 0.0035446793387444277
1310.0, 0.009897287093109528
1311.0, 0.00701686117289462
1312.0, 0.007215756369973853
1313.0, 0.006388438702731057
1314.0, 0.0023817518392830373
1315.0, 0.005869696708092316
1316.0, 0.0019067135665233141
1317.0, 0.008378967924882325
1318.0, 0.00934289407531693
1319.0, 0.0062988729268791425
1320.0, 0.006243177846725149
1321.0, 0.010529733851686672
1322.0, 0.011608061769818394
1323.0, 0.010966037051660552
1324.0, 0.011781617074611934
1325.0, 0.012795624541636349
1326.0, 0.012000575768948403
1327.0, 0.01211705973501106
1328.0, 0.012036203116345639
1329.0, 0.008688594824361488
1330.0, 0.007770860284999727
1331.0, 0.008851672700615258
1332.0, 0.007759279915317699
1333.0, 0.0015746936035327531
1334.0, 0.007087441553378711
1335.0, 0.008100655405723215
1336.0, 0.004278596480188723
1337.0, 0.002738218529082612
1338.0, 0.008720621263181277
1339.0, 0.0040016521274111785
1340.0, 0.0009973119001526524
1341.0, 0.008410792539482268
1342.0, 0.008668008377986421
1343.0, 0.0043328642245677295
1344.0, 0.008980360315819306
1345.0, 0.011439677703836615
1346.0, 0.008525014843935419
1347.0, 0.011822306518805599
1348.0, 0.012922712283185584
1349.0, 0.010331239133922098
1350.0, 0.010205222598442613
1351.0, 0.021675516551637478
1352.0, 0.011313935418639308
1353.0, 0.004612953908499198
1354.0, 0.008093091912459813
1355.0, 0.011069301558943792
1356.0, 0.0021042877314722515
1357.0, 0.017559981251474108
1358.0, 0.012808670292436758
1359.0, 0.011113395407986207
1360.0, 0.015673226723287307
1361.0, 0.01709864030486313
1362.0, 0.006580948512452594
1363.0, 0.009739684174049346
1364.0, 0.014504221339869167
1365.0, 0.009023995328270168
1366.0, 0.006390000615642761
1367.0, 0.008453827492284875
1368.0, 0.008720140391432558
1369.0, 0.006748409870246368
1370.0, 0.0035548123490002567
1371.0, 0.006037218624522688
1372.0, 0.005322857325914009
1373.0, 0.004697038509907875
1374.0, 0.010483605513037378
1375.0, 0.011156402158688213
1376.0, 0.006492923417243618
1377.0, 0.010901693883824367
1378.0, 0.011242195980900732
1379.0, 0.007398041225234156
1380.0, 0.0064731048234284395
1381.0, 0.011869205373142483
1382.0, 0.008745162329114781
1383.0, 0.013754175819886761
1384.0, 0.013011688540199677
1385.0, 0.011442910833689684
1386.0, 0.016159375318849287
1387.0, 0.018203769028201696
1388.0, 0.012375575707659365
1389.0, 0.012167229724725653
1390.0, 0.013681807832954222
1391.0, 0.012539739935524227
1392.0, 0.009299624146754016
1393.0, 0.012296827591131116
1394.0, 0.018081997848896417
1395.0, 0.0125374403944999
1396.0, 0.017866802637447332
1397.0, 0.018729845690124564
1398.0, 0.007990936887654496
1399.0, 0.004430076587593073
1400.0, 0.021772565699993623
1401.0, 0.014619212349820457
1402.0, 0.014228042085430248
1403.0, 0.016890240928990767
1404.0, 0.013992730262062783
1405.0, 0.004669353033526702
1406.0, 0.017281774923732493
1407.0, 0.017603426971387757
1408.0, 0.01336968287010229
1409.0, 0.01093075163615558
1410.0, 0.010840457152669618
1411.0, 0.009509823368866528
1412.0, 0.0051917382827594335
1413.0, 0.012236537999111959
1414.0, 0.014215175891939547
1415.0, 0.011551415276623503
1416.0, 0.012336102727174125
1417.0, 0.017278880860453212
1418.0, 0.0027585842473727426
1419.0, 0.01568266704476803
1420.0, 0.01650917381166293
1421.0, 0.011866478611241354
1422.0, 0.01162740172857819
1423.0, 0.01579040560495787
1424.0, 0.010046382836306798
1425.0, 0.012534852238945987
1426.0, 0.018143776155708568
1427.0, 0.014440400677721722
1428.0, 0.008534401402496486
1429.0, 0.008740352715985339
1430.0, 0.01558912254823393
1431.0, 0.009470667527970981
1432.0, 0.016636715674749038
1433.0, 0.01846757052944939
1434.0, 0.015407652047980277
1435.0, 0.014943874731146133
1436.0, 0.01983374464357235
1437.0, 0.010257800189553207
1438.0, 0.006741771223766357
1439.0, 0.016641500982557053
1440.0, 0.017267230417774632
1441.0, 0.015764113393713357
1442.0, 0.020655666677734143
1443.0, 0.020245780885489794
1444.0, 0.013896719772222793
1445.0, 0.025486476063412932
1446.0, 0.024027567413465054
1447.0, 0.016335593503632798
1448.0, 0.014888334809400269
1449.0, 0.02271920997943639
1450.0, 0.016785141834878437
1451.0, 0.012483280238928524
1452.0, 0.01733877805614452
1453.0, 0.01695822890208203
1454.0, 0.01619652106700149
1455.0, 0.023611288433815176
1456.0, 0.0243612884235629
1457.0, 0.00738200016421049
1458.0, 0.016056184681012615
1459.0, 0.01839470356376996
1460.0, 0.014319874681909794
1461.0, 0.014931054213217696
1462.0, 0.02595425536004828
1463.0, 0.02093177112340108
1464.0, 0.019969520924650288
1465.0, 0.023641573616506165
1466.0, 0.020010254555391342
1467.0, 0.013247159125275569
1468.0, 0.017451307488516487
1469.0, 0.035531489830042215
1470.0, 0.012904733775797532
1471.0, 0.016920630294611442
1472.0, 0.017680340020306367
1473.0, 0.013197292931573509
1474.0, 0.01574145954894685
1475.0, 0.033453081609401025
1476.0, 0.01821112444651183
1477.0, 0.004999379853272323
1478.0, 0.01978831654101413
1479.0, 0.02175890874340477
1480.0, 0.011880869185990291
1481.0, 0.0177485197483639
1482.0, 0.023004028366777104
1483.0, 0.012245387267466072
1484.0, 0.015391165388435246
1485.0, 0.01761609186741884
1486.0, 0.013622256153173383
1487.0, 0.009503728008464307
1488.0, 0.016820646914205883
1489.0, 0.018428489288615776
1490.0, 0.006702058856830716
1491.0, 0.01329791682851491
1492.0, 0.020579637750761492
1493.0, 0.01822077952636672
1494.0, 0.011804031260396461
1495.0, 0.01879456031748827
1496.0, 0.014235375483865036
1497.0, 0.014290203194045037
1498.0, 0.012830434855810566
1499.0, 0.011977123450705599
1500.0, 0.013293954138716703
1501.0, 0.014299463285939291
1502.0, 0.010486514525026141
1503.0, 0.008767857178387546
1504.0, 0.017337358829766614
1505.0, 0.01980341748423291
1506.0, 0.015500879067207688
1507.0, 0.013046835289441837
1508.0, 0.017570700053520568
1509.0, 0.008274539015931129
1510.0, 0.016218755825496905
1511.0, 0.014539580362323922
1512.0, 0.006584664509045898
1513.0, 0.005362095435567125
1514.0, 0.01629543668796201
1515.0, 0.016410986681470167
1516.0, 0.005201527401438439
1517.0, 0.005658962843546734
1518.0, 0.0043288256416718586
1519.0, 0.0014478117952906962
1520, 0.0
1521, 0.0
1522, 0.0
1523, 0.0
1524, 0.0
1525, 0.0
1526, 0.0
1527, 0.0
1528, 0.0
1529, 0.0
1530, 0.0
1531, 0.0
1532, 0.0
1533, 0.0
1534, 0.0
1535, 0.0
1536, 0.0
1537, 0.0
1538, 0.0
1539, 0.0
1540, 0.0
1541, 0.0
1542, 0.0
1543, 0.0
1544, 0.0
1545, 0.0
1546, 0.0
1547, 0.0
1548, 0.0
1549, 0.0
1550, 0.0
1551, 0.0
1552, 0.0
1553, 0.0
1554, 0.0
1555, 0.0
1556, 0.0
1557, 0.0
1558, 0.0
1559, 0.0
1560, 0.0
1561, 0.0
1562, 0.0
1563, 0.0
1564, 0.0
1565, 0.0
1566, 0.0
1567, 0.0
1568, 0.0
1569, 0.0
1570, 0.0
1571, 0.0
1572, 0.0
1573, 0.0
1574, 0.0
1575, 0.0
1576, 0.0
1577, 0.0
1578, 0.0
1579, 0.0
1580, 0.0
1581, 0.0
1582, 0.0
1583, 0.0
1584, 0.0
1585, 0.0
1586, 0.0
1587, 0.0
1588, 0.0
1589, 0.0
1590, 0.0
1591, 0.0
1592, 0.0
1593, 0.0
1594, 0.0
1595, 0.0
1596, 0.0
1597, 0.0
1598, 0.0
1599, 0.0
