30, 0.0
31, 0.0
32, 0.0
33, 0.0
34, 0.0
35, 0.0
36, 0.0
37, 0.0
38, 0.0
39, 0.0
40, 0.0
41, 0.0
42, 0.0
43, 0.0
44, 0.0
45, 0.0
46, 0.0
47, 0.0
48, 0.0
49, 0.0
50, 0.0
51, 0.0
52, 0.0
53, 0.0
54, 0.0
55, 0.0
56, 0.0
57, 0.0
58, 0.0
59, 0.0
60, 0.0
61, 0.0
62, 0.0
63, 0.0
64, 0.0
65, 0.0
66, 0.0
67, 0.0
68, 0.0
69, 0.0
70, 0.0
71, 0.0
72, 0.0
73, 0.0
74, 0.0
75, 0.0
76, 0.0
77, 0.0
78, 0.0
79, 0.0
80, 0.0
81, 0.0
82, 0.0
83, 0.0
84, 0.0
85, 0.0
86, 0.0
87, 0.0
88, 0.0
89, 0.0
90, 0.0
91, 0.0
92, 0.0
93, 0.0
94, 0.0
95, 0.0
96, 0.0
97, 0.0
98.0, 0.0002556007365798008
99.0, 0.0007745948901412302
100.0, 0.0003269045164769525
101.0, 0.00015175060644960438
102.0, 0.000703380762944916
103.0, 0.0028566337323555724
104.0, 0.005075742675275893
105.0, 0.007592746568573731
106.0, 0.010372989560282368
107.0, 0.012714895831603533
108.0, 0.011471032064586849
109.0, 0.009243801468906424
110.0, 0.008254090956086736
111.0, 0.010618989614583211
112.0, 0.013372178791933071
113.0, 0.016348134917331832
114.0, 0.02023388563238465
115.0, 0.022807339608898646
116.0, 0.025779986477698715
117.0, 0.03028305061834146
118.0, 0.034759667123578974
119.0, 0.03789870744092002
120.0, 0.03993510635244856
121.0, 0.04145535054090895
122.0, 0.039383214418253695
123.0, 0.034439626984275315
124.0, 0.026696212573292823
125.0, 0.020963785439408907
126.0, 0.018696119036841867
127.0, 0.018751376386940674
128.0, 0.019736217363853635
129.0, 0.026309087273497015
130.0, 0.03347834498646283
131.0, 0.041212183412318054
132.0, 0.060481675467564826
133.0, 0.07956040970173874
134.0, 0.09982892723184462
135.0, 0.12301672059809353
136.0, 0.14709874549950663
137.0, 0.17520723875209904
138.0, 0.20436894958380092
139.0, 0.21887387531290103
140.0, 0.22884447599596267
141.0, 0.23219204782158007
142.0, 0.22674091611938255
143.0, 0.20833619561285002
144.0, 0.1829838965896762
145.0, 0.15249227112044286
146.0, 0.11967555669326363
147.0, 0.09448091115034271
148.0, 0.07616776854580595
149.0, 0.06506978628568799
150.0, 0.06296259054849174
151.0, 0.06699272138318271
152.0, 0.07743880327156406
153.0, 0.09633304534267345
154.0, 0.12257124275928663
155.0, 0.15043541137428693
156.0, 0.17886388824723512
157.0, 0.2059273722815131
158.0, 0.2302758993555574
159.0, 0.25187916234908025
160.0, 0.27032442177282257
161.0, 0.2723218852811963
162.0, 0.2631257004021073
163.0, 0.2438448884281042
164.0, 0.21438498219869181
165.0, 0.18350792908075292
166.0, 0.15285220467026975
167.0, 0.12346282437227239
168.0, 0.10255609145265253
169.0, 0.0837727569772815
170.0, 0.06840735326636001
171.0, 0.0585203510510308
172.0, 0.049050223935291966
173.0, 0.04206267742813027
174.0, 0.03717122861747176
175.0, 0.03265040292117256
176.0, 0.029046538785771774
177.0, 0.02679782921324077
178.0, 0.026129564391746053
179.0, 0.02399550337054229
180.0, 0.023746907941551074
181.0, 0.023663575438720445
182.0, 0.021185226132087454
183.0, 0.0199505611732443
184.0, 0.018372534976481992
185.0, 0.016696967706210198
186.0, 0.017691509468311804
187.0, 0.0180697109870827
188.0, 0.018393636821119122
189.0, 0.018976830202235367
190.0, 0.020261138178904185
191.0, 0.023323744420283277
192.0, 0.027129756783068497
193.0, 0.02971273926290375
194.0, 0.031814186575810255
195.0, 0.03333825736876721
196.0, 0.034354835186969766
197.0, 0.03564392038632687
198.0, 0.03666075354585819
199.0, 0.037863202785190335
200.0, 0.03960689463911859
201.0, 0.04303705579572883
202.0, 0.045238851941780955
203.0, 0.04741730387669483
204.0, 0.05263427092748655
205.0, 0.05313740357713278
206.0, 0.05272984828972154
207.0, 0.05187087624753592
208.0, 0.046801960274363515
209.0, 0.0392719228422127
210.0, 0.0317629381119879
211.0, 0.026199127040638922
212.0, 0.023035729040340593
213.0, 0.018799869319266277
214.0, 0.014561945088004883
215.0, 0.013241175760152912
216.0, 0.01177702686669493
217.0, 0.010497565509858977
218.0, 0.0093773323793637
219.0, 0.007452510056147948
220.0, 0.005540332468402898
221.0, 0.0044502294436102536
222.0, 0.004904648996830017
223.0, 0.002083689686894804
224.0, 0.0013857378319299678
225.0, 0.001794156507569907
226.0, 0.0009441155238537557
227.0, 0.0007876666283220126
228.0, 0.0014691258321566183
229.0, 0.0026455075615226913
230.0, 0.0015483275164458
231.0, 0.003197564905825964
232.0, 0.005860683905111221
233.0, 0.008582381684952647
234.0, 0.014992201183973881
235.0, 0.02033963335846147
236.0, 0.024426783934652536
237.0, 0.026721344831838294
238.0, 0.029457324547195022
239.0, 0.03191265065774425
240.0, 0.033503448695454095
241.0, 0.0317918800039235
242.0, 0.02477525105158135
243.0, 0.017031442098226136
244.0, 0.010685871773821892
245.0, 0.007353719682014427
246.0, 0.0037779233491977756
247.0, 0.001217992981128702
248.0, 0.0014389498372690704
249.0, 0.0024854230168588538
250.0, 0.0024296124867849026
251.0, 0.002042377790094436
252.0, 0.0044075984290984985
253.0, 0.002709731174855095
254.0, 0.0023867802924081756
255.0, 0.004718690263664039
256.0, 0.00486929484898191
257.0, 0.005089483815852406
258.0, 0.005046210237164308
259.0, 0.0044441102865626315
260.0, 0.0045132658533548345
261.0, 0.004197011696708735
262.0, 0.0037335830617723437
263.0, 0.0036174252895322763
264.0, 0.0030887541871517095
265.0, 0.002737940199810671
266.0, 0.002494484348494081
267.0, 0.0015140453012867628
268.0, 0.0007526993905450372
269.0, 0.00040576389219300856
270.0, 0.0005952315433565986
271.0, 0.0014596617947704369
272.0, 0.0019292372428784046
273.0, 0.0021412489224948653
274.0, 0.0021976549681406005
275.0, 0.002148500294106012
276.0, 0.0013512935610420927
277.0, 0.0007124754622155931
278.0, 0.002524082569740551
279.0, 0.0021780101879387915
280.0, 0.0015382753443223423
281.0, 0.0012526951588326747
282.0, 0.002880688288665353
283.0, 0.004102138004638166
284.0, 0.005106767043270969
285.0, 0.005983512934882166
286.0, 0.007087785488197012
287.0, 0.005492789038599228
288.0, 0.004665389322743652
289.0, 0.00846572751790294
290.0, 0.008913730283738956
291.0, 0.008262157316169017
292.0, 0.008263295883405557
293.0, 0.012828440434476585
294.0, 0.012151913450529711
295.0, 0.01492141907233584
296.0, 0.02108728406248783
297.0, 0.0213475748024858
298.0, 0.030042637780339318
299.0, 0.04087078336058115
300.0, 0.05124898623567975
301.0, 0.061572676973986086
302.0, 0.07314191021897637
303.0, 0.08315500705064359
304.0, 0.08892165439343502
305.0, 0.09415431557911427
306.0, 0.09189983541120468
307.0, 0.08213223886382968
308.0, 0.06413907827305504
309.0, 0.0464291861539677
310.0, 0.03240213173723055
311.0, 0.02240023697759725
312.0, 0.016296912069812465
313.0, 0.011482632227834532
314.0, 0.0077259454255595925
315.0, 0.0049370659245379514
316.0, 0.0026493116933187628
317.0, 0.0021643518367129655
318.0, 0.002493378181857966
319.0, 0.0030843830110212295
320.0, 0.002703303350493779
321.0, 0.002385124099207081
322.0, 0.002309785753393751
323.0, 0.0027107704220052957
324.0, 0.005088967418890884
325.0, 0.007697185471395983
326.0, 0.009325529549360053
327.0, 0.007486402496184614
328.0, 0.01047070888993279
329.0, 0.011403879216457257
330.0, 0.010708169481143465
331.0, 0.01431998207610734
332.0, 0.013422085407606697
333.0, 0.013342196884245098
334.0, 0.015330767416269058
335.0, 0.01559349409603182
336.0, 0.01740627500812947
337.0, 0.019226587577921953
338.0, 0.020179478981102308
339.0, 0.020147449415027607
340.0, 0.021005647923674098
341.0, 0.021817913606549437
342.0, 0.021647742229292045
343.0, 0.022712843251020142
344.0, 0.022884377800253635
345.0, 0.02266116113849954
346.0, 0.022974144657850658
347.0, 0.022103849773363993
348.0, 0.020963433449239715
349.0, 0.020281069343986206
350.0, 0.02189568571946343
351.0, 0.026421232539633136
352.0, 0.03142330073499141
353.0, 0.03675157782880563
354.0, 0.044354804758996454
355.0, 0.049787555535510494
356.0, 0.05403280593722612
357.0, 0.05749474198693892
358.0, 0.06099177355053065
359.0, 0.06111270200040803
360.0, 0.05993784032781918
361.0, 0.05836176236408813
362.0, 0.047583162620262416
363.0, 0.040501893312836955
364.0, 0.03396970258877451
365.0, 0.024981332698563036
366.0, 0.019943033963194995
367.0, 0.01658164116903655
368.0, 0.01371784178000906
369.0, 0.00968698091259288
370.0, 0.007900486070318158
371.0, 0.006079990544703075
372.0, 0.004205050730169754
373.0, 0.0026708124225275024
374.0, 0.001171929343746363
375.0, 0.0005680408149936509
376.0, 0.0019162317922731945
377.0, 0.008582975239502497
378.0, 0.004374665454734132
379.0, 0.0016719112569570137
380.0, 0.0028235833323278503
381.0, 0.003067786887831516
382.0, 0.002726258450699516
383.0, 0.0017252572089582956
384.0, 0.000326297068187869
385.0, 0.0014043687082651887
386.0, 0.0019870157427038728
387.0, 0.0018856031237318757
388.0, 0.0010358607419431668
389.0, 0.0008914012846309872
390.0, 0.0009393487285472915
391.0, 0.0012484927242937729
392.0, 0.0018757183491100336
393.0, 0.0014114105159758726
394.0, 0.001965916318973128
395.0, 0.0031764677890155192
396.0, 0.004677410579754196
397.0, 0.00627278838856194
398.0, 0.008423610449440124
399.0, 0.010173083436386213
400.0, 0.01001569881859935
401.0, 0.011441323345845921
402.0, 0.014466165666450238
403.0, 0.01835391196600375
404.0, 0.021687196517039837
405.0, 0.030826557893713344
406.0, 0.03710344088144911
407.0, 0.04149502175606441
408.0, 0.04943889892008063
409.0, 0.059034661259174226
410.0, 0.06688131645651016
411.0, 0.0725263015888975
412.0, 0.07649287430350322
413.0, 0.07566116089059337
414.0, 0.07087040384242514
415.0, 0.0639742795682141
416.0, 0.06280913688436278
417.0, 0.05443802470852195
418.0, 0.046389750230790554
419.0, 0.040804715681932106
420.0, 0.03593595603395836
421.0, 0.03376647524107124
422.0, 0.033025135748244706
423.0, 0.03255058746378423
424.0, 0.02653158847403153
425.0, 0.029048099545134598
426.0, 0.03274834652322147
427.0, 0.03418016217598211
428.0, 0.03531456421671626
429.0, 0.042583820618582555
430.0, 0.050048550661411936
431.0, 0.05473729948376434
432.0, 0.06720323561755422
433.0, 0.08879046716512698
434.0, 0.11716647194232624
435.0, 0.15082409948237885
436.0, 0.18628311288133706
437.0, 0.2269680714607487
438.0, 0.2671107249633193
439.0, 0.30185504864563106
440.0, 0.32916468298679086
441.0, 0.33426300532809067
442.0, 0.31739163925448177
443.0, 0.2782347702091002
444.0, 0.22267489840739416
445.0, 0.1759939691725747
446.0, 0.13718595420730983
447.0, 0.10524672436269633
448.0, 0.08092429392250441
449.0, 0.06676988419828725
450.0, 0.05687017003000687
451.0, 0.04411535385387572
452.0, 0.03919015605128802
453.0, 0.033782366829677314
454.0, 0.02982114187163561
455.0, 0.030299768593541627
456.0, 0.0230135879133554
457.0, 0.02081488654776627
458.0, 0.0210486649629795
459.0, 0.01917816145016437
460.0, 0.019006826788546316
461.0, 0.018457342207167896
462.0, 0.01740466038754393
463.0, 0.015804995336520286
464.0, 0.017361314093317128
465.0, 0.01666698356054259
466.0, 0.015669385044438225
467.0, 0.018015445157229915
468.0, 0.020070903070007293
469.0, 0.018191883964565194
470.0, 0.015387636594442786
471.0, 0.016993770761375045
472.0, 0.016491753811796604
473.0, 0.017508840087948823
474.0, 0.0194890894126229
475.0, 0.021098510016350186
476.0, 0.021689938075232295
477.0, 0.022607271642861883
478.0, 0.023436527493866405
479.0, 0.02331376775822437
480.0, 0.024558059971629007
481.0, 0.025050821352746944
482.0, 0.025123697055265282
483.0, 0.02556361205592923
484.0, 0.030408692297409
485.0, 0.031803129881632856
486.0, 0.031541529744020025
487.0, 0.03332775115188421
488.0, 0.03373650775217333
489.0, 0.03662249475285206
490.0, 0.03979612966087208
491.0, 0.0395175756851907
492.0, 0.04103309784162718
493.0, 0.044369602709135376
494.0, 0.0479462540157749
495.0, 0.04948122441241369
496.0, 0.05405913478144712
497.0, 0.057893206822615804
498.0, 0.06140128260512127
499.0, 0.06537766527943092
500.0, 0.06776504277584026
501.0, 0.07568812087352154
502.0, 0.08431721718242209
503.0, 0.08743456471850446
504.0, 0.09474138576933827
505.0, 0.1000445509961734
506.0, 0.10591477078517367
507.0, 0.11533722034980666
508.0, 0.12523227467286585
509.0, 0.13513071251116934
510.0, 0.14440099689078914
511.0, 0.1524407756936698
512.0, 0.16106957325129315
513.0, 0.17187285791500204
514.0, 0.1807397682358841
515.0, 0.18433990328727196
516.0, 0.19246706741332312
517.0, 0.1950658288881532
518.0, 0.19945890590270463
519.0, 0.210678510993126
520.0, 0.21832288789856144
521.0, 0.22828551859435728
522.0, 0.24925568206343934
523.0, 0.28602098303426854
524.0, 0.3253783639874042
525.0, 0.388811478790091
526.0, 0.46782348099381466
527.0, 0.557786423586617
528.0, 0.6567900563679329
529.0, 0.7707862336031136
530.0, 0.8719091148733071
531.0, 0.9467778157104623
532.0, 0.9907994735181878
533.0, 0.961154746897801
534.0, 0.8871902991651021
535.0, 0.7811610614199179
536.0, 0.6534859550960778
537.0, 0.5272703566743128
538.0, 0.41678800350109424
539.0, 0.32750155749170656
540.0, 0.26445755551855976
541.0, 0.2136693843344231
542.0, 0.1743743664778385
543.0, 0.14509505861168842
544.0, 0.12206039640233508
545.0, 0.10128185792337864
546.0, 0.08705918929323482
547.0, 0.07721724948929631
548.0, 0.06538984729913798
549.0, 0.057232858518170476
550.0, 0.050367856624874904
551.0, 0.04496960175945907
552.0, 0.04179749735198435
553.0, 0.03863582312887242
554.0, 0.034932573138295134
555.0, 0.03121449074921482
556.0, 0.02820720592616621
557.0, 0.02645346307779874
558.0, 0.025138941725515267
559.0, 0.0238750948242892
560.0, 0.022314501614924997
561.0, 0.021380392887903242
562.0, 0.019643679925101496
563.0, 0.018283928287189912
564.0, 0.01794986307769921
565.0, 0.015567968992821313
566.0, 0.01318617719871821
567.0, 0.012097011935489052
568.0, 0.012288863387053324
569.0, 0.008432278940034284
570.0, 0.008162569969681639
571.0, 0.0086862703995819
572.0, 0.00866689672678085
573.0, 0.00673981405578809
574.0, 0.006941248871912388
575.0, 0.006820465939263281
576.0, 0.006156091722115382
577.0, 0.006230865322490067
578.0, 0.0055358803116049415
579.0, 0.004700960160594742
580.0, 0.004098454340065842
581.0, 0.004302617764135733
582.0, 0.0048179772821803435
583.0, 0.003007795719219727
584.0, 0.0016334204877752336
585.0, 0.004975216669592025
586.0, 0.004335860336342161
587.0, 0.002486320723743052
588.0, 0.001845619746598635
589.0, 0.00455054598592771
590.0, 0.004745993989459359
591.0, 0.006356599008574114
592.0, 0.007338212183700327
593.0, 0.0065509588752785865
594.0, 0.006390102097966561
595.0, 0.006342242689154063
596.0, 0.0066903289432283354
597.0, 0.007594001685300226
598.0, 0.009235717029244436
599.0, 0.008269829540307898
600.0, 0.007033484961015047
601.0, 0.006212770519857228
602.0, 0.005951618595549086
603.0, 0.0035307657669264984
604.0, 0.003196718496292696
605.0, 0.0046217964448589345
606.0, 0.0059003369919214035
607.0, 0.006063467974237374
608.0, 0.004619182798342702
609.0, 0.0029983317436406837
610.0, 0.00297822410698195
611.0, 0.004358064583101314
612.0, 0.0029323790821489766
613.0, 0.0014157776231059434
614.0, 0.0017305495547897537
615.0, 0.0009967542412635186
616.0, 0.0014585885450972172
617.0, 0.002698558225111061
618.0, 0.004102449630998749
619.0, 0.003358517428231606
620.0, 0.0037751035526022666
621.0, 0.0043745667572917726
622.0, 0.004468687229613464
623.0, 0.0028000176881941698
624.0, 0.004267070205042738
625.0, 0.004003111298273045
626.0, 0.003149052582287619
627.0, 0.004885367945263617
628.0, 0.002097729957283138
629.0, 0.004458531424390431
630.0, 0.00646198691019602
631.0, 0.0022771103151976533
632.0, 0.0017615708714185554
633.0, 0.0067018948137669366
634.0, 0.008896027020263736
635.0, 0.0047241419871468645
636.0, 0.005431993061679815
637.0, 0.0038732231341269624
638.0, 0.0035854791148066823
639.0, 0.004701390291611874
640.0, 0.0032905160116843924
641.0, 0.002766029517412624
642.0, 0.0024792460024135854
643.0, 0.0022681024481706934
644.0, 0.0020367133610582912
645.0, 0.00180038928339505
646.0, 0.001711345133754567
647.0, 0.00201109433368348
648.0, 0.002851996607739294
649.0, 0.0013563900181516322
650.0, 0.001362016057320518
651.0, 0.001165887498756646
652.0, 0.0001197302050247376
653.0, 0.0010532453506632443
654.0, 0.0016146255298437357
655.0, 0.0012241697889359973
656.0, 0.0008629253153341261
657.0, 0.004253370805341808
658.0, 0.0019325340653120993
659.0, 0.001236318880797406
660.0, 0.0027684495568752205
661.0, 0.005700311584124342
662.0, 0.002650395844807453
663.0, 0.002508503607498709
664.0, 0.0030881160009438397
665.0, 0.0022923692851337793
666.0, 0.001832346038619347
667.0, 0.0010390927325906111
668.0, 0.0032935141524116068
669.0, 0.007649267926047288
670.0, 0.0022463965193996087
671.0, 0.0029069335742431856
672.0, 0.003764159015227961
673.0, 0.003369767757195842
674.0, 0.001429338604005482
675.0, 0.005433742719199507
676.0, 0.006641541092599969
677.0, 0.006135377149380667
678.0, 0.005881957301217146
679.0, 0.006053206798821341
680.0, 0.00854247589160839
681.0, 0.010178871213219877
682.0, 0.009540933263427325
683.0, 0.00902170527737173
684.0, 0.013036447250035447
685.0, 0.01533877504553288
686.0, 0.01543408606748932
687.0, 0.01630356397581812
688.0, 0.018044879886197532
689.0, 0.018489338088011783
690.0, 0.02044716639001506
691.0, 0.027158519296283316
692.0, 0.02562162749550158
693.0, 0.028490372180957207
694.0, 0.02898706641833418
695.0, 0.025831995459167038
696.0, 0.03620843953564191
697.0, 0.037221591930225235
698.0, 0.03928741031541022
699.0, 0.0432528873367841
700.0, 0.044265483635505525
701.0, 0.0464264992183253
702.0, 0.04666665847891842
703.0, 0.045350878585124293
704.0, 0.043347183883163096
705.0, 0.04312364364708369
706.0, 0.03966314860287253
707.0, 0.03734910100531834
708.0, 0.03718875247374918
709.0, 0.032023321825710806
710.0, 0.027903236277066507
711.0, 0.02805224022120872
712.0, 0.028499129124541597
713.0, 0.01962640930406524
714.0, 0.022558879381220157
715.0, 0.02308143391983286
716.0, 0.02250327804931568
717.0, 0.02255273512191547
718.0, 0.019604456203701656
719.0, 0.01728545844042206
720.0, 0.020023514683358577
721.0, 0.02628477868483581
722.0, 0.023714430751684775
723.0, 0.024255777452631706
724.0, 0.024741524093496052
725.0, 0.024163515744402893
726.0, 0.02181130295751533
727.0, 0.022579547339653682
728.0, 0.02314378382834201
729.0, 0.020683262740912055
730.0, 0.014646696301840558
731.0, 0.013738003455973681
732.0, 0.01434345684339636
733.0, 0.012642883873878737
734.0, 0.008735423063157886
735.0, 0.005317911617632011
736.0, 0.005905262578636652
737.0, 0.005402108366747092
738.0, 0.004292733193601346
739.0, 0.0034363492989188636
740.0, 0.003030976373418243
741.0, 0.0035340199092250444
742.0, 0.002602235285339041
743.0, 0.0005007886751482847
744.0, 0.0014346209877519796
745.0, 0.0010255822053790529
746.0, 0.0028585354411654706
747.0, 0.004044530104004223
748.0, 0.0004054255699903007
749.0, 0.002184334542337786
750.0, 0.0013675873767657173
751.0, 0.0007282870895017876
752.0, 0.0012865149904992693
753.0, 0.00028821120561872487
754.0, 0.0011857828144782728
755.0, 0.0025955233380484167
756.0, 0.0034190319789961362
757.0, 0.002322090318386102
758.0, 0.007874286897326558
759.0, 0.012116441786278933
760.0, 0.014180320972480245
761.0, 0.013260797477289702
762.0, 0.007126759216776809
763.0, 0.0021888919256212854
764.0, 0.0005454470832131945
765.0, 0.0015030182843212491
766.0, 0.002501542931959239
767.0, 0.00362422284676745
768.0, 0.004048733318709306
769.0, 0.003000175933690551
770.0, 0.00047018297006391383
771.0, 0.0008149604896359133
772.0, 0.0015200370097556485
773.0, 0.0012110578960786815
774.0, 0.0006217057661462242
775.0, 0.0023392843687636937
776.0, 0.004287987872180348
777.0, 0.004201644676594418
778.0, 0.0029487269499296432
779.0, 0.0017686021413181228
780.0, 0.00343855839244142
781.0, 0.0023731261831914743
782.0, 0.0013241627663916023
783.0, 0.0012006486586869515
784.0, 0.0020359192812667484
785.0, 0.0019077690214631667
786.0, 0.0017109579586396357
787.0, 0.0018889478767400046
788.0, 0.0025124846746990945
789.0, 0.0012067914550847893
790.0, 0.0024864870912323462
791.0, 0.002803029224904373
792.0, 0.0018057922810728085
793.0, 0.0012861145352140784
794.0, 0.0020991121231403093
795.0, 0.0014374636377307
796.0, 0.0020724850331137004
797.0, 0.005473239660484746
798.0, 0.003981413645272103
799.0, 0.0061547187904831295
800.0, 0.0044743064743224415
801.0, 0.0007091199502603536
802.0, 0.0029770667211307085
803.0, 0.003974046392041507
804.0, 0.0022993706517866986
805.0, 0.0022395916944207145
806.0, 0.005390201088513518
807.0, 0.0012212487861547575
808.0, 0.006237561734811649
809.0, 0.008367242484520481
810.0, 0.006421459568787986
811.0, 0.003609988112606671
812.0, 0.0024836896215258983
813.0, 0.003132556102462977
814.0, 0.0026695293986403494
815.0, 0.00030151068019538597
816.0, 0.0008923724825758057
817.0, 0.0030225942646004917
818.0, 0.0029399040777562018
819.0, 0.0017576316596526198
820.0, 0.0020184375495482573
821.0, 0.003679076037096711
822.0, 0.002514937996376917
823.0, 0.0024720775369735716
824.0, 0.004933931886072178
825.0, 0.007974193885705546
826.0, 0.004439467950026128
827.0, 0.004359119704290787
828.0, 0.0047853009723489446
829.0, 0.0019726331543539265
830.0, 0.003531209843621927
831.0, 0.004656577142952425
832.0, 0.0062940313884552734
833.0, 0.006539107787220845
834.0, 0.0003609400919775091
835.0, 0.0003534959485725096
836.0, 0.0008623878172882738
837.0, 0.002099684052027391
838.0, 0.0039030801906079935
839.0, 0.0032888343675057563
840.0, 0.00489712897265516
841.0, 0.0036557900470848095
842.0, 0.00241085931616912
843.0, 0.006889466887868088
844.0, 0.0039770907731427
845.0, 0.0019995522522749413
846.0, 0.0025365299852663837
847.0, 0.0046413726127966706
848.0, 0.0026025080625429846
849.0, 0.003957613339564848
850.0, 0.0043830486958797805
851.0, 0.003849518817358034
852.0, 0.0033468014474228288
853.0, 0.007734712879405662
854.0, 0.0056707773462971196
855.0, 0.0026388622683734785
856.0, 0.0019446036635127942
857.0, 0.006556441340990173
858.0, 0.006588260710644253
859.0, 0.005617187992194161
860.0, 0.004612590101981156
861.0, 0.0042311283900747605
862.0, 0.004751688371639992
863.0, 0.006668913298150111
864.0, 0.005376326128875456
865.0, 0.004590658980207654
866.0, 0.008285130386315216
867.0, 0.005463054154835455
868.0, 0.004979570783989878
869.0, 0.005701360901095309
870.0, 0.006162882472389314
871.0, 0.004214682929869563
872.0, 0.0037652393912454593
873.0, 0.005122220504995497
874.0, 0.00698916992743802
875.0, 0.007631843567774662
876.0, 0.0035004825669483148
877.0, 0.00604752014482582
878.0, 0.00573998930421412
879.0, 0.004931936839167157
880.0, 0.006932294843512529
881.0, 0.004039291005085837
882.0, 0.005633617032573448
883.0, 0.00550909793504083
884.0, 0.003779335802823318
885.0, 0.004235117656430632
886.0, 0.004752026399964144
887.0, 0.004156713980547348
888.0, 0.0032995195225378744
889.0, 0.0032381636201331367
890.0, 0.005817439207298484
891.0, 0.0033744632547533663
892.0, 0.0024636510419665495
893.0, 0.0036392007977771334
894.0, 0.005949998974145055
895.0, 0.004094131821804261
896.0, 0.003073589805451668
897.0, 0.0026940462828917637
898.0, 0.002205998829109136
899.0, 0.0007303204213712612
900.0, 0.0013944463392512217
901.0, 0.004115309407903687
902.0, 0.004316723865817726
903.0, 0.002560672577721241
904.0, 0.004658552483727782
905.0, 0.0044905201286914555
906.0, 0.003751954118458453
907.0, 0.0029743258800304356
908.0, 0.0023962388784809292
909.0, 0.0016816714415811198
910.0, 0.0016612278835058955
911.0, 0.0011932644419078659
912.0, 0.0011972090601034225
913.0, 0.002459347134859692
914.0, 0.002909880210537208
915.0, 0.003325978150043073
916.0, 0.0052951227206562285
917.0, 0.006903596986157553
918.0, 0.004918204016319588
919.0, 0.0020445465113122776
920.0, 0.004613347569875293
921.0, 0.004829023101978703
922.0, 0.002283523216411824
923.0, 0.003058031764751286
924.0, 0.00441306763573483
925.0, 0.005171521344662363
926.0, 0.005475347248823773
927.0, 0.005591419488098245
928.0, 0.006017011299188271
929.0, 0.0034484895629108116
930.0, 0.002024789506212577
931.0, 0.0026555742345649056
932.0, 0.005122893185929585
933.0, 0.006309956305709656
934.0, 0.003655828055911903
935.0, 0.0026629727503180247
936.0, 0.0036587246263067967
937.0, 0.0051779040448192565
938.0, 0.0010495941305861645
939.0, 0.0025625942043655285
940.0, 0.0032579057551045763
941.0, 0.0024452033437168982
942.0, 0.0019498726385131493
943.0, 0.0023347978184674583
944.0, 0.004577386222664131
945.0, 0.0036336125005599546
946.0, 0.0005466155232518418
947.0, 0.0016694483693872764
948.0, 0.003906036749591124
949.0, 0.0031849338873829154
950.0, 0.002585012248742187
951.0, 0.0028906386098729196
952.0, 0.0014215696309568112
953.0, 0.005990877728530161
954.0, 0.005676438026762002
955.0, 0.0039061422901844594
956.0, 0.003918766864720524
957.0, 0.00684357887228035
958.0, 0.0041906490835553045
959.0, 0.0042687391822408775
960.0, 0.005504438607775095
961.0, 0.00570832845739059
962.0, 0.0051421736280629895
963.0, 0.005497603146477977
964.0, 0.006417434566330713
965.0, 0.007740055103589959
966.0, 0.009210252003345817
967.0, 0.009873647565124457
968.0, 0.010476414029237945
969.0, 0.009846152156296611
970.0, 0.009368597476202872
971.0, 0.010944415055556718
972.0, 0.012280740749017305
973.0, 0.011847085086142134
974.0, 0.013379966639837653
975.0, 0.016319185106267675
976.0, 0.01830161049056113
977.0, 0.0231241608900273
978.0, 0.0215756872223838
979.0, 0.017976101076191606
980.0, 0.015294319411499712
981.0, 0.01570984558881306
982.0, 0.011660931501890908
983.0, 0.009949347814552761
984.0, 0.01247376505560305
985.0, 0.014935867546136499
986.0, 0.0073297075473979
987.0, 0.010594649185507518
988.0, 0.010064084736047103
989.0, 0.008257221785737963
990.0, 0.007366700068890066
991.0, 0.009372839616856296
992.0, 0.007178968841561476
993.0, 0.008144369175038616
994.0, 0.009546973630166653
995.0, 0.010089932582025314
996.0, 0.010580128863472555
997.0, 0.013332750027708153
998.0, 0.012688757846116717
999.0, 0.012274417581086125
1000.0, 0.01232469506982475
1001.0, 0.007022885957949738
1002.0, 0.015126399742360205
1003.0, 0.014479368518262639
1004.0, 0.013414629982528013
1005.0, 0.01539798303854796
1006.0, 0.012498838440063215
1007.0, 0.012388821621274998
1008.0, 0.01396189714571269
1009.0, 0.015101275645868334
1010.0, 0.014925699637017962
1011.0, 0.014998796076141642
1012.0, 0.012619963726543356
1013.0, 0.013846848989471281
1014.0, 0.014260019261910688
1015.0, 0.011846324660688247
1016.0, 0.0108564608191088
1017.0, 0.011966767329906845
1018.0, 0.012860452483391538
1019.0, 0.014310590040575683
1020.0, 0.015809384022115288
1021.0, 0.013641549626582948
1022.0, 0.01728486363896911
1023.0, 0.02027265266773273
1024.0, 0.01986415268920611
1025.0, 0.017347995535400684
1026.0, 0.021524072067783437
1027.0, 0.02290839326275546
1028.0, 0.026075293221406826
1029.0, 0.02995854377893488
1030.0, 0.03393563268201649
1031.0, 0.03898066456828739
1032.0, 0.0481244896117583
1033.0, 0.060949925925923853
1034.0, 0.07325810059261009
1035.0, 0.08656688789344848
1036.0, 0.11281026288556836
1037.0, 0.135270017527833
1038.0, 0.15661268898048553
1039.0, 0.17178796516631614
1040.0, 0.17472441757383522
1041.0, 0.15764011341843417
1042.0, 0.13359243113635738
1043.0, 0.1042772912628137
1044.0, 0.07975396166600372
1045.0, 0.06411124291254787
1046.0, 0.053754666862973075
1047.0, 0.043148125117549854
1048.0, 0.038138749718037726
1049.0, 0.03208248478037356
1050.0, 0.025702148643841266
1051.0, 0.027249326532306346
1052.0, 0.018203487453404166
1053.0, 0.022021425760401368
1054.0, 0.023878052468040586
1055.0, 0.020343691097215528
1056.0, 0.017402457997769037
1057.0, 0.016939741535973333
1058.0, 0.017881832202369465
1059.0, 0.01746057113669194
1060.0, 0.015933327547370157
1061.0, 0.015339448734385096
1062.0, 0.015389453350132523
1063.0, 0.013585414538609768
1064.0, 0.01341504620400329
1065.0, 0.014293070156098807
1066.0, 0.014062227541497888
1067.0, 0.013827606552252205
1068.0, 0.013409323974478799
1069.0, 0.015565463893153194
1070.0, 0.015748194323645243
1071.0, 0.010047833515136962
1072.0, 0.011852206154543122
1073.0, 0.0153366843222634
1074.0, 0.015642651413930654
1075.0, 0.016239736297197094
1076.0, 0.020126170078114618
1077.0, 0.021714912027711177
1078.0, 0.01997877843861791
1079.0, 0.020574421841018126
1080.0, 0.022727719513761502
1081.0, 0.024739773331074123
1082.0, 0.024929202426599878
1083.0, 0.02639396990033526
1084.0, 0.025384739378355496
1085.0, 0.026285498699273494
1086.0, 0.02904324673540024
1087.0, 0.025985525418245142
1088.0, 0.02402546534351037
1089.0, 0.020008423898384215
1090.0, 0.015995988714007908
1091.0, 0.013061544228201858
1092.0, 0.011181463377460645
1093.0, 0.011298472352265424
1094.0, 0.008710947314247331
1095.0, 0.007247450238110136
1096.0, 0.0070994227791876
1097.0, 0.0072750007807279105
1098.0, 0.017800800428457483
1099.0, 0.011054213896201301
1100.0, 0.006597210368882009
1101.0, 0.006814888710687948
1102.0, 0.007539088995549574
1103.0, 0.0016215002126882564
1104.0, 0.003292502665299901
1105.0, 0.004266769519869286
1106.0, 0.003913478925178369
1107.0, 0.0027340789020332866
1108.0, 0.00038557924875225777
1109.0, 0.0029708209358467676
1110.0, 0.00329967941101226
1111.0, 0.0037047230245243166
1112.0, 0.004585423241548463
1113.0, 0.0024778685373242912
1114.0, 0.003372547420985796
1115.0, 0.0025574323741613903
1116.0, 0.0023540220910521835
1117.0, 0.0027564059324835534
1118.0, 0.002185919415875424
1119.0, 0.004856167333188026
1120.0, 0.0029053820219568077
1121.0, 0.003572335092403399
1122.0, 0.006553836244574616
1123.0, 0.008687102455234607
1124.0, 0.008726540201056837
1125.0, 0.005907477994497571
1126.0, 0.004836877569662505
1127.0, 0.0036588235730456355
1128.0, 0.0012536395172083447
1129.0, 0.0015935903635256033
1130.0, 0.0007450485681726674
1131.0, 0.00236311683965636
1132.0, 0.0033956340421964154
1133.0, 0.0036150135181317747
1134.0, 0.006581575896131994
1135.0, 0.0013317151077746302
1136.0, 0.0013701692789129499
1137.0, 0.00515475240648156
1138.0, 0.007405015141585345
1139.0, 0.0030407809627381703
1140.0, 0.005718794489898229
1141.0, 0.0021316555550019278
1142.0, 0.0010972880746176713
1143.0, 0.0012939100642793853
1144.0, 0.0003909340040295523
1145.0, 0.0015809747588112323
1146.0, 0.0013722948436723917
1147.0, 0.0016919801192142175
1148.0, 0.0020443015442055063
1149.0, 0.0021498793622155826
1150.0, 0.0023432798196115208
1151.0, 0.0026595336308158275
1152.0, 0.0015841332884379764
1153.0, 0.001227508913698555
1154.0, 0.0015780180631041443
1155.0, 0.001481915593339785
1156.0, 0.0014960155893209734
1157.0, 0.0033604918303590916
1158.0, 0.002133174777476763
1159.0, 0.0007456574118723544
1160.0, 0.0017791043643684981
1161.0, 0.0014151000552416085
1162.0, 0.004022738288609835
1163.0, 0.002221401752157747
1164.0, 0.0009217307355977109
1165.0, 0.0023850402119445216
1166.0, 0.004673432967284022
1167.0, 0.003629521590125546
1168.0, 0.0038610783362650345
1169.0, 0.0024101493622349884
1170.0, 0.0011157326030823483
1171.0, 0.002584457043604549
1172.0, 0.0024293372712919474
1173.0, 0.001568281113353843
1174.0, 0.0018750871838652938
1175.0, 0.003075520538380192
1176.0, 0.0041807152302969
1177.0, 0.003678813579873369
1178.0, 0.0029751692390316553
1179.0, 0.0016777031132462453
1180.0, 0.002282658559649287
1181.0, 0.0033200286772416825
1182.0, 0.0017282989265611972
1183.0, 0.0034610825491405584
1184.0, 0.006745693162335307
1185.0, 0.005992170079697795
1186.0, 0.004550309017583942
1187.0, 0.0051671761791700944
1188.0, 0.0039897939139925875
1189.0, 0.006074747132535988
1190.0, 0.0026564952482069355
1191.0, 0.002400799436029859
1192.0, 0.004894627320171855
1193.0, 0.0027327836819865075
1194.0, 0.005574614379020567
1195.0, 0.0032902485752144797
1196.0, 0.004262479260743969
1197.0, 0.0057468236728041655
1198.0, 0.004999169862251438
1199.0, 0.008264482105217852
1200.0, 0.00481085383518514
1201.0, 0.004400926643001393
1202.0, 0.0041560181503331965
1203.0, 0.003978079321882652
1204.0, 0.006164130273181487
1205.0, 0.001863176368925004
1206.0, 0.005890477871833036
1207.0, 0.006642614574027103
1208.0, 0.005976451820956692
1209.0, 0.006450016715364087
1210.0, 0.001292999005896652
1211.0, 0.0017025838473053738
1212.0, 0.0040834627587171945
1213.0, 0.0062990100976178815
1214.0, 0.006413814991324096
1215.0, 0.003483493371811617
1216.0, 0.003548474601940766
1217.0, 0.005736988295841214
1218.0, 0.004211107746716333
1219.0, 0.0033049867431231114
1220.0, 0.005398497963628651
1221.0, 0.00229198690441788
1222.0, 0.007154133322310946
1223.0, 0.0062678274557598345
1224.0, 0.004754184249699695
1225.0, 0.004993042399644371
1226.0, 0.006510415784779472
1227.0, 0.00773973853585236
1228.0, 0.0054885703738840694
1229.0, 0.005244258141724222
1230.0, 0.0064120987388414374
1231.0, 0.007755319236371968
1232.0, 0.00910286522737092
1233.0, 0.005792176954964556
1234.0, 0.002478740342634962
1235.0, 0.005639582015339105
1236.0, 0.009585077219845814
1237.0, 0.005939588708253051
1238.0, 0.0013706944198293922
1239.0, 0.00687287123187262
1240.0, 0.004730493637880351
1241.0, 0.0016756004377487402
1242.0, 0.003096510881424644
1243.0, 0.008415395074852106
1244.0, 0.004707451683300884
1245.0, 0.0038631595150616384
1246.0, 0.0019383443306826532
1247.0, 0.00016907290874274673
1248.0, 0.0008346162901063047
1249.0, 0.004700448907116474
1250.0, 0.001388878528318355
1251.0, 0.0041288253203307125
1252.0, 0.006245933251845379
1253.0, 0.005091217390978462
1254.0, 0.0021155925566484182
1255.0, 0.002437168361099496
1256.0, 0.003750990830633115
1257.0, 0.0042648402895077014
1258.0, 0.004165552792955073
1259.0, 0.0038214586262366556
1260.0, 0.0033992735571258923
1261.0, 0.002722100944550856
1262.0, 0.0015240154115957211
1263.0, 0.0008550104291473093
1264.0, 0.002447122284703466
1265.0, 0.005287809383219148
1266.0, 0.0018272229402170972
1267.0, 0.002858531285771478
1268.0, 0.0039104678988248955
1269.0, 0.0030184681970522216
1270.0, 0.002036431167825429
1271.0, 0.00343331113501213
1272.0, 0.001998033526741928
1273.0, 0.003509495508646008
1274.0, 0.0018677605473217704
1275.0, 0.001026042868029611
1276.0, 0.001822636340246168
1277.0, 0.001367869047872449
1278.0, 0.005233532126342204
1279.0, 0.0024080044597491043
1280.0, 0.0011005242904555132
1281.0, 0.0027956780924459517
1282.0, 0.005085990149432803
1283.0, 0.002533098316057691
1284.0, 0.0011700997221354426
1285.0, 0.002484476173876734
1286.0, 0.0027295995885438717
1287.0, 0.002147199486548098
1288.0, 0.0022185097688955015
1289.0, 0.00304861502144285
1290.0, 0.00209145589914597
1291.0, 0.001438371393901879
1292.0, 0.0025975272904378397
1293.0, 0.0030585193806262727
1294.0, 6.799656009784632e-05
1295.0, 0.0003510762963527998
1296.0, 0.0008983049208859204
1297.0, 0.002762117863461468
1298.0, 0.004667390731288742
1299.0, 0.0042822086309729345
1300.0, 0.00018672421955781408
1301.0, 0.0013485448371949006
1302.0, 0.0004121402229325408
1303.0, 0.0048074599677597404
1304.0, 0.008260181668875119
1305.0, 0.008659124781363235
1306.0, 0.011405738619377236
1307.0, 0.009572929321855932
1308.0, 0.008245294580869953
1309.0, 0.008309434782969848
1310.0, 0.009831475202331883
1311.0, 0.012572236749929949
1312.0, 0.01590376457831984
1313.0, 0.008158410488066144
1314.0, 0.010872366647929597
1315.0, 0.006704509722149675
1316.0, 0.0019360580667571715
1317.0, 0.003483041492794829
1318.0, 0.0009995503826209652
1319.0, 0.0033502987207305775
1320.0, 0.0017009172490674766
1321.0, 0.0029247745677585778
1322.0, 0.0037428366001366524
1323.0, 0.0004057144318965804
1324.0, 0.0007179599747257442
1325.0, 0.0014610461707432955
1326.0, 0.001990447004558637
1327.0, 0.0016716651598413733
1328.0, 0.0011353068674025022
1329.0, 0.0012625359085986867
1330.0, 0.0014612047930192469
1331.0, 0.000838924983050895
1332.0, 0.001649884856935903
1333.0, 0.00289584175763909
1334.0, 0.0039190482235803795
1335.0, 0.004500304196887858
1336.0, 0.0045825491903948605
1337.0, 0.005319147886921831
1338.0, 0.004234931378234344
1339.0, 0.0033429719694337582
1340.0, 0.0027227221444764316
1341.0, 0.0019615062378624663
1342.0, 0.00564139509455926
1343.0, 0.0039799008350800405
1344.0, 0.004276147552559566
1345.0, 0.0027925535299292976
1346.0, 0.0006434585536681777
1347.0, 0.0018828002726552426
1348.0, 0.00408503563785851
1349.0, 0.007785288049375628
1350.0, 0.005149589092467254
1351.0, 0.0033906817939618494
1352.0, 0.005257880397176735
1353.0, 0.0078057496322622676
1354.0, 0.0047216127276270975
1355.0, 0.0039701220964341215
1356.0, 0.007684220422299683
1357.0, 0.006931219205955032
1358.0, 0.004422443986228472
1359.0, 0.008867700684387143
1360.0, 0.012216485660674696
1361.0, 0.005687892897838741
1362.0, 0.005995486869538952
1363.0, 0.00617212001682953
1364.0, 0.005540747763279989
1365.0, 0.007724868475703786
1366.0, 0.008039782205260998
1367.0, 0.008832308089862165
1368.0, 0.008811019551611244
1369.0, 0.007638673710110868
1370.0, 0.006772517371706351
1371.0, 0.007193512760257793
1372.0, 0.004363184648109729
1373.0, 0.0057877635035591835
1374.0, 0.006626810336432555
1375.0, 0.00605963578736233
1376.0, 0.006201307127546292
1377.0, 0.008350475245996804
1378.0, 0.006800342889494297
1379.0, 0.0045700931337653225
1380.0, 0.0033022244858583235
1381.0, 0.0026962035954705495
1382.0, 0.0026175476385719904
1383.0, 0.002977270717801288
1384.0, 0.003496751161274472
1385.0, 0.006967280498829726
1386.0, 0.00893298635121457
1387.0, 0.007923153518062855
1388.0, 0.004595216003999395
1389.0, 0.0023087644473299748
1390.0, 0.006895858208814281
1391.0, 0.004901559611870758
1392.0, 0.005825755029516567
1393.0, 0.005429574189506077
1394.0, 0.004028115879078861
1395.0, 0.0044996509896905275
1396.0, 0.009752077902706765
1397.0, 0.005478624362288448
1398.0, 0.006411871588528233
1399.0, 0.007863762094468438
1400.0, 0.008592367890930618
1401.0, 0.00876156293208655
1402.0, 0.0090870872048236
1403.0, 0.009415889226365912
1404.0, 0.008245534567535842
1405.0, 0.006762882126867612
1406.0, 0.005463390667991515
1407.0, 0.00525928622305608
1408.0, 0.0062705700893167324
1409.0, 0.003033768565761639
1410.0, 0.004679069350962789
1411.0, 0.008649294320118305
1412.0, 0.0093567959022206
1413.0, 0.00884798459915068
1414.0, 0.010139628995463282
1415.0, 0.0035365901284697666
1416.0, 0.0073573657174689075
1417.0, 0.007653534788483157
1418.0, 0.009615993525332872
1419.0, 0.01006011805097634
1420.0, 0.007612091824288063
1421.0, 0.01126310059736124
1422.0, 0.006882961430158839
1423.0, 0.011580013244722269
1424.0, 0.013889573326702716
1425.0, 0.013370900371104047
1426.0, 0.012215663507336171
1427.0, 0.011240327786433144
1428.0, 0.009253787967599613
1429.0, 0.011616411141705122
1430.0, 0.010287314152705644
1431.0, 0.008885522287483488
1432.0, 0.007939693894640207
1433.0, 0.005354836585887011
1434.0, 0.006131813873806392
1435.0, 0.01138591621247929
1436.0, 0.010228427734257526
1437.0, 0.011382353388824592
1438.0, 0.015352718437917048
1439.0, 0.016841888258206844
1440.0, 0.01066265629848225
1441.0, 0.007980042741771587
1442.0, 0.010547491476519434
1443.0, 0.012459078755899147
1444.0, 0.013061015346082299
1445.0, 0.013699245072848663
1446.0, 0.014982537366871536
1447.0, 0.009936267268605676
1448.0, 0.013956255163108265
1449.0, 0.011061146923615603
1450.0, 0.009787882634379453
1451.0, 0.01028542870999195
1452.0, 0.008139245385073995
1453.0, 0.017585439350018137
1454.0, 0.011927693029261957
1455.0, 0.011928700915171998
1456.0, 0.013288366095139387
1457.0, 0.011447350913764455
1458.0, 0.007778286873665151
1459.0, 0.011622549372353958
1460.0, 0.01157943045965594
1461.0, 0.008695399285071855
1462.0, 0.012443165914056736
1463.0, 0.011306444207074136
1464.0, 0.005055242946230559
1465.0, 0.006607999166636121
1466.0, 0.015148506604036917
1467.0, 0.007417345495085801
1468.0, 0.008639372094493978
1469.0, 0.007967468750662286
1470.0, 0.005583175116019665
1471.0, 0.00595534260966973
1472.0, 0.006720362192613079
1473.0, 0.011193969107754477
1474.0, 0.006569721277545858
1475.0, 0.007257782159662522
1476.0, 0.008597201780198366
1477.0, 0.006954467100917563
1478.0, 0.005375981796921059
1479.0, 0.006539901789124074
1480.0, 0.005630906722813
1481.0, 0.004854940923935985
1482.0, 0.009136722127635406
1483.0, 0.00961967061408086
1484.0, 0.003133608426068676
1485.0, 0.009922136981399978
1486.0, 0.006710232525402995
1487.0, 0.007973648839380832
1488.0, 0.005547920148571246
1489.0, 0.00691905498825575
1490.0, 0.010732539728696418
1491.0, 0.007386044263618845
1492.0, 0.0035557217901880014
1493.0, 0.0010830171281285648
1494.0, 0.007792023391958625
1495.0, 0.009432328950626739
1496.0, 0.007380012397981174
1497.0, 0.007249737574235713
1498.0, 0.007335334509855987
1499.0, 0.0010965676100331547
1500.0, 0.00351481695938513
1501.0, 0.0030135060468749844
1502.0, 0.0020601862522424265
1503.0, 0.005596884713285587
1504.0, 0.012609072723612502
1505.0, 0.006836925695339635
1506.0, 0.014231299637337455
1507.0, 0.00643260920187695
1508.0, 0.0011728725920766231
1509.0, 0.0002969546218651476
1510.0, 0.0016228652902545064
1511.0, 0.004024357089849541
1512.0, 0.00022420875193673775
1513, 0.0
1514, 0.0
1515, 0.0
1516, 0.0
1517, 0.0
1518, 0.0
1519, 0.0
1520, 0.0
1521, 0.0
1522, 0.0
1523, 0.0
1524, 0.0
1525, 0.0
1526, 0.0
1527, 0.0
1528, 0.0
1529, 0.0
1530, 0.0
1531, 0.0
1532, 0.0
1533, 0.0
1534, 0.0
1535, 0.0
1536, 0.0
1537, 0.0
1538, 0.0
1539, 0.0
1540, 0.0
1541, 0.0
1542, 0.0
1543, 0.0
1544, 0.0
1545, 0.0
1546, 0.0
1547, 0.0
1548, 0.0
1549, 0.0
1550, 0.0
1551, 0.0
1552, 0.0
1553, 0.0
1554, 0.0
1555, 0.0
1556, 0.0
1557, 0.0
1558, 0.0
1559, 0.0
1560, 0.0
1561, 0.0
1562, 0.0
1563, 0.0
1564, 0.0
1565, 0.0
1566, 0.0
1567, 0.0
1568, 0.0
1569, 0.0
1570, 0.0
1571, 0.0
1572, 0.0
1573, 0.0
1574, 0.0
1575, 0.0
1576, 0.0
1577, 0.0
1578, 0.0
1579, 0.0
1580, 0.0
1581, 0.0
1582, 0.0
1583, 0.0
1584, 0.0
1585, 0.0
1586, 0.0
1587, 0.0
1588, 0.0
1589, 0.0
1590, 0.0
1591, 0.0
1592, 0.0
1593, 0.0
1594, 0.0
1595, 0.0
1596, 0.0
1597, 0.0
1598, 0.0
1599, 0.0
