30, 0.0
31, 0.0
32, 0.0
33, 0.0
34, 0.0
35, 0.0
36, 0.0
37, 0.0
38, 0.0
39, 0.0
40, 0.0
41, 0.0
42, 0.0
43, 0.0
44, 0.0
45, 0.0
46, 0.0
47, 0.0
48, 0.0
49, 0.0
50, 0.0
51, 0.0
52, 0.0
53, 0.0
54.0, 0.00025278819365479
55.0, 0.003061545900930127
56.0, 0.0034396495403426547
57.0, 0.00557950076156124
58.0, 0.008650169653551623
59.0, 0.010325068223984765
60.0, 0.007918746954435743
61.0, 0.003251123580521116
62.0, 0.000807842801908695
63.0, 0.0012376427841159958
64.0, 0.002954601384044446
65.0, 0.0006693988372077902
66.0, 0.0003218378296408212
67.0, 0.0023131223153331263
68.0, 0.006971064040967012
69.0, 0.013875482018781887
70.0, 0.021713464911249092
71.0, 0.018412591379155057
72.0, 0.01822447199305324
73.0, 0.02094174535571295
74.0, 0.027124931041833868
75.0, 0.03739497002504542
76.0, 0.043138343676327774
77.0, 0.048548050230271575
78.0, 0.05361995435634525
79.0, 0.06128313799216105
80.0, 0.07382577586693485
81.0, 0.08212203994445454
82.0, 0.09089352548845205
83.0, 0.10142347283325036
84.0, 0.10868285882969693
85.0, 0.10989924507993852
86.0, 0.11308331292048944
87.0, 0.1213009562380443
88.0, 0.12732442236770666
89.0, 0.13392494910248656
90.0, 0.14295356279823215
91.0, 0.1533193624466389
92.0, 0.1595522303354984
93.0, 0.16431777026472716
94.0, 0.1672032338604667
95.0, 0.16909225866623998
96.0, 0.17188809179663386
97.0, 0.17700520371190614
98.0, 0.18250980212191142
99.0, 0.1881967310191717
100.0, 0.19595036771454785
101.0, 0.20674976430529038
102.0, 0.21265120468848128
103.0, 0.22604180865501605
104.0, 0.24229238767708364
105.0, 0.26038562419856365
106.0, 0.283324061048448
107.0, 0.32247798813964557
108.0, 0.3145905874291361
109.0, 0.3214901696055232
110.0, 0.31213433670184226
111.0, 0.28573503888015006
112.0, 0.279151177504211
113.0, 0.25211226489734817
114.0, 0.2536073495838563
115.0, 0.2592661657418107
116.0, 0.25612614942574924
117.0, 0.24112327034262018
118.0, 0.2330666162491211
119.0, 0.21758896164147404
120.0, 0.21291616596406843
121.0, 0.2138681707391034
122.0, 0.2142894279893746
123.0, 0.2209598845581446
124.0, 0.22209241243889843
125.0, 0.2197000218040855
126.0, 0.2176991738994531
127.0, 0.22011636089019548
128.0, 0.23033555340999107
129.0, 0.24175532460355445
130.0, 0.2574381487680819
131.0, 0.26679007670979177
132.0, 0.2733040797964268
133.0, 0.2853507508894798
134.0, 0.29300669786549227
135.0, 0.2984458394447694
136.0, 0.3180289036686917
137.0, 0.3333505369668388
138.0, 0.3342664696406056
139.0, 0.34776089812409355
140.0, 0.3510583616008801
141.0, 0.3515308145028438
142.0, 0.3535599191832206
143.0, 0.3561586249972674
144.0, 0.35373957660857386
145.0, 0.35086341196027676
146.0, 0.35012719884846877
147.0, 0.35074338048928344
148.0, 0.34369518699376017
149.0, 0.3234537250153225
150.0, 0.31267861797877256
151.0, 0.31050653710580445
152.0, 0.2975759168652696
153.0, 0.28357640900063597
154.0, 0.2780331325587359
155.0, 0.28300360779950084
156.0, 0.27916578824333455
157.0, 0.2706923403552186
158.0, 0.2663289296878654
159.0, 0.2624891769138166
160.0, 0.25058868407676627
161.0, 0.24452204947993453
162.0, 0.23409567409512014
163.0, 0.2278126466073324
164.0, 0.22332379505322508
165.0, 0.21702850947692498
166.0, 0.20845095918447823
167.0, 0.20733023613950077
168.0, 0.2061615691652033
169.0, 0.20655670604605095
170.0, 0.21008573737513428
171.0, 0.21728226736514333
172.0, 0.222480152584419
173.0, 0.23116308761653795
174.0, 0.24283240104781675
175.0, 0.2526793717030397
176.0, 0.2570874283449161
177.0, 0.25989137911948185
178.0, 0.27316186596315745
179.0, 0.28280238117195244
180.0, 0.29120178912840394
181.0, 0.3025610337689469
182.0, 0.32030903627078033
183.0, 0.33067708509640237
184.0, 0.35189450608697065
185.0, 0.3731807921324402
186.0, 0.39048151088939315
187.0, 0.40218751360906935
188.0, 0.4057554742016873
189.0, 0.40655622782668766
190.0, 0.39978633139455205
191.0, 0.3920334132883344
192.0, 0.38949675053210386
193.0, 0.3954312655727097
194.0, 0.40025487590391085
195.0, 0.42469916297240107
196.0, 0.44959657499046024
197.0, 0.4707015584581894
198.0, 0.48703764195923344
199.0, 0.48891779634610827
200.0, 0.4845041676670528
201.0, 0.4863289622149248
202.0, 0.49162262143194024
203.0, 0.4982981241535609
204.0, 0.5065287577841235
205.0, 0.5158471221619554
206.0, 0.5403675561695762
207.0, 0.5739243275617177
208.0, 0.6160109294075595
209.0, 0.6668245674817944
210.0, 0.7241169013562612
211.0, 0.7685923711762469
212.0, 0.8203596688747924
213.0, 0.8784399295782187
214.0, 0.9318408088730195
215.0, 0.9657270897347361
216.0, 0.9956075694777737
217.0, 0.9974529077286803
218.0, 0.9619144087102569
219.0, 0.8941723778619883
220.0, 0.8025187935637245
221.0, 0.6904588146140095
222.0, 0.5919978277806526
223.0, 0.5114006603118285
224.0, 0.44497443647265467
225.0, 0.3922872668739843
226.0, 0.3541175337219256
227.0, 0.32499000391006677
228.0, 0.29797002236648884
229.0, 0.2777512348653778
230.0, 0.2590132580467294
231.0, 0.24048833060646702
232.0, 0.22931035896626234
233.0, 0.20687225747819016
234.0, 0.19210395310984332
235.0, 0.18231011132989597
236.0, 0.17181511721059356
237.0, 0.15632573848739617
238.0, 0.14075527081771147
239.0, 0.1336007185703636
240.0, 0.12516992682128739
241.0, 0.1160434152398085
242.0, 0.10699919160193007
243.0, 0.09815506665859425
244.0, 0.09052681736686158
245.0, 0.08244949544673798
246.0, 0.07701657618146177
247.0, 0.07338890947780646
248.0, 0.06935907049310204
249.0, 0.062406233036140644
250.0, 0.05997490228014024
251.0, 0.053485030747133525
252.0, 0.04876841275454222
253.0, 0.04620540391258673
254.0, 0.04345721702036935
255.0, 0.04106446745707413
256.0, 0.039223601096298875
257.0, 0.049056005837357315
258.0, 0.05217898803738175
259.0, 0.04974632857591083
260.0, 0.06160002433858564
261.0, 0.04042033017046982
262.0, 0.03072645554780786
263.0, 0.0251113144963802
264.0, 0.022338642240666628
265.0, 0.021976839478044824
266.0, 0.02217634796862253
267.0, 0.02047547112776018
268.0, 0.020796363716851063
269.0, 0.021265608060207584
270.0, 0.02094784558781612
271.0, 0.019830444994643783
272.0, 0.019064515371603037
273.0, 0.020539742398767658
274.0, 0.01997582416992956
275.0, 0.019304144858025275
276.0, 0.01986510683000077
277.0, 0.021149807702873474
278.0, 0.016906972655037204
279.0, 0.017161632975808565
280.0, 0.015903910212593783
281.0, 0.01423584888870815
282.0, 0.014450584185873782
283.0, 0.017947745068571924
284.0, 0.018948316048517284
285.0, 0.020011717298225276
286.0, 0.020103394850836495
287.0, 0.020699268827682193
288.0, 0.022388236453904867
289.0, 0.021594340783167482
290.0, 0.020690886082719295
291.0, 0.022820145188747466
292.0, 0.023681461388937643
293.0, 0.023327112894694992
294.0, 0.02372408165946075
295.0, 0.023382880663193842
296.0, 0.026224922393263822
297.0, 0.026798904836877392
298.0, 0.02518459643306876
299.0, 0.023511550306907325
300.0, 0.024044378784175476
301.0, 0.021906282012047952
302.0, 0.023069271179225477
303.0, 0.02300162536776088
304.0, 0.023204979574278847
305.0, 0.023739464216066996
306.0, 0.022051744583948686
307.0, 0.02160282532659454
308.0, 0.02166408589907964
309.0, 0.02106956564891693
310.0, 0.020498612731035065
311.0, 0.02027123927289928
312.0, 0.01927099951036657
313.0, 0.01878637275496289
314.0, 0.018088357240318004
315.0, 0.01583960099289613
316.0, 0.013558293986948619
317.0, 0.012952509371037983
318.0, 0.013408562082000284
319.0, 0.014012834516008972
320.0, 0.013476446408202579
321.0, 0.009918821310753834
322.0, 0.008437088309105566
323.0, 0.012006998275946468
324.0, 0.005699901428679597
325.0, 0.0031316469802134834
326.0, 0.002513612672451245
327.0, 0.0030995683799421463
328.0, 0.00294105317003266
329.0, 0.0007168070760084566
330.0, 0.0008001843244587159
331.0, 0.0026364697756551202
332.0, 0.0026475025019921626
333.0, 0.0013316420368501905
334.0, 0.0009134983489184922
335.0, 0.0035767734375942613
336.0, 0.006167398677386068
337.0, 0.006600993914473132
338.0, 0.0059717613507185045
339.0, 0.005878552363197408
340.0, 0.0068148560203117985
341.0, 0.007895488898686798
342.0, 0.007071858936885254
343.0, 0.007562660200287787
344.0, 0.008657366430897833
345.0, 0.0071907381920324545
346.0, 0.004935648565373105
347.0, 0.007828057601186428
348.0, 0.007776504201671065
349.0, 0.00825684779805019
350.0, 0.0056290088172916185
351.0, 0.004827796873789978
352.0, 0.006504702910228366
353.0, 0.004885410165435845
354.0, 0.004390274139701298
355.0, 0.004747335771632659
356.0, 0.004631615089782844
357.0, 0.003945636335386227
358.0, 0.0032014815588072014
359.0, 0.003113249051302664
360.0, 0.0023344094706965516
361.0, 0.0021015095533231595
362.0, 0.0010566923541321352
363.0, 0.0002117667063987432
364.0, 0.0006318114633704831
365.0, 0.002368947510019296
366.0, 0.002935480953883116
367.0, 0.005640741718105771
368.0, 0.005388213662453185
369.0, 0.0044293164256101435
370.0, 0.004499428678049904
371.0, 0.004400668961881943
372.0, 0.00866971005533027
373.0, 0.00676543589578529
374.0, 0.00892884708954337
375.0, 0.012523910394708872
376.0, 0.014359056382989724
377.0, 0.015174491372462066
378.0, 0.017370236936365652
379.0, 0.01701529669308731
380.0, 0.018306518204374244
381.0, 0.020632213574049377
382.0, 0.023611158288462674
383.0, 0.028094672508573573
384.0, 0.029753918736940412
385.0, 0.033170920766778036
386.0, 0.03736270930056851
387.0, 0.039189342780247584
388.0, 0.038687478481004345
389.0, 0.03997876555335194
390.0, 0.04653614480489754
391.0, 0.05413453103063309
392.0, 0.05504768327842308
393.0, 0.05587204622384789
394.0, 0.05995620759590815
395.0, 0.06427143402572413
396.0, 0.06612350940769027
397.0, 0.06805533832677903
398.0, 0.07526411048946338
399.0, 0.07950410131391379
400.0, 0.0805037649889693
401.0, 0.08460473005434227
402.0, 0.08509373787406962
403.0, 0.08895900006550171
404.0, 0.0950084451134643
405.0, 0.09595534456294866
406.0, 0.09524986849783994
407.0, 0.10009903859101754
408.0, 0.09832513835611116
409.0, 0.09885543455228187
410.0, 0.09807741586224207
411.0, 0.09824052149873791
412.0, 0.09750538213535087
413.0, 0.09420186291801916
414.0, 0.09523589140387773
415.0, 0.09411668083570392
416.0, 0.08887192254645623
417.0, 0.08731998260052373
418.0, 0.08661262485327421
419.0, 0.082612947492113
420.0, 0.08062050860764289
421.0, 0.07979407410001145
422.0, 0.07698112704077645
423.0, 0.07339035272495666
424.0, 0.07102479800628224
425.0, 0.06885240422481831
426.0, 0.06157764471599233
427.0, 0.06002818216481623
428.0, 0.058998306841622675
429.0, 0.05314881619950796
430.0, 0.04888570174391627
431.0, 0.048349606713019716
432.0, 0.04525851851540044
433.0, 0.039521755214181484
434.0, 0.04015317365474959
435.0, 0.036930986420978404
436.0, 0.032427594102167924
437.0, 0.030204771922835664
438.0, 0.030693608168573475
439.0, 0.025984420738860373
440.0, 0.025491705780365966
441.0, 0.023106770880578685
442.0, 0.022056002184487205
443.0, 0.022580977792188064
444.0, 0.02296221039830522
445.0, 0.023124284248258745
446.0, 0.019184658812188466
447.0, 0.01987725733647808
448.0, 0.01931858053381355
449.0, 0.017610145038286815
450.0, 0.016862179955326462
451.0, 0.017417572602487073
452.0, 0.018266216917009803
453.0, 0.015868734799363435
454.0, 0.019526164655833407
455.0, 0.021888467463309868
456.0, 0.020381776011124605
457.0, 0.021869283369680657
458.0, 0.02077301869713156
459.0, 0.018638615759164586
460.0, 0.020493964616473057
461.0, 0.02137760580648402
462.0, 0.020620538114385367
463.0, 0.021175018475407075
464.0, 0.022598911013722352
465.0, 0.024058722057522314
466.0, 0.024980754613009283
467.0, 0.025929954682949927
468.0, 0.026916827660684723
469.0, 0.027611247768537208
470.0, 0.027715744524697907
471.0, 0.02826275401333824
472.0, 0.02764352948980715
473.0, 0.027991639516857587
474.0, 0.028920124557170676
475.0, 0.029853512965697507
476.0, 0.030931496601932333
477.0, 0.03268408036043254
478.0, 0.03552426130726703
479.0, 0.03591279290562951
480.0, 0.03242420760652827
481.0, 0.03021879592638643
482.0, 0.03328290434239518
483.0, 0.030097767440504387
484.0, 0.026000417739551182
485.0, 0.027483077927732556
486.0, 0.02688199876422633
487.0, 0.02305736996242369
488.0, 0.0203365546588008
489.0, 0.02464361175068196
490.0, 0.021181014659142766
491.0, 0.0197836690738571
492.0, 0.02034874771140165
493.0, 0.01885391190969126
494.0, 0.016842158691903072
495.0, 0.018320321572008864
496.0, 0.015912027897005812
497.0, 0.015342310005046501
498.0, 0.01115366397027811
499.0, 0.01267373553708776
500.0, 0.01407275379975451
501.0, 0.01016436944667956
502.0, 0.009820398629419278
503.0, 0.008716322126428038
504.0, 0.010053714577679404
505.0, 0.011575144499372306
506.0, 0.008832603704531705
507.0, 0.005468320992842556
508.0, 0.00850851771511854
509.0, 0.006613614914653695
510.0, 0.006415758204734994
511.0, 0.006466387786788795
512.0, 0.005925589681153977
513.0, 0.005001120137586286
514.0, 0.004189762287538861
515.0, 0.0035369628018735943
516.0, 0.0030624980127470143
517.0, 0.002758075026199299
518.0, 0.0013318508954182867
519.0, 0.001394504624296858
520.0, 0.0030093036526483517
521.0, 0.0034860759007075506
522.0, 0.001363587921960403
523.0, 0.0024215089600747963
524.0, 0.0030465084805257696
525.0, 0.0021359795338696747
526.0, 0.0015476988299137338
527.0, 0.0018678151923919803
528.0, 0.0005253185184959138
529.0, 0.001878421645934949
530.0, 0.0007815959574982449
531.0, 0.00023917747442136843
532.0, 0.00036697223117086557
533.0, 0.00048580939048044683
534.0, 0.00012917815382971356
535.0, 3.065590992543869e-05
536.0, 0.00164328357409694
537.0, 0.001359909537786188
538.0, 0.0022819010174703665
539.0, 0.0022020342126107414
540.0, 0.0014677006826448588
541.0, 0.0035270171427775315
542.0, 0.0010808809099622447
543.0, 0.0011110167037564043
544.0, 0.0015050408569483539
545.0, 0.0014880691978162365
546.0, 0.0014684726187661895
547.0, 0.0018543934749099132
548.0, 0.0019626714863726687
549.0, 0.0013808684961913494
550.0, 0.002293465142670002
551.0, 0.0019137825171798525
552.0, 0.0009613387969322098
553.0, 0.0019872892614160066
554.0, 0.005006594170617361
555.0, 0.0008931424411028313
556.0, 0.002820567801547838
557.0, 0.003089526184068744
558.0, 0.0032381586727922183
559.0, 0.005127102059960692
560.0, 0.0070326664173066536
561.0, 0.005318942584843804
562.0, 0.006670984553085135
563.0, 0.008463437968583688
564.0, 0.01196114782762843
565.0, 0.013025372061847205
566.0, 0.013141220102948272
567.0, 0.013642919942922674
568.0, 0.011829154909034257
569.0, 0.012991897103343442
570.0, 0.012434855778807711
571.0, 0.01321242006684529
572.0, 0.013271901242634448
573.0, 0.01395896839774069
574.0, 0.015795397516026873
575.0, 0.012916324134771121
576.0, 0.01632660335977259
577.0, 0.012397851839481383
578.0, 0.010294672301532849
579.0, 0.01036723458159106
580.0, 0.012757241652731944
581.0, 0.016909466933365137
582.0, 0.016751479377747965
583.0, 0.017545773611622576
584.0, 0.020351100950980992
585.0, 0.018839807254455065
586.0, 0.017973463795621702
587.0, 0.019371732777388403
588.0, 0.01966424780934898
589.0, 0.02281916516450657
590.0, 0.021028386631306222
591.0, 0.021094975627678193
592.0, 0.024597527587428836
593.0, 0.02480798918441322
594.0, 0.023288809206697892
595.0, 0.029720860105431037
596.0, 0.029316622867067956
597.0, 0.03011454811191568
598.0, 0.03187620409867274
599.0, 0.0338595163835842
600.0, 0.03555155537245117
601.0, 0.03699200235414527
602.0, 0.03919372079405094
603.0, 0.04560629793858957
604.0, 0.04929334078837761
605.0, 0.052126541572980606
606.0, 0.05715519483715388
607.0, 0.06270283692957844
608.0, 0.065704580110386
609.0, 0.06641161207952584
610.0, 0.07587702657262754
611.0, 0.08042315937531064
612.0, 0.08928076600890435
613.0, 0.09563762836150233
614.0, 0.09932324005234783
615.0, 0.10412684764931288
616.0, 0.11189448042594054
617.0, 0.11710264153015068
618.0, 0.12465539582915126
619.0, 0.1342002065606277
620.0, 0.13749546170507743
621.0, 0.13795255441162702
622.0, 0.1422813562340542
623.0, 0.14983113929783318
624.0, 0.14931247702097358
625.0, 0.15052482492384395
626.0, 0.14927810603415595
627.0, 0.14820913872794142
628.0, 0.14641710443236258
629.0, 0.14403904383889746
630.0, 0.144937716507585
631.0, 0.14442549518639275
632.0, 0.14002682143500425
633.0, 0.13678300854266773
634.0, 0.1352474595922358
635.0, 0.13261439035507933
636.0, 0.1282048720016946
637.0, 0.12581650801366356
638.0, 0.12519956993014125
639.0, 0.12168853281515389
640.0, 0.12099417573847174
641.0, 0.11769339528095676
642.0, 0.1148664435060328
643.0, 0.11386098996283466
644.0, 0.11008915656288433
645.0, 0.108552733923146
646.0, 0.10514329501440155
647.0, 0.10157756399587961
648.0, 0.09714399062756934
649.0, 0.09083524830718305
650.0, 0.08355052317887926
651.0, 0.07758106356165864
652.0, 0.07206967735752369
653.0, 0.06709975473632522
654.0, 0.06220429271416868
655.0, 0.05849645658985074
656.0, 0.05586709042739948
657.0, 0.05314881557855373
658.0, 0.049504261269891825
659.0, 0.046717294482959526
660.0, 0.04584071515390778
661.0, 0.04270328549915969
662.0, 0.03978793566367911
663.0, 0.039132887044521336
664.0, 0.03867904285337999
665.0, 0.03573281358683006
666.0, 0.03337193374464852
667.0, 0.03513151516575186
668.0, 0.03438294199753653
669.0, 0.031244097274953916
670.0, 0.02835849217848067
671.0, 0.026772301989350662
672.0, 0.02608271613281087
673.0, 0.025522959572525174
674.0, 0.022514049046613433
675.0, 0.02187474604858718
676.0, 0.02146550562415662
677.0, 0.019018084725826178
678.0, 0.01895531579869542
679.0, 0.021297771493203825
680.0, 0.01947756680522411
681.0, 0.020827706543683978
682.0, 0.017240514632825107
683.0, 0.01743202931814407
684.0, 0.018376809958626065
685.0, 0.018648662571709804
686.0, 0.018958935238469057
687.0, 0.01978721470388011
688.0, 0.017640886884862823
689.0, 0.015768728938372487
690.0, 0.013933632597414742
691.0, 0.013759005608667675
692.0, 0.0123771703137701
693.0, 0.011603079502268198
694.0, 0.012891328101140928
695.0, 0.01150527699336398
696.0, 0.012258723513588022
697.0, 0.013885694691205569
698.0, 0.014960489106048188
699.0, 0.013745394679544075
700.0, 0.01085807588727055
701.0, 0.007597676320537849
702.0, 0.00542602950862721
703.0, 0.008259440977410484
704.0, 0.00896837978442205
705.0, 0.008244914135730917
706.0, 0.009650390709235521
707.0, 0.01012551942180036
708.0, 0.007953370519978744
709.0, 0.005553935729079154
710.0, 0.0071895741577397
711.0, 0.005939750734407019
712.0, 0.004788356734175451
713.0, 0.006672266322796402
714.0, 0.0049496123603631524
715.0, 0.0036090592526927196
716.0, 0.005549104464468424
717.0, 0.005590014816702445
718.0, 0.0036601912626633547
719.0, 0.005773236978705926
720.0, 0.004098212647329086
721.0, 0.004700984244160857
722.0, 0.005919184473756136
723.0, 0.005415490964838342
724.0, 0.004582064640958943
725.0, 0.007683926884317932
726.0, 0.0011581242010670618
727.0, 0.0012720805116842966
728.0, 0.0024575715475796743
729.0, 0.003445221232808481
730.0, 0.0032157817790874734
731.0, 0.0030186174829477464
732.0, 0.005041415179965351
733.0, 0.005731374839296752
734.0, 0.0037073260066712854
735.0, 0.001096206800938805
736.0, 0.0015671056118232486
737.0, 0.0023216629963373763
738.0, 0.0020288993511492328
739.0, 0.0014163253605975275
740.0, 0.0009786743507264385
741.0, 0.00012129753014350665
742.0, 0.0015799368154858235
743.0, 0.0022831930087401824
744.0, 0.001173162771518579
745.0, 0.0008668868225671233
746.0, 0.0023253819761990275
747.0, 0.0037820013153780116
748.0, 0.0036854576913813927
749.0, 0.001222586834743117
750.0, 0.003252071229024767
751.0, 0.0027236836996356634
752.0, 0.0031364352022657657
753.0, 0.0036233753360492425
754.0, 0.0032092215460432037
755.0, 0.00292915955655806
756.0, 0.00015626668229986853
757.0, 0.0008441761934528834
758.0, 0.0006805742955280356
759.0, 0.001376365827786038
760.0, 0.0022336415945263667
761.0, 0.002167413290857854
762.0, 0.001737701302788842
763.0, 0.00256546127184166
764.0, 0.0010911206100558627
765.0, 0.003986445284378693
766.0, 0.00235271650189297
767.0, 0.007361837313842743
768.0, 0.007496791533219098
769.0, 0.0032837317527172347
770.0, 0.003821482754502407
771.0, 0.007538115821691573
772.0, 0.00323754948576203
773.0, 0.0028755878175405676
774.0, 0.0047982396686274366
775.0, 0.004346295579235621
776.0, 0.00361864063232889
777.0, 0.005055074053030689
778.0, 0.007449412526794375
779.0, 0.006942761740286963
780.0, 0.007567510699632969
781.0, 0.0100374260517839
782.0, 0.012152043569369662
783.0, 0.010037307224121706
784.0, 0.009368146185312915
785.0, 0.010191717258012626
786.0, 0.009232869046624213
787.0, 0.012000632956594167
788.0, 0.009988264197244346
789.0, 0.013533000349725165
790.0, 0.013846541835192907
791.0, 0.010701398354148121
792.0, 0.007975123606537638
793.0, 0.008180644097835752
794.0, 0.009737368075116675
795.0, 0.008992086424947698
796.0, 0.012184207654961608
797.0, 0.013772991304265353
798.0, 0.011455615214024974
799.0, 0.009060498377165398
800.0, 0.009373909836468977
801.0, 0.009944161496956434
802.0, 0.007199468251995528
803.0, 0.004686334524599172
804.0, 0.010773060309697591
805.0, 0.006875246137030375
806.0, 0.00756046236167107
807.0, 0.009971297109687052
808.0, 0.009997637554830529
809.0, 0.008416803515799553
810.0, 0.008215780925820999
811.0, 0.008434987551322935
812.0, 0.008691124694522136
813.0, 0.007620993037470149
814.0, 0.0085643710522312
815.0, 0.006416858012133559
816.0, 0.007881787757306451
817.0, 0.010937337199308911
818.0, 0.010360548830898597
819.0, 0.010867860040873057
820.0, 0.008360690080706314
821.0, 0.008391686391637928
822.0, 0.0063930464115845385
823.0, 0.006500017197910761
824.0, 0.008028870580951435
825.0, 0.007852215193953684
826.0, 0.0055960269801386495
827.0, 0.005177696201678222
828.0, 0.00725191435434988
829.0, 0.007701726732695725
830.0, 0.005763488923391936
831.0, 0.005826877204015005
832.0, 0.0054479339647758645
833.0, 0.0055710293818991945
834.0, 0.006837874225596764
835.0, 0.006520370075537475
836.0, 0.003165692783893494
837.0, 0.00605953132495397
838.0, 0.00632427171546481
839.0, 0.004345168433628964
840.0, 0.0044015400256122335
841.0, 0.006078100437678832
842.0, 0.0050340240180936895
843.0, 0.0007835341764787893
844.0, 0.002160609224069669
845.0, 0.005638555150423672
846.0, 0.0029696768357519504
847.0, 0.0014618556833673575
848.0, 0.0037072391480556443
849.0, 0.0053043244478160586
850.0, 0.005472203968857596
851.0, 0.006707574692566899
852.0, 0.008706004248494787
853.0, 0.005883200490669913
854.0, 0.004204526443852544
855.0, 0.002519075603556581
856.0, 0.002142752710246045
857.0, 0.003920704146688701
858.0, 0.004783487867642247
859.0, 0.004178295870832133
860.0, 0.004917907825315687
861.0, 0.005878820360966468
862.0, 0.003252486733526391
863.0, 0.0020395369094238754
864.0, 0.002197251999456035
865.0, 0.003192495650006111
866.0, 0.002518341630076116
867.0, 0.0010098360445578854
868.0, 0.0011815159905081308
869.0, 0.0024597903834334975
870.0, 0.0007320042492214678
871.0, 0.0039994062463480674
872.0, 0.005033867234139214
873.0, 0.0033017885999456465
874.0, 0.002727560787873286
875.0, 0.0017185125702873674
876.0, 0.0002702706398613806
877.0, 0.0011206658487695532
878.0, 0.0028969251038144534
879.0, 0.00631796515550934
880.0, 0.0019963836858595714
881.0, 0.0015472726473796674
882.0, 0.0034173695651108496
883.0, 0.0040003890737866764
884.0, 0.0032960416003875817
885.0, 0.002982329210547833
886.0, 0.0032194207053828955
887.0, 0.0034498964688483703
888.0, 0.00468617043507542
889.0, 0.0036061317029247135
890.0, 0.0032361093885556478
891.0, 0.0029738499310631786
892.0, 0.0015868046253607272
893.0, 0.0017052306595484366
894.0, 0.003845931919791134
895.0, 0.002460895185625971
896.0, 0.0007748302183708849
897.0, 0.0017494930753081672
898.0, 0.0010976389557379729
899.0, 0.00035372725817472755
900.0, 0.0018178792270522883
901.0, 0.004372380074926954
902.0, 0.00450053727282795
903.0, 0.0017684227160568902
904.0, 0.0015730504599584974
905.0, 0.0035219372158586913
906.0, 0.0005276431728027098
907.0, 0.0034180264491923042
908.0, 0.0038662550321983988
909.0, 0.002577260818282197
910.0, 0.0021469113132907215
911.0, 0.0036633841342979183
912.0, 0.004459179063107005
913.0, 0.0002699000381855347
914.0, 0.0009319413723072518
915.0, 0.003456162930067649
916.0, 0.0030137648757653976
917.0, 0.003389012008433721
918.0, 0.003973036490326996
919.0, 0.002707790741997213
920.0, 0.002089755879562855
921.0, 0.0038461454640516075
922.0, 0.0011264990890030174
923.0, 0.004084956359507208
924.0, 0.005102393730037523
925.0, 0.0028537959248484514
926.0, 0.0031108024837166776
927.0, 0.004825092550515481
928.0, 0.004414522242933604
929.0, 0.00201803432915112
930.0, 0.0018089976382387593
931.0, 0.005383703067316109
932.0, 0.004588771114600676
933.0, 0.0038734457488722104
934.0, 0.005321117322604412
935.0, 0.004740519363741359
936.0, 0.002386740899975325
937.0, 0.0013357383779478995
938.0, 0.0013967101420092561
939.0, 0.0011053792761375266
940.0, 0.0024491032522401396
941.0, 0.002104925991756915
942.0, 0.001699823370471011
943.0, 0.0037456632251396936
944.0, 0.004251457429142172
945.0, 0.004647879460292826
946.0, 0.004278241137083957
947.0, 0.004651296016204142
948.0, 0.005489009090868858
949.0, 0.003187559366684521
950.0, 0.005167563020649103
951.0, 0.005160922222420785
952.0, 0.005167987068702087
953.0, 0.006556858894829956
954.0, 0.00360365137876428
955.0, 0.0026633331882959365
956.0, 0.004636426321670926
957.0, 0.005596637498791597
958.0, 0.0055791861366979376
959.0, 0.008044889377143864
960.0, 0.006964015590228171
961.0, 0.006309587638150524
962.0, 0.007189189396023154
963.0, 0.00283764984799381
964.0, 0.0012695584271733688
965.0, 0.001343491867250316
966.0, 0.0015519925504017538
967.0, 0.004076383147035203
968.0, 0.006328873819074519
969.0, 0.005682261165001982
970.0, 0.010352955991312023
971.0, 0.01094104778556507
972.0, 0.008960087610222161
973.0, 0.003972635690483679
974.0, 0.006167082060122602
975.0, 0.009113130291850504
976.0, 0.005039086921251577
977.0, 0.0029909557650993554
978.0, 0.005831981032714685
979.0, 0.007994385960768943
980.0, 0.01106626333382465
981.0, 0.00448014611516249
982.0, 0.007063114351167525
983.0, 0.0076583477877250755
984.0, 0.007869227263475317
985.0, 0.009310224493248368
986.0, 0.009707593383791428
987.0, 0.012695719519829764
988.0, 0.009118680333253342
989.0, 0.00982285918609679
990.0, 0.010863661326751378
991.0, 0.007189200615279313
992.0, 0.006063172886003681
993.0, 0.005952466004049143
994.0, 0.007672988884421425
995.0, 0.011819017393078092
996.0, 0.013214098937429454
997.0, 0.008098280310950782
998.0, 0.016081626796874117
999.0, 0.011638036768376395
1000.0, 0.011412161689580157
1001.0, 0.008857985132265468
1002.0, 0.00916604979696125
1003.0, 0.010636992189117121
1004.0, 0.010709500169576103
1005.0, 0.011256146724713333
1006.0, 0.014157158742910209
1007.0, 0.013488599854680377
1008.0, 0.008423685571186395
1009.0, 0.012636765600267412
1010.0, 0.011456946416194705
1011.0, 0.014032137389607909
1012.0, 0.01302914299869388
1013.0, 0.011233515882348583
1014.0, 0.011132383901106328
1015.0, 0.011341023287486547
1016.0, 0.011251070042233725
1017.0, 0.011751409594207259
1018.0, 0.013807760538999514
1019.0, 0.013101837827665443
1020.0, 0.014360073854528178
1021.0, 0.017006276680468814
1022.0, 0.018078266818480536
1023.0, 0.018796339338592056
1024.0, 0.019533237671597807
1025.0, 0.019462645902826415
1026.0, 0.018868858837666758
1027.0, 0.01797406379400993
1028.0, 0.01506761818687818
1029.0, 0.013143523978254891
1030.0, 0.017889326990110584
1031.0, 0.02044668560367116
1032.0, 0.018516642724211798
1033.0, 0.017094954465364753
1034.0, 0.017648147972160036
1035.0, 0.01834266592068668
1036.0, 0.018874388221454163
1037.0, 0.019772201429588264
1038.0, 0.018354928825899293
1039.0, 0.018102870016335298
1040.0, 0.020757470341725162
1041.0, 0.019281938901954267
1042.0, 0.016864248947570996
1043.0, 0.018003642901819345
1044.0, 0.020733132305265606
1045.0, 0.021378970696561736
1046.0, 0.020832493136277965
1047.0, 0.022057790955365097
1048.0, 0.0209987599183968
1049.0, 0.02045514436486226
1050.0, 0.02519121297192533
1051.0, 0.02249958373696747
1052.0, 0.023705787383452477
1053.0, 0.026682392017859574
1054.0, 0.027004554103526278
1055.0, 0.025650792661257266
1056.0, 0.02545016838836622
1057.0, 0.025112608122184663
1058.0, 0.022226979153055902
1059.0, 0.022881330513559773
1060.0, 0.02126304876295884
1061.0, 0.023000678859467702
1062.0, 0.018334555459790153
1063.0, 0.017052335798120037
1064.0, 0.020122502506803232
1065.0, 0.023751651695999368
1066.0, 0.023546348562359955
1067.0, 0.020782459517596923
1068.0, 0.02191020253110663
1069.0, 0.01928693948934676
1070.0, 0.020502555545424225
1071.0, 0.018908969426829608
1072.0, 0.017988047861422923
1073.0, 0.016601048140957204
1074.0, 0.01543587912802342
1075.0, 0.016849936734428916
1076.0, 0.017006315659571773
1077.0, 0.015114848207603952
1078.0, 0.01658609620114317
1079.0, 0.019236254025982988
1080.0, 0.018604988036833213
1081.0, 0.02087436565102538
1082.0, 0.020716778990002065
1083.0, 0.012906550557392442
1084.0, 0.010960237793394941
1085.0, 0.013270667113603269
1086.0, 0.013666113135109325
1087.0, 0.014913892396375604
1088.0, 0.016974654080890245
1089.0, 0.014072247476278023
1090.0, 0.014209986361961422
1091.0, 0.014332131262546791
1092.0, 0.013484635469555669
1093.0, 0.01141680430023034
1094.0, 0.01875244025874513
1095.0, 0.01564598229765283
1096.0, 0.01277200707600728
1097.0, 0.013820856465206185
1098.0, 0.010853154860118609
1099.0, 0.005307364430424997
1100.0, 0.0077364666175068755
1101.0, 0.011354893214512786
1102.0, 0.009834642882359225
1103.0, 0.010051274185823156
1104.0, 0.015896705079235383
1105.0, 0.015259800349602214
1106.0, 0.010363596402801226
1107.0, 0.011446019248430464
1108.0, 0.01135056680924198
1109.0, 0.01058364033146427
1110.0, 0.010426252938977542
1111.0, 0.006688883671418934
1112.0, 0.006247408897633186
1113.0, 0.007662042990021709
1114.0, 0.005506526111823014
1115.0, 0.009000498559100215
1116.0, 0.013973075289600297
1117.0, 0.018562975018453127
1118.0, 0.020408149591933857
1119.0, 0.022750363963725394
1120.0, 0.024184378426934383
1121.0, 0.022265291760707556
1122.0, 0.02002399397494184
1123.0, 0.021105546554778348
1124.0, 0.021104057012606214
1125.0, 0.02195546246843039
1126.0, 0.009302588927592498
1127.0, 0.0055893614693773
1128.0, 0.012037051359332323
1129.0, 0.008146847706228092
1130.0, 0.008376468013683039
1131.0, 0.009681822779429035
1132.0, 0.008636485438724507
1133.0, 0.01092442882798845
1134.0, 0.0157130621551919
1135.0, 0.012546072030773436
1136.0, 0.002760403617739219
1137.0, 0.007247859572222665
1138.0, 0.007163278439887753
1139.0, 0.012160232546708838
1140.0, 0.00756895771472152
1141.0, 0.001964310554829027
1142.0, 0.00031158865286106297
1143.0, 0.0004413026034127198
1144.0, 0.0025792320226677994
1145.0, 0.006030347212903184
1146.0, 0.005960031350336913
1147.0, 0.004293635911566399
1148.0, 0.001101030763120128
1149.0, 0.002937492933354133
1150.0, 0.003226511044934548
1151.0, 0.0020820864872978253
1152.0, 0.0008337791337978626
1153.0, 0.004366981246927916
1154.0, 0.007043982804939117
1155.0, 0.003954171536279462
1156.0, 0.002299172214457635
1157.0, 0.004475672509099772
1158.0, 0.0031268754710750027
1159.0, 0.007338092556841795
1160.0, 0.009028867641118779
1161.0, 0.006316711721996482
1162.0, 0.010291960458502203
1163.0, 0.008251557357755072
1164.0, 0.009385041621149549
1165.0, 0.008386430838165239
1166.0, 0.009629683177893582
1167.0, 0.011011650061095633
1168.0, 0.009018912855116818
1169.0, 0.005274097991472152
1170.0, 0.0025197015974872225
1171.0, 0.003776126502406104
1172.0, 0.01568927482729918
1173.0, 0.007268847062180292
1174.0, 0.008564972122777792
1175.0, 0.010448398816540808
1176.0, 0.002831822229096878
1177.0, 0.0025427134859159913
1178.0, 0.006118692920237342
1179.0, 0.005905508459136116
1180.0, 0.004830986117668365
1181.0, 0.0049742092154882525
1182.0, 0.005515595509856703
1183.0, 0.00808629297881588
1184.0, 0.0015790578023944667
1185.0, 0.004878726794072806
1186.0, 0.004092773374068627
1187.0, 0.0013474501118497376
1188.0, 0.005264364766401642
1189.0, 0.0028459521793015204
1190.0, 0.005526963381780844
1191.0, 0.0047810574327381014
1192.0, 0.0054153202093250846
1193.0, 0.006383053174940603
1194.0, 0.003939696674831692
1195.0, 0.004459260072882632
1196.0, 0.005455301234753539
1197.0, 0.0060999366249550446
1198.0, 0.0011668653177599236
1199.0, 0.0005748833372529192
1200.0, 0.0004953608380509598
1201.0, 0.0002555507920313467
1202.0, 0.0015943150753097894
1203.0, 0.0031420088913213513
1204.0, 0.003885321525840763
1205.0, 0.004947717220356879
1206.0, 0.006526270891356244
1207.0, 0.007990881636846895
1208.0, 0.009647278544925086
1209.0, 0.011584792419918624
1210.0, 0.013413770724743708
1211.0, 0.008939203080978963
1212.0, 0.0023880361539885043
1213.0, 0.020620848865997247
1214.0, 0.013207723726470928
1215.0, 0.008181135288845164
1216.0, 0.017778075421776743
1217.0, 0.012214961701811966
1218.0, 0.005204215918706497
1219.0, 0.003840939773878227
1220.0, 0.006438675257699745
1221.0, 0.016713737624134358
1222.0, 0.01784899918953155
1223.0, 0.02469988859322362
1224.0, 0.013668417459079242
1225.0, 0.021175478417031303
1226.0, 0.018744137320408538
1227.0, 0.018310073343973672
1228.0, 0.012811143809972097
1229.0, 0.012055590131221748
1230.0, 0.010995107786130894
1231.0, 0.00921150551929914
1232.0, 0.007384553561742187
1233.0, 0.007851846067012598
1234.0, 0.0089649655913142
1235.0, 0.007385846351307817
1236.0, 0.012904459888635362
1237.0, 0.014340144359084782
1238.0, 0.007993963791116929
1239.0, 0.007728472711634488
1240.0, 0.008257377746092085
1241.0, 0.00633564035013321
1242.0, 0.009657994782425863
1243.0, 0.010497169556320891
1244.0, 0.013543703232343496
1245.0, 0.014587016286618624
1246.0, 0.010686083163961031
1247.0, 0.008163163473341357
1248.0, 0.009363646197107466
1249.0, 0.00985432501993763
1250.0, 0.01415681659444211
1251.0, 0.018956953485525962
1252.0, 0.012238959217123743
1253.0, 0.011346481933359123
1254.0, 0.01754770168740913
1255.0, 0.01648899241959551
1256.0, 0.01034412523203477
1257.0, 0.014238435143667136
1258.0, 0.015556701395194446
1259.0, 0.014071176797548305
1260.0, 0.014345672389185781
1261.0, 0.014177175629850622
1262.0, 0.014084244311100776
1263.0, 0.01900990700215001
1264.0, 0.02218564110427534
1265.0, 0.013034671536975654
1266.0, 0.02061218127448802
1267.0, 0.027130842488112927
1268.0, 0.01999589919780427
1269.0, 0.02075146880562835
1270.0, 0.01908364676370649
1271.0, 0.01711773832839557
1272.0, 0.020960917800931234
1273.0, 0.025441015526164748
1274.0, 0.025483667506306776
1275.0, 0.023052280465296133
1276.0, 0.021682882457422708
1277.0, 0.021356871138343832
1278.0, 0.021739260236577254
1279.0, 0.02382937532360678
1280.0, 0.021297638464745864
1281.0, 0.01776536844804741
1282.0, 0.018885623459608567
1283.0, 0.01556604828812996
1284.0, 0.015174123750830335
1285.0, 0.017258734606972272
1286.0, 0.011456644502857915
1287.0, 0.00755486039133874
1288.0, 0.006953906828521685
1289.0, 0.013654817403101378
1290.0, 0.017755897362101394
1291.0, 0.017789791303991317
1292.0, 0.02297672090345777
1293.0, 0.024444801230491628
1294.0, 0.02240736661896149
1295.0, 0.02087819244938646
1296.0, 0.02178676661337635
1297.0, 0.028223911863797052
1298.0, 0.02530329984222913
1299.0, 0.028283248366921743
1300.0, 0.02263509989879224
1301.0, 0.020031812346151725
1302.0, 0.01898691451381887
1303.0, 0.01736192952829427
1304.0, 0.01695285549168776
1305.0, 0.017254147581695776
1306.0, 0.017569597019855675
1307.0, 0.01755078376185233
1308.0, 0.01619163374417867
1309.0, 0.015336457830282235
1310.0, 0.015389529469091376
1311.0, 0.013979330922369556
1312.0, 0.015389655524312956
1313.0, 0.014236440622013125
1314.0, 0.013477234865566868
1315.0, 0.011143583459603819
1316.0, 0.011153470860479697
1317.0, 0.01864024668545228
1318.0, 0.02215094294861639
1319.0, 0.023349853886092203
1320.0, 0.02181773946006136
1321.0, 0.02472563681540527
1322.0, 0.023561853455568365
1323.0, 0.01690593229940987
1324.0, 0.016236399754435613
1325.0, 0.008503176202697022
1326.0, 0.010152914774029183
1327.0, 0.016056084308410497
1328.0, 0.010069616472478154
1329.0, 0.016159036118366752
1330.0, 0.019087973392961713
1331.0, 0.01936505679387682
1332.0, 0.01932132797831371
1333.0, 0.01186399163787124
1334.0, 0.014646437627690936
1335.0, 0.010097797624340767
1336.0, 0.010059180884787204
1337.0, 0.016736020074349198
1338.0, 0.0200154888987105
1339.0, 0.020914815722894487
1340.0, 0.0184242334165226
1341.0, 0.01135674427399004
1342.0, 0.014165471028659117
1343.0, 0.01379713613114293
1344.0, 0.018126180019050128
1345.0, 0.013578773207038042
1346.0, 0.014902631203746198
1347.0, 0.020075317512512098
1348.0, 0.011813051385846839
1349.0, 0.012848333499279285
1350.0, 0.007657665917652559
1351.0, 0.006491090527470979
1352.0, 0.003809746456927158
1353.0, 0.009720343108650146
1354.0, 0.01804669944648858
1355.0, 0.019710210087982155
1356.0, 0.02111177969591253
1357.0, 0.022507274881950055
1358.0, 0.02009344111907291
1359.0, 0.021294345772189215
1360.0, 0.015025182261624722
1361.0, 0.007967641741928426
1362.0, 0.012226869724381641
1363.0, 0.019999343145878527
1364.0, 0.00382819746685311
1365.0, 0.007053859961970655
1366.0, 0.014357554064558391
1367.0, 0.006021994169202915
1368.0, 0.01159565322227994
1369.0, 0.009467168359836835
1370.0, 0.012785351879795629
1371.0, 0.009922553658252021
1372.0, 0.013398996117578537
1373.0, 0.011279110352490813
1374.0, 0.004874700909507082
1375.0, 0.007055383961459179
1376.0, 0.006173565454749691
1377.0, 0.006067752793732024
1378.0, 0.0020552785356869694
1379.0, 0.004642544033138669
1380.0, 0.005938388469345233
1381.0, 0.004736823143302525
1382.0, 0.004151133563324911
1383.0, 0.00800023944889031
1384.0, 0.014735582401396642
1385.0, 0.015938068690751945
1386.0, 0.013842881724966907
1387.0, 0.011543808949153102
1388.0, 0.010005033241090516
1389.0, 0.005155839978741104
1390.0, 0.004097417621546648
1391.0, 0.0029595424660909925
1392.0, 0.0022486229680686205
1393.0, 0.006566589137676322
1394.0, 0.007667593956758356
1395.0, 0.005540021521019783
1396.0, 0.010480744934034504
1397.0, 0.008336467378207396
1398.0, 0.003938872279592069
1399.0, 0.0010731052076531251
1400.0, 0.006577969350202377
1401.0, 0.0009080450199568991
1402.0, 0.000571789328076535
1403.0, 0.005573558129577704
1404.0, 0.005890199410724957
1405.0, 0.0052534417160744465
1406.0, 0.0016184070420522535
1407.0, 0.011415318721955288
1408.0, 0.008001561443458895
1409.0, 0.0034583066306411257
1410.0, 0.008334120673437077
1411.0, 0.00984385242589504
1412.0, 0.009896897640390529
1413.0, 0.012159120524796594
1414.0, 0.01159174550673173
1415.0, 0.010904562231616446
1416.0, 0.010329671702676645
1417.0, 0.008542671041872176
1418.0, 0.008436205376182978
1419.0, 0.008924003627745515
1420.0, 0.006485071356085205
1421.0, 0.00863129396861308
1422.0, 0.008234611736845275
1423.0, 0.010066856949744596
1424.0, 0.024819138679775747
1425.0, 0.016210102659253066
1426.0, 0.021953945709336856
1427.0, 0.019440947991131094
1428.0, 0.018388715345258804
1429.0, 0.02120822327218344
1430.0, 0.020506795896180652
1431.0, 0.013141532974159036
1432.0, 0.01590394648291113
1433.0, 0.023668333573222688
1434.0, 0.020366046746213572
1435.0, 0.01673972953096853
1436.0, 0.017513197659035903
1437.0, 0.016264579554298823
1438.0, 0.025292765063877974
1439.0, 0.02422447056266143
1440.0, 0.023459592215936992
1441.0, 0.03446972852781183
1442.0, 0.02445673622138053
1443.0, 0.019608125795127492
1444.0, 0.03371074569193464
1445.0, 0.028939433648255467
1446.0, 0.01663536050942437
1447.0, 0.028363027259025543
1448.0, 0.023249584817947772
1449.0, 0.024439915252849238
1450.0, 0.028751965969426533
1451.0, 0.022251325963066143
1452.0, 0.02477823718617023
1453.0, 0.029292811295017207
1454.0, 0.02876629533800006
1455.0, 0.03228435079543019
1456.0, 0.03210550131078902
1457.0, 0.02863227078455471
1458.0, 0.02499574891542182
1459.0, 0.020999085304696546
1460.0, 0.025976067036959618
1461.0, 0.022426424311909266
1462.0, 0.020267527443571257
1463.0, 0.022064823610137386
1464.0, 0.032214226460231726
1465.0, 0.01530582847968862
1466.0, 0.03773915107474136
1467.0, 0.03412743408802233
1468.0, 0.06574349491204713
1469.0, 0.018324444583418045
1470.0, 0.016208920719716045
1471.0, 0.02055647836610348
1472.0, 0.0275140758929713
1473.0, 0.02650904205223921
1474.0, 0.011798372523103194
1475.0, 0.005591280132237382
1476.0, 0.012376034509113834
1477.0, 0.014427513835460086
1478.0, 0.02096230042103886
1479.0, 0.020032562114604004
1480.0, 0.009431752379701822
1481.0, 0.013569313696746892
1482.0, 0.017851253633035982
1483.0, 0.008703616783981153
1484.0, 0.009021049130792923
1485.0, 0.012978528654710884
1486.0, 0.011786271562401574
1487.0, 0.005536474572960092
1488.0, 0.006873666624345039
1489.0, 0.008523855785669965
1490.0, 0.013321324536615246
1491.0, 0.007507666861280847
1492.0, 0.009186040514305913
1493.0, 0.01211077804318736
1494.0, 0.023156292350276296
1495.0, 0.008461830791597971
1496.0, 0.0009241857371923012
1497.0, 0.013001212718139366
1498.0, 0.012350229716743565
1499.0, 0.003973519760895784
1500.0, 0.0016263849759088412
1501.0, 0.0009466979768559142
1502.0, 0.0011301170305156847
1503.0, 0.0017693755715883425
1504.0, 0.00593042406307629
1505.0, 0.009131594051567455
1506.0, 0.014155395000320176
1507.0, 0.01592504120267657
1508.0, 0.014546910449937573
1509.0, 0.013314279189484067
1510.0, 0.007907122779678864
1511.0, 0.002916212540627773
1512.0, 0.0018728918161025022
1513.0, 0.0006455583054181596
1514.0, 0.0020006612093711237
1515.0, 0.0042362304829499445
1516.0, 0.008965762414938174
1517.0, 0.005892653726911159
1518.0, 0.0062067409235725835
1519.0, 0.008828026688648025
1520.0, 0.005522601959544531
1521.0, 0.0017357274716810365
1522, 0.0
1523, 0.0
1524, 0.0
1525, 0.0
1526, 0.0
1527, 0.0
1528, 0.0
1529, 0.0
1530, 0.0
1531, 0.0
1532, 0.0
1533, 0.0
1534, 0.0
1535, 0.0
1536, 0.0
1537, 0.0
1538, 0.0
1539, 0.0
1540, 0.0
1541, 0.0
1542, 0.0
1543, 0.0
1544, 0.0
1545, 0.0
1546, 0.0
1547, 0.0
1548, 0.0
1549, 0.0
1550, 0.0
1551, 0.0
1552, 0.0
1553, 0.0
1554, 0.0
1555, 0.0
1556, 0.0
1557, 0.0
1558, 0.0
1559, 0.0
1560, 0.0
1561, 0.0
1562, 0.0
1563, 0.0
1564, 0.0
1565, 0.0
1566, 0.0
1567, 0.0
1568, 0.0
1569, 0.0
1570, 0.0
1571, 0.0
1572, 0.0
1573, 0.0
1574, 0.0
1575, 0.0
1576, 0.0
1577, 0.0
1578, 0.0
1579, 0.0
1580, 0.0
1581, 0.0
1582, 0.0
1583, 0.0
1584, 0.0
1585, 0.0
1586, 0.0
1587, 0.0
1588, 0.0
1589, 0.0
1590, 0.0
1591, 0.0
1592, 0.0
1593, 0.0
1594, 0.0
1595, 0.0
1596, 0.0
1597, 0.0
1598, 0.0
1599, 0.0
