30, 0.0
31, 0.0
32, 0.0
33, 0.0
34, 0.0
35, 0.0
36, 0.0
37, 0.0
38, 0.0
39, 0.0
40, 0.0
41, 0.0
42, 0.0
43, 0.0
44, 0.0
45, 0.0
46, 0.0
47, 0.0
48, 0.0
49, 0.0
50, 0.0
51, 0.0
52, 0.0
53, 0.0
54, 0.0
55, 0.0
56, 0.0
57, 0.0
58, 0.0
59, 0.0
60, 0.0
61, 0.0
62, 0.0
63, 0.0
64, 0.0
65, 0.0
66, 0.0
67, 0.0
68, 0.0
69, 0.0
70, 0.0
71, 0.0
72, 0.0
73, 0.0
74, 0.0
75, 0.0
76, 0.0
77, 0.0
78, 0.0
79, 0.0
80, 0.0
81, 0.0
82, 0.0
83, 0.0
84, 0.0
85, 0.0
86, 0.0
87, 0.0
88.0, 0.005104471657303875
89.0, 0.01290468299676036
90.0, 0.0256542415971493
91.0, 0.05390133076142958
92.0, 0.08095532237022508
93.0, 0.09318247180944747
94.0, 0.09192447161295389
95.0, 0.0883934083466629
96.0, 0.09874430874496952
97.0, 0.10211929600984777
98.0, 0.10627738469730448
99.0, 0.11270088865852695
100.0, 0.1172844046310081
101.0, 0.1161289551633321
102.0, 0.11812412828387893
103.0, 0.11467138126288899
104.0, 0.11327126596965902
105.0, 0.11270343657682963
106.0, 0.11095003453566649
107.0, 0.10796913799794493
108.0, 0.0983730403279194
109.0, 0.09531756329651588
110.0, 0.09322402309855553
111.0, 0.08935676889587958
112.0, 0.08567373079220927
113.0, 0.08725746767178479
114.0, 0.08140240661771367
115.0, 0.07899179326511657
116.0, 0.07961831412312685
117.0, 0.07796791865877147
118.0, 0.07798464326728685
119.0, 0.0748355010638312
120.0, 0.07198957155286385
121.0, 0.0711492197140939
122.0, 0.07224675718379239
123.0, 0.07167920612675202
124.0, 0.07282892538851403
125.0, 0.06697940783808885
126.0, 0.06245310151493918
127.0, 0.06572308091566989
128.0, 0.07882989881208427
129.0, 0.09595513887172484
130.0, 0.11298872151505364
131.0, 0.12337029663517116
132.0, 0.1312851266077296
133.0, 0.14223839226332108
134.0, 0.13176515119323337
135.0, 0.14612625158895617
136.0, 0.16473722612762906
137.0, 0.1837453366548405
138.0, 0.20293772484086625
139.0, 0.22265923711584112
140.0, 0.23250682003301457
141.0, 0.2397673904337973
142.0, 0.23944184688343295
143.0, 0.23484245534492654
144.0, 0.23640787026396673
145.0, 0.22563591085688653
146.0, 0.22193656839684262
147.0, 0.216654752865857
148.0, 0.20617590737305796
149.0, 0.19133856925687415
150.0, 0.18236829892411138
151.0, 0.17531077334026768
152.0, 0.17160405892560104
153.0, 0.16656376340976228
154.0, 0.1589571895287106
155.0, 0.15435143596393167
156.0, 0.15180732674143355
157.0, 0.14193278623091254
158.0, 0.13118344731342677
159.0, 0.12362118116513475
160.0, 0.11990771549503196
161.0, 0.10996227301087996
162.0, 0.10511626700897726
163.0, 0.1005948408925178
164.0, 0.09903449288827518
165.0, 0.10063665897016282
166.0, 0.09632481230723543
167.0, 0.09863067743947226
168.0, 0.1016620221982351
169.0, 0.10514522910374724
170.0, 0.11129096467359843
171.0, 0.12306280790032864
172.0, 0.13094235547693245
173.0, 0.14763603698796215
174.0, 0.15712453862034767
175.0, 0.16461039322967624
176.0, 0.1769509684845961
177.0, 0.18565388686531184
178.0, 0.20273964218563767
179.0, 0.22022489673791434
180.0, 0.23752446470793048
181.0, 0.2554848873994927
182.0, 0.27587585161132105
183.0, 0.30160095737543713
184.0, 0.321050994840733
185.0, 0.3371607612118223
186.0, 0.3511087083034131
187.0, 0.3626451555190171
188.0, 0.3685170519007847
189.0, 0.3557307935831966
190.0, 0.34987673717243534
191.0, 0.35049368839298595
192.0, 0.3580613053931844
193.0, 0.3755264805667211
194.0, 0.38582963993829333
195.0, 0.4114032537496707
196.0, 0.43758388379066226
197.0, 0.4539883744602079
198.0, 0.45649508072303097
199.0, 0.4548527033562813
200.0, 0.4646633035461423
201.0, 0.47075042018089125
202.0, 0.4781097204317517
203.0, 0.4913380911183413
204.0, 0.5122130565140831
205.0, 0.5411995971144188
206.0, 0.5690133956010875
207.0, 0.6105695129753616
208.0, 0.6618812109036849
209.0, 0.7167944211737551
210.0, 0.7827150789208766
211.0, 0.8357102109174459
212.0, 0.8910309278551956
213.0, 0.9428673731020646
214.0, 0.9812733557073956
215.0, 0.9967699793570369
216.0, 0.9995860392026892
217.0, 0.9636086038114077
218.0, 0.9056234971673225
219.0, 0.8244908593996143
220.0, 0.719634047417012
221.0, 0.600252843714062
222.0, 0.5114174611361647
223.0, 0.4405552466324476
224.0, 0.3864743706596346
225.0, 0.34491997587117806
226.0, 0.3094232621738526
227.0, 0.27339197416071487
228.0, 0.2492067763510104
229.0, 0.2257975503124398
230.0, 0.2058068995272827
231.0, 0.18847071538565588
232.0, 0.16500660587612145
233.0, 0.14803754563760854
234.0, 0.12956271361493385
235.0, 0.11550128736792867
236.0, 0.10739532120581728
237.0, 0.10237080286579535
238.0, 0.08998933714749198
239.0, 0.07327623344700658
240.0, 0.0621383473308874
241.0, 0.04930607710695761
242.0, 0.03590122818713539
243.0, 0.030982044471975605
244.0, 0.02603608745480046
245.0, 0.02098172982461248
246.0, 0.017064495818679342
247.0, 0.010449574343577451
248.0, 0.0019841703940729418
249.0, 0.003875371161040857
250.0, 0.0013330773983148208
251.0, 0.007322218387929522
252.0, 0.012473669608694955
253.0, 0.01415183528513929
254.0, 0.01371025605427253
255.0, 0.010739093694682563
256.0, 0.009515147948987333
257.0, 0.006400961677956247
258.0, 0.004018757371264953
259.0, 0.00574368239827849
260.0, 0.013374602169587194
261.0, 0.013438923084612094
262.0, 0.012221515534802607
263.0, 0.013416130373878723
264.0, 0.01764175046588186
265.0, 0.021676845248242503
266.0, 0.01723439638294124
267.0, 0.02489082847807661
268.0, 0.028300202912189074
269.0, 0.023581659184173962
270.0, 0.02105802672744223
271.0, 0.0295915955723486
272.0, 0.02624941425365643
273.0, 0.019204293664758846
274.0, 0.016872806286813747
275.0, 0.014805387748690026
276.0, 0.012152364495065035
277.0, 0.011851556621509772
278.0, 0.01253522521298303
279.0, 0.011812831428824519
280.0, 0.0070051447595311095
281.0, 0.003440005769732344
282.0, 0.0032402835478610326
283.0, 0.0016492617168407941
284.0, 0.0009153789663952583
285.0, 0.0015058166629693798
286.0, 0.004287459399385127
287.0, 0.0075230195100181715
288.0, 0.00803372216401559
289.0, 0.0017503947345436414
290.0, 0.005689405630400933
291.0, 0.0057869542071588365
292.0, 0.006502482577041441
293.0, 0.007820531229697359
294.0, 0.006939010963319878
295.0, 0.001857869793042265
296.0, 0.004095531896246038
297.0, 0.00655214870143623
298.0, 0.005563784156334474
299.0, 0.005209817100909821
300.0, 0.01240493443032664
301.0, 0.010783145621134527
302.0, 0.010696990467407578
303.0, 0.01688705979608094
304.0, 0.01601073495023443
305.0, 0.007404245987489367
306.0, 0.007924890818813297
307.0, 0.007171546562816501
308.0, 0.007327732371595784
309.0, 0.006797450068818471
310.0, 0.007396781111106516
311.0, 0.009400099319598003
312.0, 0.009218415719485689
313.0, 0.01644701602908792
314.0, 0.01205096730638195
315.0, 0.012375218241434791
316.0, 0.014611639227186444
317.0, 0.010878179663686927
318.0, 0.0004173264863276136
319.0, 0.008358804503076417
320.0, 0.014111597442024242
321.0, 0.011930130810985252
322.0, 0.010575540095998159
323.0, 0.01715517922661704
324.0, 0.009978139308231444
325.0, 0.01341837689687927
326.0, 0.006508260698766765
327.0, 0.0014148301550369852
328.0, 0.005191346391561477
329.0, 0.01666496357632806
330.0, 0.02313651666737548
331.0, 0.008296328132558043
332.0, 0.005213071898163655
333.0, 0.0035214933103890783
334.0, 0.0008838675967336795
335.0, 0.002855821183465502
336.0, 0.0013656945355206124
337.0, 0.0020224143815842474
338.0, 0.0038885550028881083
339.0, 0.00583468738922405
340.0, 0.0065407526843313584
341.0, 0.005515104294009361
342.0, 0.008261157839259056
343.0, 0.005405858531753573
344.0, 0.004930212858441118
345.0, 0.007131148697314623
346.0, 0.00741919170161635
347.0, 0.00021731552872725842
348.0, 0.002561632114344534
349.0, 0.0057345490979263765
350.0, 0.00942351185896085
351.0, 0.012257977777304545
352.0, 0.013913325266700806
353.0, 0.01552870478101014
354.0, 0.017075888386081556
355.0, 0.017060449785332568
356.0, 0.016762953805432416
357.0, 0.01671959547188051
358.0, 0.01765644098880774
359.0, 0.020221438624585468
360.0, 0.019345288800795453
361.0, 0.025531727463016064
362.0, 0.02908504737405566
363.0, 0.031050535640832766
364.0, 0.03252136500922485
365.0, 0.0315853317442052
366.0, 0.03390263377319397
367.0, 0.035470230357971005
368.0, 0.036376883590671205
369.0, 0.038095676106080924
370.0, 0.040705126475286235
371.0, 0.04229404060674623
372.0, 0.04558240061296841
373.0, 0.04683547577454538
374.0, 0.04799483897636055
375.0, 0.049442156182735675
376.0, 0.05178742565260667
377.0, 0.055563213998983535
378.0, 0.051385998979485224
379.0, 0.05698550988187597
380.0, 0.06342663157188984
381.0, 0.06733596595513093
382.0, 0.07087879023879308
383.0, 0.07916068060351088
384.0, 0.0748834395663645
385.0, 0.08666214006013444
386.0, 0.08880522232127308
387.0, 0.08796138693095498
388.0, 0.09081704632715587
389.0, 0.0959367754835568
390.0, 0.10501019965791458
391.0, 0.09815548084602588
392.0, 0.10589318104553243
393.0, 0.11352049854338372
394.0, 0.11409127683610008
395.0, 0.11665611947272193
396.0, 0.12213613393725165
397.0, 0.12400828447891848
398.0, 0.12959455789677315
399.0, 0.13368332728293011
400.0, 0.13565372530282196
401.0, 0.1399756296980424
402.0, 0.14694541267807745
403.0, 0.14751996595011949
404.0, 0.1491661247715863
405.0, 0.1511573776295664
406.0, 0.15102770422389936
407.0, 0.1483349094641229
408.0, 0.15250047570157696
409.0, 0.1494916950713694
410.0, 0.15363405069137182
411.0, 0.15388334713767682
412.0, 0.14812936402199223
413.0, 0.1403120965749508
414.0, 0.13109166564909494
415.0, 0.14093238081947854
416.0, 0.13299705279693658
417.0, 0.12878810749840217
418.0, 0.1284954395571554
419.0, 0.12462600904342404
420.0, 0.11963334245743439
421.0, 0.11925952449800904
422.0, 0.11476645351952326
423.0, 0.11230077024132393
424.0, 0.10771773831061382
425.0, 0.09892085361340433
426.0, 0.0933185888831974
427.0, 0.0926756534698819
428.0, 0.08822801451295227
429.0, 0.08685754625796972
430.0, 0.08553510101798298
431.0, 0.07936104072617718
432.0, 0.06779533546283432
433.0, 0.07509746630140648
434.0, 0.0630907802550246
435.0, 0.0600425028043335
436.0, 0.06061869949168949
437.0, 0.061102492188162695
438.0, 0.062164977532936705
439.0, 0.05333382724258374
440.0, 0.05092361886132847
441.0, 0.05074510951447005
442.0, 0.052207397207941535
443.0, 0.05150965273048633
444.0, 0.04863080023984175
445.0, 0.05929822163568548
446.0, 0.05296052359925492
447.0, 0.05431339898814644
448.0, 0.05235684078457218
449.0, 0.0482920908682402
450.0, 0.04723813180659605
451.0, 0.05024594281111744
452.0, 0.05366570102347622
453.0, 0.050040971948682435
454.0, 0.04762980007404642
455.0, 0.04523104027314495
456.0, 0.04258207157356873
457.0, 0.043346170024244846
458.0, 0.049813680882055
459.0, 0.05686159788496847
460.0, 0.05585883238389384
461.0, 0.05479816869454936
462.0, 0.0543122065025251
463.0, 0.05137864211316661
464.0, 0.05709288357839283
465.0, 0.05970265450776204
466.0, 0.05638944961823747
467.0, 0.05564803873913513
468.0, 0.057571641277291564
469.0, 0.05898933628449707
470.0, 0.059466112743972566
471.0, 0.056203174943794475
472.0, 0.05940966887293006
473.0, 0.05773585385360046
474.0, 0.05924629793092925
475.0, 0.0651359330268084
476.0, 0.06542154919403796
477.0, 0.07150979777241485
478.0, 0.06827093088936274
479.0, 0.06482693478778985
480.0, 0.06198703568177643
481.0, 0.059114775917137756
482.0, 0.05639775897782651
483.0, 0.057254075622519544
484.0, 0.05889336423608009
485.0, 0.05731142794298087
486.0, 0.05413756618081924
487.0, 0.052832845432552275
488.0, 0.05324238161806446
489.0, 0.049919796148996866
490.0, 0.049340545300476726
491.0, 0.046269206357174
492.0, 0.04949570359595658
493.0, 0.05019665523598639
494.0, 0.04788945439498517
495.0, 0.04966854911356044
496.0, 0.051859409561641916
497.0, 0.06038353432797055
498.0, 0.04947726642545204
499.0, 0.04805669366753828
500.0, 0.051025335425337916
501.0, 0.04632762657283867
502.0, 0.042132106326837254
503.0, 0.04216348915833852
504.0, 0.0399091775600417
505.0, 0.03837510872852412
506.0, 0.039318674107772504
507.0, 0.04040418687577392
508.0, 0.038614336388014446
509.0, 0.04222907869441418
510.0, 0.0460181941314748
511.0, 0.04469554112373643
512.0, 0.04493579652233389
513.0, 0.04559136346140792
514.0, 0.04424194375165657
515.0, 0.04359014262073569
516.0, 0.04112380757074441
517.0, 0.03681394416290642
518.0, 0.035000546741919186
519.0, 0.03947076448660679
520.0, 0.044479173791042936
521.0, 0.041884945124029835
522.0, 0.04410845449884574
523.0, 0.04293460151452698
524.0, 0.042304371748863694
525.0, 0.0446044614015717
526.0, 0.04442780246039309
527.0, 0.0407229195339911
528.0, 0.042252815435243056
529.0, 0.039033573006946085
530.0, 0.03584333786397224
531.0, 0.030583114354181977
532.0, 0.029720480702810994
533.0, 0.03102477534913996
534.0, 0.030036696379090306
535.0, 0.03639194044527522
536.0, 0.028028633194285456
537.0, 0.03190362260103199
538.0, 0.031484794197285414
539.0, 0.031202897832418065
540.0, 0.03436220670766823
541.0, 0.03584439115304129
542.0, 0.03930549028971394
543.0, 0.041152537475226236
544.0, 0.03884370530886621
545.0, 0.0363466661328746
546.0, 0.0363364409642259
547.0, 0.03727666213905725
548.0, 0.033664534001575576
549.0, 0.03871320857267509
550.0, 0.044118092658293785
551.0, 0.043188069415017
552.0, 0.03762429097227111
553.0, 0.03449108206833587
554.0, 0.03779214531109209
555.0, 0.0354627567062982
556.0, 0.04362933959159132
557.0, 0.038202496565055644
558.0, 0.03759355218177858
559.0, 0.03788034334040443
560.0, 0.039142090486527434
561.0, 0.04884137904645331
562.0, 0.04542010734863511
563.0, 0.04458437900203611
564.0, 0.04759005169960798
565.0, 0.0436311233225721
566.0, 0.039889802753181415
567.0, 0.04324719024624616
568.0, 0.045968313412974776
569.0, 0.04691375264819283
570.0, 0.04982231306570628
571.0, 0.058255845404355716
572.0, 0.05946664343158865
573.0, 0.05299783965530639
574.0, 0.04657336868463657
575.0, 0.04405830032708595
576.0, 0.0537994745524046
577.0, 0.04930884806866397
578.0, 0.0520871795133892
579.0, 0.053169795018440914
580.0, 0.050288891604040126
581.0, 0.04973311607422483
582.0, 0.049581105962974645
583.0, 0.04583366839210357
584.0, 0.04126083431607706
585.0, 0.04589219597154763
586.0, 0.05244448622282952
587.0, 0.05428329884888452
588.0, 0.051508180470499695
589.0, 0.045310900601537245
590.0, 0.05839308105376499
591.0, 0.05466668668742365
592.0, 0.060239007397809984
593.0, 0.06183969838003793
594.0, 0.054679161828071456
595.0, 0.057242571025365535
596.0, 0.06166943717026735
597.0, 0.06158964158766272
598.0, 0.0639894507234582
599.0, 0.06559707430448426
600.0, 0.0689776131354637
601.0, 0.07468422008108756
602.0, 0.07882542309906247
603.0, 0.08954991580226687
604.0, 0.09255020011326583
605.0, 0.092595457362478
606.0, 0.09841435369148892
607.0, 0.1069696722608216
608.0, 0.11385638404439444
609.0, 0.12154824356933713
610.0, 0.13059399098057878
611.0, 0.12615228844350287
612.0, 0.13914859735775606
613.0, 0.15068287041916134
614.0, 0.15373003954314687
615.0, 0.1554244960043464
616.0, 0.16696515143308782
617.0, 0.17736973427187916
618.0, 0.17916331489286239
619.0, 0.18241234833179054
620.0, 0.19290205392797544
621.0, 0.20118248374278982
622.0, 0.20125605591873133
623.0, 0.20380285481658056
624.0, 0.20966406085780756
625.0, 0.19823164383247502
626.0, 0.20377422058650965
627.0, 0.20551614545966826
628.0, 0.1977694879623967
629.0, 0.18998094402223614
630.0, 0.19256526117874379
631.0, 0.18834888484075937
632.0, 0.1867457583851171
633.0, 0.18236753199113073
634.0, 0.18085952931839044
635.0, 0.1785407588468878
636.0, 0.17471757288467327
637.0, 0.17650747741088682
638.0, 0.16765437352473503
639.0, 0.16920669001938632
640.0, 0.17037206444970512
641.0, 0.16472067124021694
642.0, 0.15780598759449657
643.0, 0.15489628685844678
644.0, 0.1533549039262828
645.0, 0.14972971397812498
646.0, 0.13567778088219334
647.0, 0.12742702968458583
648.0, 0.1209815559980498
649.0, 0.11808064724265002
650.0, 0.11576639224812153
651.0, 0.10559736815837308
652.0, 0.09003209877787244
653.0, 0.0915315182448362
654.0, 0.08474655436371198
655.0, 0.08015421180803453
656.0, 0.0769177921019697
657.0, 0.07372209144427366
658.0, 0.07099393531448908
659.0, 0.06431051780881085
660.0, 0.062333663547606714
661.0, 0.05926724554141188
662.0, 0.05664649282895406
663.0, 0.054103846221633486
664.0, 0.052840394037248925
665.0, 0.051387152876534434
666.0, 0.04113761913821989
667.0, 0.047707001123285214
668.0, 0.03269786869807528
669.0, 0.03978532437535168
670.0, 0.04445086030908437
671.0, 0.039804918278496006
672.0, 0.03426550324432925
673.0, 0.03012060262637509
674.0, 0.03527358548904438
675.0, 0.040055235444772554
676.0, 0.036031920599539864
677.0, 0.03676855926004144
678.0, 0.036719057276684806
679.0, 0.03353177323394424
680.0, 0.036258728487267404
681.0, 0.027687961583050952
682.0, 0.02354471140551908
683.0, 0.03026233418786691
684.0, 0.025975986616016862
685.0, 0.01693107770724698
686.0, 0.01558541812385489
687.0, 0.023594108421922395
688.0, 0.025384722702912543
689.0, 0.022560466126199077
690.0, 0.019300683747014307
691.0, 0.009112598823193731
692.0, 0.006435566514556921
693.0, 0.008809378462733641
694.0, 0.007837618302972622
695.0, 0.009733337744693763
696.0, 0.012791729711054155
697.0, 0.010479252412789594
698.0, 0.00526366530571678
699.0, 0.00238780297775792
700.0, 0.0032757747141242805
701.0, 0.0059187782663721435
702.0, 0.0065086388907670345
703.0, 0.0011288377938173874
704.0, 0.01464244657097748
705.0, 0.009787092632071157
706.0, 0.004336036688338414
707.0, 0.006432749726546729
708.0, 0.01055698420622768
709.0, 0.008375280999446082
710.0, 0.00469480174764884
711.0, 0.012840295450302037
712.0, 0.005245331794478677
713.0, 0.004286809357903387
714.0, 0.0034544696323276346
715.0, 0.001454616839389041
716.0, 0.003752665669043466
717.0, 0.01294085914991725
718.0, 0.010331593149985462
719.0, 0.003658696805531354
720.0, 0.010272575230154166
721.0, 0.012240871094154908
722.0, 0.006822942530840179
723.0, 0.0011738369536304597
724.0, 0.0017393082003150627
725.0, 0.004401096662042267
726.0, 0.0008744365303575566
727.0, 0.008611592635123136
728.0, 0.004061124114806835
729.0, 0.0026496482410449315
730.0, 0.004180180429258818
731.0, 0.0045446494399543945
732.0, 0.005093978727536682
733.0, 0.0033110499558773425
734.0, 0.002019043949459048
735.0, 0.0030166029591498023
736.0, 0.004056585646319228
737.0, 0.0075927243141444304
738.0, 0.0076060197520357465
739.0, 0.0017512666380350677
740.0, 0.0019072096631896976
741.0, 0.003609860885694044
742.0, 0.0012974554983697481
743.0, 0.0031441021363431453
744.0, 0.00601752634650652
745.0, 0.007996382681763347
746.0, 0.0088585971839639
747.0, 0.009428647289580627
748.0, 0.010239823660225893
749.0, 0.006128414675971381
750.0, 0.005846921455920853
751.0, 0.0029119296222935476
752.0, 0.001333674159384778
753.0, 0.0018429906732308522
754.0, 0.0029568107713923526
755.0, 0.003776346991754561
756.0, 0.004749226152475429
757.0, 0.003242698594544996
758.0, 0.011683577635877984
759.0, 0.00840229335763739
760.0, 0.00437802232531312
761.0, 0.0031933335343417623
762.0, 0.0028548341114749244
763.0, 0.004301553602789691
764.0, 0.00042997802396840595
765.0, 0.0026161926000603233
766.0, 0.00257294830296523
767.0, 0.0010800301807459669
768.0, 0.0009293998187526006
769.0, 0.0024286258908897337
770.0, 0.004568876346381765
771.0, 0.007481144742995046
772.0, 0.00859559176329293
773.0, 0.007132536263021942
774.0, 0.012947362093559088
775.0, 0.010492402603114827
776.0, 0.01110964166709205
777.0, 0.014149181755585296
778.0, 0.011185183163486564
779.0, 0.011959468205246066
780.0, 0.015243130864135725
781.0, 0.01636952262461298
782.0, 0.014151135455728747
783.0, 0.007726635291332803
784.0, 0.005763141430151874
785.0, 0.00848345967303935
786.0, 0.008909770113322498
787.0, 0.008100483005279822
788.0, 0.0105288735400951
789.0, 0.005033876923090907
790.0, 0.012031175009857778
791.0, 0.006686322491128155
792.0, 0.0031622696285860466
793.0, 0.005520316335250602
794.0, 0.005344925642827443
795.0, 0.01656470504094165
796.0, 0.011887595614307297
797.0, 0.016720020342887918
798.0, 0.014752719469758376
799.0, 0.012774000838007914
800.0, 0.013470636782710514
801.0, 0.010962915656853974
802.0, 0.005471792596978735
803.0, 0.015058044572038826
804.0, 0.005091980785724131
805.0, 0.010608863929729947
806.0, 0.005651948059476053
807.0, 0.005581775253377586
808.0, 0.0059753515077958464
809.0, 0.003925392915099354
810.0, 0.0033126465155415845
811.0, 0.004549397210936985
812.0, 0.008344374561863422
813.0, 0.01082664935488288
814.0, 0.006008861252185509
815.0, 0.007118984770131924
816.0, 0.006144021406570892
817.0, 0.003972904543418389
818.0, 0.006405245840044789
819.0, 0.007353152345863152
820.0, 0.008355901738311066
821.0, 0.015204927945043007
822.0, 0.0056445687777037495
823.0, 0.013131340628576156
824.0, 0.014346905516281852
825.0, 0.009658140643797676
826.0, 0.011007522824068637
827.0, 0.01047774701701101
828.0, 0.008983119150790881
829.0, 0.014265104524935728
830.0, 0.005576392459758432
831.0, 0.014073574542724397
832.0, 0.0184025245528329
833.0, 0.013231391171936032
834.0, 0.007567395299977076
835.0, 0.006528341904163555
836.0, 0.006224891741795175
837.0, 0.009312763502184287
838.0, 0.0067768687624019264
839.0, 0.007922873540238986
840.0, 0.004831388086892358
841.0, 0.0016420040349795528
842.0, 0.00123391391918957
843.0, 0.0012180487548705
844.0, 0.003479814455888617
845.0, 0.01492023077919347
846.0, 0.0029089091907488276
847.0, 0.00041890105149041963
848.0, 0.005358156537065135
849.0, 0.005061689987855621
850.0, 0.002089080568525523
851.0, 0.004212423575966154
852.0, 0.007282728428214624
853.0, 0.00726058464340411
854.0, 0.003911851600813363
855.0, 0.0028167645918482677
856.0, 0.005073030809582937
857.0, 0.006281301995766756
858.0, 0.006482385514724572
859.0, 0.005885391849999368
860.0, 0.0031178057467693343
861.0, 0.00019609489965543073
862.0, 0.0021269114949450975
863.0, 0.005004027965722966
864.0, 0.0032433847294771815
865.0, 0.0038383759175121893
866.0, 0.0035798988371289627
867.0, 0.0026388929330577213
868.0, 0.003173817130965642
869.0, 0.0025911176897647093
870.0, 0.00014988770947893098
871.0, 0.0007036573088564913
872.0, 0.001724507033412467
873.0, 0.00787958469405384
874.0, 0.010578720026869895
875.0, 0.014850083204847509
876.0, 0.019674136824206694
877.0, 0.020869199806794487
878.0, 0.03323206966686357
879.0, 0.04010472351723757
880.0, 0.03444313715216596
881.0, 0.013047790649949733
882.0, 0.0029744192955336235
883.0, 0.002760510718650786
884.0, 0.00487658794286071
885.0, 0.005338182958005289
886.0, 0.003980054236592138
887.0, 0.0030971496481044013
888.0, 0.0008054526071654307
889.0, 0.0017560604137828494
890.0, 0.0015365911329150023
891.0, 0.00195458231811747
892.0, 0.0019820781377851778
893.0, 0.005135315074449903
894.0, 0.008734510281263253
895.0, 0.00158789157347156
896.0, 0.004013169512733953
897.0, 0.006629914214910266
898.0, 0.0033688545378594424
899.0, 0.00894040284234308
900.0, 0.005901290944564435
901.0, 0.0022254746736382245
902.0, 0.003945164951664609
903.0, 0.004137813186423519
904.0, 0.0007043454391694375
905.0, 0.004353691789474395
906.0, 0.001699879001801717
907.0, 0.007510142986489408
908.0, 0.007751127989921704
909.0, 0.010519760956295615
910.0, 0.009923912818405581
911.0, 0.004485987397209831
912.0, 0.0037335544502140566
913.0, 0.009485911268917832
914.0, 0.008421463717812723
915.0, 0.016819696559469282
916.0, 0.004936284906958002
917.0, 0.005746281638287371
918.0, 0.010377578784590856
919.0, 0.008922649104024958
920.0, 0.006101948097709589
921.0, 0.009614210258230433
922.0, 0.011736962201246776
923.0, 0.009544402636392238
924.0, 0.0068170368700857225
925.0, 0.0089646088568468
926.0, 0.010945210736522352
927.0, 0.011478873140588788
928.0, 0.008258617604711695
929.0, 0.0032654058230539612
930.0, 0.0026008002537613512
931.0, 0.007337486836385598
932.0, 0.005199409281329825
933.0, 0.012916318881039774
934.0, 0.019412186713132266
935.0, 0.014880267361530083
936.0, 0.007876068366955653
937.0, 0.010525799576367408
938.0, 0.015031365769152889
939.0, 0.009102864960913781
940.0, 0.004776283940762142
941.0, 0.008511862436944559
942.0, 0.00650213320696911
943.0, 0.009930335743708442
944.0, 0.010565284121090588
945.0, 0.010172550709741018
946.0, 0.01451058404053056
947.0, 0.019363091486674467
948.0, 0.021426813157650017
949.0, 0.02892587111447096
950.0, 0.03637354740486102
951.0, 0.02106191768616015
952.0, 0.01711946741030676
953.0, 0.021209341396808936
954.0, 0.017754259005621928
955.0, 0.015203063980980976
956.0, 0.01340214780691275
957.0, 0.011545311379979814
958.0, 0.014611500781075742
959.0, 0.011664969031169163
960.0, 0.019601241244721977
961.0, 0.016971669709795745
962.0, 0.013760162616269247
963.0, 0.01213828856085397
964.0, 0.012337386070878961
965.0, 0.017035062634163312
966.0, 0.022164586410305588
967.0, 0.019002835206301163
968.0, 0.010796146156946261
969.0, 0.020959959483362062
970.0, 0.016033259781673474
971.0, 0.014078131350395649
972.0, 0.018667775821067666
973.0, 0.01791613909065364
974.0, 0.02000319639514073
975.0, 0.02016176690992137
976.0, 0.015665591853720063
977.0, 0.018029246111262876
978.0, 0.015840554300365073
979.0, 0.01819712734682607
980.0, 0.018702755439747042
981.0, 0.0188659835110809
982.0, 0.02087654541802924
983.0, 0.020821565744425046
984.0, 0.02260379108920265
985.0, 0.02551375800452782
986.0, 0.023083826276145435
987.0, 0.018323324154369797
988.0, 0.026946013306422906
989.0, 0.02002180038632173
990.0, 0.020825626339357337
991.0, 0.01924081173736571
992.0, 0.023882283621683095
993.0, 0.022583686829608922
994.0, 0.02031122644166533
995.0, 0.02332026702271018
996.0, 0.024403467276614202
997.0, 0.02218789275589705
998.0, 0.0228153802739473
999.0, 0.01665601418134765
1000.0, 0.01668401681400862
1001.0, 0.016151187811833355
1002.0, 0.021418719612573498
1003.0, 0.023669924803462743
1004.0, 0.023973391088078225
1005.0, 0.029542280725522282
1006.0, 0.03495029601651918
1007.0, 0.02594371571662608
1008.0, 0.02074272243937635
1009.0, 0.027221106179590254
1010.0, 0.028280676104495802
1011.0, 0.022172644127878765
1012.0, 0.023058596699836578
1013.0, 0.028281452527071357
1014.0, 0.029976004862629906
1015.0, 0.028961204129792324
1016.0, 0.031221643517351204
1017.0, 0.03316140455613372
1018.0, 0.032384619720180155
1019.0, 0.03126770150781642
1020.0, 0.03241435336305888
1021.0, 0.033801632013953586
1022.0, 0.03338572029685605
1023.0, 0.03518894701751064
1024.0, 0.037997953949823506
1025.0, 0.0402409362742203
1026.0, 0.041901797850156734
1027.0, 0.036402620169094714
1028.0, 0.04998833091064531
1029.0, 0.02241923217265831
1030.0, 0.040234397960395726
1031.0, 0.04228704983128377
1032.0, 0.03847148765506174
1033.0, 0.03291930359622289
1034.0, 0.03581405415792118
1035.0, 0.047435255227768286
1036.0, 0.053621758728937464
1037.0, 0.0518886020700265
1038.0, 0.030445612086670078
1039.0, 0.03914391599298973
1040.0, 0.03621448436886928
1041.0, 0.03204366879246586
1042.0, 0.040146265740191894
1043.0, 0.03394522121269394
1044.0, 0.030831174290771684
1045.0, 0.038681048632253044
1046.0, 0.04043512100672824
1047.0, 0.044180141361507184
1048.0, 0.03788250024464232
1049.0, 0.0351859752970161
1050.0, 0.04445329824377947
1051.0, 0.04780669671577026
1052.0, 0.04125480658625727
1053.0, 0.041659169432822316
1054.0, 0.043878471977817836
1055.0, 0.05028543687130752
1056.0, 0.05633851451908133
1057.0, 0.045940551636356894
1058.0, 0.04679055447784961
1059.0, 0.04849973912452962
1060.0, 0.04408768980606303
1061.0, 0.042091205106808055
1062.0, 0.04815863885956952
1063.0, 0.04781941627401873
1064.0, 0.046467317102770904
1065.0, 0.047824142273218885
1066.0, 0.04631822749602425
1067.0, 0.04239588037346894
1068.0, 0.046471753520398826
1069.0, 0.04493634395304687
1070.0, 0.0403615727587033
1071.0, 0.03895288448114572
1072.0, 0.0367642409565819
1073.0, 0.03514850589223063
1074.0, 0.03586648216673349
1075.0, 0.04123058734880884
1076.0, 0.042684666916766686
1077.0, 0.034494006041834044
1078.0, 0.03305047514088346
1079.0, 0.0530136067434034
1080.0, 0.03375793570405174
1081.0, 0.03661986915485796
1082.0, 0.038416686537518334
1083.0, 0.03376279664479349
1084.0, 0.03294956183080555
1085.0, 0.0349939211339896
1086.0, 0.0368831227513282
1087.0, 0.036191770965419215
1088.0, 0.035032656247763035
1089.0, 0.03655602171939476
1090.0, 0.035889222855469846
1091.0, 0.03717783863111315
1092.0, 0.03436370624460456
1093.0, 0.033290571907701856
1094.0, 0.03092426404327688
1095.0, 0.03135545430976752
1096.0, 0.025311230750227065
1097.0, 0.026824822595574522
1098.0, 0.029272731127800922
1099.0, 0.026495583365903238
1100.0, 0.03285580771238402
1101.0, 0.03700316852181303
1102.0, 0.03915177640214968
1103.0, 0.03280834158214864
1104.0, 0.03975850919655802
1105.0, 0.032781962854984456
1106.0, 0.03751563293032971
1107.0, 0.041311378238771145
1108.0, 0.03217964730781528
1109.0, 0.028746119766335697
1110.0, 0.03473585188367506
1111.0, 0.029498123079242614
1112.0, 0.02447292280477955
1113.0, 0.03347800937090901
1114.0, 0.029943017802664892
1115.0, 0.026504069580398595
1116.0, 0.02780087104229928
1117.0, 0.03123942394347145
1118.0, 0.031977758894421685
1119.0, 0.029768727228965324
1120.0, 0.03232741254120542
1121.0, 0.037794330987351334
1122.0, 0.03761972308692482
1123.0, 0.0329378106246242
1124.0, 0.025878234929852167
1125.0, 0.03487031532611708
1126.0, 0.025969474285076743
1127.0, 0.02907801861128193
1128.0, 0.026018141483749566
1129.0, 0.017070211530149842
1130.0, 0.015286471771383432
1131.0, 0.021922821041732425
1132.0, 0.020543404358587522
1133.0, 0.015852807934564235
1134.0, 0.02355999368414133
1135.0, 0.020072467642448254
1136.0, 0.019232697493518636
1137.0, 0.024144289225673195
1138.0, 0.02217995682375239
1139.0, 0.024902155312552344
1140.0, 0.021250254465823185
1141.0, 0.016201034334104657
1142.0, 0.010386207618021417
1143.0, 0.013687389952936552
1144.0, 0.018675447570744637
1145.0, 0.0179500994882585
1146.0, 0.020999873411163515
1147.0, 0.01647215280642769
1148.0, 0.013747250363115254
1149.0, 0.01364634128064
1150.0, 0.014743032503963418
1151.0, 0.018419817232810595
1152.0, 0.014544415830509784
1153.0, 0.012465109766126432
1154.0, 0.010145408783652296
1155.0, 0.013842288656347814
1156.0, 0.01954422115347133
1157.0, 0.019224662705823778
1158.0, 0.016682857138323508
1159.0, 0.008016526054617073
1160.0, 0.0045373894058938985
1161.0, 0.005080524058102129
1162.0, 0.008943834730994665
1163.0, 0.010296791040677948
1164.0, 0.015889397168504217
1165.0, 0.012704951064841569
1166.0, 0.011059883008219456
1167.0, 0.00937968308786991
1168.0, 0.007378854382055167
1169.0, 0.0076732086156693505
1170.0, 0.007773885681248366
1171.0, 0.010829461843830459
1172.0, 0.008783127042943598
1173.0, 0.0013334716389936207
1174.0, 0.0071217024346656235
1175.0, 0.006145888528117543
1176.0, 0.0030659995374048704
1177.0, 0.005078598661468623
1178.0, 0.009781366987235703
1179.0, 0.008739116739070713
1180.0, 0.006812258225656307
1181.0, 0.010115823614990294
1182.0, 0.009867631103907653
1183.0, 0.0006164864857076665
1184.0, 0.0017806275309158578
1185.0, 0.005093581844185285
1186.0, 0.014536543482180087
1187.0, 0.00679556638782982
1188.0, 0.0033597138299257894
1189.0, 0.004822034709309106
1190.0, 0.008606405772553498
1191.0, 0.007421048443738912
1192.0, 0.00542630866348808
1193.0, 0.0033800050168223583
1194.0, 0.0010867337803614557
1195.0, 0.0022832716116043543
1196.0, 0.0027859192515112302
1197.0, 0.007014911090231367
1198.0, 0.005454431112953694
1199.0, 0.004457295577595744
1200.0, 0.008444583425987971
1201.0, 0.002063244071188383
1202.0, 0.000633586991582575
1203.0, 0.0035983645943654646
1204.0, 0.003984577054825822
1205.0, 0.007725424562130438
1206.0, 0.007791611698483046
1207.0, 0.005943300375292884
1208.0, 0.012810481233317565
1209.0, 0.00456443243471748
1210.0, 0.006850997918191174
1211.0, 0.005126703329117159
1212.0, 0.0027122495615886383
1213.0, 0.0034676887408487773
1214.0, 0.003014562438910512
1215.0, 0.002531841906597025
1216.0, 0.004227949691390394
1217.0, 0.004988149028553692
1218.0, 0.006523522190110896
1219.0, 0.0071884233602296545
1220.0, 0.007238805564357694
1221.0, 0.009784087409046944
1222.0, 0.009231586251951078
1223.0, 0.0062011186524165395
1224.0, 0.0031059711019223615
1225.0, 0.0031475143008293472
1226.0, 0.009358948848108192
1227.0, 0.003501970577534073
1228.0, 0.008412711438287212
1229.0, 0.007410024203751225
1230.0, 0.008663487587567412
1231.0, 0.006740947377796746
1232.0, 0.002669161927675777
1233.0, 0.0024581573826998188
1234.0, 0.005690712512657579
1235.0, 0.008651740983498291
1236.0, 0.0063849846174325875
1237.0, 0.004825000595264222
1238.0, 0.0008233850580017157
1239.0, 0.012450301867301198
1240.0, 0.0019769324963306396
1241.0, 0.005622217602441044
1242.0, 0.002531178420739041
1243.0, 0.007278669808106502
1244.0, 0.010704452017059005
1245.0, 0.011792298511533753
1246.0, 0.010914552719547138
1247.0, 0.006868656469813779
1248.0, 0.006757393204355576
1249.0, 0.01209544819842118
1250.0, 0.007517686768491067
1251.0, 0.011445280853874654
1252.0, 0.007497081769805141
1253.0, 0.012366817524169276
1254.0, 0.012632577969862944
1255.0, 0.008967512559803586
1256.0, 0.00848858057018274
1257.0, 0.011563903299363826
1258.0, 0.010638079864478966
1259.0, 0.011817319540403125
1260.0, 0.013107280458362807
1261.0, 0.007590676608307235
1262.0, 0.0011964983074502528
1263.0, 0.0034942018873633665
1264.0, 0.01009035334258663
1265.0, 0.014841433952931422
1266.0, 0.011191153535048556
1267.0, 0.02089618690992318
1268.0, 0.005960016587241162
1269.0, 0.0027464355657254684
1270.0, 0.014640286870654141
1271.0, 0.008739143860462054
1272.0, 0.008265794563574961
1273.0, 0.011505743239826538
1274.0, 0.006893351511819502
1275.0, 0.0024810104099933874
1276.0, 0.00823079373942571
1277.0, 0.013712143982709013
1278.0, 0.010771638695028812
1279.0, 0.01234872410751197
1280.0, 0.0018478551182816154
1281.0, 0.005347176721580658
1282.0, 0.013736955738827666
1283.0, 0.008277302739355119
1284.0, 0.01225263537272058
1285.0, 0.01189707199408482
1286.0, 0.008517745276991558
1287.0, 0.005423511421459717
1288.0, 0.0032370621729845925
1289.0, 0.007213366321245801
1290.0, 0.011003460065578815
1291.0, 0.008510576554003273
1292.0, 0.00656748782277074
1293.0, 0.006759951521174096
1294.0, 0.003852933190514311
1295.0, 0.004422311681640964
1296.0, 0.0023046017184168164
1297.0, 0.005099893543184947
1298.0, 0.004684648892136911
1299.0, 0.0008307485815862942
1300.0, 0.0007949149449197664
1301.0, 0.002370236663627332
1302.0, 0.0025002729116441378
1303.0, 0.0020428454885607233
1304.0, 0.003300388252023524
1305.0, 0.009867580934270937
1306.0, 0.00971328931671957
1307.0, 0.004068187413456007
1308.0, 0.007094246151752255
1309.0, 0.0033576081478756295
1310.0, 0.0036913907242238134
1311.0, 0.004775911607214557
1312.0, 0.0016618908980821977
1313.0, 0.009085975687484033
1314.0, 0.01672280434099332
1315.0, 0.009724600967476899
1316.0, 0.005315376529272693
1317.0, 0.016568876078111465
1318.0, 0.007596916192141369
1319.0, 0.007756243992879602
1320.0, 0.009112871103403296
1321.0, 0.009035203701208826
1322.0, 0.008342973777676566
1323.0, 0.003720703432355775
1324.0, 0.004039502750230841
1325.0, 0.005538133935021954
1326.0, 0.0067814176250704915
1327.0, 0.014834015857485398
1328.0, 0.015890915839857654
1329.0, 0.00865973970997658
1330.0, 0.008249860495367838
1331.0, 0.001289921532398504
1332.0, 0.008099291047594053
1333.0, 0.004868039790483489
1334.0, 0.0017952973407794103
1335.0, 0.005010151347786705
1336.0, 0.00569375503781646
1337.0, 0.008383094561202932
1338.0, 0.007942150828623745
1339.0, 0.004970698515583506
1340.0, 0.005801393339757738
1341.0, 0.006754806136282298
1342.0, 0.012484536247998019
1343.0, 0.004694251385839818
1344.0, 0.013640899914171695
1345.0, 0.013848008077556654
1346.0, 0.012340245550497689
1347.0, 0.01964872042931868
1348.0, 0.01278335318845562
1349.0, 0.016612954966511197
1350.0, 0.011177554708698273
1351.0, 0.009916165935233066
1352.0, 0.005145430170202213
1353.0, 0.008180459019153017
1354.0, 0.0058600716898593915
1355.0, 0.00832348400541229
1356.0, 0.014456985800702852
1357.0, 0.009966803254813538
1358.0, 0.007170631896466902
1359.0, 0.009686226169891274
1360.0, 0.015172694924358297
1361.0, 0.004175184460648457
1362.0, 0.010762269765148082
1363.0, 0.0028123342351796987
1364.0, 0.009066477045604161
1365.0, 0.011221493313882403
1366.0, 0.009507493610252275
1367.0, 0.020653514477959142
1368.0, 0.008588674116695828
1369.0, 0.011319113376591819
1370.0, 0.015618244957797334
1371.0, 0.008367234025270407
1372.0, 0.007076833509391217
1373.0, 0.009567994362690454
1374.0, 0.0060636355367909
1375.0, 0.007311402963395582
1376.0, 0.01259146610297448
1377.0, 0.010368456138571451
1378.0, 0.01603500907502536
1379.0, 0.014161096333945255
1380.0, 0.00633819479359745
1381.0, 0.008073978129027375
1382.0, 0.014700273318741847
1383.0, 0.0075525983751987495
1384.0, 0.009273542635511813
1385.0, 0.014920290144889811
1386.0, 0.010721156526394047
1387.0, 0.008148680275578215
1388.0, 0.010331775452033542
1389.0, 0.011361847849256751
1390.0, 0.007902836520050922
1391.0, 0.007119933613642332
1392.0, 0.0069508274602210545
1393.0, 0.005096663742553456
1394.0, 0.004271245916502224
1395.0, 0.002857549467543898
1396.0, 0.004470138712616466
1397.0, 0.009126669305974486
1398.0, 0.00277595166252063
1399.0, 0.006856028754014167
1400.0, 0.011369314921611117
1401.0, 0.005438836146124734
1402.0, 0.0025235390390123133
1403.0, 0.002375369111148466
1404.0, 0.018121957641975224
1405.0, 0.01638152327491372
1406.0, 0.016296294607448844
1407.0, 0.017296668216142792
1408.0, 0.013857947444356799
1409.0, 0.019447834368771035
1410.0, 0.018278974821552788
1411.0, 0.017270911321178223
1412.0, 0.016264781944996375
1413.0, 0.011713683072662243
1414.0, 0.014318260303662414
1415.0, 0.014686510742670668
1416.0, 0.004538476843512914
1417.0, 0.008303421352938527
1418.0, 0.01566444506225731
1419.0, 0.0012684224095127854
1420.0, 0.0015815731357755871
1421.0, 0.013967053397582866
1422.0, 0.011834735747770107
1423.0, 0.012009316888247832
1424.0, 0.020926218853297304
1425.0, 0.0065342843148160626
1426.0, 0.010136571052780288
1427.0, 0.00710934983303098
1428.0, 0.00393334288218451
1429.0, 0.010048905041567012
1430.0, 0.013848435225260445
1431.0, 0.006295545527141357
1432.0, 0.007854110249582581
1433.0, 0.008445386362475285
1434.0, 0.004362037002242746
1435.0, 0.010933925855629259
1436.0, 0.018037573095647033
1437.0, 0.01472187444903893
1438.0, 0.007942925385943267
1439.0, 0.010391749224650044
1440.0, 0.012507489956661587
1441.0, 0.011286643302363966
1442.0, 0.006744795245714469
1443.0, 0.006702857866758274
1444.0, 0.014859984208952171
1445.0, 0.01091065105067118
1446.0, 0.01342280563244194
1447.0, 0.015414065032508535
1448.0, 0.01530384560064044
1449.0, 0.005209601913691522
1450.0, 0.006774795653842699
1451.0, 0.00452781535784999
1452.0, 0.008717309307571603
1453.0, 0.015114038705875252
1454.0, 0.015175573464868693
1455.0, 0.009585839243735378
1456.0, 0.009115897356594927
1457.0, 0.008933962519673174
1458.0, 0.006098660765511328
1459.0, 0.006477461728765632
1460.0, 0.004046110546932101
1461.0, 0.008428928099404705
1462.0, 0.011893787684752558
1463.0, 0.009352040622545951
1464.0, 0.010471334025197796
1465.0, 0.004429753390464712
1466.0, 0.005198604768978772
1467.0, 0.006166042196100183
1468.0, 0.005356460634937719
1469.0, 0.011920407587577644
1470.0, 0.017208878793134836
1471.0, 0.012562762895887265
1472.0, 0.012289885502306714
1473.0, 0.003917077831132515
1474.0, 0.008816760968328948
1475.0, 0.017671275796771784
1476.0, 0.015059099108033403
1477.0, 0.007212901610342098
1478.0, 0.014530372094252644
1479.0, 0.019759343504515973
1480.0, 0.019494002378649337
1481.0, 0.019988852199103322
1482.0, 0.014759851965939269
1483.0, 0.006934173097010695
1484.0, 0.007364096591918381
1485.0, 0.013036747286122901
1486.0, 0.011668545876716419
1487.0, 0.01578587787543842
1488.0, 0.01996311362577183
1489.0, 0.017328502240110066
1490.0, 0.010451980533756712
1491.0, 0.0031710106084058684
1492.0, 0.007725194893056277
1493.0, 0.012122825189929153
1494.0, 0.013137644901006643
1495.0, 0.02255992847576783
1496.0, 0.015687438851406277
1497.0, 0.012853976906272352
1498.0, 0.008616864623133387
1499.0, 0.012124083324184316
1500.0, 0.012468913959049628
1501.0, 0.010332787013979543
1502.0, 0.01206277069167077
1503.0, 0.012744035912771583
1504.0, 0.015168512305009296
1505.0, 0.016170351967632834
1506.0, 0.0139520874005581
1507.0, 0.013746499786667515
1508.0, 0.019630101990013755
1509.0, 0.021682864229655614
1510.0, 0.018559425449316578
1511.0, 0.01691568371781055
1512.0, 0.017394729715961735
1513.0, 0.019900232281557795
1514.0, 0.008250702129258668
1515.0, 0.014477525383185148
1516.0, 0.024677654006929967
1517.0, 0.018788710691188856
1518.0, 0.014131792273321505
1519.0, 0.013786353401261792
1520.0, 0.012185520253548238
1521.0, 0.014049401981014148
1522.0, 0.016098375693256485
1523.0, 0.0099030754586797
1524.0, 0.015754673740607947
1525.0, 0.01433502939710588
1526.0, 0.020870231897411905
1527.0, 0.014087125572008202
1528.0, 0.013634915438625314
1529.0, 0.022585164992730243
1530.0, 0.021409781758350257
1531.0, 0.014717350878502955
1532.0, 0.013964995199662818
1533.0, 0.013563182113418207
1534.0, 0.009446945821201001
1535.0, 0.012379649390705362
1536.0, 0.009039630047088312
1537.0, 0.003483686077641428
1538.0, 0.009177416532390697
1539.0, 0.016142512821411152
1540.0, 0.011961719960008103
1541.0, 0.007059315645874977
1542.0, 0.01302041586189024
1543.0, 0.01983505865599004
1544.0, 0.017435768330084665
1545.0, 0.009596252714539625
1546.0, 0.011382047689002658
1547.0, 0.014722659183759894
1548.0, 0.008989340916453271
1549.0, 0.01744203279594719
1550.0, 0.019228965316651428
1551.0, 0.03495504141545413
1552.0, 0.040859680117933575
1553.0, 0.03221181756166226
1554.0, 0.05606363283889662
1555.0, 0.03178414095207658
1556.0, 0.02768098653989881
1557.0, 0.01736832192135462
1558.0, 0.008150952406265177
1559.0, 0.001975846925055496
1560.0, 0.00029949834949473755
1561.0, 0.000638964458055533
1562.0, 0.0019007734457439419
1563.0, 0.008167459063311577
1564.0, 0.009764815060948015
1565.0, 0.0037919109249230994
1566.0, 0.009065765794274287
1567.0, 0.006409188582476847
1568.0, 0.012254260875417838
1569.0, 0.007766062192318815
1570.0, 0.001231389054129308
1571.0, 0.0026748508863722667
1572.0, 0.0018861020705172227
1573, 0.0
1574, 0.0
1575, 0.0
1576, 0.0
1577, 0.0
1578, 0.0
1579, 0.0
1580, 0.0
1581, 0.0
1582, 0.0
1583, 0.0
1584, 0.0
1585, 0.0
1586, 0.0
1587, 0.0
1588, 0.0
1589, 0.0
1590, 0.0
1591, 0.0
1592, 0.0
1593, 0.0
1594, 0.0
1595, 0.0
1596, 0.0
1597, 0.0
1598, 0.0
1599, 0.0
