30, 0.0
31, 0.0
32, 0.0
33, 0.0
34, 0.0
35, 0.0
36, 0.0
37, 0.0
38, 0.0
39, 0.0
40, 0.0
41, 0.0
42, 0.0
43, 0.0
44, 0.0
45, 0.0
46, 0.0
47, 0.0
48, 0.0
49, 0.0
50, 0.0
51, 0.0
52, 0.0
53, 0.0
54, 0.0
55.0, 0.000541567534637899
56.0, 0.005879424483598085
57.0, 0.020389789404170713
58.0, 0.011992821568557953
59.0, 0.007870089096151424
60.0, 0.008234909573418955
61.0, 0.0048762099711338516
62.0, 0.0029344993625183115
63.0, 0.0022395215288047265
64.0, 0.0029946148468344373
65.0, 0.0023885496089789122
66.0, 0.0032242372259027254
67.0, 0.0058139143658219984
68.0, 0.011159226819116354
69.0, 0.01842807687804807
70.0, 0.027079350778989694
71.0, 0.03709407716354905
72.0, 0.049748046134359084
73.0, 0.058497934303364946
74.0, 0.06524224878974931
75.0, 0.07854895113693282
76.0, 0.0951105188018757
77.0, 0.10765734217814789
78.0, 0.11144121993029317
79.0, 0.12158524425101634
80.0, 0.12982906135236355
81.0, 0.14084807678452377
82.0, 0.17206017227201623
83.0, 0.17858114345145523
84.0, 0.1871048836479746
85.0, 0.20976330543976188
86.0, 0.2006551761510837
87.0, 0.19640881671332003
88.0, 0.19705719089084522
89.0, 0.2032505360345996
90.0, 0.22567202692258903
91.0, 0.2527314612489081
92.0, 0.2800553405429848
93.0, 0.26549105078008267
94.0, 0.26475866329291237
95.0, 0.2693032552961194
96.0, 0.26384344936808757
97.0, 0.25821767353841374
98.0, 0.2605000937401212
99.0, 0.2725222305738158
100.0, 0.28234608282408585
101.0, 0.28520601997667105
102.0, 0.2935499662307435
103.0, 0.3266712398628252
104.0, 0.30722727369825936
105.0, 0.3032355980036757
106.0, 0.3251584544687993
107.0, 0.3619637376714063
108.0, 0.35661824302150713
109.0, 0.33494438916220204
110.0, 0.31715323941401485
111.0, 0.305858999785977
112.0, 0.2940363614097748
113.0, 0.28378209982633906
114.0, 0.2898136110119359
115.0, 0.30309471116756626
116.0, 0.31390091955081756
117.0, 0.3157648433518186
118.0, 0.3216904727921587
119.0, 0.32668169884894044
120.0, 0.3278066126856797
121.0, 0.31557026669544125
122.0, 0.31633581089312696
123.0, 0.3137046275811145
124.0, 0.301168890124329
125.0, 0.27981280829252786
126.0, 0.2681295320455083
127.0, 0.2646925604396894
128.0, 0.2693673879563596
129.0, 0.2826282892393265
130.0, 0.29363773374779234
131.0, 0.30071884997661674
132.0, 0.31174495175479805
133.0, 0.31546873620244154
134.0, 0.3191420357618477
135.0, 0.33017588055587505
136.0, 0.33687717243765414
137.0, 0.35064081369109945
138.0, 0.36967143101204936
139.0, 0.3806497359911297
140.0, 0.3926884780649484
141.0, 0.39777833875769525
142.0, 0.39045671266305104
143.0, 0.3874495153541708
144.0, 0.3815681699004534
145.0, 0.3756677367017364
146.0, 0.3769795198983194
147.0, 0.371125308940924
148.0, 0.36290226306431383
149.0, 0.3532652487562506
150.0, 0.3386388472016739
151.0, 0.32849508538944316
152.0, 0.3211732153162188
153.0, 0.3154353458734083
154.0, 0.31555391616430356
155.0, 0.314374390635439
156.0, 0.3102172335808616
157.0, 0.298467524463583
158.0, 0.29309409039594886
159.0, 0.2894972089863954
160.0, 0.28536397444878364
161.0, 0.27249246062905524
162.0, 0.27137527807793627
163.0, 0.2742923899413521
164.0, 0.2639994716306357
165.0, 0.2531576168437956
166.0, 0.24402236117952045
167.0, 0.23741347944077063
168.0, 0.23536908264617407
169.0, 0.23240569823067367
170.0, 0.23221906254656163
171.0, 0.23909030781308613
172.0, 0.24080218627570513
173.0, 0.24550502994538254
174.0, 0.25239399849190575
175.0, 0.2562842428915596
176.0, 0.26420359791159675
177.0, 0.2744302511888496
178.0, 0.2862533818804099
179.0, 0.29119081908585476
180.0, 0.30691927132387853
181.0, 0.32572124393749957
182.0, 0.3366870153672554
183.0, 0.3455147392623717
184.0, 0.358907073402625
185.0, 0.3769326200115056
186.0, 0.39446183807539636
187.0, 0.40349092738951825
188.0, 0.4105173503230389
189.0, 0.4189839896683039
190.0, 0.42174514188681933
191.0, 0.4294452347659192
192.0, 0.43944984751447735
193.0, 0.4467115697860559
194.0, 0.4551989781723466
195.0, 0.46878059339337846
196.0, 0.4858962592171548
197.0, 0.48748963584711325
198.0, 0.4992285510466665
199.0, 0.5114731972831185
200.0, 0.5174553147665528
201.0, 0.5340401485415425
202.0, 0.5446849891501633
203.0, 0.5519458050843637
204.0, 0.5623443313519461
205.0, 0.5864202881484754
206.0, 0.6182362082817989
207.0, 0.6562398477568724
208.0, 0.6968344953944303
209.0, 0.7278190776548987
210.0, 0.762050655970602
211.0, 0.810021069069916
212.0, 0.8404388580725082
213.0, 0.8755567662903259
214.0, 0.9207637943852333
215.0, 0.9891298044066028
216.0, 0.9933940053347111
217.0, 0.9920829300611613
218.0, 0.9957584838658459
219.0, 0.9752273673137425
220.0, 0.9360492585653201
221.0, 0.8815935651166812
222.0, 0.8120354686863902
223.0, 0.7347353108665359
224.0, 0.6640859544174816
225.0, 0.597712067297135
226.0, 0.5303110695062073
227.0, 0.4698544583405988
228.0, 0.41893182411792923
229.0, 0.37806143516866486
230.0, 0.3460362424128689
231.0, 0.31398865931304926
232.0, 0.28632391036659766
233.0, 0.26626512464269747
234.0, 0.2459517475663498
235.0, 0.22897610734493068
236.0, 0.21405976074727495
237.0, 0.19925792191460567
238.0, 0.18105521870177815
239.0, 0.1669245689768079
240.0, 0.15746394950851345
241.0, 0.14994638916427677
242.0, 0.13581354985824423
243.0, 0.12224885618363808
244.0, 0.11265111675967979
245.0, 0.10686801409783218
246.0, 0.09784389229062325
247.0, 0.0884387039586408
248.0, 0.08217297103423049
249.0, 0.07424720138897616
250.0, 0.06924335298255174
251.0, 0.06598825177644015
252.0, 0.059459254154695884
253.0, 0.062175634724485875
254.0, 0.06363284783109999
255.0, 0.060429502998729165
256.0, 0.05132141995113313
257.0, 0.05351518243677524
258.0, 0.057545040142841175
259.0, 0.056292535041620635
260.0, 0.05873621244626493
261.0, 0.04735635334874878
262.0, 0.031019793648630025
263.0, 0.02713969131238126
264.0, 0.02229731789613441
265.0, 0.02206544615200452
266.0, 0.024982265991258384
267.0, 0.01913941908287526
268.0, 0.01735270104323446
269.0, 0.018054346994110147
270.0, 0.020232020759739434
271.0, 0.013285990359551296
272.0, 0.012138303614943082
273.0, 0.014273109331744681
274.0, 0.017596012441428152
275.0, 0.01587026859108534
276.0, 0.014009181381249616
277.0, 0.013016107243186125
278.0, 0.014758875510474636
279.0, 0.016052429431100593
280.0, 0.015081786503909768
281.0, 0.012379082193254157
282.0, 0.013454133913831004
283.0, 0.014089447639257239
284.0, 0.01428186771837192
285.0, 0.0140959479586411
286.0, 0.0161335303446647
287.0, 0.013483043369104619
288.0, 0.011191023587953111
289.0, 0.01476695425075317
290.0, 0.018297659424837194
291.0, 0.01733471067911205
292.0, 0.014912422943029769
293.0, 0.018587331690592956
294.0, 0.016886509513408064
295.0, 0.017544116621973093
296.0, 0.021111648207857686
297.0, 0.022476979723100414
298.0, 0.022388202315713923
299.0, 0.021837086016464665
300.0, 0.021417769652304176
301.0, 0.02436960496511202
302.0, 0.026089555050814933
303.0, 0.02674958520528613
304.0, 0.026380202824213484
305.0, 0.01880920039639316
306.0, 0.019495914314697143
307.0, 0.02376366050380089
308.0, 0.022620489448600557
309.0, 0.01941592647913987
310.0, 0.019395195282315945
311.0, 0.021327693618145325
312.0, 0.01815886816998801
313.0, 0.016833043109360204
314.0, 0.015072084489494911
315.0, 0.012581281032897122
316.0, 0.012844040759924916
317.0, 0.014938995683011241
318.0, 0.015563187693790224
319.0, 0.012810241203895166
320.0, 0.013782343515764033
321.0, 0.01263967753576636
322.0, 0.01116738472842709
323.0, 0.011366637010417376
324.0, 0.006894178505585397
325.0, 0.007598209874274272
326.0, 0.009285686237211689
327.0, 0.001997711705808255
328.0, 0.002179332385202447
329.0, 0.0027001936946131912
330.0, 0.0024830402372999147
331.0, 0.0017278362394595379
332.0, 0.004150555100726826
333.0, 0.006604704221432543
334.0, 0.00811528034995569
335.0, 0.008844654323808368
336.0, 0.005769925465635176
337.0, 0.0036677301002354524
338.0, 0.005125633168812109
339.0, 0.005136942041717061
340.0, 0.0077711296962824855
341.0, 0.009294080317058178
342.0, 0.005877003799825092
343.0, 0.0059771863429902644
344.0, 0.009701229532740463
345.0, 0.013125121727879668
346.0, 0.009475268268727174
347.0, 0.00999620369139181
348.0, 0.0107322163974876
349.0, 0.010957485578701858
350.0, 0.009832775879067704
351.0, 0.010104340554254446
352.0, 0.00928803533463162
353.0, 0.007703030496514995
354.0, 0.009734086990832147
355.0, 0.00839957501315343
356.0, 0.005642188095905084
357.0, 0.0024554472333605604
358.0, 0.0019725911965435506
359.0, 0.004766624959240729
360.0, 0.006975606834749314
361.0, 0.006248775253511177
362.0, 0.003700763951194539
363.0, 0.003389338487165396
364.0, 0.0031556033645586275
365.0, 0.0009147503774369265
366.0, 0.003979501233608228
367.0, 0.003922773083220848
368.0, 0.0021370840214123875
369.0, 0.0008707954416909401
370.0, 0.003917240316494066
371.0, 0.006441335015961861
372.0, 0.007567889197177925
373.0, 0.006087264839463837
374.0, 0.010245207645990944
375.0, 0.013831320562663818
376.0, 0.01631353510145745
377.0, 0.019267361851732324
378.0, 0.018897925470372702
379.0, 0.02137184380862149
380.0, 0.02665026363744595
381.0, 0.0256110935897234
382.0, 0.026551777755606562
383.0, 0.02892852681894666
384.0, 0.03225524868644579
385.0, 0.03354406231194399
386.0, 0.03631617529126089
387.0, 0.04013289914089364
388.0, 0.04457213319153618
389.0, 0.04529246973276826
390.0, 0.047198806868720126
391.0, 0.049600693800755866
392.0, 0.05200659644116072
393.0, 0.057245504881212744
394.0, 0.06213391515184002
395.0, 0.06692603061875754
396.0, 0.07189964160576366
397.0, 0.07239440523591333
398.0, 0.07900044935844787
399.0, 0.08675782253349808
400.0, 0.08771736241552587
401.0, 0.09340431482708028
402.0, 0.09447218748236891
403.0, 0.09413964111500425
404.0, 0.10026791008642355
405.0, 0.105980422630675
406.0, 0.10980109777417875
407.0, 0.1123021346027409
408.0, 0.11542685746027294
409.0, 0.11750261166822334
410.0, 0.11816008662356783
411.0, 0.11806371422118021
412.0, 0.11978479428381146
413.0, 0.11820252426130334
414.0, 0.11630285388551022
415.0, 0.11472003891468603
416.0, 0.11296926295188522
417.0, 0.11121875202708935
418.0, 0.10695399975545447
419.0, 0.10063002062662851
420.0, 0.10038891624712523
421.0, 0.10239267370053451
422.0, 0.0987455028299614
423.0, 0.08827655516777025
424.0, 0.08949723529258741
425.0, 0.08784128823570879
426.0, 0.08393724271591656
427.0, 0.07883537866133274
428.0, 0.08215241343183853
429.0, 0.07706829072275313
430.0, 0.07161890403717648
431.0, 0.07016947236609195
432.0, 0.06459136016623762
433.0, 0.06498879862017531
434.0, 0.06534897710451848
435.0, 0.06143860731951061
436.0, 0.05473346653662439
437.0, 0.058229891101938436
438.0, 0.06540987474910082
439.0, 0.07066642421482341
440.0, 0.05265561428979815
441.0, 0.0424892221534014
442.0, 0.03806612035771732
443.0, 0.037512139564796675
444.0, 0.03393442278748751
445.0, 0.03552994719834291
446.0, 0.037077869082922287
447.0, 0.03280082804462018
448.0, 0.03544577714611985
449.0, 0.03485601940817456
450.0, 0.030984567592617338
451.0, 0.02388170742151567
452.0, 0.028112402081887092
453.0, 0.026647132055905385
454.0, 0.02422750736097054
455.0, 0.027875769250561344
456.0, 0.027012881991683724
457.0, 0.027239036932709276
458.0, 0.026847896151453266
459.0, 0.02299603668246971
460.0, 0.025575843726622437
461.0, 0.027581975112054888
462.0, 0.026872858525550124
463.0, 0.020611105659738803
464.0, 0.02870302289805888
465.0, 0.033314097723371565
466.0, 0.032952525372867456
467.0, 0.0267852476979593
468.0, 0.0330581354846276
469.0, 0.03485272176157637
470.0, 0.03342047831351689
471.0, 0.032595630630381935
472.0, 0.03581302257878141
473.0, 0.03531510519955396
474.0, 0.03495150012455729
475.0, 0.04212438107510163
476.0, 0.03735853519796717
477.0, 0.03785418588620318
478.0, 0.041345986934436293
479.0, 0.04203581614482846
480.0, 0.04419587586554702
481.0, 0.044855811278764084
482.0, 0.044541556838474355
483.0, 0.044441536024319786
484.0, 0.04397123426974174
485.0, 0.042372295799749105
486.0, 0.04097495868497279
487.0, 0.04200172831803529
488.0, 0.03977935282518787
489.0, 0.039344500556752586
490.0, 0.03879426597195761
491.0, 0.03469940291682441
492.0, 0.03541060627360907
493.0, 0.03366252204485848
494.0, 0.03177703855260851
495.0, 0.033704692789714705
496.0, 0.03129541788362346
497.0, 0.029230231533003363
498.0, 0.027282767637708455
499.0, 0.024855037875994003
500.0, 0.023942085099643188
501.0, 0.024079835676901144
502.0, 0.02483587472637709
503.0, 0.02570492018623822
504.0, 0.026168728422695617
505.0, 0.025206478785788775
506.0, 0.02352269460899561
507.0, 0.0219200579030942
508.0, 0.019692494928373112
509.0, 0.017564214560736088
510.0, 0.015610425414192733
511.0, 0.013896748727489578
512.0, 0.012137723186770064
513.0, 0.011108729015802515
514.0, 0.010223967726301523
515.0, 0.009001709348693328
516.0, 0.008620592741997758
517.0, 0.007835624785539824
518.0, 0.007625615717738052
519.0, 0.008511094375887936
520.0, 0.0060381167053686026
521.0, 0.005441829158213331
522.0, 0.005696184169625795
523.0, 0.006044665367536301
524.0, 0.005105304243802937
525.0, 0.005620822851180521
526.0, 0.005783958308102246
527.0, 0.004574033001940552
528.0, 0.0017009898585511253
529.0, 0.003775478538221521
530.0, 0.004329944432028222
531.0, 0.0020341394353603666
532.0, 0.007577377409720862
533.0, 0.005331896037471818
534.0, 0.0019786133287733507
535.0, 0.00027460204304464986
536.0, 0.0019570854351821003
537.0, 0.0014453511153357732
538.0, 0.0011333111279806518
539.0, 0.0014245267633936462
540.0, 0.0012244085309878858
541.0, 0.004238109437753159
542.0, 0.004607026020367453
543.0, 0.00297917769495212
544.0, 0.005044386818665992
545.0, 0.006569765498336975
546.0, 0.004379450507828841
547.0, 0.0006724523405491046
548.0, 0.001519499160454775
549.0, 0.0037856543405576644
550.0, 0.0034683352460013112
551.0, 0.0020287570542070347
552.0, 0.0026873759577105104
553.0, 0.0024331791908902573
554.0, 0.002286444798477746
555.0, 0.0018769272038787845
556.0, 0.0006479778408835513
557.0, 0.001891944627273657
558.0, 0.0026840487078095394
559.0, 0.002715639292131829
560.0, 0.00183846038323661
561.0, 0.00410503999038601
562.0, 0.002992643518423781
563.0, 0.0031983863191460005
564.0, 0.007220203136235106
565.0, 0.001605510201885544
566.0, 0.0024546156998942674
567.0, 0.006081695320772828
568.0, 0.009529161514920687
569.0, 0.00516747386195653
570.0, 0.005985151209229761
571.0, 0.008961191027670054
572.0, 0.01219503987289397
573.0, 0.012024103301699396
574.0, 0.012148988320766
575.0, 0.013865690757286265
576.0, 0.016634723647978734
577.0, 0.017723078727002545
578.0, 0.01571653859205295
579.0, 0.015535259099399627
580.0, 0.01658844056465859
581.0, 0.015947959099371772
582.0, 0.01697888148617974
583.0, 0.01793090701949033
584.0, 0.01994712180428746
585.0, 0.024877416395698848
586.0, 0.020917800313390727
587.0, 0.024685168047289624
588.0, 0.02937409616812038
589.0, 0.028080388944949186
590.0, 0.031210837398175775
591.0, 0.03079934254512879
592.0, 0.03101686998798411
593.0, 0.03400319675048693
594.0, 0.032928742466793615
595.0, 0.037715695552084094
596.0, 0.04060367030714915
597.0, 0.03918363007889692
598.0, 0.03872767608583394
599.0, 0.03981882397722717
600.0, 0.045870717224990684
601.0, 0.05342678639933785
602.0, 0.048762639688575186
603.0, 0.05410260158486834
604.0, 0.05840390907095058
605.0, 0.06045109300613958
606.0, 0.06121651604140155
607.0, 0.0679408289261255
608.0, 0.07405743686776668
609.0, 0.07907385706988136
610.0, 0.08297360297795467
611.0, 0.09076678386337246
612.0, 0.09958599306154618
613.0, 0.10531017329101036
614.0, 0.10603602381081231
615.0, 0.1182465068189836
616.0, 0.12425580211118978
617.0, 0.1323962979718808
618.0, 0.14489629452529457
619.0, 0.15180505173290118
620.0, 0.15662893296009187
621.0, 0.16126082379455095
622.0, 0.16478352412270614
623.0, 0.16282616828589255
624.0, 0.17521335063647317
625.0, 0.17631175688612763
626.0, 0.17374691380032037
627.0, 0.18707194008535516
628.0, 0.17667309354161373
629.0, 0.17398643806050057
630.0, 0.17365465478573597
631.0, 0.16874577450755018
632.0, 0.16426216855079043
633.0, 0.16659329015861873
634.0, 0.16360535972681617
635.0, 0.1516263550216212
636.0, 0.16001190480826277
637.0, 0.1543402355311848
638.0, 0.1504071131557267
639.0, 0.15159778044465846
640.0, 0.15037629233422062
641.0, 0.14638813385390145
642.0, 0.14777272577764183
643.0, 0.14868436590749898
644.0, 0.13517714137239945
645.0, 0.1318977560335803
646.0, 0.1279974238115816
647.0, 0.1284025097777685
648.0, 0.137821858861949
649.0, 0.11849436601956567
650.0, 0.10934176130228783
651.0, 0.106870975476836
652.0, 0.10676073279785184
653.0, 0.09435410668525367
654.0, 0.09153124145810028
655.0, 0.08700648953222274
656.0, 0.07975225375984792
657.0, 0.07810594931475034
658.0, 0.07487655775097883
659.0, 0.069039838535821
660.0, 0.06323447832068521
661.0, 0.06199778768615625
662.0, 0.05994421501701061
663.0, 0.05636021081337599
664.0, 0.05126096880114364
665.0, 0.045525565294244626
666.0, 0.050880632714370294
667.0, 0.04712690260063734
668.0, 0.04366070945467864
669.0, 0.04451169020618398
670.0, 0.047761773495442084
671.0, 0.047233105375623786
672.0, 0.046825281311999686
673.0, 0.04543767805168174
674.0, 0.03879214342967016
675.0, 0.04115061211729633
676.0, 0.03781065707866052
677.0, 0.030947867104927664
678.0, 0.02487722783564939
679.0, 0.037636670404570825
680.0, 0.03138775156597246
681.0, 0.02394455115068637
682.0, 0.024318729698776048
683.0, 0.024483776412401934
684.0, 0.03063204585125165
685.0, 0.0322433922352757
686.0, 0.029602681656786107
687.0, 0.030523553846315044
688.0, 0.03357734260943035
689.0, 0.042394686495432515
690.0, 0.04577752985215651
691.0, 0.031133610439581082
692.0, 0.0415372850223596
693.0, 0.032059400692419346
694.0, 0.022148431288356665
695.0, 0.022822182926970996
696.0, 0.028724012275078925
697.0, 0.02277762520429121
698.0, 0.01985839066816969
699.0, 0.022938903647743876
700.0, 0.02934565090723818
701.0, 0.023906144638366822
702.0, 0.02078958786393299
703.0, 0.020929847498851527
704.0, 0.02341012291050224
705.0, 0.014826726278902875
706.0, 0.018044803880659294
707.0, 0.0221706649787739
708.0, 0.02229801606865782
709.0, 0.024245252305126343
710.0, 0.01652792003026166
711.0, 0.015063974831636342
712.0, 0.018068378819311604
713.0, 0.014353006633790306
714.0, 0.015324427309173917
715.0, 0.015988234955896644
716.0, 0.01764080905871951
717.0, 0.021591106354787802
718.0, 0.026092199164338553
719.0, 0.020166909789309507
720.0, 0.015128765078236486
721.0, 0.014367055628508962
722.0, 0.012576808203501077
723.0, 0.01444234553754516
724.0, 0.013555629914760878
725.0, 0.012370046611897759
726.0, 0.01598934046856738
727.0, 0.013316250628530951
728.0, 0.016942399254563218
729.0, 0.0197387510213354
730.0, 0.017538013577282054
731.0, 0.015761767106809627
732.0, 0.015067559048928297
733.0, 0.014766513674216272
734.0, 0.0141545770259798
735.0, 0.012064775528345088
736.0, 0.011440879859517517
737.0, 0.011032030553622126
738.0, 0.020154205006020116
739.0, 0.04405337738440224
740.0, 0.031983600016983194
741.0, 0.01950398242101536
742.0, 0.021936909965709142
743.0, 0.03262095482475702
744.0, 0.007559811977930165
745.0, 0.010856514721243925
746.0, 0.013402291463321456
747.0, 0.012165141964296768
748.0, 0.00851328982926042
749.0, 0.0032233484721719773
750.0, 0.00870326521346221
751.0, 0.011155937738217995
752.0, 0.00652321055306156
753.0, 0.013124112676351348
754.0, 0.0064166496811412215
755.0, 0.006255408767991358
756.0, 0.009602932629659328
757.0, 0.004634082641719044
758.0, 0.007499855323527643
759.0, 0.011073098610151553
760.0, 0.009687221704665343
761.0, 0.002118879563213445
762.0, 0.004872913268001551
763.0, 0.004504725734882119
764.0, 0.007173532536535278
765.0, 0.010718362876052774
766.0, 0.007604768170727033
767.0, 0.010760184853546528
768.0, 0.011087483595769092
769.0, 0.0074046638350026344
770.0, 0.001115937309967448
771.0, 0.007665163669234337
772.0, 0.006910198405169192
773.0, 0.005306230119662967
774.0, 0.005510415635924388
775.0, 0.009073020962437667
776.0, 0.005927871955687353
777.0, 0.007916407305823827
778.0, 0.011778463237343006
779.0, 0.0137915217645841
780.0, 0.012468986726490059
781.0, 0.013551895851227359
782.0, 0.01343374405803318
783.0, 0.012196108721839313
784.0, 0.012758486550297342
785.0, 0.013628901897674737
786.0, 0.015419856163020143
787.0, 0.016994339953716228
788.0, 0.01714926046841366
789.0, 0.014402655712400866
790.0, 0.013023372846046908
791.0, 0.0143363332288356
792.0, 0.016997907029640887
793.0, 0.016998162034080576
794.0, 0.013058256535380246
795.0, 0.015077108732081587
796.0, 0.01784931830091544
797.0, 0.016742699082655518
798.0, 0.01403274738420907
799.0, 0.012294419653796816
800.0, 0.011230568006896802
801.0, 0.012000911614399113
802.0, 0.017073024095685462
803.0, 0.011931393600261027
804.0, 0.009581532852948776
805.0, 0.01143809235497847
806.0, 0.016062772079017802
807.0, 0.01092645047359981
808.0, 0.01299498593052263
809.0, 0.01183674058293947
810.0, 0.01011767583646872
811.0, 0.016748735858917927
812.0, 0.011255735869493773
813.0, 0.01204759767318745
814.0, 0.014040121852785697
815.0, 0.01362505239475771
816.0, 0.010010742967592044
817.0, 0.009268040669435334
818.0, 0.009333498587812955
819.0, 0.009873631994958979
820.0, 0.010815761538563465
821.0, 0.008891470464319162
822.0, 0.010653869789101753
823.0, 0.011847908592894606
824.0, 0.010818685770111186
825.0, 0.00913962424952235
826.0, 0.007007519223948766
827.0, 0.010383193306681946
828.0, 0.012671527751668351
829.0, 0.007430124222044277
830.0, 0.00968682714274543
831.0, 0.011763444357516289
832.0, 0.010737191575955497
833.0, 0.00848060992584848
834.0, 0.011594023539577369
835.0, 0.005198211549378558
836.0, 0.008807971780958958
837.0, 0.012825771341824513
838.0, 0.010740778581537581
839.0, 0.012759587505522982
840.0, 0.012152896245598356
841.0, 0.009903501733408562
842.0, 0.008275412949088424
843.0, 0.010087200525779171
844.0, 0.0022559783704101375
845.0, 0.0010850971303700133
846.0, 0.0034375828982343036
847.0, 0.005965334145748701
848.0, 0.0032858320686420727
849.0, 0.00515264077687249
850.0, 0.005937847989882102
851.0, 0.004576745245753161
852.0, 0.0011988056948548506
853.0, 0.0004651666820235506
854.0, 0.0004207295445223427
855.0, 0.0022677387945165164
856.0, 0.004566721692825888
857.0, 0.003903029283778621
858.0, 0.004399254886963396
859.0, 0.0020399574123302826
860.0, 0.001865922993702414
861.0, 0.005413052363250345
862.0, 0.006040661123664467
863.0, 0.006013965808522097
864.0, 0.003301766217255521
865.0, 0.003583532939305559
866.0, 0.011697657647259373
867.0, 0.007053562624343698
868.0, 0.004823909510969502
869.0, 0.00895186988913143
870.0, 0.01741122797339336
871.0, 0.023305045029559355
872.0, 0.006998247419959932
873.0, 0.0044182743721606224
874.0, 0.004669025210773945
875.0, 0.0027975900529406284
876.0, 0.010005743293901899
877.0, 0.006736050571847971
878.0, 0.004229389563537078
879.0, 0.004275325768391126
880.0, 0.006380415719057216
881.0, 0.0040095442683878695
882.0, 0.006252224150488598
883.0, 0.0051329250890008
884.0, 0.002228639852969137
885.0, 0.004976748746198065
886.0, 0.0014823793822501246
887.0, 0.0033556117217534913
888.0, 0.003846424515684544
889.0, 0.0019836911269512864
890.0, 0.00761479441935446
891.0, 0.007690077291538063
892.0, 0.00546693635769526
893.0, 0.004034621738654791
894.0, 0.005006490882959565
895.0, 0.002015796402903395
896.0, 0.008424835664524354
897.0, 0.006751090432937815
898.0, 0.0016624884360671515
899.0, 0.005456247076615179
900.0, 0.007130456281781697
901.0, 0.005285477046541504
902.0, 0.0048116071225091685
903.0, 0.0063522829562893575
904.0, 0.006543518172086068
905.0, 0.008895033630128796
906.0, 0.008759269599896787
907.0, 0.00926253825215999
908.0, 0.01094589269985976
909.0, 0.007004793328256834
910.0, 0.002244493866655714
911.0, 0.0016105521914745336
912.0, 0.0037601474345479342
913.0, 0.006109372523746138
914.0, 0.005162476019093447
915.0, 0.005521196478436328
916.0, 0.0038777817751035016
917.0, 0.0020736744994900866
918.0, 0.003787913644264302
919.0, 0.003742876433278179
920.0, 0.0048850285936594025
921.0, 0.004668914378960903
922.0, 0.0042492524083778726
923.0, 0.008345389368675012
924.0, 0.0029237344267216718
925.0, 0.013158945645967719
926.0, 0.024387768847920745
927.0, 0.025333939917765096
928.0, 0.00989011927131846
929.0, 0.010391191202965
930.0, 0.00988388794031015
931.0, 0.007136070486923185
932.0, 0.0036952262326283756
933.0, 0.005982021248178604
934.0, 0.006258509568414912
935.0, 0.003320127322539992
936.0, 0.002620874120413371
937.0, 0.008816580423186865
938.0, 0.004504005150041821
939.0, 0.011777733359503717
940.0, 0.010181313895346749
941.0, 0.0028195435002032017
942.0, 0.003255723620395057
943.0, 0.0049321120485914995
944.0, 0.006459954232383635
945.0, 0.007317850159056488
946.0, 0.007742116077670429
947.0, 0.008654490390897628
948.0, 0.00313096746971183
949.0, 0.003381434351583663
950.0, 0.0039702785144391595
951.0, 0.002857561650205563
952.0, 0.0030674259325645164
953.0, 0.01284462355357839
954.0, 0.009819923219417406
955.0, 0.0034352345519724275
956.0, 0.0021362033949016857
957.0, 0.008512604357150143
958.0, 0.00355043904962096
959.0, 0.007835410248039675
960.0, 0.009748259798198494
961.0, 0.0012416535388915459
962.0, 0.004243142552292294
963.0, 0.004828156287944314
964.0, 0.005705270711321538
965.0, 0.0071296121746374915
966.0, 0.008336450936547106
967.0, 0.00516654296487218
968.0, 0.011214438622608625
969.0, 0.011911926302087738
970.0, 0.007796323718206089
971.0, 0.004450864308200552
972.0, 0.0065477953938397355
973.0, 0.008932807697189881
974.0, 0.00970425869839897
975.0, 0.010428783120757259
976.0, 0.013815321333413729
977.0, 0.010465099479769424
978.0, 0.012446612262716775
979.0, 0.011359446723512643
980.0, 0.008087802657301931
981.0, 0.00945632780873896
982.0, 0.0118486486883049
983.0, 0.007508029187252628
984.0, 0.01116707475823242
985.0, 0.01796476546729272
986.0, 0.005703755703755704
987.0, 0.009974702808381242
988.0, 0.011594052847249006
989.0, 0.01009349488916376
990.0, 0.007642187759394717
991.0, 0.009529402654536456
992.0, 0.018087013767403872
993.0, 0.014723709452070993
994.0, 0.010690950183826715
995.0, 0.012395720689397927
996.0, 0.01950088452289114
997.0, 0.015628616172534585
998.0, 0.013016192339696513
999.0, 0.016030549015414956
1000.0, 0.01988871590127147
1001.0, 0.004992388274898089
1002.0, 0.0108343436177109
1003.0, 0.011180247425538596
1004.0, 0.011979889191276417
1005.0, 0.016550657823129485
1006.0, 0.020852749084592986
1007.0, 0.020033495460871346
1008.0, 0.01944179012390114
1009.0, 0.018366173548776857
1010.0, 0.01663580945096033
1011.0, 0.015849464307265228
1012.0, 0.018527749166372672
1013.0, 0.022135690134794737
1014.0, 0.022134323157086844
1015.0, 0.018852716061671503
1016.0, 0.022822163314700848
1017.0, 0.016835291775589924
1018.0, 0.023602633026514323
1019.0, 0.02657618436424355
1020.0, 0.018358105750642922
1021.0, 0.015652888418559913
1022.0, 0.025773586865595204
1023.0, 0.02509404898226393
1024.0, 0.02482677880174982
1025.0, 0.03030178909135807
1026.0, 0.03018429333556063
1027.0, 0.02368281747352208
1028.0, 0.022241843714558188
1029.0, 0.02369146522598006
1030.0, 0.024955007615921676
1031.0, 0.022961803663762572
1032.0, 0.029410041665172165
1033.0, 0.028719849067330615
1034.0, 0.026987420795723034
1035.0, 0.02861360399496747
1036.0, 0.033207068863240874
1037.0, 0.030092751041386038
1038.0, 0.02852232826499431
1039.0, 0.02833789301760191
1040.0, 0.029529754982397596
1041.0, 0.033033735541311886
1042.0, 0.04043572193744607
1043.0, 0.03472058119287401
1044.0, 0.03260047087578759
1045.0, 0.037700797936537474
1046.0, 0.03598735769742684
1047.0, 0.03422266908510397
1048.0, 0.028160329574706197
1049.0, 0.02913897949682904
1050.0, 0.038332359524590943
1051.0, 0.04613834076160911
1052.0, 0.03209638057687018
1053.0, 0.035924917483989696
1054.0, 0.04216971659951694
1055.0, 0.0435552505096768
1056.0, 0.0397243404867933
1057.0, 0.030832142240161613
1058.0, 0.03602778641863188
1059.0, 0.039134489935948924
1060.0, 0.038528731228316224
1061.0, 0.04062298022069688
1062.0, 0.03374198292772178
1063.0, 0.034231695872856495
1064.0, 0.037817701394327684
1065.0, 0.03740554961811883
1066.0, 0.027310115494545373
1067.0, 0.02671342627740248
1068.0, 0.031221134709129475
1069.0, 0.037079758445754694
1070.0, 0.035929372447866176
1071.0, 0.024153158822205464
1072.0, 0.03311070347085841
1073.0, 0.03386826056358832
1074.0, 0.026299712281618575
1075.0, 0.022006623470769798
1076.0, 0.02894445446146044
1077.0, 0.032226996049653504
1078.0, 0.02112981940711736
1079.0, 0.022516155812005494
1080.0, 0.02848913582513733
1081.0, 0.028871029736214124
1082.0, 0.019728333244605354
1083.0, 0.024975671531100186
1084.0, 0.018336320230277665
1085.0, 0.01473252013604692
1086.0, 0.01774813097587846
1087.0, 0.009104779572959503
1088.0, 0.020745016939949103
1089.0, 0.021232655798175862
1090.0, 0.018521694621221364
1091.0, 0.01598975052590778
1092.0, 0.011966053791910842
1093.0, 0.01716112008094164
1094.0, 0.012277753053745868
1095.0, 0.008586983799471454
1096.0, 0.013111054854778618
1097.0, 0.02660843765387825
1098.0, 0.012857351669047928
1099.0, 0.011216768005220751
1100.0, 0.01518327466866261
1101.0, 0.018090547142840276
1102.0, 0.014440478011918709
1103.0, 0.005181821508484271
1104.0, 0.010422664080254964
1105.0, 0.006272604363948253
1106.0, 0.002131833373312177
1107.0, 0.0058100886305132255
1108.0, 0.004415509457351355
1109.0, 0.00713231975730162
1110.0, 0.006568208045059891
1111.0, 0.00538455111903659
1112.0, 0.006466485502132628
1113.0, 0.011684527961154219
1114.0, 0.010002054389643081
1115.0, 0.012530640682643764
1116.0, 0.012802243986454584
1117.0, 0.010549151226684612
1118.0, 0.010212176679183872
1119.0, 0.008838844591004855
1120.0, 0.011967727713996675
1121.0, 0.01277854587259744
1122.0, 0.019667780235282577
1123.0, 0.040682133317115114
1124.0, 0.04817800609758644
1125.0, 0.03673386122012115
1126.0, 0.027806740441298623
1127.0, 0.020956778983252048
1128.0, 0.014307135727434894
1129.0, 0.013272587261889193
1130.0, 0.0037142425801323454
1131.0, 0.004390494928680015
1132.0, 0.009721831945434207
1133.0, 0.015139517987050566
1134.0, 0.01960070331635883
1135.0, 0.011622200080780387
1136.0, 0.007820752828566991
1137.0, 0.01373982548023018
1138.0, 0.017850230028886395
1139.0, 0.0057705539484956565
1140.0, 0.02241143364423134
1141.0, 0.00798824998056209
1142.0, 0.00566756325745522
1143.0, 0.011352804185200021
1144.0, 0.012944257999697766
1145.0, 0.013743219266425808
1146.0, 0.013348623794109745
1147.0, 0.014672854454551323
1148.0, 0.014992439500994173
1149.0, 0.014441830007902254
1150.0, 0.01756278449034178
1151.0, 0.016277305865947993
1152.0, 0.013607672307162637
1153.0, 0.014091806184088656
1154.0, 0.015292778178967754
1155.0, 0.011732906482612215
1156.0, 0.007961250141824442
1157.0, 0.008140689016719794
1158.0, 0.00574828378740038
1159.0, 0.004397221444511529
1160.0, 0.007574864105322533
1161.0, 0.011626623833099353
1162.0, 0.011292066327254562
1163.0, 0.013054835541344338
1164.0, 0.015094220275561171
1165.0, 0.015989140008407985
1166.0, 0.015695364742929985
1167.0, 0.018569298501933888
1168.0, 0.015810827814531768
1169.0, 0.014000866617972466
1170.0, 0.012921215951906172
1171.0, 0.011183574608649705
1172.0, 0.017444242437089842
1173.0, 0.014761295392521771
1174.0, 0.01515031555127536
1175.0, 0.01538996707531069
1176.0, 0.012751886775376337
1177.0, 0.009567097640647147
1178.0, 0.010558981455112627
1179.0, 0.0044040061620894775
1180.0, 0.0035044320342829307
1181.0, 0.005707077392086035
1182.0, 0.0012033007290393756
1183.0, 0.0014690902120082872
1184.0, 0.012416102844064573
1185.0, 0.016095690094167146
1186.0, 0.014417757045610357
1187.0, 0.011349873258188405
1188.0, 0.0039759791952912
1189.0, 0.008614157154543434
1190.0, 0.010531288132253933
1191.0, 0.007609657049955501
1192.0, 0.006326879768494467
1193.0, 0.0172255428037026
1194.0, 0.024503121138505293
1195.0, 0.01579039392557589
1196.0, 0.007805594581275064
1197.0, 0.005133660064951942
1198.0, 0.005858535191260091
1199.0, 0.0005776570142243171
1200.0, 0.0016758315592232803
1201.0, 0.006661932023158
1202.0, 0.0057349590249782265
1203.0, 0.00357481890111403
1204.0, 0.014343405354439478
1205.0, 0.0019677320546653857
1206, 0.0
1207, 0.0
1208, 0.0
1209, 0.0
1210, 0.0
1211, 0.0
1212, 0.0
1213, 0.0
1214, 0.0
1215, 0.0
1216, 0.0
1217, 0.0
1218, 0.0
1219, 0.0
1220, 0.0
1221, 0.0
1222, 0.0
1223, 0.0
1224, 0.0
1225, 0.0
1226, 0.0
1227, 0.0
1228, 0.0
1229, 0.0
1230, 0.0
1231, 0.0
1232, 0.0
1233, 0.0
1234, 0.0
1235, 0.0
1236, 0.0
1237, 0.0
1238, 0.0
1239, 0.0
1240, 0.0
1241, 0.0
1242, 0.0
1243, 0.0
1244, 0.0
1245, 0.0
1246, 0.0
1247, 0.0
1248, 0.0
1249, 0.0
1250, 0.0
1251, 0.0
1252, 0.0
1253, 0.0
1254, 0.0
1255, 0.0
1256, 0.0
1257, 0.0
1258, 0.0
1259, 0.0
1260, 0.0
1261, 0.0
1262, 0.0
1263, 0.0
1264, 0.0
1265, 0.0
1266, 0.0
1267, 0.0
1268, 0.0
1269, 0.0
1270, 0.0
1271, 0.0
1272, 0.0
1273, 0.0
1274, 0.0
1275, 0.0
1276, 0.0
1277, 0.0
1278, 0.0
1279, 0.0
1280, 0.0
1281, 0.0
1282, 0.0
1283, 0.0
1284, 0.0
1285, 0.0
1286, 0.0
1287, 0.0
1288, 0.0
1289, 0.0
1290, 0.0
1291, 0.0
1292, 0.0
1293, 0.0
1294, 0.0
1295, 0.0
1296, 0.0
1297, 0.0
1298, 0.0
1299, 0.0
1300, 0.0
1301, 0.0
1302, 0.0
1303, 0.0
1304, 0.0
1305, 0.0
1306, 0.0
1307, 0.0
1308, 0.0
1309, 0.0
1310, 0.0
1311, 0.0
1312, 0.0
1313, 0.0
1314, 0.0
1315, 0.0
1316, 0.0
1317, 0.0
1318, 0.0
1319, 0.0
1320, 0.0
1321, 0.0
1322, 0.0
1323, 0.0
1324, 0.0
1325, 0.0
1326, 0.0
1327, 0.0
1328, 0.0
1329, 0.0
1330, 0.0
1331, 0.0
1332, 0.0
1333, 0.0
1334, 0.0
1335, 0.0
1336, 0.0
1337, 0.0
1338, 0.0
1339, 0.0
1340, 0.0
1341, 0.0
1342, 0.0
1343, 0.0
1344, 0.0
1345, 0.0
1346, 0.0
1347, 0.0
1348, 0.0
1349, 0.0
1350, 0.0
1351, 0.0
1352, 0.0
1353, 0.0
1354, 0.0
1355, 0.0
1356, 0.0
1357, 0.0
1358, 0.0
1359, 0.0
1360, 0.0
1361, 0.0
1362, 0.0
1363, 0.0
1364, 0.0
1365, 0.0
1366, 0.0
1367, 0.0
1368, 0.0
1369, 0.0
1370, 0.0
1371, 0.0
1372, 0.0
1373, 0.0
1374, 0.0
1375, 0.0
1376, 0.0
1377, 0.0
1378, 0.0
1379, 0.0
1380, 0.0
1381, 0.0
1382, 0.0
1383, 0.0
1384, 0.0
1385, 0.0
1386, 0.0
1387, 0.0
1388, 0.0
1389, 0.0
1390, 0.0
1391, 0.0
1392, 0.0
1393, 0.0
1394, 0.0
1395, 0.0
1396, 0.0
1397, 0.0
1398, 0.0
1399, 0.0
1400, 0.0
1401, 0.0
1402, 0.0
1403, 0.0
1404, 0.0
1405, 0.0
1406, 0.0
1407, 0.0
1408, 0.0
1409, 0.0
1410, 0.0
1411, 0.0
1412, 0.0
1413, 0.0
1414, 0.0
1415, 0.0
1416, 0.0
1417, 0.0
1418, 0.0
1419, 0.0
1420, 0.0
1421, 0.0
1422, 0.0
1423, 0.0
1424, 0.0
1425, 0.0
1426, 0.0
1427, 0.0
1428, 0.0
1429, 0.0
1430, 0.0
1431, 0.0
1432, 0.0
1433, 0.0
1434, 0.0
1435, 0.0
1436, 0.0
1437, 0.0
1438, 0.0
1439, 0.0
1440, 0.0
1441, 0.0
1442, 0.0
1443, 0.0
1444, 0.0
1445, 0.0
1446, 0.0
1447, 0.0
1448, 0.0
1449, 0.0
1450, 0.0
1451, 0.0
1452, 0.0
1453, 0.0
1454, 0.0
1455, 0.0
1456, 0.0
1457, 0.0
1458, 0.0
1459, 0.0
1460, 0.0
1461, 0.0
1462, 0.0
1463, 0.0
1464, 0.0
1465, 0.0
1466, 0.0
1467, 0.0
1468, 0.0
1469, 0.0
1470, 0.0
1471, 0.0
1472, 0.0
1473, 0.0
1474, 0.0
1475, 0.0
1476, 0.0
1477, 0.0
1478, 0.0
1479, 0.0
1480, 0.0
1481, 0.0
1482, 0.0
1483, 0.0
1484, 0.0
1485, 0.0
1486, 0.0
1487, 0.0
1488, 0.0
1489, 0.0
1490, 0.0
1491, 0.0
1492, 0.0
1493, 0.0
1494, 0.0
1495, 0.0
1496, 0.0
1497, 0.0
1498, 0.0
1499, 0.0
1500, 0.0
1501, 0.0
1502, 0.0
1503, 0.0
1504, 0.0
1505, 0.0
1506, 0.0
1507, 0.0
1508, 0.0
1509, 0.0
1510, 0.0
1511, 0.0
1512, 0.0
1513, 0.0
1514, 0.0
1515, 0.0
1516, 0.0
1517, 0.0
1518, 0.0
1519, 0.0
1520, 0.0
1521, 0.0
1522, 0.0
1523, 0.0
1524, 0.0
1525, 0.0
1526, 0.0
1527, 0.0
1528, 0.0
1529, 0.0
1530, 0.0
1531, 0.0
1532, 0.0
1533, 0.0
1534, 0.0
1535, 0.0
1536, 0.0
1537, 0.0
1538, 0.0
1539, 0.0
1540, 0.0
1541, 0.0
1542, 0.0
1543, 0.0
1544, 0.0
1545, 0.0
1546, 0.0
1547, 0.0
1548, 0.0
1549, 0.0
1550, 0.0
1551, 0.0
1552, 0.0
1553, 0.0
1554, 0.0
1555, 0.0
1556, 0.0
1557, 0.0
1558, 0.0
1559, 0.0
1560, 0.0
1561, 0.0
1562, 0.0
1563, 0.0
1564, 0.0
1565, 0.0
1566, 0.0
1567, 0.0
1568, 0.0
1569, 0.0
1570, 0.0
1571, 0.0
1572, 0.0
1573, 0.0
1574, 0.0
1575, 0.0
1576, 0.0
1577, 0.0
1578, 0.0
1579, 0.0
1580, 0.0
1581, 0.0
1582, 0.0
1583, 0.0
1584, 0.0
1585, 0.0
1586, 0.0
1587, 0.0
1588, 0.0
1589, 0.0
1590, 0.0
1591, 0.0
1592, 0.0
1593, 0.0
1594, 0.0
1595, 0.0
1596, 0.0
1597, 0.0
1598, 0.0
1599, 0.0
