30, 0.0
31, 0.0
32, 0.0
33, 0.0
34, 0.0
35, 0.0
36, 0.0
37, 0.0
38, 0.0
39, 0.0
40, 0.0
41, 0.0
42, 0.0
43, 0.0
44, 0.0
45, 0.0
46, 0.0
47, 0.0
48, 0.0
49, 0.0
50, 0.0
51, 0.0
52, 0.0
53, 0.0
54.0, 9.9346217572701e-05
55.0, 0.0012031930794915598
56.0, 0.0021037681178407317
57.0, 0.0026562763533106554
58.0, 0.003643510563051481
59.0, 0.005366953646326563
60.0, 0.005047106962051223
61.0, 0.0025542353360842964
62.0, 0.0010448623525151416
63.0, 0.000820371522628242
64.0, 0.0014884429008808191
65.0, 0.0021696625859366197
66.0, 0.0014443937166719436
67.0, 0.002471155787694655
68.0, 0.006942411179443191
69.0, 0.0131143163031429
70.0, 0.01494346665936918
71.0, 0.02099088466681391
72.0, 0.02357018562556234
73.0, 0.026930979205763914
74.0, 0.03145715084010097
75.0, 0.03471083063908821
76.0, 0.04023823767120216
77.0, 0.045371951836687574
78.0, 0.05259689163644182
79.0, 0.06142963345103185
80.0, 0.07049571398580123
81.0, 0.08141344088478346
82.0, 0.09288228515427216
83.0, 0.10306223803710944
84.0, 0.10936615961940689
85.0, 0.11160692415115153
86.0, 0.11691034353238429
87.0, 0.12169441907010232
88.0, 0.12835218738191007
89.0, 0.13531981501713863
90.0, 0.14308065627460057
91.0, 0.15584027677195675
92.0, 0.16244713621695997
93.0, 0.1649953238063805
94.0, 0.1674267049124721
95.0, 0.170989420277867
96.0, 0.17473478029258277
97.0, 0.1800194223446911
98.0, 0.1856000474102025
99.0, 0.19162132782492483
100.0, 0.19824974959931144
101.0, 0.2051906193931535
102.0, 0.20974279646529123
103.0, 0.21985451817256282
104.0, 0.2407957113315709
105.0, 0.26718109423639425
106.0, 0.29757238473335534
107.0, 0.34542957761041637
108.0, 0.3844162437647247
109.0, 0.35947338444661797
110.0, 0.3093092283541868
111.0, 0.2680545759331387
112.0, 0.2545951229052898
113.0, 0.252768725884223
114.0, 0.25353708632801414
115.0, 0.25179036997367077
116.0, 0.24446143866094838
117.0, 0.23083964260049014
118.0, 0.21693654151450145
119.0, 0.20435870551670773
120.0, 0.19859314728518074
121.0, 0.1990191348561437
122.0, 0.2029631771421835
123.0, 0.2068439123553261
124.0, 0.20399112213045387
125.0, 0.19987479410305423
126.0, 0.2015013965878888
127.0, 0.21052963629297206
128.0, 0.22199551149408792
129.0, 0.23101359574207714
130.0, 0.24249227854081667
131.0, 0.2507363324885191
132.0, 0.25766418181886214
133.0, 0.2675320820431892
134.0, 0.27274955534425754
135.0, 0.2799436820768113
136.0, 0.28910105512110057
137.0, 0.3019264907851938
138.0, 0.3178820306397058
139.0, 0.3306219635536432
140.0, 0.33796636503893335
141.0, 0.3415673837159402
142.0, 0.34463092547198504
143.0, 0.3464460346171576
144.0, 0.3430378567949333
145.0, 0.3431681717810317
146.0, 0.3392665756671527
147.0, 0.33398918674163636
148.0, 0.32553230364520597
149.0, 0.31277312175958644
150.0, 0.30488295055704134
151.0, 0.2977116853885228
152.0, 0.2878396108095661
153.0, 0.2779113057014114
154.0, 0.2712691141977398
155.0, 0.2706800988521067
156.0, 0.26780834065566783
157.0, 0.26243602576798947
158.0, 0.25743153091498494
159.0, 0.25212460699969996
160.0, 0.2439007488464104
161.0, 0.2327704868453975
162.0, 0.2221001726903006
163.0, 0.21615017169629036
164.0, 0.21238226405251256
165.0, 0.20701361436770965
166.0, 0.1973270402169852
167.0, 0.19323774918790215
168.0, 0.19444329624296727
169.0, 0.19798453125200954
170.0, 0.20266652886946557
171.0, 0.2086284229886813
172.0, 0.21061698354183445
173.0, 0.21964559253228752
174.0, 0.2278794049122975
175.0, 0.23677311852063881
176.0, 0.24748326489324585
177.0, 0.25157799810745285
178.0, 0.26170685365036306
179.0, 0.2705654103666128
180.0, 0.2801512110781848
181.0, 0.2926844604961684
182.0, 0.30923210902567044
183.0, 0.32282805254880514
184.0, 0.3425334102490122
185.0, 0.37061780354847806
186.0, 0.39232590191852984
187.0, 0.3953876954853706
188.0, 0.3961267643599807
189.0, 0.3947234286582219
190.0, 0.3881488836900786
191.0, 0.38120159085744604
192.0, 0.3775272770241311
193.0, 0.37839144721297896
194.0, 0.3870982121386367
195.0, 0.40855065234955834
196.0, 0.43343678157570437
197.0, 0.45501207901984514
198.0, 0.46932073701394766
199.0, 0.4778323870072918
200.0, 0.4783455195317776
201.0, 0.47900372610779246
202.0, 0.48132434207559643
203.0, 0.483444398350302
204.0, 0.4821311517371923
205.0, 0.4971237563859057
206.0, 0.5237465876240444
207.0, 0.5645324395134711
208.0, 0.6108355729802335
209.0, 0.6555898776755897
210.0, 0.7078913746676716
211.0, 0.7608933637535156
212.0, 0.8513805926447718
213.0, 0.9036587527390402
214.0, 0.9187154266778443
215.0, 0.963010223198486
216.0, 0.9925706200736499
217.0, 0.9990740405411266
218.0, 0.9705202022657813
219.0, 0.907319135209491
220.0, 0.8162140724678059
221.0, 0.7073416990764433
222.0, 0.5955741885648775
223.0, 0.5078392554452792
224.0, 0.44253199775911234
225.0, 0.3912791070372657
226.0, 0.344784547233651
227.0, 0.312364006654497
228.0, 0.2846743518834781
229.0, 0.2670282040139854
230.0, 0.2497940675855695
231.0, 0.22928107896129918
232.0, 0.2148915712935163
233.0, 0.20375212598032
234.0, 0.19250148824104824
235.0, 0.17849580125948267
236.0, 0.16345438480623037
237.0, 0.15046165158844746
238.0, 0.1401909596674458
239.0, 0.12709145357642831
240.0, 0.11680453555947033
241.0, 0.10785968117937043
242.0, 0.09846963890678252
243.0, 0.08792626393263728
244.0, 0.08205393344415784
245.0, 0.07722779829427057
246.0, 0.07119961987268167
247.0, 0.06476420979704234
248.0, 0.05946134320615307
249.0, 0.056534022596032595
250.0, 0.051426374454763245
251.0, 0.04745981760479555
252.0, 0.04306669402351592
253.0, 0.03773607440774057
254.0, 0.03291084301634311
255.0, 0.03557411956930701
256.0, 0.03652977126980241
257.0, 0.036096996650734944
258.0, 0.03169290536441266
259.0, 0.026243352325614953
260.0, 0.027110797719705943
261.0, 0.024576608686611896
262.0, 0.02191753874265693
263.0, 0.022462947546428063
264.0, 0.022601202273674265
265.0, 0.020347258581523593
266.0, 0.0205559791741819
267.0, 0.016885355333145936
268.0, 0.015182303189620345
269.0, 0.013611934771583262
270.0, 0.013169066256581837
271.0, 0.014797406287493797
272.0, 0.01369590438274161
273.0, 0.015380832998755133
274.0, 0.014335584193792387
275.0, 0.014873145510618248
276.0, 0.016615759858246867
277.0, 0.015173815966619635
278.0, 0.013731334701710072
279.0, 0.012741502394898463
280.0, 0.013665700045668855
281.0, 0.014267208578428768
282.0, 0.014237227506548385
283.0, 0.016754469928636193
284.0, 0.015228741162570843
285.0, 0.016812461227013735
286.0, 0.016877049357924313
287.0, 0.01787793880436974
288.0, 0.02095502416856353
289.0, 0.018168699139260107
290.0, 0.020078659854823166
291.0, 0.020599315524694024
292.0, 0.020793260091634975
293.0, 0.02024743565845686
294.0, 0.01863708633296879
295.0, 0.019779792600798766
296.0, 0.02041519522294103
297.0, 0.019685200052780072
298.0, 0.01976420339225796
299.0, 0.02121407116707511
300.0, 0.022925123494636747
301.0, 0.024300094526508064
302.0, 0.023404708113979353
303.0, 0.022265171561375224
304.0, 0.021021971940806836
305.0, 0.01977216799956072
306.0, 0.018904944357212405
307.0, 0.018428646219722285
308.0, 0.017866761835451734
309.0, 0.017801046216849345
310.0, 0.017513790381718693
311.0, 0.01681362862740956
312.0, 0.01693585913815021
313.0, 0.015988214845701478
314.0, 0.01543786345324111
315.0, 0.015170541351541715
316.0, 0.015383561718623748
317.0, 0.015577408095790678
318.0, 0.013450551010030638
319.0, 0.013991524623345873
320.0, 0.012728707707462456
321.0, 0.011623800992910943
322.0, 0.010416367701545226
323.0, 0.008362473226679653
324.0, 0.007271501128906719
325.0, 0.006344997653199549
326.0, 0.006032061131575189
327.0, 0.006579053924086606
328.0, 0.0057904225665103256
329.0, 0.001820561256619994
330.0, 0.0007764285803758147
331.0, 0.0005012384776802619
332.0, 0.002376568145747065
333.0, 0.00298677025158963
334.0, 0.0018925226354208032
335.0, 0.0014333501133940284
336.0, 0.003005829494241147
337.0, 0.002926903199383453
338.0, 0.00403353609289977
339.0, 0.004736161051393409
340.0, 0.004920744301331929
341.0, 0.006033182054082927
342.0, 0.0061578386056139675
343.0, 0.005745858141851683
344.0, 0.0071788441481799
345.0, 0.007725081199819718
346.0, 0.006650846447723371
347.0, 0.006145752690770895
348.0, 0.005509520958940728
349.0, 0.006192282917843023
350.0, 0.006942439115995855
351.0, 0.00616460843315165
352.0, 0.004817904221581973
353.0, 0.006190888915909178
354.0, 0.00536249947317617
355.0, 0.006489923362477606
356.0, 0.005590054854819498
357.0, 0.0033514323483900136
358.0, 0.0022730053034796713
359.0, 0.004781347812983002
360.0, 0.0039327493122930275
361.0, 0.003657535228086609
362.0, 0.0018201396367384637
363.0, 0.000946025225807285
364.0, 0.0016901672732124004
365.0, 0.0010925655460166414
366.0, 0.00251517601994541
367.0, 0.003416706099076721
368.0, 0.003490089491654202
369.0, 0.004466163444106999
370.0, 0.00650271016628968
371.0, 0.00745371639185689
372.0, 0.011854768508547246
373.0, 0.012552506713268215
374.0, 0.011920933942713314
375.0, 0.013469421440547701
376.0, 0.01673521311580312
377.0, 0.016674183328767907
378.0, 0.019402059726154556
379.0, 0.020854847990144493
380.0, 0.021703186027092855
381.0, 0.0236446408572609
382.0, 0.026963712965066815
383.0, 0.02989574818784289
384.0, 0.030947189478790892
385.0, 0.032936422192724205
386.0, 0.03641228716184816
387.0, 0.03938445297201105
388.0, 0.0419222687284886
389.0, 0.04637175437543836
390.0, 0.049044190434978985
391.0, 0.05231378178584831
392.0, 0.05395754191339201
393.0, 0.055689002611296036
394.0, 0.05932878052486794
395.0, 0.06520824070815263
396.0, 0.06919007299032728
397.0, 0.07006310276052251
398.0, 0.07461800210557097
399.0, 0.07842360940444376
400.0, 0.08159192483659188
401.0, 0.08712408063869166
402.0, 0.08373668077503774
403.0, 0.09049890692499497
404.0, 0.0945703591268292
405.0, 0.09674658050359897
406.0, 0.09910726925814844
407.0, 0.10203163904843629
408.0, 0.10021068632812656
409.0, 0.10319252498166079
410.0, 0.10317611437791178
411.0, 0.10091849988294879
412.0, 0.09907600366504264
413.0, 0.09906212714398405
414.0, 0.0966286032412449
415.0, 0.09476302385366582
416.0, 0.09407145608024647
417.0, 0.09194811218867972
418.0, 0.08945282988440253
419.0, 0.08761506402274401
420.0, 0.0833165072675425
421.0, 0.07890262398046904
422.0, 0.07584235647309913
423.0, 0.07493551425857324
424.0, 0.07262288023511036
425.0, 0.06804662556097804
426.0, 0.06669935597827843
427.0, 0.06204771852962114
428.0, 0.05955763505717278
429.0, 0.05664718409485633
430.0, 0.053251252203808816
431.0, 0.05057146147294419
432.0, 0.049621525967710384
433.0, 0.04473167686453826
434.0, 0.043282658522409805
435.0, 0.040168867739566454
436.0, 0.03673274064055815
437.0, 0.034588704969775834
438.0, 0.03374780398298164
439.0, 0.030778521479166647
440.0, 0.03193913200231698
441.0, 0.030160633453364012
442.0, 0.028655637651095564
443.0, 0.027231839326941388
444.0, 0.02432589076933921
445.0, 0.022401961531890065
446.0, 0.022666225004978235
447.0, 0.023841565831950188
448.0, 0.02390871280636128
449.0, 0.022839097094425557
450.0, 0.02188785924748128
451.0, 0.022616780401175277
452.0, 0.022793893524547346
453.0, 0.021526410146909904
454.0, 0.02145712301991131
455.0, 0.02160552629208802
456.0, 0.020945401938884316
457.0, 0.01992347354744245
458.0, 0.02094191234497005
459.0, 0.021057791196277317
460.0, 0.02078865474144293
461.0, 0.020155994153372804
462.0, 0.020090765496784107
463.0, 0.021507904288422804
464.0, 0.022876598212805785
465.0, 0.02257319264841288
466.0, 0.023565795816658054
467.0, 0.024099494159153235
468.0, 0.025495572819781046
469.0, 0.02759773021285891
470.0, 0.025024944877532106
471.0, 0.026655414185015037
472.0, 0.030667539058628398
473.0, 0.032059220405513456
474.0, 0.03297013407121844
475.0, 0.034137786164741245
476.0, 0.03314099438292631
477.0, 0.03325358056858143
478.0, 0.03272896638375186
479.0, 0.033622923422652405
480.0, 0.0350953831806819
481.0, 0.03557000001751707
482.0, 0.03407984011292374
483.0, 0.03192417773029651
484.0, 0.03279712801002332
485.0, 0.030809645003253103
486.0, 0.029418619902134305
487.0, 0.02699602775406921
488.0, 0.024009062009898056
489.0, 0.026086096518289848
490.0, 0.02570556030710995
491.0, 0.022611462488512136
492.0, 0.021953609585008003
493.0, 0.019470080314837813
494.0, 0.016620710204558267
495.0, 0.01848229113063456
496.0, 0.01914258401217336
497.0, 0.016337254183531408
498.0, 0.016668974177524002
499.0, 0.015020777975739502
500.0, 0.01288417639919626
501.0, 0.012856770826830757
502.0, 0.01318002527304409
503.0, 0.013188308671262486
504.0, 0.012055906251396844
505.0, 0.010741769601592524
506.0, 0.009917784065543105
507.0, 0.009371914754364075
508.0, 0.008589380430770382
509.0, 0.008966366584261238
510.0, 0.008130829117627945
511.0, 0.0067652785695480975
512.0, 0.005526820570188226
513.0, 0.0064616732323427295
514.0, 0.008260650628188202
515.0, 0.004234387059740167
516.0, 0.007287479734103165
517.0, 0.005199182884766339
518.0, 0.0032315956323392342
519.0, 0.002592922478304723
520.0, 0.002255457594058279
521.0, 0.0014392272794503628
522.0, 0.004552010070050561
523.0, 0.0011383320967123713
524.0, 0.0017979922097918059
525.0, 0.0017697085723490978
526.0, 0.0012091609818802686
527.0, 0.001402886220571751
528.0, 0.0015148059316735056
529.0, 0.0009878962233302146
530.0, 0.0017012144778951895
531.0, 0.0025158418998292662
532.0, 0.0015954481625599258
533.0, 0.00016715780714519405
534.0, 0.0005146259239858001
535.0, 0.001296607930304559
536.0, 0.0008585549268538995
537.0, 0.00038608933242721585
538.0, 0.000764786821188711
539.0, 0.0013350328933217665
540.0, 0.0013562138845683686
541.0, 0.0008920264892246431
542.0, 0.0012219063410521536
543.0, 0.0004600666147777089
544.0, 0.0002846744799319041
545.0, 0.0002767664899177958
546.0, 0.0006296910356076095
547.0, 0.0011722085423606797
548.0, 0.0006176985886609518
549.0, 0.0016758912120802133
550.0, 0.0013655788495561096
551.0, 0.0014507362646085128
552.0, 0.0013135370244179087
553.0, 0.0008729124754898207
554.0, 0.0008602822192094264
555.0, 0.0018886188904991869
556.0, 0.0038923394188428912
557.0, 0.0014290659432732154
558.0, 0.0029197831242099874
559.0, 0.0046965731699639916
560.0, 0.0037212636926806444
561.0, 0.002624751933737203
562.0, 0.003951655066061989
563.0, 0.004996384808724931
564.0, 0.00492479394392077
565.0, 0.005841345667716011
566.0, 0.007383419844102369
567.0, 0.00930407123589386
568.0, 0.012825205731259602
569.0, 0.012144428678623996
570.0, 0.012404082935200714
571.0, 0.01090962319540217
572.0, 0.012008234548651636
573.0, 0.014045914515489413
574.0, 0.01306828152208414
575.0, 0.010643783904637383
576.0, 0.016769916673649604
577.0, 0.015629534665364615
578.0, 0.012771814305343169
579.0, 0.013746181354375171
580.0, 0.01714576041857319
581.0, 0.018391088227892195
582.0, 0.020406545295601243
583.0, 0.01949260408974994
584.0, 0.019446975386802196
585.0, 0.020379291311302037
586.0, 0.02196509053188404
587.0, 0.023017633332123415
588.0, 0.022737746741274992
589.0, 0.024163858737390336
590.0, 0.02698864391541554
591.0, 0.02673708697636438
592.0, 0.026033169071958413
593.0, 0.027208075823805616
594.0, 0.029436887801055946
595.0, 0.029739145058558767
596.0, 0.031031417266427806
597.0, 0.03288732610863106
598.0, 0.03413623392118413
599.0, 0.03692652010589165
600.0, 0.03986202162234928
601.0, 0.041856189366652946
602.0, 0.04445404424400764
603.0, 0.04877706185877715
604.0, 0.049654386432707184
605.0, 0.054451140574996906
606.0, 0.05881108808880616
607.0, 0.06305913136036301
608.0, 0.06913387176250843
609.0, 0.07627430434803906
610.0, 0.07828997943191258
611.0, 0.0852957198664541
612.0, 0.08914443831377743
613.0, 0.09449014186917526
614.0, 0.10253988606182128
615.0, 0.11052635572510841
616.0, 0.11506953075098315
617.0, 0.12288771141674323
618.0, 0.13166710580927143
619.0, 0.14057619398896046
620.0, 0.14392840901500684
621.0, 0.14553755296893256
622.0, 0.148912137209257
623.0, 0.14994253519925974
624.0, 0.15552963168012335
625.0, 0.1573052986721733
626.0, 0.1570578640542171
627.0, 0.1541003947125181
628.0, 0.15181144191179496
629.0, 0.15132751470156824
630.0, 0.14796107877215475
631.0, 0.14381645986642935
632.0, 0.1414541554019319
633.0, 0.14134988229427292
634.0, 0.1400090380307456
635.0, 0.13649296778947284
636.0, 0.1337099587633818
637.0, 0.13543562852504312
638.0, 0.13242346221332588
639.0, 0.12938846828032083
640.0, 0.1281380760375207
641.0, 0.1262849505731492
642.0, 0.12462783024678539
643.0, 0.12240929463871551
644.0, 0.11646852488590818
645.0, 0.11168893789260559
646.0, 0.10803656190714439
647.0, 0.10769815786744094
648.0, 0.10240094083634055
649.0, 0.09895447185384643
650.0, 0.0971375624342786
651.0, 0.08720952665880283
652.0, 0.08096970994754027
653.0, 0.07596278876198567
654.0, 0.07050803535235035
655.0, 0.06665487448786404
656.0, 0.06227483007244407
657.0, 0.0575750564525765
658.0, 0.054954138109994596
659.0, 0.052491265585229895
660.0, 0.05142290744943956
661.0, 0.048901779651612666
662.0, 0.04606564937158666
663.0, 0.04374998754844318
664.0, 0.04194286114112671
665.0, 0.040173310829468435
666.0, 0.038394591968069526
667.0, 0.03700901095874916
668.0, 0.035802091863153855
669.0, 0.03461137016231696
670.0, 0.03382438913912585
671.0, 0.03218427025482813
672.0, 0.02970494276386401
673.0, 0.029447189947112633
674.0, 0.027359657369275196
675.0, 0.026453101968498968
676.0, 0.025999430192918862
677.0, 0.02346066092358826
678.0, 0.02262991389088364
679.0, 0.024823548598658873
680.0, 0.02478061752122422
681.0, 0.02042471427097542
682.0, 0.02068418353196377
683.0, 0.020784534518324745
684.0, 0.020363223223405533
685.0, 0.020623205532034384
686.0, 0.021247161549973956
687.0, 0.020859750954179447
688.0, 0.02035695566134682
689.0, 0.018340708317774748
690.0, 0.019163151235398534
691.0, 0.017992863372069564
692.0, 0.017398900378697135
693.0, 0.021042977578877665
694.0, 0.025813999107507334
695.0, 0.021605427984328008
696.0, 0.029563706803677182
697.0, 0.01612096405794925
698.0, 0.015601017672111374
699.0, 0.012518701437301487
700.0, 0.009155891557279978
701.0, 0.009625349770382484
702.0, 0.009328982694995587
703.0, 0.010148465787313597
704.0, 0.01009522936845659
705.0, 0.009155100358235501
706.0, 0.008200693415246905
707.0, 0.00732928869895441
708.0, 0.007123983323769175
709.0, 0.0074416739295392505
710.0, 0.005926956072545241
711.0, 0.004461418104088468
712.0, 0.007032353984829261
713.0, 0.007494638683623189
714.0, 0.00733838728336583
715.0, 0.006621746499944219
716.0, 0.005375789926834373
717.0, 0.00545263643183375
718.0, 0.009722137920717475
719.0, 0.0065642239467277935
720.0, 0.00712512321194223
721.0, 0.005916092004227544
722.0, 0.0055957812938582305
723.0, 0.0067095325360945314
724.0, 0.007399021562991265
725.0, 0.007995591531527782
726.0, 0.005012442458695365
727.0, 0.008572912418014047
728.0, 0.00686634765137959
729.0, 0.004270722819591467
730.0, 0.0031765235235042197
731.0, 0.0032822646807375445
732.0, 0.0037403698998092145
733.0, 0.0052763597393493695
734.0, 0.0017765086284883937
735.0, 0.0031237613835088923
736.0, 0.0034034527436255396
737.0, 0.004218889718864362
738.0, 0.004375963097778828
739.0, 0.0031770581888681294
740.0, 0.004189603661709609
741.0, 0.0007040547937753117
742.0, 0.002836632934249585
743.0, 0.0015250684894564696
744.0, 0.0010230923951439627
745.0, 0.000966817620730104
746.0, 0.0010614369466909097
747.0, 0.0022214559968340986
748.0, 0.0036786903945866625
749.0, 0.0030079377050629044
750.0, 0.0019570657799491947
751.0, 0.0007089047019694934
752.0, 0.001355752060801391
753.0, 0.0018725706113023482
754.0, 0.002270181846043839
755.0, 0.004487987226607438
756.0, 0.0013219382154870205
757.0, 0.00304333378216842
758.0, 0.001895993153353258
759.0, 0.0009774680007663746
760.0, 0.0017016079287158984
761.0, 0.0020946356874560843
762.0, 0.0012319637959222257
763.0, 0.0015354384105732992
764.0, 0.0012511458463438647
765.0, 0.0018145040405975763
766.0, 0.003305159713010552
767.0, 0.004398637210787005
768.0, 0.004948241580295964
769.0, 0.005233838941975209
770.0, 0.005365002468528171
771.0, 0.005283959702826273
772.0, 0.006300679519128299
773.0, 0.0033042015446745556
774.0, 0.006366843856410361
775.0, 0.007725140996239161
776.0, 0.007339111979540134
777.0, 0.008367688583151794
778.0, 0.01036175454856077
779.0, 0.007191361588983998
780.0, 0.005337148247056915
781.0, 0.009304027073134293
782.0, 0.011392800250549173
783.0, 0.011187979533395481
784.0, 0.013160755202806068
785.0, 0.013896021422920462
786.0, 0.009364516883105188
787.0, 0.0098970330085034
788.0, 0.007210274079606661
789.0, 0.01149892983701578
790.0, 0.012560634406583374
791.0, 0.011528326077148692
792.0, 0.011839429764606434
793.0, 0.011935390914739188
794.0, 0.00904883110868142
795.0, 0.008599349106867913
796.0, 0.013077360885538626
797.0, 0.009487142412055798
798.0, 0.007023487152004167
799.0, 0.009133037140576299
800.0, 0.0105572403295428
801.0, 0.009784652249931775
802.0, 0.009675333039311887
803.0, 0.009046974136971782
804.0, 0.008862854213227259
805.0, 0.0077197226631651635
806.0, 0.008162116266732636
807.0, 0.005613665129279175
808.0, 0.0073503759382561465
809.0, 0.011850584880203425
810.0, 0.011366943895367477
811.0, 0.008935597523542642
812.0, 0.009385577452804054
813.0, 0.007962981749522365
814.0, 0.007932450916318308
815.0, 0.007146515497262519
816.0, 0.005830730782937063
817.0, 0.0058350139348201276
818.0, 0.007545111731979717
819.0, 0.00807801842826686
820.0, 0.005887902728579534
821.0, 0.00714468158060478
822.0, 0.005701488253566872
823.0, 0.0051250606100435876
824.0, 0.005744530423301068
825.0, 0.006840038469152057
826.0, 0.00786727705622363
827.0, 0.008150297113136837
828.0, 0.0052299622893546074
829.0, 0.0052932082560955855
830.0, 0.007733270679155026
831.0, 0.005895354715586704
832.0, 0.004515643233433986
833.0, 0.005131104699939758
834.0, 0.007013671550664726
835.0, 0.009134910681927969
836.0, 0.007610991748473745
837.0, 0.006080287141805027
838.0, 0.0063390649590855845
839.0, 0.0058863261709720454
840.0, 0.005983603204355083
841.0, 0.005982989628812922
842.0, 0.005159958484374189
843.0, 0.0044757841563206405
844.0, 0.005391887348329139
845.0, 0.0018211677347209256
846.0, 0.00331157174282828
847.0, 0.004628512551907241
848.0, 0.002036756492924216
849.0, 0.0007020740131442257
850.0, 0.0031357681771273906
851.0, 0.004749536012217986
852.0, 0.0004622492883741545
853.0, 0.001178616180036709
854.0, 0.005605818682720892
855.0, 0.006932347911146111
856.0, 0.0041723287344135
857.0, 0.0018754649393594178
858.0, 0.0010361993286802649
859.0, 0.0022595677834150348
860.0, 0.005450083165475703
861.0, 0.00491406151847196
862.0, 0.004374560613957291
863.0, 0.006058279231264245
864.0, 0.0031581276183808415
865.0, 0.0011808621710471562
866.0, 0.0008264128091890531
867.0, 0.000998245173481254
868.0, 0.000910310820732689
869.0, 0.000725818430489416
870.0, 0.0025300694695243407
871.0, 0.0007463890628455995
872.0, 0.0037077384933273286
873.0, 0.001967593958409764
874.0, 0.0023553039762470272
875.0, 0.00405020569711659
876.0, 0.0040805731193441115
877.0, 0.0025543370918054164
878.0, 0.00020915533740998324
879.0, 0.0009444129266006346
880.0, 0.0021139549825624857
881.0, 0.002465830681226972
882.0, 0.0034424239948728044
883.0, 0.0023099752830467724
884.0, 0.0008095487342804205
885.0, 0.0015888788287056342
886.0, 0.003134235951264843
887.0, 0.0027615816481217806
888.0, 0.0035348031004723245
889.0, 0.003446255600644212
890.0, 0.0031668778938467408
891.0, 0.00176199576476704
892.0, 0.001263077805613812
893.0, 0.0019928351315630964
894.0, 0.002433630823560762
895.0, 0.0021897580228306267
896.0, 0.0024159115644073114
897.0, 0.0010996016951532865
898.0, 0.00174853001968094
899.0, 0.0013858360477789922
900.0, 0.002886372497388839
901.0, 0.003794783602536032
902.0, 0.0027133577417032275
903.0, 0.0014503488208400678
904.0, 0.0009532061919374938
905.0, 0.0005235140558408322
906.0, 0.0019197873627843204
907.0, 0.0008936604922104898
908.0, 0.003688363903291942
909.0, 0.003172255065231334
910.0, 0.0020714075522927323
911.0, 0.002350265805548289
912.0, 0.0014057074660411915
913.0, 0.0013919294607953393
914.0, 0.00515739355617645
915.0, 0.004024733026806073
916.0, 0.0027815674287148774
917.0, 0.0033709580509424493
918.0, 0.004163108245688738
919.0, 0.003413066524883049
920.0, 0.0019056458724695878
921.0, 0.0014702708312788544
922.0, 0.0013094696205672171
923.0, 8.759189437053502e-06
924.0, 0.00011297614722003221
925.0, 0.00024399622365409184
926.0, 0.004074467193315037
927.0, 0.004262733766506596
928.0, 0.0029537244198324882
929.0, 0.00406259108083391
930.0, 0.005360509417779737
931.0, 0.00322454710824279
932.0, 0.0057844573086299695
933.0, 0.0030080839017667766
934.0, 0.004494099034457653
935.0, 0.0030757346451187944
936.0, 0.003038766802651546
937.0, 0.003644913034782997
938.0, 0.0031079898517056004
939.0, 0.0025868740572744736
940.0, 0.0037794014205836737
941.0, 0.004655752607042607
942.0, 0.0045520903662568685
943.0, 0.00496904703893041
944.0, 0.0039769884984532265
945.0, 0.003712753372279032
946.0, 0.004767934309892371
947.0, 0.004672545696794374
948.0, 0.002514063755918617
949.0, 0.001718052497866115
950.0, 0.00260887817782502
951.0, 0.0015393424245086847
952.0, 0.0033272430031032517
953.0, 0.004392124101632892
954.0, 0.005149526542782366
955.0, 0.005785545225260069
956.0, 0.0043072280626129614
957.0, 0.0032707986705831247
958.0, 0.00594790819178383
959.0, 0.001657100266727054
960.0, 0.0029869593103964516
961.0, 0.0024450038411567548
962.0, 0.002561680149338268
963.0, 0.004797628490622854
964.0, 0.006533515304201351
965.0, 0.006514276344962592
966.0, 0.003994880652593544
967.0, 0.0009780282551089658
968.0, 0.0027951660598648535
969.0, 0.00222357653962541
970.0, 0.007159630205139737
971.0, 0.006341337791836648
972.0, 0.005142836929556444
973.0, 0.0044979050033706995
974.0, 0.006541859942170975
975.0, 0.00872509986921763
976.0, 0.008405183457899139
977.0, 0.008109087505477367
978.0, 0.009557170597372414
979.0, 0.008360247666857541
980.0, 0.009258498799847494
981.0, 0.0088262330511187
982.0, 0.010300536387627417
983.0, 0.011932941042600679
984.0, 0.013261716361594476
985.0, 0.012097271054510379
986.0, 0.008412666086408435
987.0, 0.008546369701779834
988.0, 0.010222668561322326
989.0, 0.011282144968893555
990.0, 0.012776137111193379
991.0, 0.012453319365361162
992.0, 0.009695760247156352
993.0, 0.008525021242811855
994.0, 0.009978522921232615
995.0, 0.010208040385596006
996.0, 0.00801805494756508
997.0, 0.010605293060989176
998.0, 0.013125167659729407
999.0, 0.009115008051979212
1000.0, 0.013927166984656757
1001.0, 0.013570073544384003
1002.0, 0.011234647645887906
1003.0, 0.009374171598621146
1004.0, 0.008827199701892014
1005.0, 0.008596615935546158
1006.0, 0.008325743621569529
1007.0, 0.01176261938355285
1008.0, 0.01169163359860038
1009.0, 0.020171712874579223
1010.0, 0.016599716496659114
1011.0, 0.011883622158999095
1012.0, 0.011577081189872211
1013.0, 0.016776534128724048
1014.0, 0.018870026784738154
1015.0, 0.015787361929008502
1016.0, 0.016622854960680146
1017.0, 0.016969860690991306
1018.0, 0.017717435993216204
1019.0, 0.01599665323268282
1020.0, 0.017180804568861202
1021.0, 0.021032766905136904
1022.0, 0.018529035367247173
1023.0, 0.013450960013806076
1024.0, 0.013328307818560809
1025.0, 0.01779848599901724
1026.0, 0.020609857960894117
1027.0, 0.02101991551167592
1028.0, 0.014767805014323723
1029.0, 0.01834376306451323
1030.0, 0.01837533908921324
1031.0, 0.017818484497220587
1032.0, 0.021003938938927342
1033.0, 0.02007347178480594
1034.0, 0.019536194089578327
1035.0, 0.022954640457689066
1036.0, 0.024238446155492376
1037.0, 0.02630680593062044
1038.0, 0.02467458720792365
1039.0, 0.017814548753898613
1040.0, 0.024296023415495444
1041.0, 0.01950241144839999
1042.0, 0.022989951484775416
1043.0, 0.027316768030325234
1044.0, 0.026459630107021757
1045.0, 0.022143737407492065
1046.0, 0.020305348181156223
1047.0, 0.02554758685055578
1048.0, 0.0234995110931277
1049.0, 0.021417194284190637
1050.0, 0.023500009552843804
1051.0, 0.01875088095374629
1052.0, 0.024060737090552918
1053.0, 0.025632147832834736
1054.0, 0.02509464104057656
1055.0, 0.02385447205533409
1056.0, 0.021128667019405637
1057.0, 0.02201052017402051
1058.0, 0.02366910201838112
1059.0, 0.020112937519050477
1060.0, 0.02351923603942395
1061.0, 0.022513646006140028
1062.0, 0.01917933550549687
1063.0, 0.02092545899510328
1064.0, 0.024481340379969223
1065.0, 0.023940296279145876
1066.0, 0.02301365711996186
1067.0, 0.024318425423137124
1068.0, 0.01927763513099619
1069.0, 0.020481310258009863
1070.0, 0.017926075101505037
1071.0, 0.016384599520010104
1072.0, 0.019746605660935404
1073.0, 0.018991498173334564
1074.0, 0.020774460137793046
1075.0, 0.020753706789168536
1076.0, 0.02038993977036102
1077.0, 0.019927271976426016
1078.0, 0.016394716391481073
1079.0, 0.018440956846192083
1080.0, 0.014492986847367086
1081.0, 0.018584120642006673
1082.0, 0.023391401171542796
1083.0, 0.019816435911787156
1084.0, 0.012320716740610253
1085.0, 0.012974388990109319
1086.0, 0.013238030691005504
1087.0, 0.011732821106337584
1088.0, 0.01446770147134539
1089.0, 0.01811872810794283
1090.0, 0.01789816004490113
1091.0, 0.01686478910586804
1092.0, 0.012145407805546328
1093.0, 0.017558846150963203
1094.0, 0.023543830838105306
1095.0, 0.017735091415972848
1096.0, 0.012715610798445104
1097.0, 0.00975022706658279
1098.0, 0.006834650621418729
1099.0, 0.006700869694141841
1100.0, 0.010591726756317676
1101.0, 0.013086486227376877
1102.0, 0.008875730545803389
1103.0, 0.010675715099982372
1104.0, 0.012119622410871613
1105.0, 0.01089957399778034
1106.0, 0.009309997297559361
1107.0, 0.010714081479824633
1108.0, 0.01111981827627028
1109.0, 0.010159654782419494
1110.0, 0.009132557203791185
1111.0, 0.00870583045709548
1112.0, 0.011165130674991385
1113.0, 0.005988181439445309
1114.0, 0.012296892765722413
1115.0, 0.015356512267072056
1116.0, 0.014437610658993287
1117.0, 0.014729637978667718
1118.0, 0.02114153577417777
1119.0, 0.024152899215637628
1120.0, 0.02440891668751709
1121.0, 0.02798090656065564
1122.0, 0.031591449927932974
1123.0, 0.02757306221850527
1124.0, 0.02098561050275345
1125.0, 0.019127121535663264
1126.0, 0.019613860106969336
1127.0, 0.02001754764575921
1128.0, 0.016904598848851843
1129.0, 0.013499778833876038
1130.0, 0.00889209237267493
1131.0, 0.008151471302661266
1132.0, 0.007506703041740086
1133.0, 0.005392051397738732
1134.0, 0.008090465904729248
1135.0, 0.00930307515034966
1136.0, 0.005276301152625264
1137.0, 0.011357964581419482
1138.0, 0.005739909139127244
1139.0, 0.003600093082246502
1140.0, 0.005572317728065865
1141.0, 0.0026287405117985654
1142.0, 0.0048480253795254915
1143.0, 0.005946911141604365
1144.0, 0.005056489748425137
1145.0, 0.004943005013151955
1146.0, 0.0020930070225995178
1147.0, 0.008652420439258525
1148.0, 0.007820560163277668
1149.0, 0.0049133853604716275
1150.0, 0.006766926009498531
1151.0, 0.007290932173060024
1152.0, 0.00697921837219092
1153.0, 0.003943137865533259
1154.0, 0.0029138117299980387
1155.0, 0.002078512993079853
1156.0, 0.0015192887494216807
1157.0, 0.0032886970150648514
1158.0, 0.004766946015025511
1159.0, 0.005542816465749412
1160.0, 0.0021737740772482346
1161.0, 0.0023216211440677047
1162.0, 0.002908959974057464
1163.0, 0.006760847373749927
1164.0, 0.00451444140183893
1165.0, 0.0043662616397210415
1166.0, 0.002782178609925523
1167.0, 0.003290122500425275
1168.0, 0.0041859070696570804
1169.0, 0.001670863049547495
1170.0, 0.00028170128482112174
1171.0, 0.0006922286337349141
1172.0, 0.0010560631892164033
1173.0, 0.0014504307424838495
1174.0, 0.005342491125620026
1175.0, 0.004654387171739644
1176.0, 0.007081225294317519
1177.0, 0.00967140368839781
1178.0, 0.010796121550158275
1179.0, 0.01073932809676936
1180.0, 0.009963130922434817
1181.0, 0.008450280695340874
1182.0, 0.006033428103964804
1183.0, 0.0033951006662606142
1184.0, 0.002458435208621235
1185.0, 0.0015322373765898859
1186.0, 0.0030975552197753777
1187.0, 0.0032035141049241785
1188.0, 0.009203079475868901
1189.0, 0.005798603999422573
1190.0, 0.008002242821055048
1191.0, 0.008599262073963885
1192.0, 0.006571041686312612
1193.0, 0.006156442331240924
1194.0, 0.0047955093695329805
1195.0, 0.0010476377489947533
1196.0, 0.002727175899010369
1197.0, 0.007020854393983585
1198.0, 0.0070264017124835
1199.0, 0.0034429919478759746
1200.0, 0.0031226845799361192
1201.0, 0.0020160229109056744
1202.0, 0.002551505908074143
1203.0, 0.0021664372176462905
1204.0, 0.0017095355503576745
1205.0, 0.003081210711125456
1206.0, 0.004273253760836784
1207.0, 0.004376494527160031
1208.0, 0.005574393553186698
1209.0, 0.005485365271107625
1210.0, 0.0033823885330242767
1211.0, 0.0058982590750752874
1212.0, 0.0107257664152846
1213.0, 0.009722310748507573
1214.0, 0.007143620404309996
1215.0, 0.008355142224320437
1216.0, 0.006377861712205346
1217.0, 0.005447707419301276
1218.0, 0.003675537861121434
1219.0, 0.0036178992561874744
1220.0, 0.006146141936860791
1221.0, 0.007849156337045115
1222.0, 0.012730807895564874
1223.0, 0.011022811989161892
1224.0, 0.007222601457022202
1225.0, 0.012618907363045401
1226.0, 0.010904995444403754
1227.0, 0.010898960001027523
1228.0, 0.010975228312574279
1229.0, 0.009789824579697928
1230.0, 0.009294132826485455
1231.0, 0.00878979594719749
1232.0, 0.008317722637135306
1233.0, 0.009737257263856535
1234.0, 0.00998623447789417
1235.0, 0.005990777965368415
1236.0, 0.005651701620892145
1237.0, 0.0031399098683873214
1238.0, 0.011227927815107222
1239.0, 0.010744445910326979
1240.0, 0.010098526285677428
1241.0, 0.01028350029901454
1242.0, 0.00977663390490406
1243.0, 0.008798078736227202
1244.0, 0.007285907904921138
1245.0, 0.010077406179649355
1246.0, 0.01161548294450462
1247.0, 0.010287284925392349
1248.0, 0.010039308376907722
1249.0, 0.0074031932356349115
1250.0, 0.008405299397933282
1251.0, 0.012567691705999806
1252.0, 0.00794950670006462
1253.0, 0.016967364634590983
1254.0, 0.01583566098279609
1255.0, 0.008131917417182397
1256.0, 0.013557025306265593
1257.0, 0.015388503408048605
1258.0, 0.010965480216196057
1259.0, 0.011342613103751821
1260.0, 0.013737244860270064
1261.0, 0.015293044107483235
1262.0, 0.014604427315726684
1263.0, 0.008194938974987121
1264.0, 0.007883292511875502
1265.0, 0.006430072112634658
1266.0, 0.018753311256139292
1267.0, 0.01710734845318271
1268.0, 0.014508445044932393
1269.0, 0.019925275575941516
1270.0, 0.015113585996657365
1271.0, 0.02152803302138147
1272.0, 0.02226036635862365
1273.0, 0.01659747112662544
1274.0, 0.014170369711050585
1275.0, 0.015960142143171794
1276.0, 0.02022888371228798
1277.0, 0.025343557293416287
1278.0, 0.02504640100062914
1279.0, 0.02150660617734477
1280.0, 0.02122218850664284
1281.0, 0.01917362112093937
1282.0, 0.019518450467172915
1283.0, 0.018590209165729114
1284.0, 0.019890406031027996
1285.0, 0.018110453639338126
1286.0, 0.015438552941610733
1287.0, 0.014327330505186446
1288.0, 0.015647524531078646
1289.0, 0.01811480806937295
1290.0, 0.019555645306418363
1291.0, 0.01997863733685356
1292.0, 0.020502681911950663
1293.0, 0.021282843356445643
1294.0, 0.023935331762756484
1295.0, 0.026022840389413947
1296.0, 0.016506476374033387
1297.0, 0.022571898685776734
1298.0, 0.01812069052192016
1299.0, 0.02130797475877231
1300.0, 0.02407520949765506
1301.0, 0.02097868789185058
1302.0, 0.021541009330150445
1303.0, 0.018369159818392267
1304.0, 0.01877120239886466
1305.0, 0.02121634792847718
1306.0, 0.020863042041095715
1307.0, 0.01892369354460591
1308.0, 0.018038813807331622
1309.0, 0.022010084748153833
1310.0, 0.02039378261269979
1311.0, 0.020129030691363427
1312.0, 0.019531947431393498
1313.0, 0.019351284120346767
1314.0, 0.01243226499018044
1315.0, 0.017282100302689115
1316.0, 0.017450625295898088
1317.0, 0.02555513301657999
1318.0, 0.02643217074495017
1319.0, 0.023482533196631943
1320.0, 0.02194111342235079
1321.0, 0.017952361802360647
1322.0, 0.012295331630286841
1323.0, 0.011423389382184165
1324.0, 0.012585394322293473
1325.0, 0.010517629961199882
1326.0, 0.014162807314669946
1327.0, 0.014392471550736214
1328.0, 0.01556112786854857
1329.0, 0.020343606748872027
1330.0, 0.015990931532865616
1331.0, 0.013506130633021269
1332.0, 0.010046911817202431
1333.0, 0.009523722669927319
1334.0, 0.012551520319409353
1335.0, 0.013861680749581095
1336.0, 0.013567983864034357
1337.0, 0.012607269308036234
1338.0, 0.014397620716106183
1339.0, 0.01606599859304775
1340.0, 0.013262261223753114
1341.0, 0.011447315651872382
1342.0, 0.01330353069479192
1343.0, 0.01789699332862807
1344.0, 0.019569527290801234
1345.0, 0.019718166155884446
1346.0, 0.010085306812162114
1347.0, 0.017534723931951154
1348.0, 0.018037962527157825
1349.0, 0.011717951750895976
1350.0, 0.014150927863097476
1351.0, 0.015177817983831516
1352.0, 0.013049168732866325
1353.0, 0.021537929232281223
1354.0, 0.01921058591730015
1355.0, 0.011240673343618187
1356.0, 0.014001908360070522
1357.0, 0.024672408580856897
1358.0, 0.033628425347064665
1359.0, 0.026564833202740046
1360.0, 0.01569760556409927
1361.0, 0.009087098941014046
1362.0, 0.018613153527385618
1363.0, 0.01616496932427532
1364.0, 0.014235470297801095
1365.0, 0.01638645405991223
1366.0, 0.013448052147665689
1367.0, 0.0036732728942394156
1368.0, 0.0046963744347022105
1369.0, 0.0037004943873260544
1370.0, 0.011369855651424059
1371.0, 0.009346418306109647
1372.0, 0.00707524565232321
1373.0, 0.006808473043967335
1374.0, 0.008845777450344788
1375.0, 0.013171447098254343
1376.0, 0.008733344565593444
1377.0, 0.0034825258939788707
1378.0, 0.001781374343704029
1379.0, 0.0015263182897213875
1380.0, 0.0002869335451658441
1381.0, 0.0007653729707842636
1382.0, 0.00771218068931717
1383.0, 0.007686519957090762
1384.0, 0.0076948656890277805
1385.0, 0.00654261017431922
1386.0, 0.0040288009660156155
1387.0, 0.007255659831850093
1388.0, 0.0031057431048665913
1389.0, 0.003394458590867221
1390.0, 0.004183721602140067
1391.0, 0.0024287209153014445
1392.0, 0.0007099676870806613
1393.0, 0.0015492596709499556
1394.0, 0.0022663968963906427
1395.0, 0.00013530438189014753
1396.0, 0.0009801116885640765
1397.0, 0.0030214123105342114
1398.0, 0.002851803565869967
1399.0, 0.004983170559913191
1400.0, 0.0020021235526332636
1401.0, 0.004000782693669682
1402.0, 0.004080240114080253
1403.0, 0.003969257476957827
1404.0, 0.0040147934327101256
1405.0, 0.004688017963821686
1406.0, 0.003000170956261533
1407.0, 0.0038836635901013765
1408.0, 0.0024112795755463923
1409.0, 0.003159783270765267
1410.0, 0.008596929167282379
1411.0, 0.008185755751761963
1412.0, 0.006841942016723123
1413.0, 0.009062063116485684
1414.0, 0.00643979461350949
1415.0, 0.004905463968022187
1416.0, 0.010424537743700517
1417.0, 0.009057711269889414
1418.0, 0.009578991932878153
1419.0, 0.007265697144774965
1420.0, 0.006591861593116501
1421.0, 0.010320696048383494
1422.0, 0.016589298348839588
1423.0, 0.015053296470703482
1424.0, 0.01266215175993032
1425.0, 0.008766455228629245
1426.0, 0.008580882187576102
1427.0, 0.015135736027158305
1428.0, 0.012535661045948374
1429.0, 0.01448069543286353
1430.0, 0.020302848574733762
1431.0, 0.020513549479522882
1432.0, 0.02293807733772066
1433.0, 0.024578633710587466
1434.0, 0.026676067272336186
1435.0, 0.027591356439470763
1436.0, 0.02210920983540678
1437.0, 0.020803310124945577
1438.0, 0.01768587512851366
1439.0, 0.018590528429011585
1440.0, 0.020443020729162712
1441.0, 0.02155186852282219
1442.0, 0.024905065482452856
1443.0, 0.024472732642623205
1444.0, 0.022154464390673714
1445.0, 0.031686373906151255
1446.0, 0.03213388515531014
1447.0, 0.035410522642391425
1448.0, 0.02817871059708089
1449.0, 0.021245064630076707
1450.0, 0.027610776745756377
1451.0, 0.028298792045280307
1452.0, 0.03345694248289048
1453.0, 0.034003954601642544
1454.0, 0.027974391582775402
1455.0, 0.026752691833570902
1456.0, 0.025211307027251835
1457.0, 0.025306438921502528
1458.0, 0.02628443052600633
1459.0, 0.022930503954308568
1460.0, 0.02405269384944278
1461.0, 0.01830724708440473
1462.0, 0.020905018797819107
1463.0, 0.0265333749962828
1464.0, 0.02517818098722656
1465.0, 0.028747487304480224
1466.0, 0.023630991835220914
1467.0, 0.02469857198878218
1468.0, 0.02470416385408324
1469.0, 0.019808357309903983
1470.0, 0.020955032647716147
1471.0, 0.019333287169156603
1472.0, 0.02277863094996904
1473.0, 0.018196173107341687
1474.0, 0.011617437486934919
1475.0, 0.017200817170963466
1476.0, 0.008280733215995728
1477.0, 0.011515979351388282
1478.0, 0.022470464627607663
1479.0, 0.02009457243441232
1480.0, 0.014567450862564578
1481.0, 0.01993872595806159
1482.0, 0.022733915221330947
1483.0, 0.017191557381582356
1484.0, 0.015260047636667117
1485.0, 0.013321560929446244
1486.0, 0.015461162195655596
1487.0, 0.021766253911601415
1488.0, 0.01399337288564164
1489.0, 0.015068144478029382
1490.0, 0.020812982163478457
1491.0, 0.014672000821995249
1492.0, 0.021903187006595035
1493.0, 0.020626565361866994
1494.0, 0.018175398008237777
1495.0, 0.012863489997240565
1496.0, 0.0035155867493775785
1497.0, 0.01680230074296215
1498.0, 0.004862707177644531
1499.0, 0.011587282488139191
1500.0, 0.010466650709799578
1501.0, 0.011981388519047283
1502.0, 0.008548781926776838
1503.0, 0.003194531957257724
1504.0, 0.010177244703000365
1505.0, 0.016124413213730645
1506.0, 0.011432238310933669
1507.0, 0.010264167121404094
1508.0, 0.012738747634428504
1509.0, 0.013252103316797565
1510.0, 0.014345070423940339
1511.0, 0.01343476498744757
1512.0, 0.009879457432906249
1513.0, 0.006137715095863233
1514.0, 0.005608968187555
1515.0, 0.008105689780055183
1516.0, 0.01680918199359616
1517.0, 0.010998640641125568
1518.0, 0.0028926010343081664
1519.0, 0.015620019099479004
1520.0, 0.0005208594479902632
1521.0, 0.005151611062756687
1522, 0.0
1523, 0.0
1524, 0.0
1525, 0.0
1526, 0.0
1527, 0.0
1528, 0.0
1529, 0.0
1530, 0.0
1531, 0.0
1532, 0.0
1533, 0.0
1534, 0.0
1535, 0.0
1536, 0.0
1537, 0.0
1538, 0.0
1539, 0.0
1540, 0.0
1541, 0.0
1542, 0.0
1543, 0.0
1544, 0.0
1545, 0.0
1546, 0.0
1547, 0.0
1548, 0.0
1549, 0.0
1550, 0.0
1551, 0.0
1552, 0.0
1553, 0.0
1554, 0.0
1555, 0.0
1556, 0.0
1557, 0.0
1558, 0.0
1559, 0.0
1560, 0.0
1561, 0.0
1562, 0.0
1563, 0.0
1564, 0.0
1565, 0.0
1566, 0.0
1567, 0.0
1568, 0.0
1569, 0.0
1570, 0.0
1571, 0.0
1572, 0.0
1573, 0.0
1574, 0.0
1575, 0.0
1576, 0.0
1577, 0.0
1578, 0.0
1579, 0.0
1580, 0.0
1581, 0.0
1582, 0.0
1583, 0.0
1584, 0.0
1585, 0.0
1586, 0.0
1587, 0.0
1588, 0.0
1589, 0.0
1590, 0.0
1591, 0.0
1592, 0.0
1593, 0.0
1594, 0.0
1595, 0.0
1596, 0.0
1597, 0.0
1598, 0.0
1599, 0.0
