30, 0.0
31, 0.0
32, 0.0
33, 0.0
34, 0.0
35, 0.0
36, 0.0
37, 0.0
38, 0.0
39, 0.0
40, 0.0
41, 0.0
42, 0.0
43, 0.0
44, 0.0
45, 0.0
46, 0.0
47, 0.0
48, 0.0
49, 0.0
50, 0.0
51, 0.0
52, 0.0
53, 0.0
54, 0.0
55, 0.0
56, 0.0
57, 0.0
58, 0.0
59, 0.0
60, 0.0
61, 0.0
62, 0.0
63, 0.0
64, 0.0
65, 0.0
66, 0.0
67, 0.0
68, 0.0
69, 0.0
70, 0.0
71, 0.0
72, 0.0
73, 0.0
74, 0.0
75, 0.0
76, 0.0
77, 0.0
78, 0.0
79, 0.0
80, 0.0
81, 0.0
82, 0.0
83, 0.0
84, 0.0
85, 0.0
86, 0.0
87, 0.0
88, 0.0
89, 0.0
90, 0.0
91, 0.0
92, 0.0
93, 0.0
94, 0.0
95, 0.0
96, 0.0
97, 0.0
98, 0.0
99, 0.0
100, 0.0
101, 0.0
102, 0.0
103, 0.0
104, 0.0
105, 0.0
106, 0.0
107, 0.0
108, 0.0
109, 0.0
110, 0.0
111, 0.0
112, 0.0
113, 0.0
114, 0.0
115, 0.0
116, 0.0
117, 0.0
118, 0.0
119, 0.0
120, 0.0
121.0, 7.98731984249978e-05
122.0, 0.002258584040391828
123.0, 0.0043529888361935895
124.0, 0.0017559859671419356
125.0, 0.002091097262014999
126.0, 0.018660816014334343
127.0, 0.025970353079484875
128.0, 0.0375614332817803
129.0, 0.049991500460130435
130.0, 0.05065275345045265
131.0, 0.08559343743013312
132.0, 0.1118032201760655
133.0, 0.12810049740533763
134.0, 0.1426505186010666
135.0, 0.15106813180979708
136.0, 0.1684248813280761
137.0, 0.1875142660104557
138.0, 0.2031940462755985
139.0, 0.2204300019953878
140.0, 0.22431815563005414
141.0, 0.2221554227167209
142.0, 0.22038667068767054
143.0, 0.22015505747221178
144.0, 0.22660742180126198
145.0, 0.23057890796638705
146.0, 0.2302543284369058
147.0, 0.2280866656575606
148.0, 0.2271213825836001
149.0, 0.22092718783070478
150.0, 0.212247548687114
151.0, 0.20154433045087913
152.0, 0.17573463626525507
153.0, 0.17146166614894395
154.0, 0.1673883194738899
155.0, 0.1568897769406982
156.0, 0.1548000526887657
157.0, 0.14479766954054174
158.0, 0.13907183643251342
159.0, 0.13546871728179996
160.0, 0.12727565889788223
161.0, 0.12497981892758576
162.0, 0.11715718324952108
163.0, 0.10967986185036645
164.0, 0.10874798103244798
165.0, 0.1098349145433898
166.0, 0.11146123900969372
167.0, 0.11549394391286733
168.0, 0.1216911833756666
169.0, 0.12790485710658267
170.0, 0.13813449799126065
171.0, 0.1510205289740255
172.0, 0.16433224615699077
173.0, 0.17631221717615156
174.0, 0.1880422898749906
175.0, 0.21037743552129679
176.0, 0.23098617139979727
177.0, 0.24352274740654492
178.0, 0.2609093643494789
179.0, 0.27505948751551224
180.0, 0.28316530406954193
181.0, 0.2904731880509285
182.0, 0.3047662217838719
183.0, 0.31440948497834714
184.0, 0.3298592842880959
185.0, 0.34470377898382565
186.0, 0.3547893307752896
187.0, 0.3796401506786133
188.0, 0.42948426047109856
189.0, 0.4475251249216623
190.0, 0.42879649682976706
191.0, 0.43671567128481287
192.0, 0.4301244727190374
193.0, 0.4227688980250341
194.0, 0.4305049335289226
195.0, 0.45608968924877163
196.0, 0.47853520856801457
197.0, 0.5051655219780079
198.0, 0.5359100822822148
199.0, 0.5681703103261021
200.0, 0.5969240497603705
201.0, 0.604250742326722
202.0, 0.5973848356176739
203.0, 0.5960196223862035
204.0, 0.6151572319122034
205.0, 0.6259771430141069
206.0, 0.644124360430932
207.0, 0.672521804236148
208.0, 0.7051106925842269
209.0, 0.7361573050681046
210.0, 0.7773404062078109
211.0, 0.8247143322934336
212.0, 0.8674029915104416
213.0, 0.892476765652683
214.0, 0.9177914403679879
215.0, 0.9475225226734475
216.0, 0.976887574539904
217.0, 0.9971441267790703
218.0, 0.9976705438292878
219.0, 0.9811402528064103
220.0, 0.9426966036680404
221.0, 0.8712451406556047
222.0, 0.7544726547819494
223.0, 0.6383471603302695
224.0, 0.538060685972675
225.0, 0.4537447176121542
226.0, 0.3820475653874009
227.0, 0.32345255451240074
228.0, 0.28327344946833605
229.0, 0.25168848938177535
230.0, 0.2215014642588388
231.0, 0.19364044915281553
232.0, 0.18008397201743168
233.0, 0.16792003524752877
234.0, 0.15272286444630243
235.0, 0.13774797642787295
236.0, 0.13200489157241097
237.0, 0.10827435959474177
238.0, 0.09765963899129472
239.0, 0.09944781383081443
240.0, 0.08332604170922522
241.0, 0.07439074306734769
242.0, 0.06729340152975453
243.0, 0.056806456400906355
244.0, 0.04394697404750124
245.0, 0.0395631506522659
246.0, 0.03173275111752806
247.0, 0.020827655063558517
248.0, 0.012217703723383126
249.0, 0.01094116411633134
250.0, 0.005476947418556956
251.0, 0.008837380388580104
252.0, 0.011419290515055336
253.0, 0.005723942141370261
254.0, 0.00107349827705834
255.0, 0.0004067670924828298
256.0, 0.0017286627996876314
257.0, 0.004651182449604069
258.0, 0.008290394003092444
259.0, 0.008282592640152676
260.0, 0.00894792351120277
261.0, 0.010466573424672753
262.0, 0.011922354607478107
263.0, 0.01304019149775723
264.0, 0.01604438174893891
265.0, 0.014263674431126569
266.0, 0.008836116038144437
267.0, 0.003937337684973082
268.0, 0.002173635340098424
269.0, 0.004818176018990051
270.0, 0.00558247223215878
271.0, 0.0029511267641793835
272.0, 0.0009030263752723996
273.0, 0.006926527134277342
274.0, 0.00794035319578404
275.0, 0.007610119538000168
276.0, 0.011301306772733782
277.0, 0.013805808668381573
278.0, 0.01180971328891739
279.0, 0.013450734767553974
280.0, 0.019033625499573763
281.0, 0.02288935078569628
282.0, 0.01933000832160439
283.0, 0.027750348314673656
284.0, 0.030377675975511602
285.0, 0.023215079071943374
286.0, 0.025445638154356652
287.0, 0.03440307310043905
288.0, 0.04323205060813744
289.0, 0.04693047559027624
290.0, 0.044990674342021156
291.0, 0.04412960419990048
292.0, 0.05045768169936391
293.0, 0.05141904245023525
294.0, 0.049579139424059906
295.0, 0.054812003891123486
296.0, 0.06004442837238739
297.0, 0.05658141411022027
298.0, 0.05190127712487172
299.0, 0.051774226682849415
300.0, 0.054563116551651414
301.0, 0.060205906154072786
302.0, 0.05666368579675073
303.0, 0.06121694217417598
304.0, 0.07786957272181878
305.0, 0.07659174080806361
306.0, 0.06633166687400852
307.0, 0.05708533008225166
308.0, 0.056354637909590964
309.0, 0.06539105405944738
310.0, 0.07314287475829946
311.0, 0.06026118311960924
312.0, 0.05087900303895038
313.0, 0.059292292502148826
314.0, 0.0752672252382452
315.0, 0.06380248104255604
316.0, 0.058883500673886785
317.0, 0.0564214525501335
318.0, 0.05279635511407654
319.0, 0.05747011686625808
320.0, 0.050868065920266735
321.0, 0.043927621991903615
322.0, 0.04185743389975178
323.0, 0.04550434534859957
324.0, 0.05105053932267477
325.0, 0.03972485818081682
326.0, 0.03845598366791602
327.0, 0.03722716186015283
328.0, 0.022585675478899468
329.0, 0.030917855580477393
330.0, 0.030144985794806445
331.0, 0.027235793977995706
332.0, 0.023463240367665998
333.0, 0.014158564402511488
334.0, 0.009605160183318973
335.0, 0.00974848720972238
336.0, 0.012648714897676858
337.0, 0.014205727754851972
338.0, 0.009132833416398818
339.0, 0.003218840324435911
340.0, 0.0018115650896330564
341.0, 0.007658851135232301
342.0, 0.011231879626579596
343.0, 0.004494711263997937
344.0, 0.003868727607681246
345.0, 0.00045070132701184433
346.0, 0.0040570288657499065
347.0, 0.005078326202925891
348.0, 0.0016005238788235649
349.0, 0.003707155264396738
350.0, 0.005443798518902763
351.0, 0.008570172925327144
352.0, 0.01755015080527585
353.0, 0.008107321424700515
354.0, 0.0035033141553311897
355.0, 0.005738243797881443
356.0, 0.006995131167568233
357.0, 0.0028719305181243793
358.0, 0.0014069708712925852
359.0, 0.003961511469917691
360.0, 0.009117072462220498
361.0, 0.011198730793500799
362.0, 0.01310465602430201
363.0, 0.011036981018738594
364.0, 0.004381167837226939
365.0, 0.005983983621165011
366.0, 0.01208551577633946
367.0, 0.009396140420917048
368.0, 0.02044730300757943
369.0, 0.022660956570093635
370.0, 0.020512041004610633
371.0, 0.01952297687435571
372.0, 0.01849406140039727
373.0, 0.01978274638545134
374.0, 0.028837251936093135
375.0, 0.03371175364522439
376.0, 0.03134460142696768
377.0, 0.03460138225163158
378.0, 0.024987878445939648
379.0, 0.02701237201754551
380.0, 0.03530036688687411
381.0, 0.039178802190923796
382.0, 0.042544863014906724
383.0, 0.0474499636255059
384.0, 0.055465020440713095
385.0, 0.060163321737684405
386.0, 0.05718222213161991
387.0, 0.05224536806762609
388.0, 0.06003752760991799
389.0, 0.06683445650892623
390.0, 0.07356059566755924
391.0, 0.08203783984115291
392.0, 0.08484198212391028
393.0, 0.0785962694116075
394.0, 0.08554844921239703
395.0, 0.09073215020290754
396.0, 0.0845628453624761
397.0, 0.0850629405386232
398.0, 0.08679034173179827
399.0, 0.10312101214220133
400.0, 0.11400344675002085
401.0, 0.10748488682029904
402.0, 0.10534113009667398
403.0, 0.11027446885383896
404.0, 0.11774520331942252
405.0, 0.12508485889419166
406.0, 0.1288259051176905
407.0, 0.12595218134169517
408.0, 0.12332167696097604
409.0, 0.1252246916469488
410.0, 0.13003756062770344
411.0, 0.1315609393870123
412.0, 0.12431623809836542
413.0, 0.1257259263844055
414.0, 0.1241712007756313
415.0, 0.12278043329060427
416.0, 0.1226431590308462
417.0, 0.11637850967194165
418.0, 0.11568783106587159
419.0, 0.10022129691504271
420.0, 0.08731878525041878
421.0, 0.0863550450306749
422.0, 0.0823459556108374
423.0, 0.0924489140906808
424.0, 0.07875770215100192
425.0, 0.06938557450627136
426.0, 0.07170947501365524
427.0, 0.05289061883866312
428.0, 0.04856231044374124
429.0, 0.052752492496422235
430.0, 0.05121611018721581
431.0, 0.045681743995652016
432.0, 0.04794017697748753
433.0, 0.0286025716938371
434.0, 0.02387742858608808
435.0, 0.025978702125051246
436.0, 0.022930796386633038
437.0, 0.017367022667669815
438.0, 0.014277694217455667
439.0, 0.00992976829024272
440.0, 0.010584007970193928
441.0, 0.009644826889912021
442.0, 0.0004016930994741488
443.0, 0.0042499662840450375
444.0, 0.001632323785409595
445.0, 0.002756074313528354
446.0, 0.005109195327445014
447.0, 0.004318924565743386
448.0, 0.00850911048625036
449.0, 0.0047142585782793825
450.0, 0.00199973660662771
451.0, 0.0006272053007640733
452.0, 0.004296366027407123
453.0, 0.0034259135499888627
454.0, 0.008941815146099381
455.0, 0.010794058113475285
456.0, 0.0063653300611393225
457.0, 0.005076369559561773
458.0, 0.005523604214960749
459.0, 0.00916695043763638
460.0, 0.00413660854433239
461.0, 0.00013608255603891946
462.0, 0.0035960721530177435
463.0, 0.008694177055848271
464.0, 0.0050931909354077105
465.0, 0.009545509727531128
466.0, 0.008523411564496718
467.0, 0.005667218309726494
468.0, 0.015400116498130141
469.0, 0.009841630596748861
470.0, 0.015044323794902038
471.0, 0.017604429299719913
472.0, 0.01708264684487933
473.0, 0.022202227837868616
474.0, 0.025274056841380378
475.0, 0.022712227776425325
476.0, 0.03114322847307657
477.0, 0.03452246243980042
478.0, 0.02348066343794694
479.0, 0.023294136312105397
480.0, 0.029672631295554662
481.0, 0.024212822045590433
482.0, 0.02513666300837103
483.0, 0.03644824902835447
484.0, 0.03990736855351166
485.0, 0.040178077648961856
486.0, 0.03361230870220038
487.0, 0.03422601356156882
488.0, 0.03964804233747239
489.0, 0.03515569047939366
490.0, 0.020329881250020665
491.0, 0.028188548661285572
492.0, 0.023290672744166428
493.0, 0.012028687474359265
494.0, 0.012468579637206888
495.0, 0.011737460768405164
496.0, 0.02419153266743787
497.0, 0.02093868908353415
498.0, 0.01155060182402699
499.0, 0.011976330554921923
500.0, 0.019975676185391457
501.0, 0.027942908577905975
502.0, 0.026329962742433974
503.0, 0.026413297283036933
504.0, 0.028704126151324196
505.0, 0.02428895342520379
506.0, 0.004991081655262679
507.0, 0.007186240158441317
508.0, 0.006874000967509635
509.0, 0.008769573184883852
510.0, 0.017574148604210135
511.0, 0.015387883190432263
512.0, 0.01586000789124657
513.0, 0.015911089762898185
514.0, 0.010682080388149813
515.0, 0.007970828987450693
516.0, 0.01666934328710251
517.0, 0.022369142690110814
518.0, 0.018688376394631834
519.0, 0.016286911814900697
520.0, 0.01901027346233425
521.0, 0.02149532896587144
522.0, 0.011527513905825213
523.0, 0.02006360107517755
524.0, 0.02381891013066704
525.0, 0.019166590881098303
526.0, 0.012062540505251153
527.0, 0.004876782436988093
528.0, 0.004115650450159535
529.0, 0.0013015736302421734
530.0, 0.004972977220690896
531.0, 0.0023818787672895726
532.0, 0.004041275826429122
533.0, 0.010232424292477792
534.0, 0.006183991410958337
535.0, 0.008122501358521375
536.0, 0.011744732403260643
537.0, 0.012227784477277643
538.0, 0.014221181274353208
539.0, 0.008754760279943114
540.0, 0.0017459086346473666
541.0, 0.001405859713321906
542.0, 0.0034785017934808532
543.0, 0.003836813081348052
544.0, 0.010216528994240236
545.0, 0.010974574591547293
546.0, 0.012552305423257705
547.0, 0.010315510035224598
548.0, 0.0062220219366242255
549.0, 0.010699892132301601
550.0, 0.009834099089133306
551.0, 0.005733093928765311
552.0, 0.006854274713386086
553.0, 0.007383899097448781
554.0, 0.0028322301316863496
555.0, 0.005284633021926711
556.0, 0.004069950696316932
557.0, 0.007169742541517776
558.0, 0.005309319208429327
559.0, 0.0025299012612089266
560.0, 0.004594540051814505
561.0, 0.006308324957922462
562.0, 0.006656779238027507
563.0, 0.004517190105541707
564.0, 0.0021323117886987318
565.0, 0.0014597870996427957
566.0, 0.006987453690047564
567.0, 0.002411465037464016
568.0, 0.013072663531434804
569.0, 0.010066157800348217
570.0, 0.003655346424411551
571.0, 0.004921292865148406
572.0, 0.00026960860959896133
573.0, 0.0009803272347068547
574.0, 0.0010026230980615032
575.0, 0.02918625627001714
576.0, 0.0564564388734177
577.0, 0.016558176318259253
578.0, 0.008310869541980775
579.0, 0.01816212329412713
580.0, 0.02258240046779848
581.0, 0.017543136659822732
582.0, 0.015541677059417275
583.0, 0.024927295486032876
584.0, 0.030556018596356052
585.0, 0.036854783899338064
586.0, 0.021435928791020294
587.0, 0.006448053507960432
588.0, 0.017546817456329574
589.0, 0.01984242625677528
590.0, 0.011955685563349621
591.0, 0.015534982511838276
592.0, 0.022978467941747016
593.0, 0.023841106712666735
594.0, 0.02454455295159763
595.0, 0.043314726955292156
596.0, 0.040946172184151135
597.0, 0.03278851627573681
598.0, 0.03295020958577774
599.0, 0.04191171579065143
600.0, 0.0524969705246616
601.0, 0.04536545165831758
602.0, 0.0479417255740185
603.0, 0.059021238171856574
604.0, 0.07197084712340403
605.0, 0.07786042311028657
606.0, 0.07065768622880848
607.0, 0.06897209990797654
608.0, 0.08385345148883794
609.0, 0.10095029638981752
610.0, 0.11032887364988085
611.0, 0.11721962041998941
612.0, 0.13160176070865834
613.0, 0.12958923312655019
614.0, 0.1338944004250207
615.0, 0.13740660920295322
616.0, 0.14351720012709762
617.0, 0.1533707399781958
618.0, 0.14324738892275932
619.0, 0.15948812854659264
620.0, 0.17701113373664684
621.0, 0.17611456307029083
622.0, 0.16425807551219396
623.0, 0.15956076002061523
624.0, 0.16853609816602083
625.0, 0.178175391725833
626.0, 0.18559074268223014
627.0, 0.18310731203470063
628.0, 0.17460566827340254
629.0, 0.1715253998286048
630.0, 0.1741550969688302
631.0, 0.16788435761436654
632.0, 0.16307424007579602
633.0, 0.1614474203182282
634.0, 0.1567300255685216
635.0, 0.1451481951295766
636.0, 0.1331316575489787
637.0, 0.13143176451356364
638.0, 0.13992708302118717
639.0, 0.13378643126382692
640.0, 0.11948103208684814
641.0, 0.12158196058485395
642.0, 0.09654349483362767
643.0, 0.09623538249951644
644.0, 0.09656205283018209
645.0, 0.08904600385365408
646.0, 0.08244040321228624
647.0, 0.08255550687397578
648.0, 0.07494147577723836
649.0, 0.07086926875069964
650.0, 0.07565013343476867
651.0, 0.07026109003031747
652.0, 0.054262263124334346
653.0, 0.04679785242188164
654.0, 0.04024201151608881
655.0, 0.04635697499092014
656.0, 0.04534500403985414
657.0, 0.04799810266562615
658.0, 0.04837031571645209
659.0, 0.028808030393424777
660.0, 0.02601837465090206
661.0, 0.03195416021354022
662.0, 0.025614224261552982
663.0, 0.020866562609279563
664.0, 0.025743186669378745
665.0, 0.03014911253040487
666.0, 0.03187968651504187
667.0, 0.013991611385607986
668.0, 0.017789434567014453
669.0, 0.02559849198647299
670.0, 0.02007406103243952
671.0, 0.006572794991429689
672.0, 0.005212550109718947
673.0, 0.01540810060338668
674.0, 0.014207535050564418
675.0, 0.012132139632454197
676.0, 0.010733018417022648
677.0, 0.008384104137101623
678.0, 0.020068478103662298
679.0, 0.004233289970731946
680.0, 0.00526004009592742
681.0, 0.0018227576261706448
682.0, 0.008002589220249521
683.0, 0.00422720557640373
684.0, 0.003350581529501914
685.0, 0.0029160233524817233
686.0, 0.0012838685054275577
687.0, 0.00640643745234735
688.0, 0.013993033653233582
689.0, 0.010003957868675566
690.0, 0.005286847842196308
691.0, 0.0032602377485310917
692.0, 0.008086492156582779
693.0, 0.0016473853827196185
694.0, 0.004185992181594764
695.0, 0.00229408364635756
696.0, 0.012660636931967433
697.0, 0.00860288558389847
698.0, 0.014957853123690417
699.0, 0.03165820872217632
700.0, 0.030963594281587094
701.0, 0.022086310887580896
702.0, 0.023765764059516876
703.0, 0.009553792111966934
704.0, 0.0049920747292168275
705.0, 0.0065936809238269145
706.0, 0.013101756356368104
707.0, 0.01128274290565779
708.0, 0.0018149997074829033
709.0, 0.003279103794105481
710.0, 0.01696878416616551
711.0, 0.03142505709562508
712.0, 0.026266212768043
713.0, 0.014162654839748158
714.0, 0.010970940751841728
715.0, 0.015297205161606443
716.0, 0.010503396419676804
717.0, 0.009086262036679244
718.0, 0.014990216892595309
719.0, 0.020017758232919455
720.0, 0.02116898640985807
721.0, 0.020667008556648596
722.0, 0.016924096303019623
723.0, 0.018337148590008012
724.0, 0.01060063168068797
725.0, 0.013738038788276353
726.0, 0.022749460558044058
727.0, 0.026698080173053727
728.0, 0.03152992235256635
729.0, 0.03575681306549678
730.0, 0.02274556619474674
731.0, 0.032403745501954455
732.0, 0.03308658496694657
733.0, 0.02312945304432082
734.0, 0.025896796291668207
735.0, 0.013347841859535024
736.0, 0.004926655224598019
737.0, 0.020551542431790512
738.0, 0.023063099074448618
739.0, 0.006607041844871161
740.0, 0.007357685825906395
741.0, 0.007822054928444294
742.0, 0.01199539161638575
743.0, 0.004370357207161501
744.0, 0.020767364057509664
745.0, 0.03337886506191685
746.0, 0.0214226866284076
747.0, 0.006441239700640761
748.0, 0.012054269711002869
749.0, 0.016295977269064472
750.0, 0.009061243707358028
751.0, 0.0033214990255007832
752.0, 0.002347343167955074
753.0, 0.00501618971143597
754.0, 0.01874810680957352
755.0, 0.005002399182032406
756.0, 0.0026964656084578795
757.0, 0.005997537392525579
758.0, 0.004759783858298506
759.0, 0.005133585027955615
760.0, 0.02336252177661549
761.0, 0.019963977802097684
762.0, 0.01593222101846022
763.0, 0.007805021554768754
764.0, 0.019848603425750094
765.0, 0.019612565827069158
766.0, 0.005365274662239237
767.0, 0.010101504504480486
768.0, 0.018569588933301934
769.0, 0.011670702661749102
770.0, 0.020041613900430116
771.0, 0.020384786359718927
772.0, 0.02532770169992091
773.0, 0.03770265087767509
774.0, 0.030138290038541446
775.0, 0.017419485200367027
776.0, 0.014680842489196254
777.0, 0.012718081284932133
778.0, 0.003899184054672041
779.0, 0.0058948416564267025
780.0, 0.01502765796235378
781.0, 0.0023264627438133265
782.0, 0.011517269927802283
783.0, 0.0070823566546036045
784.0, 0.015509930435097569
785.0, 0.015820327006033922
786.0, 0.018074838737343685
787.0, 0.038511845593632965
788.0, 0.041758908961204357
789.0, 0.023526059438370363
790.0, 0.020250339443978423
791.0, 0.029057797813344655
792.0, 0.04100360778377447
793.0, 0.04741580911218284
794.0, 0.046398582897973946
795.0, 0.04357897540549049
796.0, 0.029931497708428973
797.0, 0.020336234993446205
798.0, 0.02642862307709272
799.0, 0.020057988069260693
800.0, 0.012177949600162444
801.0, 0.02855251599327548
802.0, 0.03135933084578121
803.0, 0.03913513779135305
804.0, 0.04029140918987872
805.0, 0.029069188914839627
806.0, 0.01628450061346482
807.0, 0.019397882200930052
808.0, 0.036025299848086875
809.0, 0.0326371215553358
810.0, 0.038373101129681196
811.0, 0.03076044156428123
812.0, 0.02463401745152539
813.0, 0.015883917993100523
814.0, 0.01674645761971852
815.0, 0.03417149463618801
816.0, 0.021410101090559172
817.0, 0.008821935481616852
818.0, 0.021363611988847495
819.0, 0.02079693258969766
820.0, 0.0272795282370537
821.0, 0.03817155895850734
822.0, 0.03075777414156552
823.0, 0.040797125434199874
824.0, 0.04194697456735588
825.0, 0.029951663189804384
826.0, 0.016079436365860317
827.0, 0.009706792478079969
828.0, 0.016437052690009814
829.0, 0.027097917572820495
830.0, 0.01726991692077791
831.0, 0.015596698981253659
832.0, 0.01612208930889358
833.0, 0.02600716160410675
834.0, 0.018659935515557943
835.0, 0.004428996502347225
836.0, 0.007562535116617166
837.0, 0.011508916070685936
838.0, 0.022773013268470164
839.0, 0.027395803252296985
840.0, 0.0036717440466817377
841.0, 0.006475375577278774
842.0, 0.028889782300419393
843.0, 0.04058855585510459
844.0, 0.0315825966957157
845.0, 0.01002400008384154
846.0, 0.0140443659640114
847.0, 0.020369486760491166
848.0, 0.009579851893893834
849.0, 0.004659958462401821
850.0, 0.0058827634296356535
851.0, 0.002623027435220518
852.0, 0.010646791042214459
853.0, 0.013855837043664374
854.0, 0.02505807608626375
855.0, 0.03481163511126209
856.0, 0.022019679522958722
857.0, 0.008329177596145756
858.0, 0.01643456855351031
859.0, 0.0034004578549859865
860.0, 0.001482279006411295
861.0, 0.00585516947722471
862.0, 0.01950548671912374
863.0, 0.02545671239945173
864.0, 0.020171904423525826
865.0, 0.015743489123206236
866.0, 0.02309893903979154
867.0, 0.02670748807845639
868.0, 0.013996358874158402
869.0, 0.005378937394640561
870.0, 0.007843507432770035
871.0, 0.017296174717007593
872.0, 0.03076841866393863
873.0, 0.03304998417034182
874.0, 0.004735780904109207
875.0, 0.019651543561220737
876.0, 0.01839419001714321
877.0, 0.013348775311555249
878.0, 0.015456888261688537
879.0, 0.01388968732779873
880.0, 0.005032598794987693
881.0, 0.0015306398737136148
882.0, 0.004357924074398641
883.0, 0.006229828256073553
884.0, 0.009042959271431419
885.0, 0.01948914343643513
886.0, 0.026101372613616797
887.0, 0.019361624417955515
888.0, 0.014036616484021191
889.0, 0.02030541860330356
890.0, 0.02209299633542601
891.0, 0.03154263908678797
892.0, 0.03095249500670468
893.0, 0.034907694818547434
894.0, 0.03037866318876971
895.0, 0.009886018693137722
896.0, 0.0032231295960123223
897.0, 0.021807377582941004
898.0, 5.880127792297997e-05
899.0, 0.011260892848262318
900.0, 0.023371572312114737
901.0, 0.03419619181482337
902.0, 0.043486098422214875
903.0, 0.03217962487802517
904.0, 0.011008836172744198
905.0, 0.03934578666908122
906.0, 0.05799150724963949
907.0, 0.045496867574255306
908.0, 0.019063817462427232
909.0, 0.0043726242165729136
910.0, 0.008839630096535904
911.0, 0.023607895046356558
912.0, 0.029093647309357783
913.0, 0.01336214994895896
914.0, 0.002362021793010413
915.0, 0.0230286750118708
916.0, 0.018605496158559214
917.0, 0.019790783170062515
918.0, 0.04081975819537863
919.0, 0.0437421094622376
920.0, 0.048123044810943316
921.0, 0.04059706474743395
922.0, 0.05118818098466369
923.0, 0.039220143933300845
924.0, 0.044469989485403344
925.0, 0.045686034453885305
926.0, 0.02651192736027443
927.0, 0.025353732605458458
928.0, 0.050814650071587995
929.0, 0.025942305445470035
930.0, 0.04464312868555137
931.0, 0.04839899097943115
932.0, 0.03811151734627848
933.0, 0.017290334406543366
934.0, 0.0010707667460115515
935.0, 0.011130245907700089
936.0, 0.03134365192639953
937.0, 0.013347715734882908
938.0, 0.01251008269899724
939.0, 0.014383512568260043
940.0, 0.005654225884934274
941.0, 0.0007457915356232442
942.0, 0.0017294461744215568
943.0, 0.0048829003213507124
944.0, 0.014956227923694419
945.0, 0.006812282405552879
946.0, 0.006798011475310815
947.0, 0.010435174696978255
948.0, 0.010202645830897578
949.0, 0.0039703143317758585
950.0, 0.0023859768785270572
951.0, 0.014075724686613498
952.0, 0.028029083246712945
953.0, 0.006679366670894894
954.0, 0.03111187471164694
955.0, 0.0357380845318547
956.0, 0.0299223777494078
957.0, 0.023859688476470412
958.0, 0.02282280781388442
959.0, 0.021037672737938024
960.0, 0.005188181597510561
961.0, 0.00409390104938719
962.0, 0.0011458098759798891
963.0, 0.01528127102052727
964.0, 0.005629068815152035
965.0, 0.010304663938819573
966.0, 0.018929829540388684
967.0, 0.026492810045978497
968.0, 0.028518071263716242
969.0, 0.01338844245411477
970.0, 0.05347718670648004
971.0, 0.03527024336768823
972.0, 0.008767006825936048
973.0, 0.006095756380674876
974.0, 0.020483536650267392
975.0, 0.023003839908329184
976.0, 0.008299202487254348
977.0, 0.009650042862629776
978.0, 0.01552456662855774
979.0, 0.06586260587615751
980.0, 0.05812581821419517
981.0, 0.04138920678239422
982.0, 0.03759241030942294
983.0, 0.034394611792704075
984.0, 0.03434096148600174
985.0, 0.048696803522019
986.0, 0.056046200715395386
987.0, 0.05388783319093798
988.0, 0.04586942781886895
989.0, 0.04336809544862088
990.0, 0.03984500363676968
991.0, 0.031744360939570504
992.0, 0.027656036647401305
993.0, 0.03395812640517946
994.0, 0.038158997766173465
995.0, 0.027707473141083645
996.0, 0.055916375270509515
997.0, 0.035098246672946275
998.0, 0.01669102485004593
999.0, 0.012794236014317041
1000.0, 0.007391622373552588
1001.0, 0.012004492802047158
1002.0, 0.014597680021632507
1003.0, 0.03294188566902974
1004.0, 0.009379532945917108
1005.0, 7.341244895839598e-06
1006.0, 0.0223734620380791
1007.0, 0.02429360979655825
1008.0, 0.02634067156344565
1009.0, 0.029675698290151736
1010.0, 0.02525547814852192
1011.0, 0.030023236097178673
1012.0, 0.03701676038805677
1013.0, 0.037943384933040926
1014.0, 0.03013028022091141
1015.0, 0.04322763847160431
1016.0, 0.04976271345828063
1017.0, 0.05766005868132948
1018.0, 0.06922794666748845
1019.0, 0.0512431613771246
1020.0, 0.005281990976789132
1021.0, 0.02084806295203167
1022.0, 0.011713373452828212
1023.0, 0.028410962946199634
1024.0, 0.025807225495363507
1025.0, 0.03846694130794133
1026.0, 0.01489989552004797
1027.0, 0.014351000704290288
1028.0, 0.043282953374998885
1029.0, 0.038279944413369175
1030.0, 0.06121691846174484
1031.0, 0.034055505464162
1032.0, 0.019264476936385954
1033.0, 0.03631229773686711
1034.0, 0.03952183888197565
1035.0, 0.030540155903950938
1036.0, 0.050981827740735376
1037.0, 0.0830183448447396
1038.0, 0.06730623832868063
1039.0, 0.0504916721214396
1040.0, 0.07625633572300028
1041.0, 0.03230399753571977
1042.0, 0.023741566413119784
1043.0, 0.02753986008324156
1044.0, 0.03701586014919858
1045.0, 0.03698098785802619
1046.0, 0.016719324315506517
1047.0, 0.006182427513252474
1048.0, 0.029310253696793007
1049.0, 0.01255134130373248
1050.0, 0.020230830962655717
1051.0, 0.06164068940378062
1052.0, 0.047464863523088235
1053.0, 0.010443024202408013
1054.0, 0.039128128281843005
1055.0, 0.07515857541218314
1056.0, 0.04266976278672075
1057.0, 0.04586983765238971
1058.0, 0.06471368633432857
1059.0, 0.08529504709831465
1060.0, 0.037022033782704813
1061.0, 0.04529661271350126
1062.0, 0.04591851411641118
1063.0, 0.028191850960016217
1064.0, 0.03619948844023396
1065.0, 0.0657333615887519
1066.0, 0.06977683591285855
1067.0, 0.04371852081433203
1068.0, 0.02038646336752458
1069.0, 0.029807114218672173
1070.0, 0.00508551324468249
1071.0, 0.021395524569910538
1072.0, 0.05219190991233618
1073.0, 0.04435765054124819
1074.0, 0.008783598256988698
1075.0, 0.008093418686893384
1076.0, 0.018036649383999057
1077.0, 0.03343763341833628
1078.0, 0.019513110258575293
1079.0, 0.0486552659924577
1080.0, 0.04767218621884262
1081.0, 0.045048658375320925
1082.0, 0.04377070331064451
1083.0, 0.05136670480301255
1084.0, 0.06368995539213847
1085.0, 0.061419069603932064
1086.0, 0.043485204543729575
1087.0, 0.031050968988391974
1088.0, 0.05350609977037117
1089.0, 0.006920187525266794
1090.0, 0.011940752641648171
1091.0, 0.013481213116205816
1092.0, 0.011121897320192342
1093.0, 0.010997643433690495
1094.0, 0.016596450216870638
1095.0, 0.01449001410782511
1096.0, 0.027364275269501224
1097.0, 0.04774301720054932
1098.0, 0.058397838675971515
1099.0, 0.0017850715333742745
1100.0, 0.02283878094843017
1101.0, 0.03889303021193894
1102.0, 0.06245479384450871
1103.0, 0.07080429083916263
1104.0, 0.03857034952743607
1105.0, 0.014852348485031659
1106.0, 0.032678955135012226
1107.0, 0.036888749212119536
1108.0, 0.055454319353531886
1109.0, 0.027586986450594483
1110.0, 0.0020435571238533543
1111.0, 0.021129522960274517
1112.0, 0.049009701304194755
1113.0, 0.051240024932691065
1114.0, 0.035664391248118446
1115.0, 0.04251738806026528
1116.0, 0.050070117470393
1117.0, 0.008470124919083048
1118.0, 0.03984529251173865
1119.0, 0.03117297006627487
1120.0, 0.023970606146542506
1121.0, 0.020558252746380627
1122.0, 0.03409881219277739
1123.0, 0.02328931738214514
1124.0, 0.04513961118118273
1125.0, 0.03964584639566316
1126.0, 0.011847622925984323
1127.0, 0.002918287888584569
1128.0, 0.014087888591481513
1129.0, 0.04386456268135922
1130.0, 0.05532431070883479
1131.0, 0.0630551178669866
1132.0, 0.08616750739238069
1133.0, 0.06301375315023873
1134.0, 0.0646579280400708
1135.0, 0.07498093348985904
1136.0, 0.06611678974051587
1137.0, 0.0653302138057084
1138.0, 0.06606795811978954
1139.0, 0.07089646314093453
1140.0, 0.08770953076461367
1141.0, 0.07792985611670032
1142.0, 0.06675486550297623
1143.0, 0.07527027613381074
1144.0, 0.07100132486399584
1145.0, 0.06015749802458973
1146.0, 0.057247236732812026
1147.0, 0.0648712681680021
1148.0, 0.07247285759425652
1149.0, 0.06004433398530598
1150.0, 0.03628011249651496
1151.0, 0.039887263171573296
1152.0, 0.017068021075159794
1153.0, 0.007845449662278674
1154.0, 0.018991837853338255
1155.0, 0.015221963899084453
1156.0, 0.013933417305348835
1157.0, 0.02068846749451608
1158.0, 0.02828872748640217
1159.0, 0.02919078581371514
1160.0, 0.023457492111456306
1161.0, 0.04720610042133925
1162.0, 0.03929798300905285
1163.0, 0.03166509683046438
1164.0, 0.04865848833269942
1165.0, 0.07691962764315105
1166.0, 0.08188593831891795
1167.0, 0.0737383210225463
1168.0, 0.09325388194269253
1169.0, 0.11553968049436464
1170.0, 0.10115705926871917
1171.0, 0.08089934655905015
1172.0, 0.08861840609908735
1173.0, 0.08538023943722614
1174.0, 0.06951949042080262
1175.0, 0.06281676532551296
1176.0, 0.0911641364299388
1177.0, 0.06924501226504533
1178.0, 0.0674372677657637
1179.0, 0.05461155509764922
1180.0, 0.05448458257597978
1181.0, 0.053350439138056024
1182.0, 0.034981222115194374
1183.0, 0.05559111242287414
1184.0, 0.03282037836161429
1185.0, 0.018257340048432404
1186.0, 0.01587640406584854
1187.0, 0.04538289626460665
1188.0, 0.0871427974007356
1189.0, 0.04957597734718855
1190.0, 0.05953926182318568
1191.0, 0.06489051471457276
1192.0, 0.06414796503517452
1193.0, 0.08444803359276701
1194.0, 0.08069443436681485
1195.0, 0.05598150985593561
1196.0, 0.033583568511001576
1197.0, 0.03411990310626371
1198.0, 0.04452702688756464
1199.0, 0.029757177579021295
1200.0, 0.04935340145465698
1201.0, 0.02856860365604014
1202.0, 0.03574105959497558
1203.0, 0.03716163715002991
1204.0, 0.0181861839712903
1205.0, 0.03629384531256462
1206.0, 0.05173818324222302
1207.0, 0.03269890973226136
1208.0, 0.08359104207393032
1209.0, 0.024963982507010665
1210.0, 0.0019972462078969282
1211.0, 0.03709971425751709
1212.0, 0.04108569400946458
1213.0, 0.03178059086607077
1214.0, 0.04202760243709916
1215.0, 0.07395275892816874
1216.0, 0.056039276770460354
1217.0, 0.03710820020522701
1218.0, 0.052857490374033256
1219.0, 0.03256662669158389
1220.0, 0.01422666700069398
1221.0, 0.043073665600028746
1222.0, 0.010294053292916362
1223.0, 0.02146701601030186
1224.0, 0.009836842764110017
1225.0, 0.01350908983809982
1226.0, 0.03953610707457936
1227.0, 0.06057523664045224
1228.0, 0.06600592188870807
1229.0, 0.06751343083116021
1230.0, 0.05122077373635543
1231.0, 0.053809814538317235
1232.0, 0.11297461300332756
1233.0, 0.1265135777024259
1234.0, 0.0779054212320628
1235.0, 0.11855432390349217
1236.0, 0.09660265663685358
1237.0, 0.05655933184665647
1238.0, 0.053953249364417366
1239.0, 0.0522668996029987
1240.0, 0.014572311017261403
1241.0, 0.015019413099683077
1242.0, 0.027508724480389025
1243.0, 0.027226470134401548
1244.0, 0.027314616129782313
1245.0, 0.024261859660312853
1246.0, 0.06676482012835254
1247.0, 0.04391784467574719
1248.0, 0.03128580130750322
1249.0, 0.0960677063658085
1250.0, 0.11874062843749093
1251.0, 0.11239917375810039
1252.0, 0.09663821936065167
1253.0, 0.11406965190469277
1254.0, 0.06833638909498449
1255.0, 0.04226912218817787
1256.0, 0.06867491661449665
1257.0, 0.06890560219844136
1258.0, 0.04010652055322243
1259.0, 0.041980969032168025
1260.0, 0.08972610714693371
1261.0, 0.08480474104931984
1262.0, 0.0766730334164163
1263.0, 0.10277273829502956
1264.0, 0.1185585145278555
1265.0, 0.08506364999475541
1266.0, 0.07215759454466136
1267.0, 0.07013308723931409
1268.0, 0.0198943055843461
1269.0, 0.007724024530861703
1270.0, 0.06525765368145993
1271.0, 0.0952021648079429
1272.0, 0.08210884060190089
1273.0, 0.0833991105553886
1274.0, 0.03190350380721041
1275.0, 0.025097672298493138
1276.0, 0.0223824745200546
1277.0, 0.00297853042572877
1278.0, 0.04355245118438339
1279.0, 0.005203331298368868
1280, 0.0
1281, 0.0
1282, 0.0
1283, 0.0
1284, 0.0
1285, 0.0
1286, 0.0
1287, 0.0
1288, 0.0
1289, 0.0
1290, 0.0
1291, 0.0
1292, 0.0
1293, 0.0
1294, 0.0
1295, 0.0
1296, 0.0
1297, 0.0
1298, 0.0
1299, 0.0
1300, 0.0
1301, 0.0
1302, 0.0
1303, 0.0
1304, 0.0
1305, 0.0
1306, 0.0
1307, 0.0
1308, 0.0
1309, 0.0
1310, 0.0
1311, 0.0
1312, 0.0
1313, 0.0
1314, 0.0
1315, 0.0
1316, 0.0
1317, 0.0
1318, 0.0
1319, 0.0
1320, 0.0
1321, 0.0
1322, 0.0
1323, 0.0
1324, 0.0
1325, 0.0
1326, 0.0
1327, 0.0
1328, 0.0
1329, 0.0
1330, 0.0
1331, 0.0
1332, 0.0
1333, 0.0
1334, 0.0
1335, 0.0
1336, 0.0
1337, 0.0
1338, 0.0
1339, 0.0
1340, 0.0
1341, 0.0
1342, 0.0
1343, 0.0
1344, 0.0
1345, 0.0
1346, 0.0
1347, 0.0
1348, 0.0
1349, 0.0
1350, 0.0
1351, 0.0
1352, 0.0
1353, 0.0
1354, 0.0
1355, 0.0
1356, 0.0
1357, 0.0
1358, 0.0
1359, 0.0
1360, 0.0
1361, 0.0
1362, 0.0
1363, 0.0
1364, 0.0
1365, 0.0
1366, 0.0
1367, 0.0
1368, 0.0
1369, 0.0
1370, 0.0
1371, 0.0
1372, 0.0
1373, 0.0
1374, 0.0
1375, 0.0
1376, 0.0
1377, 0.0
1378, 0.0
1379, 0.0
1380, 0.0
1381, 0.0
1382, 0.0
1383, 0.0
1384, 0.0
1385, 0.0
1386, 0.0
1387, 0.0
1388, 0.0
1389, 0.0
1390, 0.0
1391, 0.0
1392, 0.0
1393, 0.0
1394, 0.0
1395, 0.0
1396, 0.0
1397, 0.0
1398, 0.0
1399, 0.0
1400, 0.0
1401, 0.0
1402, 0.0
1403, 0.0
1404, 0.0
1405, 0.0
1406, 0.0
1407, 0.0
1408, 0.0
1409, 0.0
1410, 0.0
1411, 0.0
1412, 0.0
1413, 0.0
1414, 0.0
1415, 0.0
1416, 0.0
1417, 0.0
1418, 0.0
1419, 0.0
1420, 0.0
1421, 0.0
1422, 0.0
1423, 0.0
1424, 0.0
1425, 0.0
1426, 0.0
1427, 0.0
1428, 0.0
1429, 0.0
1430, 0.0
1431, 0.0
1432, 0.0
1433, 0.0
1434, 0.0
1435, 0.0
1436, 0.0
1437, 0.0
1438, 0.0
1439, 0.0
1440, 0.0
1441, 0.0
1442, 0.0
1443, 0.0
1444, 0.0
1445, 0.0
1446, 0.0
1447, 0.0
1448, 0.0
1449, 0.0
1450, 0.0
1451, 0.0
1452, 0.0
1453, 0.0
1454, 0.0
1455, 0.0
1456, 0.0
1457, 0.0
1458, 0.0
1459, 0.0
1460, 0.0
1461, 0.0
1462, 0.0
1463, 0.0
1464, 0.0
1465, 0.0
1466, 0.0
1467, 0.0
1468, 0.0
1469, 0.0
1470, 0.0
1471, 0.0
1472, 0.0
1473, 0.0
1474, 0.0
1475, 0.0
1476, 0.0
1477, 0.0
1478, 0.0
1479, 0.0
1480, 0.0
1481, 0.0
1482, 0.0
1483, 0.0
1484, 0.0
1485, 0.0
1486, 0.0
1487, 0.0
1488, 0.0
1489, 0.0
1490, 0.0
1491, 0.0
1492, 0.0
1493, 0.0
1494, 0.0
1495, 0.0
1496, 0.0
1497, 0.0
1498, 0.0
1499, 0.0
1500, 0.0
1501, 0.0
1502, 0.0
1503, 0.0
1504, 0.0
1505, 0.0
1506, 0.0
1507, 0.0
1508, 0.0
1509, 0.0
1510, 0.0
1511, 0.0
1512, 0.0
1513, 0.0
1514, 0.0
1515, 0.0
1516, 0.0
1517, 0.0
1518, 0.0
1519, 0.0
1520, 0.0
1521, 0.0
1522, 0.0
1523, 0.0
1524, 0.0
1525, 0.0
1526, 0.0
1527, 0.0
1528, 0.0
1529, 0.0
1530, 0.0
1531, 0.0
1532, 0.0
1533, 0.0
1534, 0.0
1535, 0.0
1536, 0.0
1537, 0.0
1538, 0.0
1539, 0.0
1540, 0.0
1541, 0.0
1542, 0.0
1543, 0.0
1544, 0.0
1545, 0.0
1546, 0.0
1547, 0.0
1548, 0.0
1549, 0.0
1550, 0.0
1551, 0.0
1552, 0.0
1553, 0.0
1554, 0.0
1555, 0.0
1556, 0.0
1557, 0.0
1558, 0.0
1559, 0.0
1560, 0.0
1561, 0.0
1562, 0.0
1563, 0.0
1564, 0.0
1565, 0.0
1566, 0.0
1567, 0.0
1568, 0.0
1569, 0.0
1570, 0.0
1571, 0.0
1572, 0.0
1573, 0.0
1574, 0.0
1575, 0.0
1576, 0.0
1577, 0.0
1578, 0.0
1579, 0.0
1580, 0.0
1581, 0.0
1582, 0.0
1583, 0.0
1584, 0.0
1585, 0.0
1586, 0.0
1587, 0.0
1588, 0.0
1589, 0.0
1590, 0.0
1591, 0.0
1592, 0.0
1593, 0.0
1594, 0.0
1595, 0.0
1596, 0.0
1597, 0.0
1598, 0.0
1599, 0.0
