30, 0.0
31, 0.0
32, 0.0
33, 0.0
34, 0.0
35, 0.0
36, 0.0
37, 0.0
38, 0.0
39, 0.0
40, 0.0
41, 0.0
42, 0.0
43, 0.0
44, 0.0
45, 0.0
46, 0.0
47, 0.0
48, 0.0
49, 0.0
50, 0.0
51, 0.0
52, 0.0
53, 0.0
54, 0.0
55, 0.0
56, 0.0
57, 0.0
58, 0.0
59, 0.0
60, 0.0
61, 0.0
62, 0.0
63, 0.0
64, 0.0
65, 0.0
66, 0.0
67, 0.0
68, 0.0
69, 0.0
70, 0.0
71, 0.0
72, 0.0
73, 0.0
74, 0.0
75, 0.0
76, 0.0
77, 0.0
78, 0.0
79, 0.0
80, 0.0
81, 0.0
82, 0.0
83, 0.0
84, 0.0
85, 0.0
86, 0.0
87, 0.0
88, 0.0
89, 0.0
90, 0.0
91, 0.0
92, 0.0
93, 0.0
94, 0.0
95, 0.0
96, 0.0
97, 0.0
98, 0.0
99, 0.0
100, 0.0
101, 0.0
102, 0.0
103, 0.0
104, 0.0
105, 0.0
106, 0.0
107, 0.0
108, 0.0
109, 0.0
110, 0.0
111, 0.0
112, 0.0
113, 0.0
114, 0.0
115, 0.0
116, 0.0
117, 0.0
118, 0.0
119, 0.0
120, 0.0
121, 0.0
122, 0.0
123, 0.0
124, 0.0
125, 0.0
126, 0.0
127, 0.0
128, 0.0
129, 0.0
130, 0.0
131, 0.0
132, 0.0
133, 0.0
134, 0.0
135, 0.0
136, 0.0
137, 0.0
138, 0.0
139, 0.0
140, 0.0
141, 0.0
142, 0.0
143.0, 0.0002800331612625187
144.0, 0.006416167217618275
145.0, 0.05562024415633542
146.0, 0.10473238405504065
147.0, 0.12587996066929105
148.0, 0.1719394366835607
149.0, 0.2230554937890582
150.0, 0.2628406919298509
151.0, 0.2998706414535529
152.0, 0.391164887979683
153.0, 0.44845072427722515
154.0, 0.5256101549170162
155.0, 0.6297280105034139
156.0, 0.7086021612141756
157.0, 0.7371751906276683
158.0, 0.7330673332508179
159.0, 0.7311223170425233
160.0, 0.7091531339599054
161.0, 0.6655522852267737
162.0, 0.6286750592603619
163.0, 0.5881660038333454
164.0, 0.5466986930450457
165.0, 0.5250553124703138
166.0, 0.4920929861260332
167.0, 0.4680181081483141
168.0, 0.4558566409197856
169.0, 0.41735165990149903
170.0, 0.37757184505698227
171.0, 0.3499015453723553
172.0, 0.3228012453670109
173.0, 0.273615865219112
174.0, 0.21930486975966043
175.0, 0.18666896771535602
176.0, 0.1600642201729835
177.0, 0.12011357444730825
178.0, 0.09235750529678162
179.0, 0.07061693687397491
180.0, 0.042824582922216275
181.0, 0.021994939550647134
182.0, 0.058533398406320436
183.0, 0.04336603859612661
184.0, 0.006187520034412947
185.0, 0.03906291070142321
186.0, 0.035500817322075835
187.0, 0.038054237520242104
188.0, 0.038229996366322676
189.0, 0.02760964311275906
190.0, 0.012650308080435789
191.0, 0.01873411541367543
192.0, 0.010085658185764058
193.0, 0.033738915141397506
194.0, 0.04731853339103792
195.0, 0.0846754704626303
196.0, 0.11753827607099694
197.0, 0.14341321561295656
198.0, 0.17309448224359333
199.0, 0.2183076534058228
200.0, 0.24907461769197586
201.0, 0.30058585407395305
202.0, 0.36017213819412836
203.0, 0.4013123440462544
204.0, 0.44181747590202686
205.0, 0.4753535148163358
206.0, 0.5065254601501069
207.0, 0.5413500663839297
208.0, 0.5826543418454183
209.0, 0.6186226516710607
210.0, 0.6478222507535348
211.0, 0.674936360624949
212.0, 0.707490757057855
213.0, 0.7528050283819486
214.0, 0.7805099708169688
215.0, 0.8083773195714553
216.0, 0.8426285087649011
217.0, 0.8404421298475013
218.0, 0.8633039548746649
219.0, 0.874679923024118
220.0, 0.8725045579448409
221.0, 0.891938168083971
222.0, 0.8742623286161282
223.0, 0.872618893673238
224.0, 0.8697357603174661
225.0, 0.8411525691597013
226.0, 0.8287948363146082
227.0, 0.8119896193230774
228.0, 0.7824887741399754
229.0, 0.7453511194518152
230.0, 0.7132106994613641
231.0, 0.667562362022148
232.0, 0.6275017405281966
233.0, 0.5955536776932588
234.0, 0.5640315636046207
235.0, 0.5197209446057872
236.0, 0.4642921679417448
237.0, 0.4143736216127449
238.0, 0.37844267036568857
239.0, 0.3574965585013138
240.0, 0.33526456990259895
241.0, 0.31263235018058283
242.0, 0.28769686371614656
243.0, 0.2573934443513098
244.0, 0.23599066055628667
245.0, 0.20896858290504697
246.0, 0.17476646109132385
247.0, 0.14691468708627345
248.0, 0.1490343461146301
249.0, 0.1411815382440105
250.0, 0.12301612793007757
251.0, 0.10652180085492864
252.0, 0.10338066341840661
253.0, 0.09503066532296076
254.0, 0.09048478400338279
255.0, 0.08622562342957785
256.0, 0.08029899809766577
257.0, 0.0764931927870434
258.0, 0.050408974231650944
259.0, 0.051460024620306986
260.0, 0.061384307454207275
261.0, 0.04112051852185571
262.0, 0.04711487459742509
263.0, 0.04760366379462588
264.0, 0.04003527906028969
265.0, 0.03467023624265663
266.0, 0.048018172592152075
267.0, 0.05837988869264607
268.0, 0.0560213336723402
269.0, 0.04877882668016112
270.0, 0.04566426213024615
271.0, 0.03345078742615149
272.0, 0.04795824467391703
273.0, 0.05545351173531454
274.0, 0.04851767209893815
275.0, 0.05947805696751946
276.0, 0.04594380031101688
277.0, 0.03701495052083258
278.0, 0.044877779817710836
279.0, 0.05837200025729661
280.0, 0.03689293115858049
281.0, 0.037791478192816204
282.0, 0.0441088978225216
283.0, 0.03921123277645104
284.0, 0.027746089780904745
285.0, 0.020250364217958318
286.0, 0.013195422119737779
287.0, 0.005878856867315279
288.0, 0.006331773320438976
289.0, 0.02878195094285364
290.0, 0.01114722640250004
291.0, 0.010913360643845734
292.0, 0.015001106821480866
293.0, 0.00553924287265857
294.0, 0.010807439945604635
295.0, 0.007882314210881576
296.0, 0.00400654722623182
297.0, 0.007572379992287453
298.0, 0.013306862629197254
299.0, 0.014054466264141247
300.0, 0.0022096375099773225
301.0, 0.00840580736596016
302.0, 0.007055635157890494
303.0, 0.027842246199176166
304.0, 0.029501369077632646
305.0, 0.041984133934722015
306.0, 0.06251376670190875
307.0, 0.06518034194579704
308.0, 0.06656176553877993
309.0, 0.07246011744014053
310.0, 0.09083206181632698
311.0, 0.1165234223293666
312.0, 0.13455881192740585
313.0, 0.16609694361827432
314.0, 0.1794305454199764
315.0, 0.17969743692831783
316.0, 0.18757049051914665
317.0, 0.21954606574024574
318.0, 0.23096640904306334
319.0, 0.24853326641597437
320.0, 0.27901577845046727
321.0, 0.3087285744938334
322.0, 0.3302567444420813
323.0, 0.36605149539627196
324.0, 0.39274975998571937
325.0, 0.4099650476664433
326.0, 0.4516910764965636
327.0, 0.4753183228632119
328.0, 0.48215600147901644
329.0, 0.49057075004916073
330.0, 0.5117880930623366
331.0, 0.538368984816216
332.0, 0.5486583590793004
333.0, 0.5816058895269112
334.0, 0.6185454414128155
335.0, 0.6228785210052266
336.0, 0.6405680636115627
337.0, 0.6627947594394061
338.0, 0.6735487634653778
339.0, 0.6700533309950163
340.0, 0.6606595464260454
341.0, 0.6400477253588105
342.0, 0.611031345646117
343.0, 0.5875133486011574
344.0, 0.5697355281025431
345.0, 0.535347504512021
346.0, 0.5180469251751467
347.0, 0.4987233514510596
348.0, 0.4664579403869323
349.0, 0.4309731536641817
350.0, 0.4189214442181762
351.0, 0.40599799163159234
352.0, 0.3654264012546998
353.0, 0.31971182441037654
354.0, 0.3004379631901068
355.0, 0.29178049009469836
356.0, 0.2467644672696802
357.0, 0.22058222461455906
358.0, 0.21333676247864905
359.0, 0.17860766745406073
360.0, 0.16033280925220497
361.0, 0.14076928222999893
362.0, 0.1264852343909851
363.0, 0.11755853265055059
364.0, 0.09952049807980354
365.0, 0.06891209391673345
366.0, 0.05456813034092772
367.0, 0.051016928676060044
368.0, 0.0426946068485161
369.0, 0.013981640221219154
370.0, 0.017748437326992435
371.0, 0.020813437857899464
372.0, 0.01720827147397385
373.0, 0.011928174286017763
374.0, 0.009403011358840814
375.0, 0.009032765559715841
376.0, 0.006499132229472422
377.0, 0.005516060220599954
378.0, 0.02187946256248587
379.0, 0.013642735690995047
380.0, 0.01766016926707332
381.0, 0.017553817712779196
382.0, 0.012699290930479223
383.0, 0.014606798408933563
384.0, 0.005954706283223744
385.0, 0.004851891823669057
386.0, 0.006980359822634243
387.0, 0.003859760725402614
388.0, 0.010487974831670445
389.0, 0.03335732745185434
390.0, 0.03380570235955947
391.0, 0.030897960237275687
392.0, 0.037933319115791404
393.0, 0.0466970456073394
394.0, 0.0601191083691934
395.0, 0.0698127330567035
396.0, 0.08499318499267801
397.0, 0.10216463000164336
398.0, 0.10240557216328558
399.0, 0.1521396898673665
400.0, 0.16460192854848446
401.0, 0.17090230941708418
402.0, 0.20030379056889322
403.0, 0.23471050485060854
404.0, 0.2538593220497988
405.0, 0.27971705513089146
406.0, 0.31462069900250644
407.0, 0.3479050240798893
408.0, 0.36992778293226325
409.0, 0.39975271194855416
410.0, 0.4348146252414835
411.0, 0.4780197360146792
412.0, 0.5239119353015351
413.0, 0.5526205076181032
414.0, 0.5859559698840509
415.0, 0.6205102143776166
416.0, 0.6635632825964359
417.0, 0.7121125933338529
418.0, 0.7466668088798292
419.0, 0.7786203586957101
420.0, 0.796153868143598
421.0, 0.8110997906808753
422.0, 0.8337848271812129
423.0, 0.8593683707870909
424.0, 0.8688849309799161
425.0, 0.8767270668080495
426.0, 0.8864653532280817
427.0, 0.9002150070125806
428.0, 0.9227845607760669
429.0, 0.9229251482364288
430.0, 0.8950329403551937
431.0, 0.8840600174090419
432.0, 0.9114481994862729
433.0, 0.9400711023162078
434.0, 0.9554179453183467
435.0, 0.9530818905169943
436.0, 0.9599688702997341
437.0, 0.9866019972484175
438.0, 0.9998873220675357
439.0, 0.9902134516575938
440.0, 0.9801241933603443
441.0, 0.9801398390793432
442.0, 0.9819077933313693
443.0, 0.9690612038299968
444.0, 0.9710998549349286
445.0, 0.9698961415536256
446.0, 0.9613049768303433
447.0, 0.9411217138973716
448.0, 0.9061172928578362
449.0, 0.9129517972604666
450.0, 0.8825734441760473
451.0, 0.8643516486383811
452.0, 0.8640679264364003
453.0, 0.8286584236128197
454.0, 0.807373979698906
455.0, 0.7929827378110311
456.0, 0.7723690063568712
457.0, 0.7423287213011208
458.0, 0.7104217914145566
459.0, 0.6766225309528949
460.0, 0.6510729595023985
461.0, 0.6284784924276997
462.0, 0.596903664150707
463.0, 0.5537288121433046
464.0, 0.5158158244804032
465.0, 0.4888181777891993
466.0, 0.47616666923895024
467.0, 0.45222906163703597
468.0, 0.4009751495157157
469.0, 0.3827389217654593
470.0, 0.3563054833817071
471.0, 0.3367711017788782
472.0, 0.30601611144722507
473.0, 0.2619032936732729
474.0, 0.255694209235195
475.0, 0.23769665150312722
476.0, 0.21550089563196903
477.0, 0.18341325683368426
478.0, 0.1514811656489246
479.0, 0.1556411133585776
480.0, 0.12456875261067964
481.0, 0.1115200542004554
482.0, 0.11058117865338597
483.0, 0.10707918233042722
484.0, 0.10374161570160094
485.0, 0.09393995863450894
486.0, 0.07388844922653802
487.0, 0.0551569640685833
488.0, 0.03993930524892312
489.0, 0.026538546207023894
490.0, 0.03215042015803459
491.0, 0.02677560846116317
492.0, 0.01618930829681632
493.0, 0.012351983033365588
494.0, 0.012724307177191049
495.0, 0.008200118207753725
496.0, 0.003788955160576043
497.0, 0.0007621837522078146
498.0, 0.0011690904198164275
499.0, 0.0027645431943156083
500.0, 0.012933635173357353
501.0, 0.013838746141755287
502.0, 0.013570152551401015
503.0, 0.013970495867317842
504.0, 0.013917236867035759
505.0, 0.012901248712553205
506.0, 0.0060996011036985025
507.0, 0.00399988767274667
508.0, 0.003535934966307416
509.0, 0.007011642835977265
510.0, 0.011208598556330857
511.0, 0.0194986580782982
512.0, 0.028082738473814914
513.0, 0.054113580816417955
514.0, 0.03717717107993775
515.0, 0.017157988285844805
516.0, 0.02896869364263856
517.0, 0.011624867793172892
518.0, 0.02107680312306484
519.0, 0.030508912614643592
520.0, 0.031341489307833294
521.0, 0.05761450967702159
522.0, 0.05222886769884735
523.0, 0.05697868088429927
524.0, 0.05897569292882222
525.0, 0.06009865118231047
526.0, 0.07482991079036055
527.0, 0.08577584595518414
528.0, 0.09776674029610266
529.0, 0.11391249639538124
530.0, 0.12592506372194243
531.0, 0.13834130208175394
532.0, 0.1716275744299724
533.0, 0.17003609305730374
534.0, 0.19437728467910778
535.0, 0.20729604402407412
536.0, 0.20402251128928336
537.0, 0.22270833921394573
538.0, 0.23571133620877524
539.0, 0.2468617889088888
540.0, 0.27088629392794894
541.0, 0.2942291841826204
542.0, 0.3070275159156348
543.0, 0.3321041923467438
544.0, 0.3540252915791749
545.0, 0.3621630526981353
546.0, 0.36282521388157624
547.0, 0.3705985548774127
548.0, 0.39476306589412063
549.0, 0.3957487056750925
550.0, 0.3972116098555354
551.0, 0.3872522496280943
552.0, 0.3808843482756929
553.0, 0.3969998119113579
554.0, 0.4142521849819963
555.0, 0.4113018878133405
556.0, 0.402192521841125
557.0, 0.40515218534089303
558.0, 0.4101747337160365
559.0, 0.3929820023290151
560.0, 0.37490985948524336
561.0, 0.3717470269685126
562.0, 0.37157533339073995
563.0, 0.373826674750629
564.0, 0.3821254097239317
565.0, 0.3811929117210148
566.0, 0.3714468427708598
567.0, 0.3819563331900139
568.0, 0.37559109478452024
569.0, 0.36105763680118125
570.0, 0.38810333733179114
571.0, 0.3760570252697589
572.0, 0.36448118083838
573.0, 0.3583385698856402
574.0, 0.3502185522377951
575.0, 0.3387566005247416
576.0, 0.331554348450384
577.0, 0.32113322341845074
578.0, 0.3115757301550381
579.0, 0.2963059694410562
580.0, 0.2780573801104842
581.0, 0.269181699392203
582.0, 0.2681244127278433
583.0, 0.24551331699678816
584.0, 0.23661149863629483
585.0, 0.23796701055418912
586.0, 0.23018306365733943
587.0, 0.21213921415064457
588.0, 0.21591055117685978
589.0, 0.2160672863863231
590.0, 0.20469588147972576
591.0, 0.1993958222511047
592.0, 0.20839427656294873
593.0, 0.2022830999832855
594.0, 0.21281574595135555
595.0, 0.20719929625358316
596.0, 0.1892356722797199
597.0, 0.18153352532438777
598.0, 0.1872594839345861
599.0, 0.17752677329597183
600.0, 0.17708598806119244
601.0, 0.17618932961994146
602.0, 0.1652076325816948
603.0, 0.15241030779411002
604.0, 0.15665181534948994
605.0, 0.15161771291449552
606.0, 0.134400015548278
607.0, 0.13750396750837432
608.0, 0.15298239837148983
609.0, 0.15689222377438497
610.0, 0.1574986940071081
611.0, 0.13091208725270853
612.0, 0.1295317660457769
613.0, 0.14640349313745213
614.0, 0.161495431583488
615.0, 0.16325714767795227
616.0, 0.14503222650537087
617.0, 0.15067693141111552
618.0, 0.15796389479451783
619.0, 0.15614917291658914
620.0, 0.15236559292170368
621.0, 0.15365890916293437
622.0, 0.15368206307385357
623.0, 0.12742544377697695
624.0, 0.12465953154240014
625.0, 0.13041223172185373
626.0, 0.11994775536163786
627.0, 0.10382116780704442
628.0, 0.08758128911088399
629.0, 0.08490699302775749
630.0, 0.08316710864185659
631.0, 0.06932334924509467
632.0, 0.050976876210109795
633.0, 0.04821660098446298
634.0, 0.0348555776786612
635.0, 0.020834162394163275
636.0, 0.008266157277848329
637.0, 0.0026988146962514128
638.0, 0.007534708355756052
639.0, 0.01202275264349944
640.0, 0.00016577927137955794
641.0, 0.0017240530016820693
642.0, 0.003696700874813473
643.0, 0.00046487504077126826
644.0, 0.003228562458404285
645.0, 0.007334868998266242
646.0, 0.005209925369925068
647.0, 0.0016398460810349428
648.0, 0.0033214184956225417
649.0, 0.0032120427655106766
650.0, 0.013330310218743134
651.0, 0.008379032595976582
652.0, 0.016472238858458804
653.0, 0.004910224516479608
654.0, 0.007394683721830784
655.0, 0.006464287661393612
656.0, 0.0036228471983054153
657.0, 0.0014742356705410575
658.0, 0.0051366735314174955
659.0, 0.0035203642636618517
660.0, 0.008612900203198574
661.0, 0.005191796897204603
662.0, 0.005596660493975995
663.0, 0.001932070553690983
664.0, 0.010953091012153082
665.0, 0.01492038539068697
666.0, 0.007969860997740549
667.0, 0.029790438814740354
668.0, 0.015324271601552539
669.0, 0.011956278070949558
670.0, 0.013797168939093517
671.0, 0.019206215255573755
672.0, 0.019399028343345205
673.0, 0.014084637918748493
674.0, 0.009637227995626288
675.0, 0.0038032791986017797
676.0, 0.011974890355783025
677.0, 0.01184725879640427
678.0, 0.013744933274038692
679.0, 0.018764796326752313
680.0, 0.01759600887486011
681.0, 0.021543957562255404
682.0, 0.01586162802223758
683.0, 0.013549798517094843
684.0, 0.02896676323184857
685.0, 0.033223497963532474
686.0, 0.009243070266210962
687.0, 0.02267363130253244
688.0, 0.027637235009366046
689.0, 0.020472817375875658
690.0, 0.026709913825914363
691.0, 0.03191546366959167
692.0, 0.021333156037823906
693.0, 0.03245047306716421
694.0, 0.03961945294738487
695.0, 0.02642060957960424
696.0, 0.020998711416870878
697.0, 0.02165931896825492
698.0, 0.024304761068474175
699.0, 0.048836811900607444
700.0, 0.038000290345069555
701.0, 0.03456594592446858
702.0, 0.03828982616662325
703.0, 0.045184218776513185
704.0, 0.04212693228908646
705.0, 0.016546870209006016
706.0, 0.033114584744517825
707.0, 0.03384826961936427
708.0, 0.017235899453777993
709.0, 0.010135040880970848
710.0, 0.017000466785798547
711.0, 0.01717025625780913
712.0, 0.019013949445802335
713.0, 0.013019902203163009
714.0, 0.012599670269405632
715.0, 0.020428718436661983
716.0, 0.024721696449321713
717.0, 0.020834480733950583
718.0, 0.021730344206703178
719.0, 0.024552146031089985
720.0, 0.02946568616768952
721.0, 0.019479160962479206
722.0, 0.00835230412386676
723.0, 0.010523016854775991
724.0, 0.004686010914903902
725.0, 0.01084984304378663
726.0, 0.0248260772445533
727.0, 0.019773561244130173
728.0, 0.012434454269179307
729.0, 0.018810143904970458
730.0, 0.024397191117574112
731.0, 0.030791606425520122
732.0, 0.007105296899329648
733.0, 0.019581229268591235
734.0, 0.020641339515487505
735.0, 0.0023352255998389886
736.0, 0.000860067307617363
737.0, 0.000665101192166959
738.0, 0.0059339246175239
739.0, 0.008175033151075392
740.0, 0.011653476916072719
741.0, 0.019244368116706014
742.0, 0.02136908351384904
743.0, 0.0068908382196028045
744.0, 0.0013391322015676912
745.0, 0.011331466884135638
746.0, 0.008854539585687573
747.0, 0.014762647688058402
748.0, 0.026865449015986684
749.0, 0.016336540764849743
750.0, 0.02348722133945583
751.0, 0.025402813274590656
752.0, 0.022690615310710524
753.0, 0.013617068574525298
754.0, 0.009150520267653625
755.0, 0.011810004811216308
756.0, 0.004673568486049778
757.0, 0.0013533583330772563
758.0, 0.020568804328134547
759.0, 0.022857262877458477
760.0, 0.010393094495113801
761.0, 0.004608298633574331
762.0, 0.007736272035856621
763.0, 0.0015138415357457853
764.0, 0.0035523227176037873
765.0, 0.001622638810281398
766.0, 0.00559455499011975
767.0, 0.005068940270341127
768.0, 0.0033373969750529584
769.0, 0.013898209895788187
770.0, 0.0036588489502050086
771.0, 0.003913533023169353
772.0, 0.007628696057937761
773.0, 0.0011009840380036655
774.0, 0.002732162125333464
775.0, 0.008419189383601797
776.0, 0.007604164648698493
777.0, 0.00978171839178028
778.0, 0.02344440042040308
779.0, 0.010346314061112506
780.0, 0.011395764109951011
781.0, 0.009156515981957521
782.0, 0.0017228698259490413
783.0, 0.005680124651702617
784.0, 0.013661840984930469
785.0, 0.017098815049443987
786.0, 0.012456924834481473
787.0, 0.014471822805043428
788.0, 0.024821956274771316
789.0, 0.02421595051331902
790.0, 0.03829615562432342
791.0, 0.022740241656658493
792.0, 0.0036513379342218363
793.0, 0.0037486492474521505
794.0, 0.011534751681288024
795.0, 0.008322145303223989
796.0, 0.007378043790920949
797.0, 0.028220860862116566
798.0, 0.004260915374602917
799.0, 0.003547814391834097
800.0, 0.01330197949595408
801.0, 0.02768345626528552
802.0, 0.04753848455441555
803.0, 0.03755473950129172
804.0, 0.03979188321469443
805.0, 0.04380968053562711
806.0, 0.05870077237737654
807.0, 0.06857540763229768
808.0, 0.05977447666446957
809.0, 0.04511978411308681
810.0, 0.04546022230899392
811.0, 0.06977391782032508
812.0, 0.0703999078871283
813.0, 0.06391490947284151
814.0, 0.06652595623502473
815.0, 0.07623615468099598
816.0, 0.08600042874140543
817.0, 0.08336086308804837
818.0, 0.05316733580469887
819.0, 0.055193134879374064
820.0, 0.07591916927835438
821.0, 0.09460562750879159
822.0, 0.10222558992797805
823.0, 0.10179826347645408
824.0, 0.11675499686687843
825.0, 0.10900493239270945
826.0, 0.10158028593094258
827.0, 0.12043704875867606
828.0, 0.13375008100259647
829.0, 0.1276663870285804
830.0, 0.13515840791793596
831.0, 0.15054917628924444
832.0, 0.13590787512734184
833.0, 0.1392107827134028
834.0, 0.13144528600787814
835.0, 0.12899766714851837
836.0, 0.1450717659688663
837.0, 0.1437521437149418
838.0, 0.14188878592186868
839.0, 0.14549965401174608
840.0, 0.14059400930406749
841.0, 0.1511813696219024
842.0, 0.1685711899418484
843.0, 0.17626288855688974
844.0, 0.17795835014549888
845.0, 0.18561219977793988
846.0, 0.1775775695961518
847.0, 0.18712324208849593
848.0, 0.17276240893438666
849.0, 0.15187998967831548
850.0, 0.15236224332841525
851.0, 0.15586602209786612
852.0, 0.14471722312484805
853.0, 0.14664945225166906
854.0, 0.14575805180153376
855.0, 0.13410945029988186
856.0, 0.13231028263125497
857.0, 0.14062580989977774
858.0, 0.14298980873690117
859.0, 0.13736367182691975
860.0, 0.1376411582383238
861.0, 0.14628223355315897
862.0, 0.1431339230265666
863.0, 0.13850582730079988
864.0, 0.14390081616775507
865.0, 0.14849289011552552
866.0, 0.14190607200960503
867.0, 0.1459989058380514
868.0, 0.14255407903191591
869.0, 0.11684550034916866
870.0, 0.10980175987954818
871.0, 0.11480536416311202
872.0, 0.11437265149114156
873.0, 0.11372004745185692
874.0, 0.10674163075296256
875.0, 0.09141208364092179
876.0, 0.09591861459136142
877.0, 0.10110621992558223
878.0, 0.097487341403734
879.0, 0.09328082005387743
880.0, 0.09474168405299145
881.0, 0.09362495268106592
882.0, 0.08608798329762976
883.0, 0.06654968081576887
884.0, 0.06236783273904427
885.0, 0.05215906890314437
886.0, 0.045446796448959326
887.0, 0.04983730730730923
888.0, 0.04292300189048176
889.0, 0.056284702077780614
890.0, 0.04594861484958346
891.0, 0.046142609359822465
892.0, 0.04867721339603589
893.0, 0.03843752042014507
894.0, 0.02828401774588908
895.0, 0.029957715229221634
896.0, 0.022029297427061778
897.0, 0.03184361945213905
898.0, 0.039591092036514564
899.0, 0.02162477308550899
900.0, 0.00256753468237985
901.0, 0.00425639506631561
902.0, 0.011119641800659445
903.0, 0.005999536018012789
904.0, 0.015905337721832113
905.0, 0.024699995547114335
906.0, 0.02535694984766176
907.0, 0.0263553845315271
908.0, 0.02258777720022865
909.0, 0.015256812576070387
910.0, 0.008598639500118733
911.0, 0.0035090178747964797
912.0, 0.0016084060595380305
913.0, 0.004719493266408671
914.0, 0.022375983763985405
915.0, 0.01048732474024562
916.0, 0.011734800975439628
917.0, 0.0020999782784217546
918.0, 0.00134680351532673
919.0, 0.0037984778781887567
920.0, 0.0027059816107824087
921.0, 0.003905518786304238
922.0, 0.004378565921543506
923.0, 0.0030217242875414355
924.0, 0.003401384573504421
925.0, 0.00581682638436287
926.0, 0.010903333065024896
927.0, 0.009087726156785358
928.0, 0.0018732860472763292
929.0, 0.005450976417979887
930.0, 0.004898305430915573
931.0, 0.010235876671758275
932.0, 0.018522460072360764
933.0, 0.022079096259072367
934.0, 0.020641620841275708
935.0, 0.0023633638645501687
936.0, 0.0018695832737617053
937.0, 0.02073768431539457
938.0, 0.02172291895432656
939.0, 0.02822426164732421
940.0, 0.040345723515040254
941.0, 0.03189220738407806
942.0, 0.02260096638679779
943.0, 0.037029262987426335
944.0, 0.04032991173923348
945.0, 0.04146085186138432
946.0, 0.05494479282534323
947.0, 0.06028823512479177
948.0, 0.058725286667555214
949.0, 0.059501116910542336
950.0, 0.05347633057648323
951.0, 0.05804174318451505
952.0, 0.0659652564275022
953.0, 0.06780946194778797
954.0, 0.06533070903208299
955.0, 0.08039455227813064
956.0, 0.10341021001016791
957.0, 0.11172982732215557
958.0, 0.10961527633052694
959.0, 0.1033325234905407
960.0, 0.12724789562381886
961.0, 0.12324091695002609
962.0, 0.11301564339258813
963.0, 0.12278003770720622
964.0, 0.13196457614997922
965.0, 0.1270137714274028
966.0, 0.12762281628432737
967.0, 0.13305402709946096
968.0, 0.1273243807156263
969.0, 0.13498553705551938
970.0, 0.1399129257210799
971.0, 0.1480859110764913
972.0, 0.15133620506983586
973.0, 0.1494390082856245
974.0, 0.15719578380744711
975.0, 0.1675815455524077
976.0, 0.16776126935948144
977.0, 0.15225877547938405
978.0, 0.14078683119170238
979.0, 0.1491962384761641
980.0, 0.15184342630614497
981.0, 0.15633598740262067
982.0, 0.18236563962211216
983.0, 0.17857154005201525
984.0, 0.1728324409687632
985.0, 0.19003220920544497
986.0, 0.19164001393062066
987.0, 0.20535932349082867
988.0, 0.2309823777152044
989.0, 0.24296007548420784
990.0, 0.25548301237731963
991.0, 0.29684700751266885
992.0, 0.29746227434742445
993.0, 0.3417098791351862
994.0, 0.36993571505158657
995.0, 0.39003778900541297
996.0, 0.4226978855090146
997.0, 0.44737647852733575
998.0, 0.47946260595757906
999.0, 0.5257172845081793
1000.0, 0.5289785095571734
1001.0, 0.5410781206796559
1002.0, 0.5449146362804255
1003.0, 0.5375792829153603
1004.0, 0.49685094192849333
1005.0, 0.4575047309374803
1006.0, 0.4331197213503435
1007.0, 0.40218541118406037
1008.0, 0.35658267058411613
1009.0, 0.3228777322348103
1010.0, 0.28379576199177137
1011.0, 0.26183843884893326
1012.0, 0.24813091574872495
1013.0, 0.22047974972688653
1014.0, 0.17599165418535748
1015.0, 0.14653690574230735
1016.0, 0.14279168951876728
1017.0, 0.13285919157123358
1018.0, 0.11154159731249721
1019.0, 0.11226328481649926
1020.0, 0.10381687343909593
1021.0, 0.07715431322495585
1022.0, 0.0623069588354802
1023.0, 0.055310030768212726
1024.0, 0.05089188942739938
1025.0, 0.05717300599039412
1026.0, 0.05815527097983372
1027.0, 0.04014656098761509
1028.0, 0.053584084507080576
1029.0, 0.05687489276905366
1030.0, 0.06627574925855612
1031.0, 0.04432425605027221
1032.0, 0.024488840208362672
1033.0, 0.023292275756020706
1034.0, 0.01945624149944041
1035.0, 0.016638285513677614
1036.0, 0.0057567595111457735
1037.0, 0.025269334234589446
1038.0, 0.015526801211637204
1039.0, 0.006174059398628083
1040.0, 0.007374273624946111
1041.0, 0.01291003512650195
1042.0, 0.00348164884636474
1043.0, 0.004459880950367471
1044.0, 0.023747807063760534
1045.0, 0.006860642873769493
1046.0, 0.0031674576593321725
1047.0, 0.013930538434216787
1048.0, 0.021594540182472678
1049.0, 0.03251895003211157
1050.0, 0.03413917100380884
1051.0, 0.03728293886887657
1052.0, 0.0531351352846668
1053.0, 0.05965544441026871
1054.0, 0.06257525852635829
1055.0, 0.063407963658326
1056.0, 0.06329784615047418
1057.0, 0.07076292745874907
1058.0, 0.08108523129414127
1059.0, 0.09993998788846209
1060.0, 0.12486945421103496
1061.0, 0.13192652300139457
1062.0, 0.12227969865763656
1063.0, 0.1536253001898608
1064.0, 0.16255165548008826
1065.0, 0.18304815808733865
1066.0, 0.2026014052430708
1067.0, 0.19453823122403557
1068.0, 0.18939196972217073
1069.0, 0.21145553688304208
1070.0, 0.23414050717156343
1071.0, 0.22654293170532022
1072.0, 0.20257251483384364
1073.0, 0.19890464731352675
1074.0, 0.21120676391347712
1075.0, 0.22742626025797338
1076.0, 0.19846002577379468
1077.0, 0.18852898142162558
1078.0, 0.19402691094523125
1079.0, 0.20117316944615948
1080.0, 0.20115760046346803
1081.0, 0.18498614853604783
1082.0, 0.17690773591457118
1083.0, 0.15670675176903215
1084.0, 0.16494999300325341
1085.0, 0.16223209864844607
1086.0, 0.1581144101518868
1087.0, 0.1620836480785667
1088.0, 0.15675631563920078
1089.0, 0.14949871083557292
1090.0, 0.15070333145782938
1091.0, 0.14121720409903854
1092.0, 0.13088441389704236
1093.0, 0.12357787837058896
1094.0, 0.10885226421305973
1095.0, 0.1114127982838037
1096.0, 0.10885051446678252
1097.0, 0.10822501816456881
1098.0, 0.10517524383742152
1099.0, 0.11930267074510416
1100.0, 0.1408322798081568
1101.0, 0.12419089764614719
1102.0, 0.13677921701591117
1103.0, 0.12792825758089132
1104.0, 0.09436456659994577
1105.0, 0.09880410432771788
1106.0, 0.09526552383481177
1107.0, 0.10071252558402191
1108.0, 0.10167520404569114
1109.0, 0.08383253017837539
1110.0, 0.08443420913583126
1111.0, 0.11507931330330726
1112.0, 0.1102035186388236
1113.0, 0.1235662452639196
1114.0, 0.11815094620850489
1115.0, 0.12367701206814138
1116.0, 0.1319505894577556
1117.0, 0.12075445280007276
1118.0, 0.10980840716043332
1119.0, 0.09225436341931426
1120.0, 0.07076466506007971
1121.0, 0.08022013705337458
1122.0, 0.08837174702971456
1123.0, 0.08183859082598119
1124.0, 0.0947974153305754
1125.0, 0.06931415593782879
1126.0, 0.06773755461381181
1127.0, 0.08672408243875851
1128.0, 0.08884707233753979
1129.0, 0.09196426951024984
1130.0, 0.09860203201428985
1131.0, 0.0855964052227115
1132.0, 0.08656998841883917
1133.0, 0.08179365276661557
1134.0, 0.07124756089421472
1135.0, 0.07050520254942402
1136.0, 0.06887523052473966
1137.0, 0.07928421784569063
1138.0, 0.07391190570791385
1139.0, 0.07114038598877043
1140.0, 0.07077950837759366
1141.0, 0.06131268688252701
1142.0, 0.06707522699229503
1143.0, 0.0738248779191124
1144.0, 0.06078444682650469
1145.0, 0.05904683038400395
1146.0, 0.05248867913892628
1147.0, 0.04088288029495337
1148.0, 0.04598372432350187
1149.0, 0.05807681005522967
1150.0, 0.048105588444648455
1151.0, 0.03990429212596323
1152.0, 0.051564533593486714
1153.0, 0.04466296213465509
1154.0, 0.03388614366267186
1155.0, 0.012034403841347588
1156.0, 0.03623214981792443
1157.0, 0.04892077009371347
1158.0, 0.04274968211778405
1159.0, 0.022924192165526124
1160.0, 0.027322802658706832
1161.0, 0.027315329143905717
1162.0, 0.012167590144874865
1163.0, 0.010348486698807013
1164.0, 0.00538689750871579
1165.0, 0.0049520360105262465
1166.0, 0.010680937296920455
1167.0, 0.004825192951290538
1168.0, 0.011086339160333091
1169.0, 0.01228540605644906
1170.0, 0.0031982071726931872
1171.0, 0.002266172308964595
1172.0, 0.0019324505589743833
1173.0, 0.0017422889497154162
1174.0, 0.00796800113515925
1175.0, 0.015180872992210395
1176.0, 0.018991160165571064
1177.0, 0.02208239679827964
1178.0, 0.015779301854134883
1179.0, 0.034407054982531105
1180.0, 0.008322539120206283
1181.0, 0.013191360868479782
1182.0, 0.01339384066434227
1183.0, 0.029216389895073858
1184.0, 0.030367501788530482
1185.0, 0.00704941014317399
1186.0, 0.014740606659743402
1187.0, 0.004712287094910486
1188.0, 0.0022266091225033252
1189.0, 0.0015838724787813788
1190.0, 0.015145889733436266
1191.0, 0.014228097651896596
1192.0, 0.00036021403743185946
1193.0, 0.0002981871182501535
1194.0, 0.007727125817114801
1195.0, 0.01658806268734258
1196.0, 0.014125723076582566
1197.0, 0.0024344289949295894
1198.0, 0.0071879017691261
1199.0, 0.0010728428871428835
1200.0, 0.0027603751444072603
1201.0, 0.0020956385304427717
1202.0, 0.012734521503425545
1203.0, 0.003128985311109479
1204.0, 0.01392286752841129
1205.0, 0.013709932583211086
1206.0, 0.013206551797199859
1207.0, 0.004634255273464886
1208.0, 0.00485133643749065
1209.0, 0.0014004985043404511
1210.0, 0.0027397218677331736
1211.0, 0.006616712067219077
1212.0, 0.007246075887243089
1213.0, 0.0052432973488097815
1214.0, 0.005969386295180495
1215.0, 0.01655037560000671
1216.0, 0.03714604168488902
1217.0, 0.02967056113033645
1218.0, 0.024463862821546663
1219.0, 0.035127852283453095
1220.0, 0.046189539862234216
1221.0, 0.04933752761050548
1222.0, 0.05213087940689638
1223.0, 0.061211079858469235
1224.0, 0.042254485418992606
1225.0, 0.05449744331862447
1226.0, 0.0323103964857135
1227.0, 0.040535928616588876
1228.0, 0.0447506453564424
1229.0, 0.033338215951040334
1230.0, 0.021955090911292288
1231.0, 0.028675946207919786
1232.0, 0.02690803801365296
1233.0, 0.018807566292572863
1234.0, 0.020169694142388183
1235.0, 0.01753247002805538
1236.0, 0.027747820582903614
1237.0, 0.01933166018842335
1238.0, 0.027395041665568123
1239.0, 0.03614845425201025
1240.0, 0.046868001301497715
1241.0, 0.033694196618790015
1242.0, 0.03752574723785169
1243.0, 0.03732737405281549
1244.0, 0.03118073539613312
1245.0, 0.014958926605738996
1246.0, 0.012673760549534839
1247.0, 0.035305048446339284
1248.0, 0.031657545658520775
1249.0, 0.006188219151717574
1250.0, 0.01744412906840042
1251.0, 0.020661644039398297
1252.0, 0.023164401123026254
1253.0, 0.021260590342670554
1254.0, 0.021116177663833294
1255.0, 0.014523604918148553
1256.0, 0.015064704433562646
1257.0, 0.0055386676586919505
1258.0, 0.003823762709803612
1259.0, 0.014325816334462178
1260.0, 0.023585402833558526
1261.0, 0.028966828907826495
1262.0, 0.032351477638257714
1263.0, 0.05231446007748315
1264.0, 0.043442506175044054
1265.0, 0.03414138996295184
1266.0, 0.05211512262574911
1267.0, 0.032695400919858335
1268.0, 0.05184110644017578
1269.0, 0.05408906458837979
1270.0, 0.03472787308184087
1271.0, 0.019561316949299672
1272.0, 0.026554405647198926
1273.0, 0.032360612219854056
1274.0, 0.03071083042833473
1275.0, 0.02851013712079174
1276.0, 0.0034213424161786766
1277.0, 0.016972467931365243
1278.0, 0.022377390258190268
1279.0, 0.010448464438983597
1280.0, 0.009354660172655321
1281.0, 0.0015939689376747177
1282.0, 0.012260274890318435
1283.0, 0.004851553886989622
1284.0, 0.007361028329836858
1285.0, 0.009171298024397955
1286.0, 0.007630172868789745
1287.0, 0.013691044564048524
1288.0, 0.02356574412144256
1289.0, 0.024765986790782367
1290.0, 0.007555763808630469
1291.0, 5.313302737762422e-05
1292, 0.0
1293, 0.0
1294, 0.0
1295, 0.0
1296, 0.0
1297, 0.0
1298, 0.0
1299, 0.0
1300, 0.0
1301, 0.0
1302, 0.0
1303, 0.0
1304, 0.0
1305, 0.0
1306, 0.0
1307, 0.0
1308, 0.0
1309, 0.0
1310, 0.0
1311, 0.0
1312, 0.0
1313, 0.0
1314, 0.0
1315, 0.0
1316, 0.0
1317, 0.0
1318, 0.0
1319, 0.0
1320, 0.0
1321, 0.0
1322, 0.0
1323, 0.0
1324, 0.0
1325, 0.0
1326, 0.0
1327, 0.0
1328, 0.0
1329, 0.0
1330, 0.0
1331, 0.0
1332, 0.0
1333, 0.0
1334, 0.0
1335, 0.0
1336, 0.0
1337, 0.0
1338, 0.0
1339, 0.0
1340, 0.0
1341, 0.0
1342, 0.0
1343, 0.0
1344, 0.0
1345, 0.0
1346, 0.0
1347, 0.0
1348, 0.0
1349, 0.0
1350, 0.0
1351, 0.0
1352, 0.0
1353, 0.0
1354, 0.0
1355, 0.0
1356, 0.0
1357, 0.0
1358, 0.0
1359, 0.0
1360, 0.0
1361, 0.0
1362, 0.0
1363, 0.0
1364, 0.0
1365, 0.0
1366, 0.0
1367, 0.0
1368, 0.0
1369, 0.0
1370, 0.0
1371, 0.0
1372, 0.0
1373, 0.0
1374, 0.0
1375, 0.0
1376, 0.0
1377, 0.0
1378, 0.0
1379, 0.0
1380, 0.0
1381, 0.0
1382, 0.0
1383, 0.0
1384, 0.0
1385, 0.0
1386, 0.0
1387, 0.0
1388, 0.0
1389, 0.0
1390, 0.0
1391, 0.0
1392, 0.0
1393, 0.0
1394, 0.0
1395, 0.0
1396, 0.0
1397, 0.0
1398, 0.0
1399, 0.0
1400, 0.0
1401, 0.0
1402, 0.0
1403, 0.0
1404, 0.0
1405, 0.0
1406, 0.0
1407, 0.0
1408, 0.0
1409, 0.0
1410, 0.0
1411, 0.0
1412, 0.0
1413, 0.0
1414, 0.0
1415, 0.0
1416, 0.0
1417, 0.0
1418, 0.0
1419, 0.0
1420, 0.0
1421, 0.0
1422, 0.0
1423, 0.0
1424, 0.0
1425, 0.0
1426, 0.0
1427, 0.0
1428, 0.0
1429, 0.0
1430, 0.0
1431, 0.0
1432, 0.0
1433, 0.0
1434, 0.0
1435, 0.0
1436, 0.0
1437, 0.0
1438, 0.0
1439, 0.0
1440, 0.0
1441, 0.0
1442, 0.0
1443, 0.0
1444, 0.0
1445, 0.0
1446, 0.0
1447, 0.0
1448, 0.0
1449, 0.0
1450, 0.0
1451, 0.0
1452, 0.0
1453, 0.0
1454, 0.0
1455, 0.0
1456, 0.0
1457, 0.0
1458, 0.0
1459, 0.0
1460, 0.0
1461, 0.0
1462, 0.0
1463, 0.0
1464, 0.0
1465, 0.0
1466, 0.0
1467, 0.0
1468, 0.0
1469, 0.0
1470, 0.0
1471, 0.0
1472, 0.0
1473, 0.0
1474, 0.0
1475, 0.0
1476, 0.0
1477, 0.0
1478, 0.0
1479, 0.0
1480, 0.0
1481, 0.0
1482, 0.0
1483, 0.0
1484, 0.0
1485, 0.0
1486, 0.0
1487, 0.0
1488, 0.0
1489, 0.0
1490, 0.0
1491, 0.0
1492, 0.0
1493, 0.0
1494, 0.0
1495, 0.0
1496, 0.0
1497, 0.0
1498, 0.0
1499, 0.0
1500, 0.0
1501, 0.0
1502, 0.0
1503, 0.0
1504, 0.0
1505, 0.0
1506, 0.0
1507, 0.0
1508, 0.0
1509, 0.0
1510, 0.0
1511, 0.0
1512, 0.0
1513, 0.0
1514, 0.0
1515, 0.0
1516, 0.0
1517, 0.0
1518, 0.0
1519, 0.0
1520, 0.0
1521, 0.0
1522, 0.0
1523, 0.0
1524, 0.0
1525, 0.0
1526, 0.0
1527, 0.0
1528, 0.0
1529, 0.0
1530, 0.0
1531, 0.0
1532, 0.0
1533, 0.0
1534, 0.0
1535, 0.0
1536, 0.0
1537, 0.0
1538, 0.0
1539, 0.0
1540, 0.0
1541, 0.0
1542, 0.0
1543, 0.0
1544, 0.0
1545, 0.0
1546, 0.0
1547, 0.0
1548, 0.0
1549, 0.0
1550, 0.0
1551, 0.0
1552, 0.0
1553, 0.0
1554, 0.0
1555, 0.0
1556, 0.0
1557, 0.0
1558, 0.0
1559, 0.0
1560, 0.0
1561, 0.0
1562, 0.0
1563, 0.0
1564, 0.0
1565, 0.0
1566, 0.0
1567, 0.0
1568, 0.0
1569, 0.0
1570, 0.0
1571, 0.0
1572, 0.0
1573, 0.0
1574, 0.0
1575, 0.0
1576, 0.0
1577, 0.0
1578, 0.0
1579, 0.0
1580, 0.0
1581, 0.0
1582, 0.0
1583, 0.0
1584, 0.0
1585, 0.0
1586, 0.0
1587, 0.0
1588, 0.0
1589, 0.0
1590, 0.0
1591, 0.0
1592, 0.0
1593, 0.0
1594, 0.0
1595, 0.0
1596, 0.0
1597, 0.0
1598, 0.0
1599, 0.0
