30, 0.0
31, 0.0
32, 0.0
33, 0.0
34, 0.0
35, 0.0
36, 0.0
37, 0.0
38, 0.0
39, 0.0
40, 0.0
41, 0.0
42, 0.0
43, 0.0
44, 0.0
45, 0.0
46, 0.0
47, 0.0
48, 0.0
49, 0.0
50, 0.0
51, 0.0
52, 0.0
53, 0.0
54, 0.0
55, 0.0
56, 0.0
57, 0.0
58, 0.0
59, 0.0
60, 0.0
61, 0.0
62, 0.0
63, 0.0
64, 0.0
65, 0.0
66, 0.0
67, 0.0
68, 0.0
69, 0.0
70, 0.0
71, 0.0
72, 0.0
73, 0.0
74, 0.0
75, 0.0
76, 0.0
77, 0.0
78, 0.0
79, 0.0
80, 0.0
81, 0.0
82, 0.0
83, 0.0
84, 0.0
85, 0.0
86, 0.0
87, 0.0
88.0, 0.0023283444374569647
89.0, 0.003107243301559889
90.0, 0.003114357897228361
91.0, 0.01129731557572558
92.0, 0.014659693354884039
93.0, 0.014341534994256546
94.0, 0.01029971946644207
95.0, 0.016261233745828756
96.0, 0.022055167148241548
97.0, 0.026543801682674506
98.0, 0.02804056842146398
99.0, 0.03619240290518062
100.0, 0.045803254085133124
101.0, 0.05401903801050085
102.0, 0.05843173871373047
103.0, 0.0643693211872612
104.0, 0.07101775572566772
105.0, 0.07522253111814249
106.0, 0.08014965002099228
107.0, 0.08505038761136266
108.0, 0.08961087972746096
109.0, 0.09345582211759629
110.0, 0.10054065569280919
111.0, 0.11031850124400028
112.0, 0.12235278069528387
113.0, 0.13387051681060153
114.0, 0.13999619213926767
115.0, 0.14004253584652882
116.0, 0.1516870049578701
117.0, 0.15270694720683756
118.0, 0.15007621228072301
119.0, 0.15228272935647139
120.0, 0.15314935109973912
121.0, 0.1567585216460251
122.0, 0.16171828018759646
123.0, 0.15215169157403044
124.0, 0.1515462843345318
125.0, 0.1574465434125636
126.0, 0.16940347052537272
127.0, 0.16504868231192033
128.0, 0.16543515483246904
129.0, 0.1694281074358537
130.0, 0.1670748665734323
131.0, 0.16344099610561916
132.0, 0.16874189005500173
133.0, 0.18891936476363458
134.0, 0.1843123528206523
135.0, 0.18721347248764056
136.0, 0.19696268212595341
137.0, 0.21368094973376073
138.0, 0.21414171676885219
139.0, 0.21549553154699103
140.0, 0.2213528063391615
141.0, 0.21998120055043724
142.0, 0.23214854975783814
143.0, 0.24715773522584783
144.0, 0.253352746808872
145.0, 0.26630160972737676
146.0, 0.2769661597570384
147.0, 0.28412241387044407
148.0, 0.28645471641903847
149.0, 0.295154021634767
150.0, 0.29895704646607246
151.0, 0.290549604789656
152.0, 0.2893371583626403
153.0, 0.286948325102605
154.0, 0.2818376750300421
155.0, 0.269911428628724
156.0, 0.26202179569781103
157.0, 0.2521850093836409
158.0, 0.23934753344970724
159.0, 0.23368720744532734
160.0, 0.2230322132511143
161.0, 0.21111353156505588
162.0, 0.20184376564094392
163.0, 0.1965050097520872
164.0, 0.18514463390018876
165.0, 0.169293808127832
166.0, 0.16032410826297633
167.0, 0.15071067027909035
168.0, 0.14523498377539917
169.0, 0.14670470660665155
170.0, 0.1287454768781698
171.0, 0.12172920763218126
172.0, 0.11870734786872711
173.0, 0.10704840462384563
174.0, 0.10295201709313055
175.0, 0.09795974300300364
176.0, 0.09057329124340027
177.0, 0.0828140991074493
178.0, 0.07840531854070576
179.0, 0.0752118517616707
180.0, 0.07179384941022895
181.0, 0.06512109328804486
182.0, 0.05922481610628165
183.0, 0.054424637455396906
184.0, 0.051313017105856916
185.0, 0.04307883497156359
186.0, 0.035195144963331045
187.0, 0.029315281548481148
188.0, 0.024718031853930213
189.0, 0.018376371385858247
190.0, 0.012891169019636753
191.0, 0.011274066121820444
192.0, 0.008694571097655987
193.0, 0.006189892729585832
194.0, 0.0038496577551815304
195.0, 0.001688473071990545
196.0, 0.005831989071736012
197.0, 0.006919519856590979
198.0, 0.0018427400863377874
199.0, 0.010280351431498492
200.0, 0.014200472031101178
201.0, 0.015595901692610636
202.0, 0.016490954698309336
203.0, 0.014028797142665625
204.0, 0.014702936491690079
205.0, 0.017839384434311517
206.0, 0.017546784079785348
207.0, 0.016546759799661987
208.0, 0.01585301286927551
209.0, 0.015845669887147123
210.0, 0.013595150764535581
211.0, 0.011752295197672217
212.0, 0.010887162106995281
213.0, 0.011998679801746466
214.0, 0.005969677539933204
215.0, 0.0021271578244899435
216.0, 0.001660684667110125
217.0, 0.005236240308568793
218.0, 0.007696790300592157
219.0, 0.00989884754847153
220.0, 0.012112689557741857
221.0, 0.012271203455060442
222.0, 0.01510265711917916
223.0, 0.017714242882060572
224.0, 0.016323977456557913
225.0, 0.018186312896485732
226.0, 0.019027059062956646
227.0, 0.019978617186089852
228.0, 0.02709627894451999
229.0, 0.03185407581637654
230.0, 0.03167090343740966
231.0, 0.02612636836129175
232.0, 0.03067208130774523
233.0, 0.0315896454401933
234.0, 0.029849147075625235
235.0, 0.025972664108199085
236.0, 0.02657082612054657
237.0, 0.024417730270280838
238.0, 0.019856369559523926
239.0, 0.015014493411970026
240.0, 0.014229587134040697
241.0, 0.013014718542220406
242.0, 0.01094412682402616
243.0, 0.0163986774597512
244.0, 0.013557767732528795
245.0, 0.009891248839487549
246.0, 0.010965833146269558
247.0, 0.012661987256268936
248.0, 0.012077727132935666
249.0, 0.00961813226404817
250.0, 0.005927670105282657
251.0, 0.006202629449055259
252.0, 0.006773370961740804
253.0, 0.007237947571950074
254.0, 0.00904463735727313
255.0, 0.009442681630306477
256.0, 0.00996219755199024
257.0, 0.011274170377568579
258.0, 0.010288321246846421
259.0, 0.007317692088202685
260.0, 0.004374306359470842
261.0, 0.003976097873632944
262.0, 0.012498865605246589
263.0, 0.015584866462065696
264.0, 0.015818226732973298
265.0, 0.024581275406392426
266.0, 0.025395434063165044
267.0, 0.025816413940327156
268.0, 0.028350505147216466
269.0, 0.03663066077556615
270.0, 0.04015038932443373
271.0, 0.04241634638094477
272.0, 0.045627251997149065
273.0, 0.04778338653060029
274.0, 0.048688964905682176
275.0, 0.04927728509490782
276.0, 0.05100129766940031
277.0, 0.05856755728542619
278.0, 0.06177747443478427
279.0, 0.060871166041931345
280.0, 0.06089527606389673
281.0, 0.059946879164072195
282.0, 0.058265859496062576
283.0, 0.05635486953666694
284.0, 0.05896030284601408
285.0, 0.05544609441787624
286.0, 0.05201141981206568
287.0, 0.05312968982821605
288.0, 0.05612941341354064
289.0, 0.055153496891510806
290.0, 0.0521494756108004
291.0, 0.0500754096083523
292.0, 0.04595536540971536
293.0, 0.04463038537988873
294.0, 0.045875138702410154
295.0, 0.04717426145221147
296.0, 0.04494970576024329
297.0, 0.04354501863691629
298.0, 0.04404623195500888
299.0, 0.04441623927759297
300.0, 0.04426511590872561
301.0, 0.04442466452166607
302.0, 0.045387390437744465
303.0, 0.04334388941863832
304.0, 0.04461586879068096
305.0, 0.044899126477200554
306.0, 0.0384619073649073
307.0, 0.04425886921870599
308.0, 0.04928774083785831
309.0, 0.050509005221565983
310.0, 0.04223551707357945
311.0, 0.04530567210325705
312.0, 0.046051836032976474
313.0, 0.043662652068143515
314.0, 0.04937907064245641
315.0, 0.04308122203792001
316.0, 0.03977767186728653
317.0, 0.04512466370758217
318.0, 0.04434194527630954
319.0, 0.04370853445729753
320.0, 0.04449911880519542
321.0, 0.04789531241105115
322.0, 0.040964303238008606
323.0, 0.0450460729734476
324.0, 0.05102060357130834
325.0, 0.044287694239590954
326.0, 0.03360453025762969
327.0, 0.03371977414527362
328.0, 0.04009655453162974
329.0, 0.03598373930800651
330.0, 0.03288874366652127
331.0, 0.03413468259655211
332.0, 0.037987274998769895
333.0, 0.03032972901575404
334.0, 0.036435192808379036
335.0, 0.0400320708109605
336.0, 0.035494399209411505
337.0, 0.04216691971622605
338.0, 0.04304486445245623
339.0, 0.041253185300955335
340.0, 0.03891797520394147
341.0, 0.0432489218033608
342.0, 0.04409533663358346
343.0, 0.04597699468180921
344.0, 0.05499859869100153
345.0, 0.049565013711022884
346.0, 0.052594939666734154
347.0, 0.05892036139060111
348.0, 0.053880867384348434
349.0, 0.057377130833097964
350.0, 0.05942636809817051
351.0, 0.05917212217475404
352.0, 0.059395282878230544
353.0, 0.08677566009889394
354.0, 0.0929969064766794
355.0, 0.07004476020121643
356.0, 0.06277102587024971
357.0, 0.07407758024640904
358.0, 0.09601608837885615
359.0, 0.1228475231374879
360.0, 0.1165769055465618
361.0, 0.1037250978619337
362.0, 0.0964807705075757
363.0, 0.10437522689948392
364.0, 0.10508071844668379
365.0, 0.11249209120985923
366.0, 0.121977663257043
367.0, 0.12802116418397136
368.0, 0.13920304794108035
369.0, 0.1465853469729679
370.0, 0.15335114053121585
371.0, 0.1662517111333769
372.0, 0.17477642451279368
373.0, 0.17991613824773536
374.0, 0.18451325681818312
375.0, 0.19625117406793874
376.0, 0.21541559673792532
377.0, 0.2287055281639139
378.0, 0.23695540910394874
379.0, 0.25582351140171683
380.0, 0.26413853736477455
381.0, 0.276320483542856
382.0, 0.29517629919325744
383.0, 0.30755014042730366
384.0, 0.32500533163847023
385.0, 0.34550137686128746
386.0, 0.36867266089558964
387.0, 0.40020273746646307
388.0, 0.43045074966403346
389.0, 0.4552676392649366
390.0, 0.47249969760206584
391.0, 0.5140702870155802
392.0, 0.5480330398201223
393.0, 0.5812157772002952
394.0, 0.6199492740450706
395.0, 0.668533845540619
396.0, 0.7182566225976141
397.0, 0.765558426508327
398.0, 0.805751368127786
399.0, 0.8411549685143708
400.0, 0.8838102635988972
401.0, 0.9271995355311957
402.0, 0.9588021381234169
403.0, 0.9729749773819352
404.0, 0.9870019597592583
405.0, 0.9989215129375685
406.0, 0.999886170417382
407.0, 0.9712121942412835
408.0, 0.9488758434210046
409.0, 0.932195808775241
410.0, 0.9022577286385461
411.0, 0.8633014585869091
412.0, 0.8208587618224037
413.0, 0.7774254680899306
414.0, 0.7383355897359968
415.0, 0.70001765199217
416.0, 0.66065633199702
417.0, 0.6210404186970705
418.0, 0.5882716444207505
419.0, 0.5555073589793389
420.0, 0.5204579611450023
421.0, 0.4846483748520268
422.0, 0.4653745514744152
423.0, 0.43896314898337213
424.0, 0.41221512792002274
425.0, 0.3878249431175364
426.0, 0.3621232671053854
427.0, 0.3417382846955701
428.0, 0.3208767341408698
429.0, 0.2975757677025842
430.0, 0.28974770906198805
431.0, 0.2772499134505348
432.0, 0.26199237098862527
433.0, 0.2460699386129564
434.0, 0.25080084533876773
435.0, 0.23368937443530421
436.0, 0.21425770608745676
437.0, 0.20749858066339838
438.0, 0.213564362734873
439.0, 0.2025390867844193
440.0, 0.19231306200863266
441.0, 0.19883246948720232
442.0, 0.19289998908282166
443.0, 0.18902585494234309
444.0, 0.18869728185028115
445.0, 0.19354133593634587
446.0, 0.18324431809912203
447.0, 0.18456775157811176
448.0, 0.19209986366277462
449.0, 0.19938766946698083
450.0, 0.20379587836870103
451.0, 0.2068901359478033
452.0, 0.20943372928285073
453.0, 0.21232947614308853
454.0, 0.22320475419692376
455.0, 0.22402870822565826
456.0, 0.22278381527964625
457.0, 0.2314348053585602
458.0, 0.224618666919618
459.0, 0.2235773655361703
460.0, 0.2239518128761314
461.0, 0.21777113588418848
462.0, 0.20196695562571634
463.0, 0.1952332242148112
464.0, 0.19135054828375828
465.0, 0.17896624943631395
466.0, 0.17559497939187876
467.0, 0.1687679257546679
468.0, 0.15895589634226046
469.0, 0.14815161552197423
470.0, 0.14807746700617386
471.0, 0.14520334553259082
472.0, 0.14047584337133304
473.0, 0.13701206140305033
474.0, 0.1469669362186182
475.0, 0.1493440191056312
476.0, 0.14984406900183414
477.0, 0.16058557070952215
478.0, 0.1678188462375306
479.0, 0.1802359930684277
480.0, 0.19783691662592087
481.0, 0.21977309131500591
482.0, 0.242774439842967
483.0, 0.27168352087136916
484.0, 0.3029019778023097
485.0, 0.3300603602581381
486.0, 0.381251413554763
487.0, 0.4313138947829752
488.0, 0.48167785774758565
489.0, 0.5372906163347957
490.0, 0.6106717991038934
491.0, 0.6650752641146915
492.0, 0.707376236431147
493.0, 0.7507179644845489
494.0, 0.7389784954484901
495.0, 0.7092292004038495
496.0, 0.6706391850096443
497.0, 0.6330525745781617
498.0, 0.5704267758170506
499.0, 0.5054068981487753
500.0, 0.44353299157636245
501.0, 0.390777766327171
502.0, 0.33163269537043333
503.0, 0.28581274836238807
504.0, 0.24509259050357993
505.0, 0.19923103778887016
506.0, 0.17977852634862815
507.0, 0.15731436161962642
508.0, 0.13537222270211163
509.0, 0.11808900198458762
510.0, 0.10504031894622036
511.0, 0.09657407822440514
512.0, 0.08581663817983524
513.0, 0.06673563727019327
514.0, 0.061489300609936355
515.0, 0.058557354180927015
516.0, 0.053075816875842924
517.0, 0.041559542908830335
518.0, 0.03711257501435014
519.0, 0.03648283864661364
520.0, 0.03101295192496852
521.0, 0.016531411090288366
522.0, 0.024126305551785063
523.0, 0.02345952817712369
524.0, 0.019572181512672926
525.0, 0.015618958183934838
526.0, 0.013733505256473022
527.0, 0.011522160069416672
528.0, 0.009733876037550444
529.0, 0.008684990384734394
530.0, 0.007907234648731372
531.0, 0.008831612689980726
532.0, 0.01015571078565076
533.0, 0.010745932920617877
534.0, 0.007082055334740748
535.0, 0.006724156059726252
536.0, 0.006057722330002908
537.0, 0.0039675370343981164
538.0, 0.000706520071950902
539.0, 0.0007532402359860348
540.0, 0.0030652186486689924
541.0, 0.005623895836278736
542.0, 0.002498721268081501
543.0, 0.005411652597791859
544.0, 0.006882311866776855
545.0, 0.005861703102735613
546.0, 0.003231320844788838
547.0, 0.00579385818115299
548.0, 0.004265444177085599
549.0, 0.0005426750706653608
550.0, 0.0007237170594392325
551.0, 0.0041975004788774115
552.0, 0.0030812552666669877
553.0, 0.0005165782699550672
554.0, 0.002161747991599112
555.0, 0.0025860738116238015
556.0, 0.0013958016343112235
557.0, 0.0005734560404630002
558.0, 0.0023418343503654104
559.0, 0.004168838237075872
560.0, 0.003776859361087138
561.0, 0.0036101588059751256
562.0, 0.0055759782731648775
563.0, 0.005533872681198427
564.0, 0.003524494405124459
565.0, 0.002076507128141626
566.0, 0.002759177414657343
567.0, 0.005396198466893472
568.0, 0.005627707219563054
569.0, 0.004302097105499284
570.0, 0.0022285243601719643
571.0, 0.002009213854483463
572.0, 0.0026264892252342033
573.0, 0.0038130726034243923
574.0, 0.005538283803454066
575.0, 0.007997684051876801
576.0, 0.003452293343580805
577.0, 0.0007926532457255899
578.0, 0.0007101181446596753
579.0, 0.0002676594645068238
580.0, 0.003824055231085894
581.0, 0.003979246956032878
582.0, 0.002314409140481432
583.0, 0.0031635501388605843
584.0, 0.0027617509245338088
585.0, 0.003866817037198307
586.0, 0.0069451288361579554
587.0, 0.012315074603516003
588.0, 0.013960430287444304
589.0, 0.01821021902321478
590.0, 0.019978816370724108
591.0, 0.015593709391255598
592.0, 0.013140617560658211
593.0, 0.014901838558214676
594.0, 0.015515336299131868
595.0, 0.013822754488461098
596.0, 0.02255310554062156
597.0, 0.0253607196927622
598.0, 0.02733342139483294
599.0, 0.028547874625141564
600.0, 0.022133529328420897
601.0, 0.029310412157938507
602.0, 0.03861108301743225
603.0, 0.04365744267548066
604.0, 0.03467109113346041
605.0, 0.033422364040031134
606.0, 0.04146862493556164
607.0, 0.05095503960577814
608.0, 0.04965335334761521
609.0, 0.0503431336960198
610.0, 0.05606438320653664
611.0, 0.05960305439694178
612.0, 0.05472949221264772
613.0, 0.06470670121865574
614.0, 0.06599229726131892
615.0, 0.06551359900967942
616.0, 0.06730775616201902
617.0, 0.06936661035528084
618.0, 0.06755169965146923
619.0, 0.06651335119562078
620.0, 0.06667742991923989
621.0, 0.06286389211837555
622.0, 0.06807928628281297
623.0, 0.06835887515106912
624.0, 0.06380115623728329
625.0, 0.061153798978219674
626.0, 0.06053961649830458
627.0, 0.05567467994437271
628.0, 0.05035251324313566
629.0, 0.05034238361130095
630.0, 0.049235217098609056
631.0, 0.04484929890380538
632.0, 0.042162040125377595
633.0, 0.04410182284418569
634.0, 0.03644458223693547
635.0, 0.03585757340301233
636.0, 0.03399569774254743
637.0, 0.02829660090999447
638.0, 0.025627110923907744
639.0, 0.029692241768703356
640.0, 0.033138269056819394
641.0, 0.032982446052779224
642.0, 0.02625903054958138
643.0, 0.026897508357800234
644.0, 0.02632401083822295
645.0, 0.026151184127988374
646.0, 0.030001186680702945
647.0, 0.023683050847392563
648.0, 0.020705705423769545
649.0, 0.018955990841166368
650.0, 0.016556159535752436
651.0, 0.014102655444640434
652.0, 0.012518901067190254
653.0, 0.01158270051118795
654.0, 0.01116128874542251
655.0, 0.01111306243987744
656.0, 0.011810096492847368
657.0, 0.009499345892819077
658.0, 0.006518020760968384
659.0, 0.010073586219702729
660.0, 0.013695553819699178
661.0, 0.01197684618270804
662.0, 0.007216734542126804
663.0, 0.00292682778052548
664.0, 0.005959789915672363
665.0, 0.005998424824146594
666.0, 0.008468556724388333
667.0, 0.014295140676408417
668.0, 0.0036791832764047515
669.0, 0.0029916152159461334
670.0, 0.003519678746166125
671.0, 0.004241919056721825
672.0, 0.010971510058423135
673.0, 0.005592161788618558
674.0, 0.009215998290034758
675.0, 0.015545350417094468
676.0, 0.010447126217494367
677.0, 0.008019541612302209
678.0, 0.011439649757402305
679.0, 0.011514613022180539
680.0, 0.002925735575560355
681.0, 0.00843998160180957
682.0, 0.01162263899696496
683.0, 0.011657408169196295
684.0, 0.010152731626837889
685.0, 0.014254417807225347
686.0, 0.01094514709341408
687.0, 0.007949751771565044
688.0, 0.009867106816409555
689.0, 0.02212404935246351
690.0, 0.010572083291849568
691.0, 0.011009480153042206
692.0, 0.015991819206464107
693.0, 0.018541713679347524
694.0, 0.02539830393385754
695.0, 0.020242085291617865
696.0, 0.016577610127994625
697.0, 0.01798672786680361
698.0, 0.017055200906373975
699.0, 0.021025161838633597
700.0, 0.019862368764307657
701.0, 0.016948138152904003
702.0, 0.020546257269687465
703.0, 0.014932324566815145
704.0, 0.018380834184875895
705.0, 0.023009799767713758
706.0, 0.023176431431764722
707.0, 0.029253430695033656
708.0, 0.027985505138490966
709.0, 0.022688605470894112
710.0, 0.016407145841835533
711.0, 0.01486209203349063
712.0, 0.020128832754892856
713.0, 0.024147226793293286
714.0, 0.024648488211037173
715.0, 0.020297394682960775
716.0, 0.028730074172084105
717.0, 0.02970661368521589
718.0, 0.023492601540149427
719.0, 0.014015662287602957
720.0, 0.023408513044511307
721.0, 0.02284810109992762
722.0, 0.023211156956207183
723.0, 0.027683282664945505
724.0, 0.03677100270911199
725.0, 0.028109679606188084
726.0, 0.028546291530032807
727.0, 0.03089157990155529
728.0, 0.026483122385400633
729.0, 0.024244511302379975
730.0, 0.025754857353561512
731.0, 0.0259446659801619
732.0, 0.024469334288917767
733.0, 0.028495787497960157
734.0, 0.02523055912249068
735.0, 0.021228487586995724
736.0, 0.02164575349970704
737.0, 0.03217024274324651
738.0, 0.023310534433910166
739.0, 0.023669098541438418
740.0, 0.026419887314496692
741.0, 0.027006879519575776
742.0, 0.02610588110616062
743.0, 0.026153717230086335
744.0, 0.025944504892396077
745.0, 0.024388789960585393
746.0, 0.019908984474581445
747.0, 0.026010432994379832
748.0, 0.03083186428268505
749.0, 0.03322378480872879
750.0, 0.032720190833919076
751.0, 0.02891729069759979
752.0, 0.03328590516949008
753.0, 0.035857099552987125
754.0, 0.034686022412470145
755.0, 0.03409804172465408
756.0, 0.039356525354959995
757.0, 0.03639543731756916
758.0, 0.03380164008656618
759.0, 0.04113316654897362
760.0, 0.0387491910979425
761.0, 0.03335978884594459
762.0, 0.037102620444274634
763.0, 0.04918656260670408
764.0, 0.048807972727766706
765.0, 0.04829299305964287
766.0, 0.050843623076161595
767.0, 0.05325180432989635
768.0, 0.05135062105948116
769.0, 0.056173532063297206
770.0, 0.05073261914449091
771.0, 0.05184867350260385
772.0, 0.06233872981104106
773.0, 0.05953819054446587
774.0, 0.05364037618608477
775.0, 0.0613081924777448
776.0, 0.07162805101598542
777.0, 0.06645160575276715
778.0, 0.06582721318411552
779.0, 0.06760341117911206
780.0, 0.06914230610887977
781.0, 0.06767603245257836
782.0, 0.057716565738397896
783.0, 0.07003419580907409
784.0, 0.0779182491416036
785.0, 0.08021376544124158
786.0, 0.08168197869033225
787.0, 0.07241877340144881
788.0, 0.08159184914262352
789.0, 0.0913733569134444
790.0, 0.09109262285613345
791.0, 0.07778232147038416
792.0, 0.08084211438012527
793.0, 0.08501628190276353
794.0, 0.08575650904808499
795.0, 0.08098981591667169
796.0, 0.09012790581912652
797.0, 0.08765256193904164
798.0, 0.09085174230179152
799.0, 0.10105790150431039
800.0, 0.09011109259882362
801.0, 0.09259996280098087
802.0, 0.09443222547895806
803.0, 0.0926952296203771
804.0, 0.08688640703017773
805.0, 0.08723451135065653
806.0, 0.0803294558905122
807.0, 0.07608706978780112
808.0, 0.07700404539751027
809.0, 0.0769528511557281
810.0, 0.06070283891441862
811.0, 0.055768250303954894
812.0, 0.05399076514729095
813.0, 0.04521727689699951
814.0, 0.0485331924930199
815.0, 0.04060679404307445
816.0, 0.03454267238022065
817.0, 0.03328972049335693
818.0, 0.032360942848824764
819.0, 0.023982202503067238
820.0, 0.018839594858282238
821.0, 0.01797502679505521
822.0, 0.019791562520433813
823.0, 0.011540070747720616
824.0, 0.018864728143543334
825.0, 0.018064190218990316
826.0, 0.008891964763528179
827.0, 0.002499368307447767
828.0, 0.01442909426033882
829.0, 0.008233280831010768
830.0, 0.006919239028770499
831.0, 0.018264112277772044
832.0, 0.009661649203257294
833.0, 0.006244161762505825
834.0, 0.009549867143365035
835.0, 0.011351886703018324
836.0, 0.002044625177227792
837.0, 0.009625076122087331
838.0, 0.009836524068238327
839.0, 0.005912160029595103
840.0, 0.002031269065724391
841.0, 0.005758091938615685
842.0, 0.003317321069569851
843.0, 0.00363960078822632
844.0, 0.0036634188426522708
845.0, 0.0010428707592401178
846.0, 0.003860092063512642
847.0, 0.00666536203135528
848.0, 0.005641519422643003
849.0, 0.003525319351417786
850.0, 0.006810381695992889
851.0, 0.0029466466394165174
852.0, 0.005833146239839171
853.0, 0.008544639323602065
854.0, 0.0070528523754085845
855.0, 0.0017477157643509943
856.0, 0.005454142943630915
857.0, 0.004710963120653725
858.0, 0.0019739525582022866
859.0, 0.0016954110749536884
860.0, 0.001735791438474718
861.0, 0.0047494028000859756
862.0, 0.006507909685007653
863.0, 0.007665811833743524
864.0, 0.01231544086923138
865.0, 0.006155912047478458
866.0, 0.003455830614031911
867.0, 0.0018849725664871419
868.0, 0.001091646945934431
869.0, 0.007040683416172946
870.0, 0.003179779613619339
871.0, 0.0013172099302940891
872.0, 0.0013330717833032264
873.0, 0.0010560608613276472
874.0, 0.00041039551059971315
875.0, 0.0010398228426721735
876.0, 0.0025045991693173945
877.0, 0.00364020208804039
878.0, 0.002477074929388429
879.0, 0.0009369478753815801
880.0, 0.0040668781199663055
881.0, 0.008363310210989822
882.0, 0.010491086076051192
883.0, 0.00645494450170924
884.0, 0.007741548990349249
885.0, 0.005262998383075155
886.0, 0.0019876518160350494
887.0, 0.0017410429408685076
888.0, 0.0009263890988037593
889.0, 0.0024736254612352246
890.0, 0.0024430440460789108
891.0, 0.002388217534576376
892.0, 0.006488300712300488
893.0, 0.004538087156982804
894.0, 0.003649697949209819
895.0, 0.002948648106007564
896.0, 0.002101101259580713
897.0, 0.0014430856226478913
898.0, 0.0008252599516006294
899.0, 0.0010366888103501373
900.0, 0.0025251405274727707
901.0, 0.004496428936929055
902.0, 0.0012703550391810806
903.0, 0.0032754931698659945
904.0, 0.003628925840155257
905.0, 0.0031956722043041006
906.0, 0.004675115031763833
907.0, 0.008885428146836339
908.0, 0.005997999984450523
909.0, 0.002915878546561694
910.0, 0.00194929534205518
911.0, 0.002941637812325062
912.0, 0.004128456392625488
913.0, 0.001980234476345168
914.0, 0.002134896955780705
915.0, 0.005279779439317075
916.0, 0.0043513406844895
917.0, 0.004346804548327313
918.0, 0.005321593693780007
919.0, 0.007855510498750225
920.0, 0.011325121476283418
921.0, 0.010544217291694732
922.0, 0.0077654653940645605
923.0, 0.005995594653614561
924.0, 0.006533264951875553
925.0, 0.00922336864315545
926.0, 0.004721282949637834
927.0, 0.005239576107628828
928.0, 0.006458021539682021
929.0, 0.0060128833489376515
930.0, 0.002514251908367086
931.0, 0.005450725510424875
932.0, 0.004781988111292796
933.0, 0.003928115731267852
934.0, 0.005241548376482854
935.0, 0.010511210168317462
936.0, 0.0062914907911916056
937.0, 0.006134743754448138
938.0, 0.00769924917470216
939.0, 0.008183905196318878
940.0, 0.004033258364862322
941.0, 0.008997848036641819
942.0, 0.009399223792926029
943.0, 0.0066582137317343455
944.0, 0.0038209015549438945
945.0, 0.004773484407015538
946.0, 0.0017179362766209646
947.0, 0.01148735453813157
948.0, 0.017971055862635456
949.0, 0.0054064735008096864
950.0, 0.004449544089134363
951.0, 0.014888642128890073
952.0, 0.014125587010854522
953.0, 0.00779056919641985
954.0, 0.010238067306456823
955.0, 0.01103327952448198
956.0, 0.008345858925027266
957.0, 0.008463514305013091
958.0, 0.011228223614088048
959.0, 0.012784729291545444
960.0, 0.014267765414462084
961.0, 0.011781577654952267
962.0, 0.011117115251028252
963.0, 0.013005637569877042
964.0, 0.0135696021490949
965.0, 0.018212015938714153
966.0, 0.021510488555985877
967.0, 0.022159094718794497
968.0, 0.020445965946524806
969.0, 0.01879278043645156
970.0, 0.014356260332663818
971.0, 0.01627401390370235
972.0, 0.016934892608592194
973.0, 0.014217577174551395
974.0, 0.018911882475726983
975.0, 0.021667211266534567
976.0, 0.02259090099208087
977.0, 0.025336581460600093
978.0, 0.030225773010937824
979.0, 0.026991336354465104
980.0, 0.02920648704219387
981.0, 0.033773872120923996
982.0, 0.035065081142456433
983.0, 0.032216522264657425
984.0, 0.044405614875994016
985.0, 0.035996326285562256
986.0, 0.03557472902934968
987.0, 0.03988839722431187
988.0, 0.04163856296686477
989.0, 0.04449470389561069
990.0, 0.04744240573835471
991.0, 0.048422830344854624
992.0, 0.049167309047245
993.0, 0.05103886265930084
994.0, 0.04641261521998573
995.0, 0.04278028874568934
996.0, 0.04447200429632556
997.0, 0.051334193090598945
998.0, 0.059965636932425063
999.0, 0.053529644116909705
1000.0, 0.05772054731027327
1001.0, 0.0574846646518365
1002.0, 0.05420264134194532
1003.0, 0.05511312336799633
1004.0, 0.06664979117625157
1005.0, 0.06181690522794768
1006.0, 0.06131609894689296
1007.0, 0.06269424573528527
1008.0, 0.056380002800560464
1009.0, 0.056836196501078996
1010.0, 0.0622332112558989
1011.0, 0.06140956786493297
1012.0, 0.06009759944079934
1013.0, 0.06825157443668295
1014.0, 0.055673772215224016
1015.0, 0.06095831238689454
1016.0, 0.06536239256736358
1017.0, 0.06580072310890674
1018.0, 0.0659255636306991
1019.0, 0.06673852266542563
1020.0, 0.06947653415439545
1021.0, 0.07177085577904478
1022.0, 0.07190205243693461
1023.0, 0.06923055280546052
1024.0, 0.07238760258770024
1025.0, 0.07677961630540983
1026.0, 0.076655693301622
1027.0, 0.07486139602962928
1028.0, 0.07698031187264556
1029.0, 0.07539686227430757
1030.0, 0.07389121914070844
1031.0, 0.07110439099549906
1032.0, 0.06965321857431263
1033.0, 0.07244026369164369
1034.0, 0.06957185526154708
1035.0, 0.07650322965753169
1036.0, 0.07841173181308998
1037.0, 0.0766551058742588
1038.0, 0.07813792038603866
1039.0, 0.08594663717546681
1040.0, 0.07945741821635263
1041.0, 0.07719628286065278
1042.0, 0.07988232790242192
1043.0, 0.08180900980460958
1044.0, 0.0726563176545738
1045.0, 0.07540687833423801
1046.0, 0.07872961526495703
1047.0, 0.07576362441960265
1048.0, 0.06661724565157297
1049.0, 0.0805984015836102
1050.0, 0.0743358198017105
1051.0, 0.07086942225128225
1052.0, 0.06905766831376597
1053.0, 0.06399104013505374
1054.0, 0.05561524489116079
1055.0, 0.07213418377947507
1056.0, 0.07144979056611385
1057.0, 0.0660817519958694
1058.0, 0.06915359475119501
1059.0, 0.06989016269993695
1060.0, 0.07147703646884652
1061.0, 0.07358945765363704
1062.0, 0.07463314896682262
1063.0, 0.07107398614423707
1064.0, 0.05493567099742981
1065.0, 0.0651376399684215
1066.0, 0.0632894339557325
1067.0, 0.05639364965042642
1068.0, 0.05521249481315421
1069.0, 0.07160791527577548
1070.0, 0.05932777693744039
1071.0, 0.057662430145205425
1072.0, 0.05746749654172272
1073.0, 0.05619284103601063
1074.0, 0.059970648425925206
1075.0, 0.06089317729802215
1076.0, 0.05813765856193534
1077.0, 0.05678140707199856
1078.0, 0.05990668229162735
1079.0, 0.06807535769065698
1080.0, 0.0651065441735736
1081.0, 0.07458489866828352
1082.0, 0.07841735521380097
1083.0, 0.07694772223796235
1084.0, 0.0797679305697563
1085.0, 0.09542719949399583
1086.0, 0.09738396691020212
1087.0, 0.09208799976698649
1088.0, 0.09016856868706509
1089.0, 0.09810710709354746
1090.0, 0.09517059861636047
1091.0, 0.09496354096980662
1092.0, 0.10112171752279138
1093.0, 0.1058556631725857
1094.0, 0.1052257135376025
1095.0, 0.11236215134506299
1096.0, 0.1173143843354351
1097.0, 0.11406754055727261
1098.0, 0.11285808122748336
1099.0, 0.117609897980979
1100.0, 0.11930936422709876
1101.0, 0.12329465907957454
1102.0, 0.11928463342029966
1103.0, 0.12377398924782072
1104.0, 0.13393148021662732
1105.0, 0.12866437713298648
1106.0, 0.12414953653694433
1107.0, 0.1301199468979063
1108.0, 0.1397465930205167
1109.0, 0.14635268598076742
1110.0, 0.1444540294983042
1111.0, 0.13682758749479898
1112.0, 0.1397354238316944
1113.0, 0.14314863739958936
1114.0, 0.14712349274807165
1115.0, 0.15254823506538834
1116.0, 0.15192421879152943
1117.0, 0.15132086159930502
1118.0, 0.1453942873321886
1119.0, 0.1450914609865442
1120.0, 0.1546389937256569
1121.0, 0.16050627285998176
1122.0, 0.1621353994622047
1123.0, 0.15085277670101593
1124.0, 0.14592406108449965
1125.0, 0.14996400141548474
1126.0, 0.14757496388016592
1127.0, 0.13761013277769
1128.0, 0.136342463247731
1129.0, 0.13378871750302562
1130.0, 0.1305529067625598
1131.0, 0.1313807710669516
1132.0, 0.13075632832477843
1133.0, 0.12811300136721815
1134.0, 0.12270107401603596
1135.0, 0.12176267493000187
1136.0, 0.12828044932382002
1137.0, 0.1273372101760545
1138.0, 0.11649208919180724
1139.0, 0.12248050653664044
1140.0, 0.12060308286862462
1141.0, 0.10717317462990293
1142.0, 0.11207064746647839
1143.0, 0.12321373859679648
1144.0, 0.11859125331836964
1145.0, 0.11793658499739319
1146.0, 0.12119824241679271
1147.0, 0.11776154139150397
1148.0, 0.11745321005521019
1149.0, 0.11067094118343622
1150.0, 0.11286300687064503
1151.0, 0.11645203795833924
1152.0, 0.1131468328234843
1153.0, 0.11178646933898935
1154.0, 0.11188482983113979
1155.0, 0.10437386481650415
1156.0, 0.10474423359399498
1157.0, 0.10979670561350445
1158.0, 0.09170983689359705
1159.0, 0.10286488058080315
1160.0, 0.10970784756083449
1161.0, 0.10531080767760062
1162.0, 0.09529212013067066
1163.0, 0.09032185268480192
1164.0, 0.08823910584017994
1165.0, 0.08542543841781933
1166.0, 0.08564569973244966
1167.0, 0.0845121867360967
1168.0, 0.08063283099668293
1169.0, 0.08317792507401327
1170.0, 0.08581254257689823
1171.0, 0.07742909124252985
1172.0, 0.07364373714799373
1173.0, 0.07836289053957081
1174.0, 0.08266777367757638
1175.0, 0.06721131922863856
1176.0, 0.066348031719473
1177.0, 0.06373994327851772
1178.0, 0.05877238308391623
1179.0, 0.05732597450444561
1180.0, 0.06869272530225239
1181.0, 0.06103608568443995
1182.0, 0.057895708259937506
1183.0, 0.055589481292991
1184.0, 0.05208559303231348
1185.0, 0.050817344158040484
1186.0, 0.054145905825583256
1187.0, 0.053216865983552034
1188.0, 0.052945550613639814
1189.0, 0.054065651797746105
1190.0, 0.053610315544249186
1191.0, 0.04074437756994315
1192.0, 0.04889934359967527
1193.0, 0.04204099828800553
1194.0, 0.03703863257539037
1195.0, 0.04123751103834851
1196.0, 0.03676362848937949
1197.0, 0.0362619238028408
1198.0, 0.031995208728891944
1199.0, 0.032520210250635444
1200.0, 0.0325104252769946
1201.0, 0.02405675630935621
1202.0, 0.025009609952384305
1203.0, 0.02681014419286266
1204.0, 0.023293622671784673
1205.0, 0.02320494318603363
1206.0, 0.028003490001905253
1207.0, 0.024693238981138812
1208.0, 0.029568737896492843
1209.0, 0.030121861198620342
1210.0, 0.025948229389727562
1211.0, 0.020934438987352828
1212.0, 0.020195322006203574
1213.0, 0.024342573538167517
1214.0, 0.013087233870076266
1215.0, 0.017737787787397746
1216.0, 0.024679146353793632
1217.0, 0.02291705682946873
1218.0, 0.015491906136327038
1219.0, 0.02126430836458543
1220.0, 0.014312825453785684
1221.0, 0.013897926588893822
1222.0, 0.020396732367617628
1223.0, 0.023923990119440894
1224.0, 0.00987197084692248
1225.0, 0.012696152524182007
1226.0, 0.014027373139175726
1227.0, 0.013411562472355972
1228.0, 0.013894043715644516
1229.0, 0.019193204225753498
1230.0, 0.017764964345255638
1231.0, 0.019604371205720297
1232.0, 0.021127142076793802
1233.0, 0.01862585986417352
1234.0, 0.014900457277710392
1235.0, 0.02923330355842776
1236.0, 0.010167084313346432
1237.0, 0.012134733840046034
1238.0, 0.016736978359081674
1239.0, 0.016363820143621897
1240.0, 0.015498698076271388
1241.0, 0.020375479443017586
1242.0, 0.01829281157223248
1243.0, 0.018925455711444893
1244.0, 0.017904700877204926
1245.0, 0.01573914123188003
1246.0, 0.02435748154422472
1247.0, 0.01894930015502718
1248.0, 0.019839494087784692
1249.0, 0.014023842388068891
1250.0, 0.009243734118629127
1251.0, 0.015765394529835667
1252.0, 0.018247064916475056
1253.0, 0.01108169769858608
1254.0, 0.004428598064534494
1255.0, 0.005340952556833101
1256.0, 0.012494421285691506
1257.0, 0.01773441987782247
1258.0, 0.019065979850920952
1259.0, 0.011000664777217315
1260.0, 0.0077598754455110155
1261.0, 0.0144714790725394
1262.0, 0.023048323728810424
1263.0, 0.009207997564721253
1264.0, 0.02278182706606804
1265.0, 0.011016471872897409
1266.0, 0.0021664937424834786
1267.0, 0.003429517011323366
1268.0, 0.010403345397510096
1269.0, 0.016040841878761966
1270.0, 0.009671794889175363
1271.0, 0.009630070525269608
1272.0, 0.01209337159625928
1273.0, 0.011583212820343788
1274.0, 0.0067619176745652475
1275.0, 0.021915704211363598
1276.0, 0.008842971722814634
1277.0, 0.013778233683452606
1278.0, 0.02077936736600252
1279.0, 0.017653164173889103
1280.0, 0.012162016400057478
1281.0, 0.006664713491697918
1282.0, 0.007053270588111728
1283.0, 0.01218875304036417
1284.0, 0.016483056934956292
1285.0, 0.014183498135336148
1286.0, 0.002727889728499297
1287.0, 0.013347800888050591
1288.0, 0.008202836991343167
1289.0, 0.0050980188022664175
1290.0, 0.005552953666384541
1291.0, 0.0051102396297531315
1292.0, 0.010697908040225829
1293.0, 0.011758596299050884
1294.0, 0.007273374989573968
1295.0, 0.004318447593485126
1296.0, 0.003827687609005035
1297.0, 0.0027484801066150846
1298.0, 0.00593260273088733
1299.0, 0.006229746700334822
1300.0, 0.008449992400482904
1301.0, 0.009305758885005264
1302.0, 0.007228063791789995
1303.0, 0.00427157332730094
1304.0, 0.006711455638136283
1305.0, 0.00847786223620792
1306.0, 0.012190673993532377
1307.0, 0.014048102318795008
1308.0, 0.010254658029889492
1309.0, 0.00046555733133859124
1310.0, 0.004423108955536751
1311.0, 0.002733091610050612
1312.0, 0.006743601948639902
1313.0, 0.010791294056822517
1314.0, 0.007999045393461291
1315.0, 0.00012047166673513241
1316.0, 0.0032629917063145032
1317.0, 0.003878578191501081
1318.0, 0.006797639637061246
1319.0, 0.008041560003321846
1320.0, 0.004702758277921595
1321.0, 0.0050502840226966175
1322.0, 0.005119947261659171
1323.0, 0.010910171202353807
1324.0, 0.007977035283128715
1325.0, 0.0014208339121720781
1326.0, 0.001997446875372025
1327.0, 0.005912672162104728
1328.0, 0.004141703763194312
1329.0, 0.010540809280726864
1330.0, 0.013086427422406248
1331.0, 0.008404700587730681
1332.0, 0.0019367855024585798
1333.0, 0.0071564197854387
1334.0, 0.005673970431433989
1335.0, 0.004099212253330878
1336.0, 0.008556315372930287
1337.0, 0.012935505271628333
1338.0, 0.008066305358181603
1339.0, 0.004986446235908955
1340.0, 0.006199404336363956
1341.0, 0.0029462558431283354
1342.0, 0.002314562360142384
1343.0, 0.0032343403887340957
1344.0, 0.000717580096257958
1345.0, 0.0034778219558635054
1346.0, 0.012788395207864543
1347.0, 0.006096977865913202
1348.0, 0.007607066755274841
1349.0, 0.016925936147175746
1350.0, 0.015458445838308691
1351.0, 0.0052449331893521705
1352.0, 0.015254933070757669
1353.0, 0.015306483748319773
1354.0, 0.011138541601272997
1355.0, 0.013086816981008843
1356.0, 0.02321977261767643
1357.0, 0.006212139623042312
1358.0, 0.00383090274716929
1359.0, 0.006659815002435326
1360.0, 0.011857403672325111
1361.0, 0.016469665957968067
1362.0, 0.016257746423098806
1363.0, 0.002376895726651772
1364.0, 0.007721377303246173
1365.0, 0.008225023488341579
1366.0, 0.006418643667824064
1367.0, 0.008405398526808695
1368.0, 0.014762924228866582
1369.0, 0.003155485819725165
1370.0, 0.011402198467202827
1371.0, 0.013259592169256493
1372.0, 0.015572627771375767
1373.0, 0.017055416992296967
1374.0, 0.014606477461170643
1375.0, 0.0208345821233856
1376.0, 0.02398988497516702
1377.0, 0.010936540941548
1378.0, 0.014698140864515078
1379.0, 0.021567414018563484
1380.0, 0.01039280950187135
1381.0, 0.014974630373893818
1382.0, 0.019577754365299394
1383.0, 0.019731921679863776
1384.0, 0.017257719550083518
1385.0, 0.018933711929629626
1386.0, 0.024122681061939575
1387.0, 0.013050871751449785
1388.0, 0.024312724723049028
1389.0, 0.026384494170940274
1390.0, 0.020858242831247775
1391.0, 0.017787765409762787
1392.0, 0.02218422388087259
1393.0, 0.024882572035164884
1394.0, 0.01760821987652049
1395.0, 0.01979781711063923
1396.0, 0.023757944007069855
1397.0, 0.025507815476415053
1398.0, 0.02588238875308652
1399.0, 0.028813126980127224
1400.0, 0.01906359845263779
1401.0, 0.014972364718414514
1402.0, 0.015143553297072029
1403.0, 0.01705627830166395
1404.0, 0.017749326948160303
1405.0, 0.0164970129099536
1406.0, 0.02551659422261692
1407.0, 0.021768890384452406
1408.0, 0.023085586019275378
1409.0, 0.023851475319513857
1410.0, 0.025635610082456115
1411.0, 0.03325470232845857
1412.0, 0.034695539809665533
1413.0, 0.017167446744604204
1414.0, 0.018957088002182532
1415.0, 0.02404365921971997
1416.0, 0.024578561272175378
1417.0, 0.02382302882401185
1418.0, 0.034031618528439805
1419.0, 0.02324874017132874
1420.0, 0.022200534144504736
1421.0, 0.024952836553226148
1422.0, 0.024406345652996472
1423.0, 0.01927829290057628
1424.0, 0.01798198025686453
1425.0, 0.03335263811637779
1426.0, 0.024881512639460757
1427.0, 0.02715662758344886
1428.0, 0.03379202754040474
1429.0, 0.035347511157384624
1430.0, 0.031443979337107276
1431.0, 0.03088823732549322
1432.0, 0.028841148351362148
1433.0, 0.029794396532781146
1434.0, 0.030649061051126903
1435.0, 0.029815258712329967
1436.0, 0.02832813206586342
1437.0, 0.02957737726326347
1438.0, 0.026624786522741327
1439.0, 0.021884855855825235
1440.0, 0.023251537716660057
1441.0, 0.026595218919823287
1442.0, 0.02719520139037195
1443.0, 0.02867030908465909
1444.0, 0.034975312956587803
1445.0, 0.03434964520304478
1446.0, 0.033209675044616464
1447.0, 0.0333054729969717
1448.0, 0.031157694771691797
1449.0, 0.02279121003639974
1450.0, 0.02235659165677641
1451.0, 0.027259643417682403
1452.0, 0.019786520255776242
1453.0, 0.020343951597535357
1454.0, 0.024824781076611638
1455.0, 0.021252337730088763
1456.0, 0.021712003262980943
1457.0, 0.025347185146918548
1458.0, 0.028960686001496372
1459.0, 0.02370773406479602
1460.0, 0.02691344368324206
1461.0, 0.0355058025175666
1462.0, 0.01854756219620836
1463.0, 0.023780822472850023
1464.0, 0.039286610906619814
1465.0, 0.027581223433755363
1466.0, 0.023048891487236257
1467.0, 0.028359402969951694
1468.0, 0.024201247629473267
1469.0, 0.022052524590580665
1470.0, 0.019080967371435328
1471.0, 0.02920190946425607
1472.0, 0.029754976108890583
1473.0, 0.02955278410449764
1474.0, 0.03338135647395664
1475.0, 0.024792829815618554
1476.0, 0.017704464749412927
1477.0, 0.022348785100338265
1478.0, 0.02073127731336783
1479.0, 0.01917477584907903
1480.0, 0.019982575940712365
1481.0, 0.020004823391222882
1482.0, 0.018699483299786556
1483.0, 0.0295490125655175
1484.0, 0.022606971883633115
1485.0, 0.019789600211456603
1486.0, 0.024720714993814855
1487.0, 0.02857767437757945
1488.0, 0.02005444015238802
1489.0, 0.012273946080339687
1490.0, 0.032731326806077744
1491.0, 0.019511083434541252
1492.0, 0.012806620876783968
1493.0, 0.02183633895413877
1494.0, 0.024628844784342227
1495.0, 0.0043848365688230004
1496.0, 0.02105794957985706
1497.0, 0.024767919896861917
1498.0, 0.014132615864395856
1499.0, 0.013442444837403922
1500.0, 0.022760744220328134
1501.0, 0.016211000425828574
1502.0, 0.018254319221831156
1503.0, 0.024943677066714232
1504.0, 0.01810918916061068
1505.0, 0.010012532594716178
1506.0, 0.008350761001652067
1507.0, 0.01060383717808652
1508.0, 0.006032312840240318
1509.0, 0.013045890162885961
1510.0, 0.013577994853112018
1511.0, 0.009219512149013618
1512.0, 0.013155035242727875
1513.0, 0.016709462662784464
1514.0, 0.005054658176992674
1515.0, 0.0013165294258715952
1516.0, 0.014422919278876647
1517.0, 0.005058587985163552
1518.0, 0.0026734460219911224
1519.0, 0.012432901389786534
1520.0, 0.018161532758466308
1521.0, 0.0027197106385927414
1522.0, 0.011775430328977104
1523.0, 0.016911886241776513
1524.0, 0.015537166057132202
1525.0, 0.007153998119934822
1526.0, 0.00023212671558837762
1527, 0.0
1528, 0.0
1529, 0.0
1530, 0.0
1531, 0.0
1532, 0.0
1533, 0.0
1534, 0.0
1535, 0.0
1536, 0.0
1537, 0.0
1538, 0.0
1539, 0.0
1540, 0.0
1541, 0.0
1542, 0.0
1543, 0.0
1544, 0.0
1545, 0.0
1546, 0.0
1547, 0.0
1548, 0.0
1549, 0.0
1550, 0.0
1551, 0.0
1552, 0.0
1553, 0.0
1554, 0.0
1555, 0.0
1556, 0.0
1557, 0.0
1558, 0.0
1559, 0.0
1560, 0.0
1561, 0.0
1562, 0.0
1563, 0.0
1564, 0.0
1565, 0.0
1566, 0.0
1567, 0.0
1568, 0.0
1569, 0.0
1570, 0.0
1571, 0.0
1572, 0.0
1573, 0.0
1574, 0.0
1575, 0.0
1576, 0.0
1577, 0.0
1578, 0.0
1579, 0.0
1580, 0.0
1581, 0.0
1582, 0.0
1583, 0.0
1584, 0.0
1585, 0.0
1586, 0.0
1587, 0.0
1588, 0.0
1589, 0.0
1590, 0.0
1591, 0.0
1592, 0.0
1593, 0.0
1594, 0.0
1595, 0.0
1596, 0.0
1597, 0.0
1598, 0.0
1599, 0.0
