30, 0.0
31, 0.0
32, 0.0
33, 0.0
34, 0.0
35, 0.0
36, 0.0
37, 0.0
38, 0.0
39, 0.0
40, 0.0
41, 0.0
42, 0.0
43, 0.0
44, 0.0
45, 0.0
46, 0.0
47, 0.0
48, 0.0
49, 0.0
50, 0.0
51, 0.0
52, 0.0
53, 0.0
54, 0.0
55, 0.0
56, 0.0
57, 0.0
58, 0.0
59, 0.0
60, 0.0
61, 0.0
62, 0.0
63, 0.0
64, 0.0
65, 0.0
66, 0.0
67, 0.0
68, 0.0
69, 0.0
70, 0.0
71, 0.0
72, 0.0
73, 0.0
74, 0.0
75, 0.0
76, 0.0
77, 0.0
78, 0.0
79, 0.0
80, 0.0
81, 0.0
82, 0.0
83, 0.0
84, 0.0
85, 0.0
86, 0.0
87, 0.0
88, 0.0
89, 0.0
90, 0.0
91, 0.0
92, 0.0
93, 0.0
94, 0.0
95, 0.0
96, 0.0
97, 0.0
98, 0.0
99, 0.0
100, 0.0
101, 0.0
102, 0.0
103, 0.0
104, 0.0
105, 0.0
106, 0.0
107, 0.0
108, 0.0
109, 0.0
110, 0.0
111.0, 0.0029681658177755765
112.0, 0.009746073582333623
113.0, 0.01529252285955139
114.0, 0.017007764468436787
115.0, 0.023356095133400836
116.0, 0.024495733876086126
117.0, 0.01889886425531887
118.0, 0.01498758691713538
119.0, 0.002719443870604709
120.0, 0.0004145891929201344
121.0, 0.001104134653166295
122.0, 0.0009306184621461183
123.0, 0.010348889719674015
124.0, 0.012726251124229692
125.0, 0.006347578940044467
126.0, 0.0008599123052034693
127.0, 0.0012739128614504532
128.0, 0.0024868179779566433
129.0, 0.004694096780333058
130.0, 0.001520424315062256
131.0, 0.006463717562696484
132.0, 0.004623489010216907
133.0, 0.001325380430264334
134.0, 0.004401901043736415
135.0, 0.013203042414705699
136.0, 0.017881962103041927
137.0, 0.03367642352138675
138.0, 0.053389411904132246
139.0, 0.07134898087725028
140.0, 0.08962058184109127
141.0, 0.10384188782475773
142.0, 0.11072769395353918
143.0, 0.11880229507167733
144.0, 0.13728003205453587
145.0, 0.1510124452314833
146.0, 0.16042072826749088
147.0, 0.16967945056835337
148.0, 0.18297324877701746
149.0, 0.20863714696032615
150.0, 0.2295378154720457
151.0, 0.25210408501770815
152.0, 0.2841461338434439
153.0, 0.3216830659995958
154.0, 0.365451479362226
155.0, 0.4084746724546471
156.0, 0.45073793338817275
157.0, 0.49658963053226823
158.0, 0.5284759902568977
159.0, 0.5483416843658262
160.0, 0.5553668602839615
161.0, 0.5469699916888618
162.0, 0.5296685416953756
163.0, 0.5144935029059825
164.0, 0.49866579027189306
165.0, 0.4793244312360639
166.0, 0.46128148316318784
167.0, 0.446138135504613
168.0, 0.4362950283914716
169.0, 0.43009107739939156
170.0, 0.4226671608366691
171.0, 0.4262011739911705
172.0, 0.42860704355895884
173.0, 0.4274242273797897
174.0, 0.42689332309683786
175.0, 0.4256432562493025
176.0, 0.42637017915055986
177.0, 0.42197830573763945
178.0, 0.4102387163062659
179.0, 0.39676235413167144
180.0, 0.3775660924036149
181.0, 0.35644039301697145
182.0, 0.33636779389932453
183.0, 0.31826366755382063
184.0, 0.2904638903143529
185.0, 0.26964007174162546
186.0, 0.2570195363600786
187.0, 0.24696836527986615
188.0, 0.2379776923033107
189.0, 0.23084453413949438
190.0, 0.2284887984726877
191.0, 0.23221688713391447
192.0, 0.24031605773005918
193.0, 0.2571946226253395
194.0, 0.27572270289301054
195.0, 0.2978518617868149
196.0, 0.3299036380361569
197.0, 0.3613049213009392
198.0, 0.39913459939044316
199.0, 0.43835703650574287
200.0, 0.47393889663241184
201.0, 0.5086914931957247
202.0, 0.5379398440264741
203.0, 0.5561681638117608
204.0, 0.5617431472903771
205.0, 0.5585023212197409
206.0, 0.5388343943865368
207.0, 0.5099409586373792
208.0, 0.4727506202037131
209.0, 0.42819836823017965
210.0, 0.39145629631393375
211.0, 0.3654989806425634
212.0, 0.3404156467138189
213.0, 0.31285062748072445
214.0, 0.28830944937058295
215.0, 0.2629978510598306
216.0, 0.245064415177598
217.0, 0.23196640818802083
218.0, 0.21932169593204365
219.0, 0.2087941583233499
220.0, 0.2061978983388637
221.0, 0.20143831730353573
222.0, 0.1915558368708179
223.0, 0.18488233201651483
224.0, 0.18279781192176703
225.0, 0.18437075787475937
226.0, 0.18416207262822878
227.0, 0.17769441948064993
228.0, 0.17131202675153562
229.0, 0.1680144237919569
230.0, 0.16959111280248929
231.0, 0.17191680443511248
232.0, 0.16550484995739637
233.0, 0.15781658088631226
234.0, 0.15205534168037987
235.0, 0.1453767986407643
236.0, 0.1358553159235372
237.0, 0.13087914245369908
238.0, 0.12940375276094804
239.0, 0.12139635862779939
240.0, 0.107381956557507
241.0, 0.1001207142955013
242.0, 0.09321477720812235
243.0, 0.08304371316538059
244.0, 0.07074388860726183
245.0, 0.05984544649011153
246.0, 0.055890908737783136
247.0, 0.0512296044705127
248.0, 0.04612889878285783
249.0, 0.039883203568524615
250.0, 0.029097428818054525
251.0, 0.015922062014131353
252.0, 0.011867588506743798
253.0, 0.0073671567526023924
254.0, 0.0018477909244113725
255.0, 0.00029588286615383005
256.0, 0.0028883518641224007
257.0, 0.009790582253764618
258.0, 0.012162148229670058
259.0, 0.00696939162114955
260.0, 0.008511416618476823
261.0, 0.007230672292766018
262.0, 0.0062080742069764855
263.0, 0.005574194388437483
264.0, 0.0018229679803058823
265.0, 0.001535608569627363
266.0, 0.003896515301429409
267.0, 0.006988633185068309
268.0, 0.005615439834964624
269.0, 0.010653594631925535
270.0, 0.016956047216950286
271.0, 0.02402081624075634
272.0, 0.03206491356066224
273.0, 0.040940544642109736
274.0, 0.05005448967066346
275.0, 0.05996968729139444
276.0, 0.07458920353524306
277.0, 0.09313960097628564
278.0, 0.1083128541701491
279.0, 0.12757373730918253
280.0, 0.14537251762484385
281.0, 0.16255155096807647
282.0, 0.18085713471528705
283.0, 0.1916013850638817
284.0, 0.20652262738923657
285.0, 0.21294446985395316
286.0, 0.21022731218887378
287.0, 0.20899302262295413
288.0, 0.20568138032305336
289.0, 0.18930303273096744
290.0, 0.1700618509628574
291.0, 0.15350657550498298
292.0, 0.13004857477852516
293.0, 0.10980930638253544
294.0, 0.09000544501226297
295.0, 0.0720592790792749
296.0, 0.05929029134217575
297.0, 0.05025488736260646
298.0, 0.03610792229714662
299.0, 0.02296435832497008
300.0, 0.013331123307478253
301.0, 0.004903709560359272
302.0, 0.0014180705403054933
303.0, 0.006193064202934527
304.0, 0.011294689722972259
305.0, 0.009272048945868461
306.0, 0.004989313681042039
307.0, 0.0044327571584664195
308.0, 0.0011406794043990925
309.0, 0.0036629610968075457
310.0, 0.008466855358291971
311.0, 0.015885372721824973
312.0, 0.026011045575927063
313.0, 0.03295793576872217
314.0, 0.04120942176305706
315.0, 0.05295084389523644
316.0, 0.057191210520138515
317.0, 0.06083095322078725
318.0, 0.0684443350460118
319.0, 0.07655116143881513
320.0, 0.07971809767663779
321.0, 0.08282875625132262
322.0, 0.08812943839166472
323.0, 0.09491696844610724
324.0, 0.10068395641198619
325.0, 0.1020515222577967
326.0, 0.10111195481032359
327.0, 0.10428455877081948
328.0, 0.10686984737736789
329.0, 0.10743247510968822
330.0, 0.11161258810514356
331.0, 0.11362607929742422
332.0, 0.11949412312564349
333.0, 0.12559995706116214
334.0, 0.12914387424390286
335.0, 0.13610429952271064
336.0, 0.14565998575024558
337.0, 0.14894901124579052
338.0, 0.14993247446434738
339.0, 0.15057392083557417
340.0, 0.1463008080121547
341.0, 0.14233446707782932
342.0, 0.13307915197533837
343.0, 0.1206993464216301
344.0, 0.10887080788801427
345.0, 0.09538811450986173
346.0, 0.07971707624918148
347.0, 0.0706697130678925
348.0, 0.06384360555937044
349.0, 0.05287616839781904
350.0, 0.04953486534166412
351.0, 0.045579460620266396
352.0, 0.0421609270258931
353.0, 0.040756168725589854
354.0, 0.0418221042541501
355.0, 0.04412271052011665
356.0, 0.04530904377638285
357.0, 0.04370025252489985
358.0, 0.043263294817049415
359.0, 0.04577539504048088
360.0, 0.0417467689808411
361.0, 0.035154480860909484
362.0, 0.03007813939327999
363.0, 0.025467090564762745
364.0, 0.019980006697774083
365.0, 0.017980763250852624
366.0, 0.017175556177266064
367.0, 0.01692263133940445
368.0, 0.018319787692353123
369.0, 0.02099663958527325
370.0, 0.018741090423258566
371.0, 0.022106506307805106
372.0, 0.023286367294683665
373.0, 0.02338874215483142
374.0, 0.02821693217352664
375.0, 0.03137815352798898
376.0, 0.0257508685343649
377.0, 0.02338615954251078
378.0, 0.026209703464181076
379.0, 0.026713343261620583
380.0, 0.0209635365181744
381.0, 0.01798859475383515
382.0, 0.016471522737317317
383.0, 0.013081328230490475
384.0, 0.006958291193594734
385.0, 0.0018478091320875633
386.0, 0.0016444232343545383
387.0, 0.0018484808977974698
388.0, 0.0038879613148511496
389.0, 0.0009825841786468923
390.0, 0.004568952787391644
391.0, 0.0035757946204577886
392.0, 0.008478436787208514
393.0, 0.01161608390901371
394.0, 0.005635718252447904
395.0, 0.009025325162065051
396.0, 0.009877011085541036
397.0, 0.005365275293853282
398.0, 0.0008035963511362988
399.0, 0.002589350987218803
400.0, 0.004369325940832024
401.0, 0.005861389285319502
402.0, 0.00566384029968041
403.0, 0.008880473613195801
404.0, 0.01593954355642711
405.0, 0.018904573318970233
406.0, 0.020315914322335656
407.0, 0.01949992477188884
408.0, 0.020378416344521897
409.0, 0.022904457175422575
410.0, 0.023632852201477827
411.0, 0.03161884963455498
412.0, 0.03840284770939381
413.0, 0.042765292257315006
414.0, 0.04651047098629826
415.0, 0.051005383791848914
416.0, 0.04922065667472014
417.0, 0.05287094202006701
418.0, 0.058505688218951295
419.0, 0.061427296839244645
420.0, 0.061242107793374204
421.0, 0.06818421531776801
422.0, 0.07180036351245721
423.0, 0.07363394655761156
424.0, 0.07862283425655438
425.0, 0.08760532389670568
426.0, 0.09489719716483327
427.0, 0.10373271932343694
428.0, 0.11599298634320865
429.0, 0.13126435992029117
430.0, 0.1495830740790186
431.0, 0.17251411286440507
432.0, 0.1971349675547794
433.0, 0.2212378817662063
434.0, 0.24923276776661643
435.0, 0.28719853881348784
436.0, 0.33420272459269046
437.0, 0.37403308393263474
438.0, 0.4249120265732631
439.0, 0.48380838738110293
440.0, 0.541391090637686
441.0, 0.5997161193424155
442.0, 0.6698985762498125
443.0, 0.7406599661271414
444.0, 0.8014826362882838
445.0, 0.8583756035696078
446.0, 0.9145090076572432
447.0, 0.9596629377899347
448.0, 0.9829875193569866
449.0, 0.9971652783683919
450.0, 0.9970745251039953
451.0, 0.9794771436864476
452.0, 0.9516801099790724
453.0, 0.9112714493046103
454.0, 0.8607107656523492
455.0, 0.8071251472206136
456.0, 0.7493436253788462
457.0, 0.6851138147168208
458.0, 0.6310898170130805
459.0, 0.575103394849658
460.0, 0.5242942709501894
461.0, 0.47658576535856956
462.0, 0.4299228112834094
463.0, 0.3913112977556323
464.0, 0.3519757144568809
465.0, 0.3190021040522019
466.0, 0.29043276001269275
467.0, 0.26514016509161115
468.0, 0.24517253643783268
469.0, 0.2239344127525155
470.0, 0.20189003234276615
471.0, 0.18859393339895478
472.0, 0.18039028329686652
473.0, 0.16793049185657402
474.0, 0.15825209812209481
475.0, 0.14827340386300514
476.0, 0.14002432736022674
477.0, 0.1290986467577032
478.0, 0.11818432007695319
479.0, 0.11648609207190071
480.0, 0.10865639990609643
481.0, 0.09996409268032534
482.0, 0.09193618664536898
483.0, 0.08583330818512534
484.0, 0.0815311061571017
485.0, 0.0708478073756412
486.0, 0.06346261452400663
487.0, 0.059706200740412295
488.0, 0.05579758308119707
489.0, 0.05059177386351356
490.0, 0.04792570256528584
491.0, 0.0421983451546682
492.0, 0.04131715625697691
493.0, 0.037836557418197886
494.0, 0.03518856778291982
495.0, 0.03715139744722545
496.0, 0.02919304204544417
497.0, 0.023767228682666043
498.0, 0.025080576072788095
499.0, 0.022276131679355746
500.0, 0.01683645378127988
501.0, 0.021297737656099044
502.0, 0.019164226592039414
503.0, 0.02038662857215501
504.0, 0.023262777554983953
505.0, 0.02669751528785886
506.0, 0.031198802135395918
507.0, 0.0355578030099574
508.0, 0.04439924262449028
509.0, 0.051927695755795464
510.0, 0.06104262299845458
511.0, 0.07135362539365162
512.0, 0.07987629538347565
513.0, 0.09006742527872552
514.0, 0.10144283796268298
515.0, 0.10573602531363588
516.0, 0.10780224644115902
517.0, 0.10983853661579702
518.0, 0.10580693673711485
519.0, 0.1013975327414782
520.0, 0.09720297534648864
521.0, 0.0896188412648842
522.0, 0.07872490646801364
523.0, 0.06876885927649969
524.0, 0.06184318845029539
525.0, 0.04860580287928203
526.0, 0.04068701630445494
527.0, 0.03160042918430348
528.0, 0.020382479299815275
529.0, 0.012846887280253896
530.0, 0.010782023211537706
531.0, 0.007000155908031925
532.0, 0.002085500925675886
533.0, 0.0002621649150127747
534.0, 0.0009347438770284837
535.0, 0.00571441166392002
536.0, 0.009416036882762158
537.0, 0.008004645351367556
538.0, 0.005975888168615425
539.0, 0.005759305696268008
540.0, 0.006127046237443604
541.0, 0.004268111785514754
542.0, 0.0008860235027933728
543.0, 0.0006740963182697829
544.0, 0.002211581024720423
545.0, 0.004137495321229319
546.0, 0.0045436861499743445
547.0, 0.008581212618610732
548.0, 0.011813550365884731
549.0, 0.011016758249124292
550.0, 0.015464918592275851
551.0, 0.020805168982356154
552.0, 0.01927159181094057
553.0, 0.018497914177686155
554.0, 0.02236910214189161
555.0, 0.022640652865468073
556.0, 0.020978646493744757
557.0, 0.02001852607787967
558.0, 0.020298185364122888
559.0, 0.021129092040659044
560.0, 0.012142627458662878
561.0, 0.014985009059220422
562.0, 0.01672723170602762
563.0, 0.012248291348930998
564.0, 0.009547366474443982
565.0, 0.00852460256255135
566.0, 0.010651972528232188
567.0, 0.005357728033095211
568.0, 0.004558343082338804
569.0, 0.0068071028135652115
570.0, 0.002577572425768052
571.0, 0.0023486414011926306
572.0, 0.0007866254191192871
573.0, 0.0020491565222014287
574.0, 0.0013190280409087133
575.0, 0.00015788937659831897
576.0, 0.00038823089524787165
577.0, 0.002742133035660115
578.0, 0.0007859123026765772
579.0, 0.0007741439709058621
580.0, 0.0018640064322853842
581.0, 0.0025090996688436075
582.0, 0.0045407309682268925
583.0, 0.005945689467167481
584.0, 0.007199142766023384
585.0, 0.014672502195096478
586.0, 0.016489271423910476
587.0, 0.01360310169329161
588.0, 0.015877145969000153
589.0, 0.02180500139055671
590.0, 0.02758023306702655
591.0, 0.033874859943363214
592.0, 0.037049447470181
593.0, 0.039487863852239055
594.0, 0.04421700211884982
595.0, 0.045085167614143634
596.0, 0.05029802543954485
597.0, 0.05912481778192234
598.0, 0.06462715393231044
599.0, 0.06901306141026067
600.0, 0.07571670321386859
601.0, 0.08090332961220197
602.0, 0.08799038444102426
603.0, 0.09801084705973899
604.0, 0.1026280445105844
605.0, 0.10418788324529146
606.0, 0.10740560516530599
607.0, 0.11008935031128907
608.0, 0.11337184198879437
609.0, 0.10987668321592622
610.0, 0.11101369661688285
611.0, 0.10795345123436174
612.0, 0.09868624232833194
613.0, 0.09352531268687675
614.0, 0.08362531672026538
615.0, 0.08020713377882185
616.0, 0.07483740076799508
617.0, 0.06762563035867131
618.0, 0.05997974319123879
619.0, 0.05060129924346253
620.0, 0.04235780986530813
621.0, 0.03998083609725789
622.0, 0.03711409111419711
623.0, 0.03246493466951817
624.0, 0.027732775553945807
625.0, 0.024343987427348404
626.0, 0.022473682203508448
627.0, 0.020251965271507393
628.0, 0.014074959251769955
629.0, 0.009713179895905756
630.0, 0.007984524304284988
631.0, 0.005868927375886896
632.0, 0.0029461492831347642
633.0, 0.0023759261648916754
634.0, 0.003066366906013876
635.0, 0.0006449128186342864
636.0, 0.0008117109491538412
637.0, 0.00048199242782827264
638.0, 0.0009370778034483899
639.0, 0.003882803387641628
640.0, 0.0036430053186667336
641.0, 0.000712292242076239
642.0, 0.003680989634308155
643.0, 0.010098436403635875
644.0, 0.013481038087331875
645.0, 0.01630047361793491
646.0, 0.020416750257462996
647.0, 0.027148760439059557
648.0, 0.03632316835185452
649.0, 0.04252168296223392
650.0, 0.04773629973322279
651.0, 0.059056596191042136
652.0, 0.06942337156776554
653.0, 0.0784176712145419
654.0, 0.09206876752834726
655.0, 0.1036625546514029
656.0, 0.11877157793861033
657.0, 0.14103485898142173
658.0, 0.15733023019275014
659.0, 0.17780341020510287
660.0, 0.19328307426472863
661.0, 0.2106056288846854
662.0, 0.22882456163037337
663.0, 0.2425918347213678
664.0, 0.25071351064530417
665.0, 0.2615451309311886
666.0, 0.26547614651504103
667.0, 0.2606248979198566
668.0, 0.25222328081351647
669.0, 0.23958808402025275
670.0, 0.22011811629419267
671.0, 0.19788827371430037
672.0, 0.1842080701257213
673.0, 0.16268601224000642
674.0, 0.1452701121668427
675.0, 0.12981905214939105
676.0, 0.11373756492090643
677.0, 0.099696869469695
678.0, 0.08819513905822823
679.0, 0.07674457730862588
680.0, 0.06761881937575377
681.0, 0.05842244976473564
682.0, 0.05208785362534762
683.0, 0.04753827841059809
684.0, 0.04134803266297298
685.0, 0.03910291110468888
686.0, 0.03441776169208668
687.0, 0.030301123353213763
688.0, 0.02728944297326409
689.0, 0.025225360738067016
690.0, 0.023873218480664572
691.0, 0.022172924554342482
692.0, 0.019350352781465772
693.0, 0.017370353462178873
694.0, 0.01393853486552104
695.0, 0.011409033484119667
696.0, 0.009940913103596743
697.0, 0.008656360428037807
698.0, 0.007644189838488149
699.0, 0.008021520883518752
700.0, 0.0006357450360669133
701.0, 0.0036184302540817575
702.0, 0.00524588513291433
703.0, 0.0022781736928399435
704.0, 0.00044283053521081736
705.0, 0.0020581495948193604
706.0, 0.001338479775972414
707.0, 0.0012001083221221645
708.0, 0.0009821297473955417
709.0, 0.00024789673926936735
710.0, 0.0007689450400652547
711.0, 0.0002398908325246143
712.0, 0.0014584859187693742
713.0, 0.0012407350504437683
714.0, 0.0039860950558030265
715.0, 0.004075905359652204
716.0, 0.003951610524393553
717.0, 0.005436325221880304
718.0, 0.005990216490346992
719.0, 0.006643679687402415
720.0, 0.006172554029924801
721.0, 0.012120550582156142
722.0, 0.01377065346984414
723.0, 0.011081985951199405
724.0, 0.009721621433076533
725.0, 0.011526580236038877
726.0, 0.014683120839990153
727.0, 0.012851761514328881
728.0, 0.014337154129955744
729.0, 0.01601816338992519
730.0, 0.017104206811128914
731.0, 0.016772864908816017
732.0, 0.014303441432174224
733.0, 0.011740743031675074
734.0, 0.012946171076240402
735.0, 0.014391806268272658
736.0, 0.011230057737047274
737.0, 0.00836126608182818
738.0, 0.008135030880567691
739.0, 0.007549839939409485
740.0, 0.004823749740222642
741.0, 0.007581572633852088
742.0, 0.00492773480800849
743.0, 0.002272913935058044
744.0, 0.001062062534025318
745.0, 0.0013001811754280578
746.0, 0.0014566064144809444
747.0, 0.004898703361335702
748.0, 0.005316438875138969
749.0, 0.0009479204049840146
750.0, 0.00104377573873537
751.0, 0.0038980787189251253
752.0, 0.0062460681622623715
753.0, 0.004705322738424574
754.0, 0.0029112793077355017
755.0, 0.0019412412616832075
756.0, 0.005273335586406865
757.0, 0.005329707849014335
758.0, 0.01054603605771293
759.0, 0.012255658086162784
760.0, 0.01033603509959403
761.0, 0.00976078763876477
762.0, 0.009464519871377737
763.0, 0.011621094780073534
764.0, 0.013803437167813671
765.0, 0.014491782597952684
766.0, 0.01352953370649224
767.0, 0.014678273482029847
768.0, 0.016493449711683796
769.0, 0.015658420426193982
770.0, 0.0160849536798364
771.0, 0.015542292095525182
772.0, 0.01624234765323632
773.0, 0.014688698218840026
774.0, 0.012793640650895324
775.0, 0.011537728521004629
776.0, 0.00964708381852746
777.0, 0.007122850958678811
778.0, 0.007106363634861039
779.0, 0.004152267710636978
780.0, 0.008585933196333325
781.0, 0.008237886545440103
782.0, 0.006854678431781288
783.0, 0.005896493131478071
784.0, 0.004624942251267246
785.0, 0.004367951624256089
786.0, 0.0017213683267475013
787.0, 0.00030305013441724477
788.0, 0.0011598806943083728
789.0, 0.0041101855836644715
790.0, 0.005656590356650404
791.0, 0.006128973571187987
792.0, 0.005979384754104948
793.0, 0.0025361650483294463
794.0, 0.0028687851567806228
795.0, 0.005321466483070233
796.0, 0.004554755240889102
797.0, 0.0028706718337531793
798.0, 0.0033116910239157876
799.0, 0.004995171859867571
800.0, 0.0050351421576750625
801.0, 0.004883373540508629
802.0, 0.005678494147431715
803.0, 0.003540318506700856
804.0, 0.004527316609820108
805.0, 0.004796220742583693
806.0, 0.0027638222075872724
807.0, 0.0009825935694045551
808.0, 0.0019165591003510334
809.0, 0.005899095769310792
810.0, 0.004747830807175982
811.0, 0.0020317915343589002
812.0, 0.0021617529778468346
813.0, 0.003434259034416354
814.0, 0.003800943291824544
815.0, 0.004438794114232159
816.0, 0.005633250110372161
817.0, 0.004051565045146462
818.0, 0.00398168619557563
819.0, 0.003133577004217196
820.0, 0.0006273179056982867
821.0, 0.002476265385309661
822.0, 0.004165868846283101
823.0, 0.0023081767845375954
824.0, 0.0031587880467911084
825.0, 0.0008106692085251955
826.0, 0.000977256483309364
827.0, 0.0018429266092936903
828.0, 0.0005225828901999673
829.0, 0.000625954129016236
830.0, 0.001031394444174098
831.0, 0.00198505002500128
832.0, 0.0035620616468841054
833.0, 0.00155177132358688
834.0, 0.00016761174281424297
835.0, 0.0007316848988137367
836.0, 0.0021100424818320395
837.0, 0.0030124524667238368
838.0, 0.0006693935947551179
839.0, 0.0026488643138893745
840.0, 0.0026188698011771743
841.0, 0.005008497880743647
842.0, 0.0011760403937467955
843.0, 0.0001761541432717962
844.0, 0.0007312763768696733
845.0, 0.0007659874864772733
846.0, 0.0012921901937859165
847.0, 0.0010176853619310654
848.0, 0.0012542720473265592
849.0, 0.002178698412902422
850.0, 0.0010787225265937472
851.0, 0.002457381717553192
852.0, 0.00400100030835263
853.0, 0.0025806745245252403
854.0, 0.000128646603728372
855.0, 0.0007230277619885888
856.0, 0.00047857572186216045
857.0, 0.0018416598555955125
858.0, 0.001951006150271682
859.0, 0.0006095541854953717
860.0, 0.0013561631148920647
861.0, 0.0028117763624262745
862.0, 0.001202483801663177
863.0, 0.0031557091719941767
864.0, 0.0051776867302004885
865.0, 0.0038297222381354578
866.0, 0.0036554975870631092
867.0, 0.005668595908493311
868.0, 0.007086150345982113
869.0, 0.009128102040598083
870.0, 0.007596770632872873
871.0, 0.009676869395802794
872.0, 0.014965217666804139
873.0, 0.017453881049742753
874.0, 0.01846557584151135
875.0, 0.02146441168038054
876.0, 0.02108543739542323
877.0, 0.021232935938557473
878.0, 0.02251422722700486
879.0, 0.02698434464656227
880.0, 0.02747038746055545
881.0, 0.025734484464459348
882.0, 0.025374391455854017
883.0, 0.026172205357883133
884.0, 0.027692494739222046
885.0, 0.02412637383935522
886.0, 0.021009185909553103
887.0, 0.018221350307774935
888.0, 0.016497505371934867
889.0, 0.01647545806213253
890.0, 0.01618755986374508
891.0, 0.014117254844670893
892.0, 0.012109998179444493
893.0, 0.010735017052226736
894.0, 0.006780367522376461
895.0, 0.007021719447363545
896.0, 0.008005092425701073
897.0, 0.008387958480524257
898.0, 0.008253719555605955
899.0, 0.007447480396444301
900.0, 0.007310253217249961
901.0, 0.009261298081766676
902.0, 0.012807033348246816
903.0, 0.01622866244948297
904.0, 0.014568565150277437
905.0, 0.01930384445340859
906.0, 0.020385558501645286
907.0, 0.025410595416618154
908.0, 0.02890768995799568
909.0, 0.03178593162054572
910.0, 0.03388905666714018
911.0, 0.03424149587415074
912.0, 0.04168524390932775
913.0, 0.045663066608834374
914.0, 0.05352500445923182
915.0, 0.05765664294404161
916.0, 0.061213908513975235
917.0, 0.06413801346200496
918.0, 0.0710578356736629
919.0, 0.07929787950765624
920.0, 0.08302774982661255
921.0, 0.09073784365248679
922.0, 0.0942902984856504
923.0, 0.09961674262283525
924.0, 0.09889220955060324
925.0, 0.1032194268004357
926.0, 0.1110962043542876
927.0, 0.11662966391279364
928.0, 0.1183710167297148
929.0, 0.11978316530438805
930.0, 0.12175108793342615
931.0, 0.12090290540091012
932.0, 0.1240550630129316
933.0, 0.1260100847113123
934.0, 0.12631863415059177
935.0, 0.12730870058946367
936.0, 0.13028076513863093
937.0, 0.13067611301895313
938.0, 0.12755689644354276
939.0, 0.12983702949290113
940.0, 0.13679422449387083
941.0, 0.1304251380683736
942.0, 0.12737582645198633
943.0, 0.12392163957559463
944.0, 0.12365122808321888
945.0, 0.12186076221637958
946.0, 0.11552834589235993
947.0, 0.10896765375823365
948.0, 0.1049080207700723
949.0, 0.10060810545726634
950.0, 0.09473009248984864
951.0, 0.08966545137665732
952.0, 0.08363319741101247
953.0, 0.07921638867636677
954.0, 0.07363480210723972
955.0, 0.06799817349105793
956.0, 0.059298737346555504
957.0, 0.05534991317125865
958.0, 0.05590002675456803
959.0, 0.053288312365105894
960.0, 0.04819867675778436
961.0, 0.04327529837415598
962.0, 0.043323874654521165
963.0, 0.04381007866157643
964.0, 0.04180309417586597
965.0, 0.039523814835711164
966.0, 0.0411788405456171
967.0, 0.045219179933286356
968.0, 0.04458027736691615
969.0, 0.040829224324076
970.0, 0.04003772869924159
971.0, 0.03823385692336507
972.0, 0.03366180331898204
973.0, 0.034670164063777015
974.0, 0.03456515020599132
975.0, 0.03553037657555492
976.0, 0.0358623865153876
977.0, 0.03549062311650066
978.0, 0.03275438846673801
979.0, 0.03192281153460813
980.0, 0.03051524663793038
981.0, 0.022913684654291788
982.0, 0.027012545007310013
983.0, 0.027589532485639043
984.0, 0.02627460985745767
985.0, 0.027404484553753078
986.0, 0.026832197919303274
987.0, 0.024518074267727993
988.0, 0.025387042669761384
989.0, 0.02697924032315123
990.0, 0.02506779074301487
991.0, 0.024634440805505205
992.0, 0.025883673504151314
993.0, 0.01942412061334931
994.0, 0.02047933586389938
995.0, 0.016761089188649124
996.0, 0.015213532293155009
997.0, 0.013920978405887791
998.0, 0.014416564320582465
999.0, 0.010521469912279192
1000.0, 0.0061629447460715145
1001.0, 0.006092344078396628
1002.0, 0.008042152886798755
1003.0, 0.008517699004786695
1004.0, 0.0029746660265507416
1005.0, 0.0007116159334309947
1006.0, 0.0042257746939188484
1007.0, 0.0010788575172105007
1008.0, 0.0028791358281037463
1009.0, 0.00021303400041137815
1010.0, 0.0011634780681885198
1011.0, 0.0003619953874314894
1012.0, 0.001234905604388334
1013.0, 0.0005330300849881706
1014.0, 0.002000514703488795
1015.0, 0.0004696790669399775
1016.0, 0.001318350253338732
1017.0, 0.0017759506181087349
1018.0, 0.004509269036534901
1019.0, 0.003853851048282414
1020.0, 0.0015263391768015697
1021.0, 0.00020698284730477263
1022.0, 0.00038947911950456095
1023.0, 1.8282939686685342e-05
1024.0, 0.0007633335712186574
1025.0, 0.001380164514437995
1026.0, 0.00022858550260052333
1027.0, 0.0008814462097903015
1028.0, 0.0008590952458196355
1029.0, 0.002772358107710277
1030.0, 0.002931117164042253
1031.0, 0.00092668265525317
1032.0, 0.0021736606805305603
1033.0, 0.0015007788070013001
1034.0, 0.0027053600187560405
1035.0, 0.006349082447496872
1036.0, 0.006860604157984273
1037.0, 0.008807980132591186
1038.0, 0.007810644072480993
1039.0, 0.01159803038071934
1040.0, 0.0142714735439037
1041.0, 0.014250369304619297
1042.0, 0.012135328013950316
1043.0, 0.0158962041034324
1044.0, 0.02226987276922415
1045.0, 0.021715042559584848
1046.0, 0.02157013670986155
1047.0, 0.02398470196118892
1048.0, 0.02792757196532246
1049.0, 0.03261594928511421
1050.0, 0.03361188293972301
1051.0, 0.03630934118220627
1052.0, 0.04391085065285125
1053.0, 0.04155997990311514
1054.0, 0.04222006667978861
1055.0, 0.04768892413798098
1056.0, 0.05057371526997363
1057.0, 0.05178747625715405
1058.0, 0.05435761453003218
1059.0, 0.05512021144456514
1060.0, 0.05818192348512245
1061.0, 0.063442824725292
1062.0, 0.06770142222781181
1063.0, 0.07463726339708569
1064.0, 0.07524951803768723
1065.0, 0.08367230119224574
1066.0, 0.08254304777820028
1067.0, 0.08937418729994942
1068.0, 0.09299568629630957
1069.0, 0.09574402347146194
1070.0, 0.10141275731982073
1071.0, 0.10570295599485832
1072.0, 0.10902026680334362
1073.0, 0.11349587604576955
1074.0, 0.11946970369418611
1075.0, 0.12529024149243542
1076.0, 0.12839408628529164
1077.0, 0.1336069148848195
1078.0, 0.14420243708193753
1079.0, 0.15165582998430951
1080.0, 0.16709729679407165
1081.0, 0.17811237951757736
1082.0, 0.18853152523597225
1083.0, 0.20570900361447209
1084.0, 0.23008539044610563
1085.0, 0.2536388264451259
1086.0, 0.2770478591455801
1087.0, 0.3024434063110298
1088.0, 0.32814427107760263
1089.0, 0.35064310078125477
1090.0, 0.36627069557562525
1091.0, 0.3827848596825032
1092.0, 0.3925140110237891
1093.0, 0.39080110269978563
1094.0, 0.3781272150872935
1095.0, 0.3591828173430351
1096.0, 0.33123570325401425
1097.0, 0.29826289778985854
1098.0, 0.2639101041177584
1099.0, 0.23513486036528924
1100.0, 0.20494499067281935
1101.0, 0.17668999748186665
1102.0, 0.15325087080402874
1103.0, 0.12636060339473495
1104.0, 0.1095753571018301
1105.0, 0.09939602411187101
1106.0, 0.07933162171352388
1107.0, 0.07079184848631291
1108.0, 0.06346848065333792
1109.0, 0.05831084695663434
1110.0, 0.04770078438565466
1111.0, 0.04264142071879459
1112.0, 0.0340090732809359
1113.0, 0.02872353576180164
1114.0, 0.026612586932530644
1115.0, 0.022262928490688255
1116.0, 0.02025745788706141
1117.0, 0.020253623128599144
1118.0, 0.01711738049564406
1119.0, 0.014222370288404514
1120.0, 0.009224625365604295
1121.0, 0.008689492144884675
1122.0, 0.009681688851286192
1123.0, 0.01025906332644416
1124.0, 0.007849940215718483
1125.0, 0.0071027711798562964
1126.0, 0.0031167998170598334
1127.0, 0.0014685388063117107
1128.0, 0.0035104516361914944
1129.0, 0.005001942047865918
1130.0, 0.0041465558594345215
1131.0, 0.0031305663636394037
1132.0, 0.0025339057878434592
1133.0, 0.0011765950928592738
1134.0, 0.0034799835044800444
1135.0, 0.00140312465917814
1136.0, 0.0031004068972332217
1137.0, 0.0037319844497008736
1138.0, 0.0017174593554202889
1139.0, 0.004007004384063521
1140.0, 0.00423808714859855
1141.0, 0.003107085335165928
1142.0, 0.0019022843577070198
1143.0, 0.003573445798156917
1144.0, 0.002139529168287537
1145.0, 0.0002660130004668054
1146.0, 0.0011157914725251057
1147.0, 0.0022374211952759736
1148.0, 0.0033911135392076155
1149.0, 0.0040498391830207986
1150.0, 0.003690355279298444
1151.0, 0.0020026497972693356
1152.0, 0.0025896115824658047
1153.0, 0.003065211931279454
1154.0, 0.0018017045755232468
1155.0, 0.0012081162795442154
1156.0, 0.001678877823520055
1157.0, 0.0005365393389935525
1158.0, 0.0012798034328188603
1159.0, 0.00027226502394925745
1160.0, 0.0005680509419690639
1161.0, 0.0020437810970419124
1162.0, 0.0013249268517461256
1163.0, 0.004195454772414473
1164.0, 0.0026490878376331742
1165.0, 0.0005862080497569104
1166.0, 0.0011108773322264863
1167.0, 0.0012385569457983886
1168.0, 0.005249517015153504
1169.0, 0.004607839467445857
1170.0, 0.003685730424571575
1171.0, 0.0028333883225385163
1172.0, 0.004608583665320248
1173.0, 0.0022350927573416062
1174.0, 0.0033183802269777596
1175.0, 0.005115091251197615
1176.0, 0.0036801963605317613
1177.0, 0.004549889100943588
1178.0, 0.005364057193515997
1179.0, 0.005233049980129615
1180.0, 0.0037999679997957623
1181.0, 0.0041141043792034555
1182.0, 0.005991517828978611
1183.0, 0.005102555086753593
1184.0, 0.0048361121676375116
1185.0, 0.005949104429709452
1186.0, 0.0055502595553052255
1187.0, 0.0039218640388379985
1188.0, 0.0030707119708070565
1189.0, 0.0052686553778758345
1190.0, 0.007408525080447083
1191.0, 0.006288824472000597
1192.0, 0.008447329599522924
1193.0, 0.010050392634464916
1194.0, 0.006737409944966816
1195.0, 0.0050108553679508285
1196.0, 0.004388635558818275
1197.0, 0.003011475281676208
1198.0, 0.00581448152970236
1199.0, 0.007464142778888728
1200.0, 0.006213924343087526
1201.0, 0.005649618328317885
1202.0, 0.006051005258982853
1203.0, 0.006016041702231497
1204.0, 0.0028257766761742046
1205.0, 0.004029495897779345
1206.0, 0.007185502879087185
1207.0, 0.007790602891283804
1208.0, 0.007524668001867408
1209.0, 0.006483873445698582
1210.0, 0.011974870467634005
1211.0, 0.0053227374431463765
1212.0, 0.0023371445077770767
1213.0, 0.006154504662053115
1214.0, 0.005385909331274178
1215.0, 0.003434201433610836
1216.0, 0.004384557207669547
1217.0, 0.004908286380270638
1218.0, 0.008570264487668355
1219.0, 0.007713770203377853
1220.0, 0.004304057870774393
1221.0, 0.0045126796711602545
1222.0, 0.0026810836474444257
1223.0, 0.00027628479445212617
1224.0, 0.0033211576304152694
1225.0, 0.0071194991772759765
1226.0, 0.0032000963748116534
1227.0, 0.0005774586942304703
1228.0, 0.002112964304822529
1229.0, 0.006058755507408006
1230.0, 0.006855058931281011
1231.0, 0.005314561011033448
1232.0, 0.00045361382551720945
1233.0, 0.0034008354037761215
1234.0, 0.0013975659325900453
1235.0, 0.0032729270103747936
1236.0, 0.011257687128247755
1237.0, 0.007356203824962474
1238.0, 0.006198578620161673
1239.0, 0.00788341724528043
1240.0, 0.005640619912702752
1241.0, 0.0017139182590095964
1242.0, 0.0032973796836052506
1243.0, 0.005234573288113709
1244.0, 0.00368709851431563
1245.0, 0.0026165299383993576
1246.0, 0.0017235760234791155
1247.0, 0.003210840000480815
1248.0, 0.005907383365142193
1249.0, 0.004046361301128206
1250.0, 0.004352696274973796
1251.0, 0.00420624945420719
1252.0, 0.002589423850076164
1253.0, 0.0016793430582700759
1254.0, 0.005129503738309368
1255.0, 0.0020217184085591926
1256.0, 0.002520282377511594
1257.0, 0.001025790670040063
1258.0, 0.0043684108040338765
1259.0, 0.003453386966804368
1260.0, 0.0036033532646894684
1261.0, 0.002855709559982563
1262.0, 0.00485372124001468
1263.0, 0.0015432181255893133
1264.0, 0.00022519088448450777
1265.0, 0.0008401891383249948
1266.0, 0.0003884361164755462
1267.0, 0.002610842615976763
1268.0, 0.0043589903009549225
1269.0, 0.0012952594737823037
1270.0, 0.0003520533148761524
1271.0, 0.0006247799893136891
1272.0, 0.00181889515688508
1273.0, 0.0035802207255715393
1274.0, 0.0032794065228223712
1275.0, 0.0023529697760161705
1276.0, 0.0021312861314704574
1277.0, 0.004165050521108527
1278.0, 0.003367122996605872
1279.0, 0.0036697183198324294
1280.0, 0.0017989772762561805
1281.0, 0.004748620554649736
1282.0, 0.0002922019525797041
1283.0, 0.0008249844117023957
1284.0, 0.0009625128096436603
1285, 0.0
1286, 0.0
1287, 0.0
1288, 0.0
1289, 0.0
1290, 0.0
1291, 0.0
1292, 0.0
1293, 0.0
1294, 0.0
1295, 0.0
1296, 0.0
1297, 0.0
1298, 0.0
1299, 0.0
1300, 0.0
1301, 0.0
1302, 0.0
1303, 0.0
1304, 0.0
1305, 0.0
1306, 0.0
1307, 0.0
1308, 0.0
1309, 0.0
1310, 0.0
1311, 0.0
1312, 0.0
1313, 0.0
1314, 0.0
1315, 0.0
1316, 0.0
1317, 0.0
1318, 0.0
1319, 0.0
1320, 0.0
1321, 0.0
1322, 0.0
1323, 0.0
1324, 0.0
1325, 0.0
1326, 0.0
1327, 0.0
1328, 0.0
1329, 0.0
1330, 0.0
1331, 0.0
1332, 0.0
1333, 0.0
1334, 0.0
1335, 0.0
1336, 0.0
1337, 0.0
1338, 0.0
1339, 0.0
1340, 0.0
1341, 0.0
1342, 0.0
1343, 0.0
1344, 0.0
1345, 0.0
1346, 0.0
1347, 0.0
1348, 0.0
1349, 0.0
1350, 0.0
1351, 0.0
1352, 0.0
1353, 0.0
1354, 0.0
1355, 0.0
1356, 0.0
1357, 0.0
1358, 0.0
1359, 0.0
1360, 0.0
1361, 0.0
1362, 0.0
1363, 0.0
1364, 0.0
1365, 0.0
1366, 0.0
1367, 0.0
1368, 0.0
1369, 0.0
1370, 0.0
1371, 0.0
1372, 0.0
1373, 0.0
1374, 0.0
1375, 0.0
1376, 0.0
1377, 0.0
1378, 0.0
1379, 0.0
1380, 0.0
1381, 0.0
1382, 0.0
1383, 0.0
1384, 0.0
1385, 0.0
1386, 0.0
1387, 0.0
1388, 0.0
1389, 0.0
1390, 0.0
1391, 0.0
1392, 0.0
1393, 0.0
1394, 0.0
1395, 0.0
1396, 0.0
1397, 0.0
1398, 0.0
1399, 0.0
1400, 0.0
1401, 0.0
1402, 0.0
1403, 0.0
1404, 0.0
1405, 0.0
1406, 0.0
1407, 0.0
1408, 0.0
1409, 0.0
1410, 0.0
1411, 0.0
1412, 0.0
1413, 0.0
1414, 0.0
1415, 0.0
1416, 0.0
1417, 0.0
1418, 0.0
1419, 0.0
1420, 0.0
1421, 0.0
1422, 0.0
1423, 0.0
1424, 0.0
1425, 0.0
1426, 0.0
1427, 0.0
1428, 0.0
1429, 0.0
1430, 0.0
1431, 0.0
1432, 0.0
1433, 0.0
1434, 0.0
1435, 0.0
1436, 0.0
1437, 0.0
1438, 0.0
1439, 0.0
1440, 0.0
1441, 0.0
1442, 0.0
1443, 0.0
1444, 0.0
1445, 0.0
1446, 0.0
1447, 0.0
1448, 0.0
1449, 0.0
1450, 0.0
1451, 0.0
1452, 0.0
1453, 0.0
1454, 0.0
1455, 0.0
1456, 0.0
1457, 0.0
1458, 0.0
1459, 0.0
1460, 0.0
1461, 0.0
1462, 0.0
1463, 0.0
1464, 0.0
1465, 0.0
1466, 0.0
1467, 0.0
1468, 0.0
1469, 0.0
1470, 0.0
1471, 0.0
1472, 0.0
1473, 0.0
1474, 0.0
1475, 0.0
1476, 0.0
1477, 0.0
1478, 0.0
1479, 0.0
1480, 0.0
1481, 0.0
1482, 0.0
1483, 0.0
1484, 0.0
1485, 0.0
1486, 0.0
1487, 0.0
1488, 0.0
1489, 0.0
1490, 0.0
1491, 0.0
1492, 0.0
1493, 0.0
1494, 0.0
1495, 0.0
1496, 0.0
1497, 0.0
1498, 0.0
1499, 0.0
1500, 0.0
1501, 0.0
1502, 0.0
1503, 0.0
1504, 0.0
1505, 0.0
1506, 0.0
1507, 0.0
1508, 0.0
1509, 0.0
1510, 0.0
1511, 0.0
1512, 0.0
1513, 0.0
1514, 0.0
1515, 0.0
1516, 0.0
1517, 0.0
1518, 0.0
1519, 0.0
1520, 0.0
1521, 0.0
1522, 0.0
1523, 0.0
1524, 0.0
1525, 0.0
1526, 0.0
1527, 0.0
1528, 0.0
1529, 0.0
1530, 0.0
1531, 0.0
1532, 0.0
1533, 0.0
1534, 0.0
1535, 0.0
1536, 0.0
1537, 0.0
1538, 0.0
1539, 0.0
1540, 0.0
1541, 0.0
1542, 0.0
1543, 0.0
1544, 0.0
1545, 0.0
1546, 0.0
1547, 0.0
1548, 0.0
1549, 0.0
1550, 0.0
1551, 0.0
1552, 0.0
1553, 0.0
1554, 0.0
1555, 0.0
1556, 0.0
1557, 0.0
1558, 0.0
1559, 0.0
1560, 0.0
1561, 0.0
1562, 0.0
1563, 0.0
1564, 0.0
1565, 0.0
1566, 0.0
1567, 0.0
1568, 0.0
1569, 0.0
1570, 0.0
1571, 0.0
1572, 0.0
1573, 0.0
1574, 0.0
1575, 0.0
1576, 0.0
1577, 0.0
1578, 0.0
1579, 0.0
1580, 0.0
1581, 0.0
1582, 0.0
1583, 0.0
1584, 0.0
1585, 0.0
1586, 0.0
1587, 0.0
1588, 0.0
1589, 0.0
1590, 0.0
1591, 0.0
1592, 0.0
1593, 0.0
1594, 0.0
1595, 0.0
1596, 0.0
1597, 0.0
1598, 0.0
1599, 0.0
