30, 0.0
31, 0.0
32, 0.0
33, 0.0
34, 0.0
35, 0.0
36, 0.0
37, 0.0
38, 0.0
39, 0.0
40, 0.0
41, 0.0
42, 0.0
43, 0.0
44, 0.0
45, 0.0
46, 0.0
47, 0.0
48, 0.0
49, 0.0
50, 0.0
51, 0.0
52, 0.0
53, 0.0
54, 0.0
55, 0.0
56, 0.0
57, 0.0
58, 0.0
59, 0.0
60, 0.0
61, 0.0
62, 0.0
63, 0.0
64, 0.0
65, 0.0
66, 0.0
67, 0.0
68, 0.0
69, 0.0
70, 0.0
71, 0.0
72, 0.0
73, 0.0
74, 0.0
75.0, 4.0727549048256355e-05
76.0, 0.0002917393116793898
77.0, 0.00731752788722936
78.0, 0.019029159039847993
79.0, 0.03229398609411835
80.0, 0.041877597435734853
81.0, 0.03470987314278671
82.0, 0.023323689652947337
83.0, 0.01108393513332624
84.0, 0.007136833720431376
85.0, 0.005630430824074025
86.0, 0.00469476620872114
87.0, 0.0023902240460320656
88.0, 0.0013950851911392872
89.0, 0.0019469705272038387
90.0, 0.0038529648340268566
91.0, 0.005952492068876008
92.0, 0.014349096246952403
93.0, 0.02381072624140776
94.0, 0.031098529989968312
95.0, 0.035685689994034264
96.0, 0.04294789310633399
97.0, 0.05164103471847054
98.0, 0.057579781946124925
99.0, 0.06613852372781356
100.0, 0.0765906794697459
101.0, 0.08880775603066134
102.0, 0.10115445088095062
103.0, 0.11464611710371354
104.0, 0.12954005045923123
105.0, 0.14666792894218625
106.0, 0.15847575248784695
107.0, 0.16674139080509684
108.0, 0.17110058854306787
109.0, 0.16612873229831193
110.0, 0.15477670758533701
111.0, 0.14533782734569956
112.0, 0.1454678293363558
113.0, 0.15052698735122705
114.0, 0.1584684625266579
115.0, 0.17009480553651232
116.0, 0.18977466872770565
117.0, 0.20946274019614836
118.0, 0.21969478784009905
119.0, 0.2151454125336609
120.0, 0.17452256627166174
121.0, 0.14090695019660124
122.0, 0.11293840198998269
123.0, 0.0896355303277416
124.0, 0.07961083269824555
125.0, 0.0737457680656608
126.0, 0.07044208685995593
127.0, 0.07037992824356659
128.0, 0.07222463953952031
129.0, 0.07707487168725803
130.0, 0.08648179077004318
131.0, 0.09666663960419852
132.0, 0.10246064667075144
133.0, 0.10517338608785409
134.0, 0.10944449589667234
135.0, 0.10875259729857338
136.0, 0.10657727847149773
137.0, 0.10400066268409999
138.0, 0.09977343031708222
139.0, 0.09531747769058625
140.0, 0.0935171942240288
141.0, 0.09907266892884849
142.0, 0.10245725497549309
143.0, 0.11292301131558963
144.0, 0.12855900942715381
145.0, 0.13218160263553075
146.0, 0.1458532670234255
147.0, 0.15955086899170198
148.0, 0.16767373753244658
149.0, 0.16324347701904499
150.0, 0.16026304974330705
151.0, 0.15689671862973265
152.0, 0.14899766221138733
153.0, 0.14725917387495727
154.0, 0.14719594156723553
155.0, 0.14818098057977533
156.0, 0.15266570939573273
157.0, 0.15684049233589656
158.0, 0.15884707318812516
159.0, 0.15684784373718844
160.0, 0.15579918910794624
161.0, 0.1514322870590607
162.0, 0.1448139494102998
163.0, 0.13882078195464717
164.0, 0.13742297585114638
165.0, 0.1349086881806275
166.0, 0.13039334427720584
167.0, 0.13316603257464732
168.0, 0.13393436675914422
169.0, 0.1352570215220147
170.0, 0.13967813656037603
171.0, 0.14053824053583613
172.0, 0.14082237814032214
173.0, 0.14034219951436583
174.0, 0.13773843984205783
175.0, 0.13294327646457046
176.0, 0.12837516171964958
177.0, 0.12450227132045869
178.0, 0.11670709231905932
179.0, 0.11317703564872306
180.0, 0.11055194409830717
181.0, 0.10557558071023558
182.0, 0.10376728764829646
183.0, 0.10133661203014094
184.0, 0.0972745489554363
185.0, 0.08897037856621812
186.0, 0.08419577927173323
187.0, 0.07927438247659085
188.0, 0.07311479493289025
189.0, 0.06701089980881124
190.0, 0.06117340489512164
191.0, 0.055481134774333404
192.0, 0.04984414255047582
193.0, 0.04750627199262471
194.0, 0.04407581843452158
195.0, 0.04021139189290157
196.0, 0.038550908689103346
197.0, 0.0381607214486625
198.0, 0.038039016667712845
199.0, 0.0377663214072494
200.0, 0.03577368963790731
201.0, 0.03408088642018699
202.0, 0.032207902309458594
203.0, 0.029730586074797047
204.0, 0.025112208169911557
205.0, 0.02123520851767
206.0, 0.017895665931725983
207.0, 0.014449715506079113
208.0, 0.011846287941313332
209.0, 0.009672612891453495
210.0, 0.007730756626070168
211.0, 0.005178554559899783
212.0, 0.004034579923712641
213.0, 0.002984496996831597
214.0, 0.0012340640600414967
215.0, 0.002427434788175766
216.0, 0.0016344410860041692
217.0, 0.00022633450394424228
218.0, 0.0004628151739557336
219.0, 0.0006581333663600144
220.0, 0.0011645495692858049
221.0, 0.001699497063682432
222.0, 0.0007350424497772383
223.0, 0.0005352529386932778
224.0, 0.002059783980072349
225.0, 0.005557872985636229
226.0, 0.00511573603226699
227.0, 0.007460344990949654
228.0, 0.009688867431314566
229.0, 0.00865567527845401
230.0, 0.008967605590990583
231.0, 0.0076300790664166
232.0, 0.005244201231513952
233.0, 0.0038282300255314495
234.0, 0.004035404047741714
235.0, 0.003633746334604018
236.0, 0.002419057828121827
237.0, 0.00312728833145852
238.0, 0.004606802839449564
239.0, 0.006274722682150963
240.0, 0.00780254674055853
241.0, 0.010746379301545489
242.0, 0.012790395315592422
243.0, 0.014444896451930303
244.0, 0.016415848133765593
245.0, 0.016189393610085027
246.0, 0.014850240175468299
247.0, 0.012652584962555303
248.0, 0.009949764886766339
249.0, 0.005206535896494826
250.0, 0.0018822310705349662
251.0, 0.0011128211245395427
252.0, 0.0027193966741537257
253.0, 0.004361679853488397
254.0, 0.005697954551720079
255.0, 0.006450214362023627
256.0, 0.006762376252137517
257.0, 0.007094928833141982
258.0, 0.007229713246722555
259.0, 0.006768714809903621
260.0, 0.006711823828352758
261.0, 0.006964438114231215
262.0, 0.006547520317865721
263.0, 0.0018370848867188382
264.0, 0.0022486779261693796
265.0, 0.0025048766724455984
266.0, 0.0012818427617951088
267.0, 0.002003744889849387
268.0, 0.002339863375625878
269.0, 0.0018254055041713032
270.0, 7.106043330329155e-05
271.0, 0.0006049580870906436
272.0, 0.0009226036242067791
273.0, 0.001696927235256186
274.0, 0.003983493093419261
275.0, 0.0042902611183802146
276.0, 0.0063854314402610355
277.0, 0.009366927159884457
278.0, 0.009468473866752068
279.0, 0.010872253573202996
280.0, 0.012878808163694995
281.0, 0.015165239172755949
282.0, 0.01665577961536729
283.0, 0.020404148666906447
284.0, 0.023885008468044963
285.0, 0.025890595527620505
286.0, 0.0298616713411407
287.0, 0.03323863291747126
288.0, 0.03781812119313997
289.0, 0.045619729356346186
290.0, 0.049893503145295504
291.0, 0.05622722382855036
292.0, 0.06426280013110029
293.0, 0.07296501171118595
294.0, 0.07969515458727729
295.0, 0.08503240080935631
296.0, 0.08847794299718113
297.0, 0.08759296687798163
298.0, 0.08270560461758464
299.0, 0.07651703609268347
300.0, 0.06973877731728585
301.0, 0.06138315567431873
302.0, 0.05597904236926439
303.0, 0.05058427841385193
304.0, 0.043547925781800764
305.0, 0.03996945972771514
306.0, 0.035389263066775964
307.0, 0.030186470547273053
308.0, 0.02471607720829467
309.0, 0.022377621078166522
310.0, 0.018237142659144674
311.0, 0.013712477688118703
312.0, 0.012096795480050401
313.0, 0.010936409972560025
314.0, 0.009787426519337197
315.0, 0.009001701417692748
316.0, 0.010109387856845295
317.0, 0.00987537556041564
318.0, 0.010121080009493338
319.0, 0.01115660847243426
320.0, 0.011466210573773991
321.0, 0.0128345707631452
322.0, 0.01473175800178567
323.0, 0.016774932994278135
324.0, 0.016243621388145654
325.0, 0.016804714103229715
326.0, 0.01601935079474179
327.0, 0.011740972971497945
328.0, 0.013528168775459697
329.0, 0.012384360108725699
330.0, 0.010431625900254942
331.0, 0.010738444582850807
332.0, 0.009355295336064873
333.0, 0.007932790174900428
334.0, 0.007301735303140033
335.0, 0.009167328122886403
336.0, 0.007417109137304577
337.0, 0.00649338604570611
338.0, 0.006866248043901714
339.0, 0.007541726874831661
340.0, 0.006964203469738617
341.0, 0.006886012646145625
342.0, 0.0076321745508748364
343.0, 0.007940244715096027
344.0, 0.00951883980639631
345.0, 0.010796884628747614
346.0, 0.011188213303924895
347.0, 0.012788790074810152
348.0, 0.01628546044007604
349.0, 0.019545998129437366
350.0, 0.02110479860668112
351.0, 0.024234920826346054
352.0, 0.02585942966219949
353.0, 0.027304303545752123
354.0, 0.030002092135515003
355.0, 0.03036658843733517
356.0, 0.029516162676451133
357.0, 0.028403906295460978
358.0, 0.028491002510027515
359.0, 0.02714813425622437
360.0, 0.027751637602023867
361.0, 0.028860922118324923
362.0, 0.026311770299590583
363.0, 0.025576234752540453
364.0, 0.026124367402846235
365.0, 0.026915427543264897
366.0, 0.024623892546476536
367.0, 0.02488377018245758
368.0, 0.02453699508985565
369.0, 0.023139065094604082
370.0, 0.022616122520032835
371.0, 0.021494359390982813
372.0, 0.019771954393701066
373.0, 0.01764996817963159
374.0, 0.016949462428109623
375.0, 0.013825904174908317
376.0, 0.01125497640460763
377.0, 0.010524398931285471
378.0, 0.007415361959560661
379.0, 0.0052865123333060565
380.0, 0.004476347947217904
381.0, 0.005184594879278798
382.0, 0.002834487939721989
383.0, 0.002195649569886544
384.0, 0.0017628211025331215
385.0, 0.00011473772702609206
386.0, 0.0007107513619088125
387.0, 0.0010918506414298223
388.0, 0.0009938840971187531
389.0, 9.046226672899515e-05
390.0, 0.0004723284010411574
391.0, 0.0006100397009779296
392.0, 0.000797115247243809
393.0, 0.001644244594073523
394.0, 0.0014893711273018593
395.0, 0.001890818908704574
396.0, 0.0027469108627809894
397.0, 0.00358651855245374
398.0, 0.005231308844164078
399.0, 0.006230106231674637
400.0, 0.00668671075934004
401.0, 0.007355227068694108
402.0, 0.010228657067214457
403.0, 0.012547161217656453
404.0, 0.014246934803252152
405.0, 0.01676047629840016
406.0, 0.020463194467771718
407.0, 0.02426771047883156
408.0, 0.028324467534716038
409.0, 0.03435469689800174
410.0, 0.042497531774712584
411.0, 0.04976384559851643
412.0, 0.0558374308477244
413.0, 0.06371329155596374
414.0, 0.06659455912820769
415.0, 0.06917703397409847
416.0, 0.07244041929699066
417.0, 0.07197212006182101
418.0, 0.07211063982983686
419.0, 0.07249899163482394
420.0, 0.07278205520110911
421.0, 0.0711641118007906
422.0, 0.07114158427772914
423.0, 0.07159932996604072
424.0, 0.07189032149674963
425.0, 0.07075444126598811
426.0, 0.0687033194775003
427.0, 0.06613941087104665
428.0, 0.06339755327008081
429.0, 0.06223961078380697
430.0, 0.058768552478701906
431.0, 0.055565788605661075
432.0, 0.05418981956354366
433.0, 0.053047841933849045
434.0, 0.05386796947262674
435.0, 0.05575232167195444
436.0, 0.05808284420891662
437.0, 0.06028922041296339
438.0, 0.06505551361305037
439.0, 0.07105976389816163
440.0, 0.07733669885843258
441.0, 0.08457165947123757
442.0, 0.0923591582315678
443.0, 0.09829040347929156
444.0, 0.10045245499672036
445.0, 0.10618215315419492
446.0, 0.1062858848710069
447.0, 0.10451156769258052
448.0, 0.10408416053501793
449.0, 0.10096313486801307
450.0, 0.09469725810126715
451.0, 0.08776604096682053
452.0, 0.08242242045935243
453.0, 0.07437154976982344
454.0, 0.06814936041956277
455.0, 0.06254665267724722
456.0, 0.0564029888010374
457.0, 0.04874305859861843
458.0, 0.04222929456838895
459.0, 0.037207823216092235
460.0, 0.03401547182959976
461.0, 0.0311907465930323
462.0, 0.0275207694110856
463.0, 0.024192873025875875
464.0, 0.022371874260549054
465.0, 0.019391101809399812
466.0, 0.016997357707344514
467.0, 0.015326350768550785
468.0, 0.014505508824211142
469.0, 0.012965216127402463
470.0, 0.012276680355084847
471.0, 0.011825276705239758
472.0, 0.011027519408608067
473.0, 0.010273515332333534
474.0, 0.009599082712073765
475.0, 0.008998419528871194
476.0, 0.008488092055212395
477.0, 0.00955234582174488
478.0, 0.009517853842504012
479.0, 0.00941544594234742
480.0, 0.010124824877569
481.0, 0.01074211359506718
482.0, 0.010844488188907622
483.0, 0.011243975494842642
484.0, 0.012573890569759317
485.0, 0.01367357153053612
486.0, 0.014938249734999966
487.0, 0.016059196131020095
488.0, 0.01684647695198286
489.0, 0.018333316583004324
490.0, 0.01987641122670965
491.0, 0.02073258812943732
492.0, 0.020558071121787445
493.0, 0.02235551781206065
494.0, 0.024039867379639375
495.0, 0.026835107387139172
496.0, 0.03099258983619738
497.0, 0.029801507817565367
498.0, 0.03128848236171599
499.0, 0.03284396318231924
500.0, 0.033299020173879194
501.0, 0.03533197773238535
502.0, 0.03734134100505094
503.0, 0.040317811760647616
504.0, 0.04432839721853949
505.0, 0.04602189232684251
506.0, 0.05121879666540659
507.0, 0.0561075456112216
508.0, 0.05954507581279262
509.0, 0.06429031070704352
510.0, 0.0702600690052908
511.0, 0.07633956235301034
512.0, 0.08265984420749875
513.0, 0.09182108978815899
514.0, 0.10136484603700836
515.0, 0.1101697985906216
516.0, 0.11985320387506226
517.0, 0.13822702734237238
518.0, 0.15305321396906676
519.0, 0.17258245818807139
520.0, 0.1962696255446087
521.0, 0.2162184694608219
522.0, 0.24901201469052778
523.0, 0.29105959741087245
524.0, 0.33820741585326
525.0, 0.38157234845960375
526.0, 0.45461871151496275
527.0, 0.5308083788643613
528.0, 0.6139818326797487
529.0, 0.7194302036894155
530.0, 0.8128959359014895
531.0, 0.8847661181793406
532.0, 0.9356143376466145
533.0, 0.9674313363312546
534.0, 0.9913244329870791
535.0, 0.9697626455068901
536.0, 0.915184612819388
537.0, 0.8456470342665809
538.0, 0.7446135064785415
539.0, 0.6507269579578598
540.0, 0.5606858926310265
541.0, 0.4711767985568137
542.0, 0.40748509031291025
543.0, 0.34768032568037444
544.0, 0.2949104677540799
545.0, 0.2519151332924212
546.0, 0.2243466088076569
547.0, 0.19441909469293836
548.0, 0.16937656225025613
549.0, 0.1523309967971596
550.0, 0.13443709347596441
551.0, 0.12048650099308299
552.0, 0.10994772342138204
553.0, 0.10185498575548606
554.0, 0.0919147146312939
555.0, 0.0861077701968661
556.0, 0.08093322180229834
557.0, 0.07554239251148372
558.0, 0.07063889797959542
559.0, 0.06658290310286007
560.0, 0.06270762824930878
561.0, 0.05893753607758949
562.0, 0.05543142584834999
563.0, 0.050796659221397714
564.0, 0.04705780026782839
565.0, 0.044476157244623636
566.0, 0.04306808528256025
567.0, 0.03832384852002982
568.0, 0.03588428369056823
569.0, 0.03417031552667147
570.0, 0.030727347229838442
571.0, 0.029409208803455947
572.0, 0.027455203683576027
573.0, 0.024861117643051298
574.0, 0.021834407199579194
575.0, 0.022395278518868626
576.0, 0.020640041340468318
577.0, 0.018931373201495436
578.0, 0.018583289992592684
579.0, 0.018176507460390713
580.0, 0.016349965008743146
581.0, 0.015426730055247629
582.0, 0.015588722408348831
583.0, 0.012884635288555909
584.0, 0.013402474657979786
585.0, 0.01361111197629911
586.0, 0.01283128776819737
587.0, 0.01185622868256945
588.0, 0.01158403296367651
589.0, 0.009990259468170984
590.0, 0.008025030751638467
591.0, 0.00818123501791594
592.0, 0.007486996338979443
593.0, 0.0060042051498880675
594.0, 0.005092023674533324
595.0, 0.006445583589001226
596.0, 0.004601374090399076
597.0, 0.003950772787470575
598.0, 0.003635726910074282
599.0, 0.0029532644360435343
600.0, 0.002700110091780311
601.0, 0.0034177447901155497
602.0, 0.003602536353499356
603.0, 0.002850090351536392
604.0, 0.003783800950275097
605.0, 0.0038968596113128457
606.0, 0.0033844317137555397
607.0, 0.0027464795041415415
608.0, 0.003547514852468259
609.0, 0.0029998137671486697
610.0, 0.0030488698627316327
611.0, 0.0031098760269333524
612.0, 0.0012239100891546979
613.0, 0.0018654474730666881
614.0, 0.001832134048574979
615.0, 0.0013888794931628924
616.0, 0.0011903859804198668
617.0, 0.0013693387960811315
618.0, 0.001134953882428569
619.0, 0.0007729359626300024
620.0, 0.0004998194402414491
621.0, 0.00012319609928050036
622.0, 0.0003368572450601687
623.0, 0.00046852656950992845
624.0, 0.0003684633634075207
625.0, 0.0008809672200388068
626.0, 0.000876575187639305
627.0, 0.0007552013088976609
628.0, 0.0006752613821102673
629.0, 0.000787302798022978
630.0, 0.00048133621647290944
631.0, 0.0004385242699922063
632.0, 0.0005632747637459531
633.0, 0.0005806881080610885
634.0, 0.0004213979387931959
635.0, 0.0006609604602882175
636.0, 0.0006894216491809054
637.0, 0.00011884993611558032
638.0, 0.0017833739086940913
639.0, 0.0021852269906278074
640.0, 0.0014660161224658355
641.0, 0.0002673583968255879
642.0, 0.001723809207872204
643.0, 0.0011246698017059638
644.0, 0.00129911772888821
645.0, 0.0020357200119412943
646.0, 0.000665576755347051
647.0, 0.000955067219652365
648.0, 0.0015095130258677672
649.0, 0.0018689802558027502
650.0, 0.0016113929669174265
651.0, 0.0013934507156525332
652.0, 0.0009698767563162325
653.0, 0.0005740301422468285
654.0, 0.0004104648744355238
655.0, 0.0005871397287402703
656.0, 0.0015569647095089205
657.0, 0.0018633444488819913
658.0, 0.0014833989353247369
659.0, 0.003119653625312609
660.0, 0.004082239145221685
661.0, 0.004409606933700323
662.0, 0.004926855027246437
663.0, 0.007372508167860344
664.0, 0.008399468204694437
665.0, 0.009044347233829145
666.0, 0.010118928663838045
667.0, 0.012330609808597168
668.0, 0.012488520740696844
669.0, 0.012791682250072633
670.0, 0.012532874208337885
671.0, 0.011676506333257921
672.0, 0.012607863580914848
673.0, 0.012859225496812753
674.0, 0.011874318109687917
675.0, 0.010702298477730963
676.0, 0.012610669396483394
677.0, 0.011938219871445103
678.0, 0.012080083969239845
679.0, 0.012497140170826496
680.0, 0.011999294224906065
681.0, 0.013072875840273213
682.0, 0.014478144725373298
683.0, 0.015417868593549407
684.0, 0.015659801161697528
685.0, 0.01764892450617542
686.0, 0.018490799911802146
687.0, 0.01827574524503466
688.0, 0.018059370961794077
689.0, 0.020901004530913703
690.0, 0.019886685021694772
691.0, 0.01878546269826731
692.0, 0.018264854786598554
693.0, 0.01857023071602676
694.0, 0.01731544852722747
695.0, 0.017426875943652543
696.0, 0.017611698051633318
697.0, 0.01718343849536194
698.0, 0.017938379921861133
699.0, 0.018246638080439807
700.0, 0.018446501757100546
701.0, 0.019037667187894736
702.0, 0.021119499086635598
703.0, 0.022980727541180183
704.0, 0.025610152370059293
705.0, 0.028848288886555374
706.0, 0.03232246449610793
707.0, 0.03582193569808345
708.0, 0.04095902385463152
709.0, 0.046969564147428484
710.0, 0.05354554156091533
711.0, 0.0618573051051422
712.0, 0.06772475377434888
713.0, 0.07179829388725249
714.0, 0.07460512674001396
715.0, 0.07698402372409067
716.0, 0.0742833161976737
717.0, 0.06931540340064121
718.0, 0.06417187402467946
719.0, 0.06048624928215462
720.0, 0.052127696675760275
721.0, 0.046423462730921114
722.0, 0.041328531035233894
723.0, 0.03623991069214205
724.0, 0.03272575078977572
725.0, 0.029116690586294368
726.0, 0.026139407572384803
727.0, 0.02400338584357146
728.0, 0.022802245232888527
729.0, 0.019946113966112008
730.0, 0.018319176035191367
731.0, 0.017450456594670774
732.0, 0.016819244855192924
733.0, 0.01566524366154931
734.0, 0.015258296375441543
735.0, 0.01420379956050704
736.0, 0.012992347272086747
737.0, 0.013950089912487982
738.0, 0.012733223819381089
739.0, 0.012710756278894909
740.0, 0.013714028269456455
741.0, 0.01514762898143044
742.0, 0.01576703054613062
743.0, 0.017070089785756862
744.0, 0.01822414488767992
745.0, 0.018964061521982954
746.0, 0.01974422357777055
747.0, 0.022252576360791757
748.0, 0.024830472272502343
749.0, 0.026980672964281985
750.0, 0.0284053656386311
751.0, 0.03229352573798399
752.0, 0.03422835956620235
753.0, 0.03556977750639978
754.0, 0.037259568923818924
755.0, 0.039614980743867025
756.0, 0.0388475110370276
757.0, 0.03806333843178498
758.0, 0.03743541908458714
759.0, 0.03597572947734252
760.0, 0.03368047645474212
761.0, 0.031408693782534504
762.0, 0.0291946891759826
763.0, 0.027069288025952522
764.0, 0.025227242557706753
765.0, 0.023296681545951357
766.0, 0.021548998726076376
767.0, 0.019916980454382005
768.0, 0.018068487213363012
769.0, 0.016199622306096596
770.0, 0.014626840130755743
771.0, 0.01303045754544976
772.0, 0.011204108252195658
773.0, 0.01012276739347976
774.0, 0.009023201568964474
775.0, 0.007823861725508734
776.0, 0.006852565663807586
777.0, 0.00701635290678191
778.0, 0.005277283937469077
779.0, 0.0044090319967241675
780.0, 0.004231301937750038
781.0, 0.004229083424728226
782.0, 0.0033029537635846343
783.0, 0.003353078671037661
784.0, 0.0029702415220907016
785.0, 0.002163530237429158
786.0, 0.0023887005969712312
787.0, 0.002184569846150453
788.0, 0.001641349488981404
789.0, 0.0012981832725237113
790.0, 0.001575900318242003
791.0, 0.0011462271912220246
792.0, 0.0005343814088807598
793.0, 0.00016945426487631043
794.0, 0.00015294171396764724
795.0, 0.000320495346133807
796.0, 0.00048795958133636717
797.0, 0.0005488974073823542
798.0, 0.00044314370885712784
799.0, 0.00016712076502800146
800.0, 0.00015669151978751786
801.0, 0.00036735991572898005
802.0, 0.0005468012967119167
803.0, 0.000640618021300307
804.0, 0.0007373832793141855
805.0, 0.0008402832598495053
806.0, 0.0008677683599388158
807.0, 0.0008397065722440455
808.0, 0.0007702897757621208
809.0, 0.0005583657029348278
810.0, 0.0003465884794222389
811.0, 0.0008023931652289071
812.0, 0.0013395997607979087
813.0, 0.00026518765962676354
814.0, 0.0007845686650643242
815.0, 0.0006109360397472373
816.0, 0.0004523491349762986
817.0, 0.0007783061158876715
818.0, 0.000522736617032776
819.0, 0.0009698746127654009
820.0, 0.0007097446323267414
821.0, 0.00018140809806122625
822.0, 0.0007528147741422259
823.0, 0.0002577755185918881
824.0, 5.3881005883865635e-05
825.0, 0.000148507445209798
826.0, 0.0004679841071346748
827.0, 0.0007398326577012529
828.0, 0.0007354218564047668
829.0, 0.0009451643960999932
830.0, 0.0009275543153215859
831.0, 6.260508596488861e-05
832.0, 0.0008791741782046966
833.0, 0.000616549809187372
834.0, 0.00041796145871485154
835.0, 0.0006114782015587974
836.0, 0.000471339309043884
837.0, 0.00022233784214974414
838.0, 0.0009532314385924878
839.0, 0.0015012127972974106
840.0, 0.0007512403758405335
841.0, 0.0006093289822957439
842.0, 0.0009232694217067667
843.0, 0.0014217623482878135
844.0, 0.0018066105580551446
845.0, 0.001640849850057497
846.0, 0.0018053410398600831
847.0, 0.001084262374834909
848.0, 0.000666228130738188
849.0, 0.0012360498459843923
850.0, 0.0017070950109683803
851.0, 0.0020995174878704606
852.0, 0.0015230196041565627
853.0, 0.0006646836187109936
854.0, 0.0007382725414824165
855.0, 0.001276761253537593
856.0, 0.0012824353134084246
857.0, 0.0015487487270079878
858.0, 0.001978899908863577
859.0, 0.001170311300099455
860.0, 0.0010162637793651214
861.0, 0.0005129616314364716
862.0, 8.609968895695615e-05
863.0, 0.00015423621640719292
864.0, 0.0003191540047612696
865.0, 0.001380142721162379
866.0, 0.001670043528188209
867.0, 0.0012600121792231886
868.0, 0.0010658461749326951
869.0, 0.0014869074291603333
870.0, 0.001308630405325115
871.0, 0.001103952755420807
872.0, 0.001102725355123907
873.0, 0.0009515025092738767
874.0, 0.0014428247707745393
875.0, 0.0011879159650527965
876.0, 0.0011410038304161647
877.0, 0.0021170146088024915
878.0, 0.0012783011110789322
879.0, 0.0007561467320829393
880.0, 0.0014342502537219996
881.0, 0.0022439571592607756
882.0, 0.0008314461500580318
883.0, 0.0012686412278971946
884.0, 0.002390556618835295
885.0, 0.002428997222888279
886.0, 0.0011218186740191247
887.0, 0.001012514366108243
888.0, 0.0011946807867781895
889.0, 0.0017859842942396214
890.0, 0.002204310966700995
891.0, 0.0019632201592874373
892.0, 0.0017839492360046893
893.0, 0.0017368706878868089
894.0, 0.0024179294842746855
895.0, 0.0029136706557717413
896.0, 0.0015841555000465847
897.0, 0.0030540646782286707
898.0, 0.0020988290953475874
899.0, 0.0011517375419072904
900.0, 0.0013238560268283488
901.0, 0.002243462470927702
902.0, 0.002454112694879795
903.0, 0.0021883989733307873
904.0, 0.001826384049110703
905.0, 0.0017262609567142676
906.0, 0.0021863234869917906
907.0, 0.0020342302689930055
908.0, 0.0019043327059609144
909.0, 0.001917968106113596
910.0, 0.0020457732016365754
911.0, 0.0019996498609844695
912.0, 0.001808983914320429
913.0, 0.002173806142867134
914.0, 0.00256173044806897
915.0, 0.001366908637438043
916.0, 0.0029941461116943895
917.0, 0.002597128472145819
918.0, 0.0018007065343762334
919.0, 0.0017908036264194648
920.0, 0.0029835585506471233
921.0, 0.0025782769153151718
922.0, 0.003096948673774209
923.0, 0.00358317962415209
924.0, 0.0031678240003314203
925.0, 0.0034637188585580113
926.0, 0.004893053365857868
927.0, 0.004575060487277446
928.0, 0.0038354005808987884
929.0, 0.005141928144270025
930.0, 0.00601174589389213
931.0, 0.006501572946641186
932.0, 0.00783743816727986
933.0, 0.009545343342405721
934.0, 0.009816802383278828
935.0, 0.011960720974507986
936.0, 0.014437346760259519
937.0, 0.01593318421348381
938.0, 0.016181480849417725
939.0, 0.01654101795819035
940.0, 0.016554912912439244
941.0, 0.016635354037636902
942.0, 0.0165074544119725
943.0, 0.01595128053361988
944.0, 0.015038346001617369
945.0, 0.013032866183341735
946.0, 0.011062600175346137
947.0, 0.009777960807171445
948.0, 0.009498526820458975
949.0, 0.008835077326186094
950.0, 0.007653915792055694
951.0, 0.007762695625032437
952.0, 0.008301233258105703
953.0, 0.007409025293183416
954.0, 0.007141303772451687
955.0, 0.007175554867851698
956.0, 0.006909692385572286
957.0, 0.006593870385210076
958.0, 0.007165936583575759
959.0, 0.008314816714209097
960.0, 0.00855209640661123
961.0, 0.009264986557342519
962.0, 0.010421757854071836
963.0, 0.009917471573317196
964.0, 0.012031676075227836
965.0, 0.013413459208108467
966.0, 0.014902559884333894
967.0, 0.01694826787563424
968.0, 0.018543030108377552
969.0, 0.019862621189322187
970.0, 0.0216472497312297
971.0, 0.02369848241761843
972.0, 0.0257274233580746
973.0, 0.027570145979427797
974.0, 0.030436638572553867
975.0, 0.03232784336157256
976.0, 0.03369107010622264
977.0, 0.03533066938905538
978.0, 0.036596659371124
979.0, 0.03561626435725006
980.0, 0.03438030805590262
981.0, 0.03251835085998542
982.0, 0.02917085020311694
983.0, 0.02728823345560035
984.0, 0.025512747131663106
985.0, 0.024100703038221618
986.0, 0.02269820920931966
987.0, 0.02071992494135747
988.0, 0.020842391140900682
989.0, 0.020570480291543923
990.0, 0.02132103529777005
991.0, 0.023041419718250564
992.0, 0.024549065783277934
993.0, 0.025251952867626416
994.0, 0.026443578438069545
995.0, 0.028406497933887217
996.0, 0.030747126758498843
997.0, 0.03231132054143828
998.0, 0.03291979195055651
999.0, 0.03187123300859899
1000.0, 0.03100957698287641
1001.0, 0.030388723562216106
1002.0, 0.027408293637744108
1003.0, 0.026772471216089704
1004.0, 0.02697987724873379
1005.0, 0.02581977540859548
1006.0, 0.02335582140833417
1007.0, 0.02385377366215274
1008.0, 0.022228040122143283
1009.0, 0.020892046477943974
1010.0, 0.020197754094204823
1011.0, 0.020222731433959404
1012.0, 0.020836132688959494
1013.0, 0.02066408987559442
1014.0, 0.020746357911795243
1015.0, 0.021042033096901152
1016.0, 0.021359982948332315
1017.0, 0.02137327233781214
1018.0, 0.022277542804335405
1019.0, 0.02274123004783309
1020.0, 0.023062392359655362
1021.0, 0.02357366818193774
1022.0, 0.02414190574819228
1023.0, 0.024879170326225945
1024.0, 0.02618040074896668
1025.0, 0.027717382555167362
1026.0, 0.029440875897995884
1027.0, 0.03268265886796472
1028.0, 0.034595874684121765
1029.0, 0.038100981202960155
1030.0, 0.04191117649322256
1031.0, 0.04476431005045384
1032.0, 0.047781984703959286
1033.0, 0.05065139072487554
1034.0, 0.05206443184768114
1035.0, 0.05359886056443768
1036.0, 0.056405455589805586
1037.0, 0.05835045621176633
1038.0, 0.05978162437746073
1039.0, 0.06240515456837813
1040.0, 0.06596544557572799
1041.0, 0.07042095782652077
1042.0, 0.07798933355240484
1043.0, 0.08501390491819277
1044.0, 0.09439303854211
1045.0, 0.10274499889275535
1046.0, 0.10604941888135715
1047.0, 0.10100593303438136
1048.0, 0.09659365150983125
1049.0, 0.08786563385183506
1050.0, 0.07725379986166735
1051.0, 0.0674688439665839
1052.0, 0.05831831749770443
1053.0, 0.05100309710336278
1054.0, 0.044708437910765286
1055.0, 0.039238450964826505
1056.0, 0.03446473608136658
1057.0, 0.030372850274326228
1058.0, 0.028077605984809455
1059.0, 0.0260561470458467
1060.0, 0.024423276675684048
1061.0, 0.02334766136932594
1062.0, 0.022735088935795636
1063.0, 0.0212305745129669
1064.0, 0.020504353751345475
1065.0, 0.020129261904857077
1066.0, 0.019491067376890228
1067.0, 0.017966234062010936
1068.0, 0.01904671146359031
1069.0, 0.01929809908028997
1070.0, 0.018448291687800492
1071.0, 0.01718765800259591
1072.0, 0.017462191794433105
1073.0, 0.017781852104608895
1074.0, 0.017935094360609707
1075.0, 0.018089282274573494
1076.0, 0.01830950924983091
1077.0, 0.01850308467299599
1078.0, 0.01883397052457714
1079.0, 0.0188466190825134
1080.0, 0.018740174573578496
1081.0, 0.018656573041036146
1082.0, 0.018657023474000518
1083.0, 0.018140188471353295
1084.0, 0.01814046052545884
1085.0, 0.018164312637408107
1086.0, 0.01798758317063558
1087.0, 0.017637402142936114
1088.0, 0.018007081537702373
1089.0, 0.018507958263533828
1090.0, 0.019069689705750827
1091.0, 0.019875529817381835
1092.0, 0.02114320896146407
1093.0, 0.02191301496972607
1094.0, 0.023204561517948655
1095.0, 0.023731389438427064
1096.0, 0.02359965993382802
1097.0, 0.02338774118100192
1098.0, 0.022961160094724223
1099.0, 0.02311816253058406
1100.0, 0.02264956052127036
1101.0, 0.021933949790676078
1102.0, 0.021325574763392748
1103.0, 0.019234471228938402
1104.0, 0.01989191110250034
1105.0, 0.019372726977150423
1106.0, 0.017949014302033675
1107.0, 0.01663025723706884
1108.0, 0.016534119854723896
1109.0, 0.016569734000836316
1110.0, 0.0158172021102972
1111.0, 0.014873230834227806
1112.0, 0.01415335006164863
1113.0, 0.013541380527927225
1114.0, 0.012972180841455634
1115.0, 0.012738262148227382
1116.0, 0.012376782063978516
1117.0, 0.011844491349621435
1118.0, 0.011543001510694683
1119.0, 0.01133215091576203
1120.0, 0.010742426320658405
1121.0, 0.010125702966188527
1122.0, 0.009535880474609465
1123.0, 0.008870398239170563
1124.0, 0.008413930898696794
1125.0, 0.008409230494646485
1126.0, 0.007962451508302921
1127.0, 0.007328603326918605
1128.0, 0.0070582839278858405
1129.0, 0.007038233208126881
1130.0, 0.00590004008740972
1131.0, 0.005201738952958669
1132.0, 0.004744364735086921
1133.0, 0.004313826175698427
1134.0, 0.004624588798253592
1135.0, 0.004832216394103638
1136.0, 0.004089683153929892
1137.0, 0.004139936809733038
1138.0, 0.0051379079925426355
1139.0, 0.004601659006620767
1140.0, 0.0038802747803016605
1141.0, 0.0038859474955262145
1142.0, 0.0035992318609089106
1143.0, 0.00311550499802427
1144.0, 0.0033301633691047317
1145.0, 0.0029910674581834643
1146.0, 0.0022203017760298606
1147.0, 0.0026395267697949926
1148.0, 0.0029364796455741927
1149.0, 0.0016225381227388358
1150.0, 0.0031836909682322026
1151.0, 0.0033365713004387806
1152.0, 0.0023989825483386076
1153.0, 0.0015215646678714565
1154.0, 0.0014444530844727865
1155.0, 0.0013990641508000163
1156.0, 0.0012020382271616227
1157.0, 0.0010984496310912253
1158.0, 0.0011213871771028376
1159.0, 0.0011323321324691186
1160.0, 0.0008290925027840058
1161.0, 0.0011676606888010126
1162.0, 0.0012280277040651276
1163.0, 0.000993708461135281
1164.0, 0.000724597650934067
1165.0, 0.0007670621926570461
1166.0, 0.0008188338110882283
1167.0, 0.0009988861376385501
1168.0, 0.0005809488245218116
1169.0, 8.810928437921024e-05
1170.0, 0.00014819451241220388
1171.0, 0.0006131696276864784
1172.0, 0.0007864714720123866
1173.0, 0.0012333812311700447
1174.0, 0.001317848401282036
1175.0, 0.000813883880108177
1176.0, 0.00023388243818558564
1177.0, 0.0004964985750924617
1178.0, 0.00024255544497802007
1179.0, 6.123919094103848e-05
1180.0, 0.0004616290406201759
1181.0, 0.0015690273449143098
1182.0, 0.001020272980035872
1183.0, 0.00094502061851336
1184.0, 0.0004972304112689189
1185.0, 0.0001796712085066834
1186.0, 0.0003645707166685401
1187.0, 2.604636690962478e-05
1188.0, 6.157953921549928e-06
1189.0, 0.00024831555453188426
1190.0, 0.0004421388301783629
1191.0, 0.0005392910040331176
1192.0, 0.0007951783833867799
1193.0, 0.0003016392771102006
1194.0, 0.00036043550424031426
1195.0, 0.0002525325213916354
1196.0, 7.964823659066913e-05
1197.0, 0.0002476573024274954
1198.0, 0.0005867743068602956
1199.0, 0.0005433476911370763
1200.0, 0.0005652767980221751
1201.0, 0.0006463527381531973
1202.0, 0.0006632587069294416
1203.0, 0.00043143677408817376
1204.0, 0.00026947352295022447
1205.0, 0.00010508061936832687
1206.0, 6.753249333308016e-05
1207.0, 0.00017941257190554852
1208.0, 0.00033801913819793807
1209.0, 8.067235237514798e-05
1210.0, 0.0002465635022898113
1211.0, 0.0005033218735562303
1212.0, 0.0006176445557672694
1213.0, 0.0005243883195711323
1214.0, 0.0005305907869748095
1215.0, 0.00042603524737345083
1216.0, 0.00048422298392754613
1217.0, 0.0006543899926273071
1218.0, 0.0007613057646844474
1219.0, 0.0005914587656099927
1220.0, 0.0006889955477123182
1221.0, 0.0009313733809719759
1222.0, 0.0007070140471321091
1223.0, 0.0007285871743122657
1224.0, 0.0014492584227702788
1225.0, 0.0009155293500664778
1226.0, 0.0006151354340213007
1227.0, 0.0007708691536379522
1228.0, 0.0007350705212711892
1229.0, 0.000842625518326005
1230.0, 0.0023154263033771994
1231.0, 0.0008899067025201369
1232.0, 0.0011985413526961798
1233.0, 0.0007868489417645929
1234.0, 0.00025615967125542386
1235.0, 0.0007029686231356073
1236.0, 0.000728959062222742
1237.0, 0.0006455669850519263
1238.0, 0.0005696859828188484
1239.0, 0.0004419167293784956
1240.0, 0.0002913618648372288
1241.0, 0.0002731650416452961
1242.0, 0.0007987865338712729
1243.0, 0.0013446963974425234
1244.0, 0.0016940267218839686
1245.0, 0.0016828404479643673
1246.0, 0.0013951713105360413
1247.0, 0.0015871955409570095
1248.0, 0.00045737790834243086
1249.0, 0.0005214428731429439
1250.0, 0.0006673931030370224
1251.0, 0.0007246828807315401
1252.0, 0.0015021634704720788
1253.0, 0.0007156361796736686
1254.0, 0.000893728572189744
1255.0, 0.001089112900266493
1256.0, 0.001146814493961011
1257.0, 0.0009757864469653911
1258.0, 4.804911820814584e-05
1259.0, 0.0010316915048339075
1260.0, 0.0007393351490822651
1261.0, 0.0009910443780695567
1262.0, 0.0014203040917678685
1263.0, 0.0003813688060696642
1264.0, 0.00040591494721833464
1265.0, 0.0014027374438927947
1266.0, 0.0014616815481930368
1267.0, 0.0008854461857242302
1268.0, 0.0005018824045360705
1269.0, 0.0011130644628741604
1270.0, 0.00022764870397275623
1271.0, 0.0004907786235386309
1272.0, 0.00040209230495618503
1273.0, 0.0003395072350955732
1274.0, 0.0010781849185653443
1275.0, 0.0008650775567916285
1276.0, 0.0006465611586953564
1277.0, 0.0004970666603539304
1278.0, 0.0004920526874923632
1279.0, 0.0006206611943340304
1280.0, 0.0007396116647394085
1281.0, 0.00012492213879255494
1282.0, 0.0009938216156492787
1283.0, 0.0013997864635434795
1284.0, 0.0011823113248844784
1285.0, 0.0006974568776097115
1286.0, 0.00018821457846824094
1287.0, 0.000672706757344789
1288.0, 0.0010952128020570624
1289.0, 0.000753197324279433
1290.0, 0.0003597268767127023
1291.0, 0.001025109386234964
1292.0, 0.0015746012253160262
1293.0, 0.0005934085505326892
1294.0, 0.00015373911199108957
1295.0, 0.0007415078732133992
1296.0, 0.001531531897136579
1297.0, 0.0007747392268186246
1298.0, 0.00035943705963359667
1299.0, 0.00016461292663958436
1300.0, 0.00015308197709040553
1301.0, 0.00022482436298262132
1302.0, 0.000251043150550223
1303.0, 0.0001020043873401389
1304.0, 0.0004924428823949953
1305.0, 0.0008361804317556455
1306.0, 0.0006997790027470544
1307.0, 0.0006086316541309494
1308.0, 0.0010614193399058791
1309.0, 0.0004181147154005315
1310.0, 9.497235178372135e-05
1311.0, 0.0013906933279678572
1312.0, 0.001395013900853205
1313.0, 0.0002785099042777366
1314.0, 0.000797290868721116
1315.0, 0.0005927672774351747
1316.0, 0.00045340873084749074
1317.0, 0.0003978883869700347
1318.0, 0.00039237996811406184
1319.0, 0.0003252336676496278
1320.0, 4.6910048434635666e-05
1321.0, 0.000464788057394801
1322.0, 0.0002558689014584912
1323.0, 8.963930073230821e-05
1324.0, 0.0005588693129827297
1325.0, 0.0014424820168226532
1326.0, 0.0008721048055925938
1327.0, 0.0005389807485171849
1328.0, 0.00127657137841941
1329.0, 0.0009477566075688343
1330.0, 0.0002587351231213527
1331.0, 0.0007179835396470727
1332.0, 0.0008848909522868833
1333.0, 0.0004218787530295867
1334.0, 0.0010020122646851818
1335.0, 0.0008489895359607613
1336.0, 8.059001275092073e-05
1337.0, 0.00012702063779339168
1338.0, 2.4167499308449222e-05
1339.0, 0.00016613143024197163
1340.0, 0.0001272044529711369
1341.0, 0.00010985446863455271
1342.0, 0.0002605419864818606
1343.0, 0.0005546302024093764
1344.0, 0.0009913464034524472
1345.0, 0.0010715464440710794
1346.0, 0.0005701202537609688
1347.0, 0.00047138009783134695
1348.0, 0.0009859977587760157
1349.0, 0.0009107509614618438
1350.0, 0.00021753755165586033
1351.0, 0.0015178497005738996
1352.0, 0.0015101673443535797
1353.0, 0.0010974542439747862
1354.0, 0.001384074929759364
1355.0, 0.0014062848891399074
1356.0, 0.0012613328679732558
1357.0, 0.0011750351989982674
1358.0, 0.0008822355950900947
1359.0, 0.0005244706723443507
1360.0, 0.0005164194786704004
1361.0, 0.0014577620627968298
1362.0, 0.0012243046359906298
1363.0, 0.0008480344765882028
1364.0, 0.001199494279347156
1365.0, 0.0014199239257573968
1366.0, 0.0010035688352353525
1367.0, 0.0026944119899428433
1368.0, 0.0021000131174403257
1369.0, 0.0009258269740023582
1370.0, 0.0011042593045243964
1371.0, 0.001900970470408708
1372.0, 0.0017950688217615183
1373.0, 0.0017687404901141983
1374.0, 0.0016491388079005677
1375.0, 0.0012555389701109194
1376.0, 0.001559700901816202
1377.0, 0.0018809827347016563
1378.0, 0.0010596473498790029
1379.0, 0.00017272458221271263
1380.0, 0.0012282033409733999
1381.0, 0.0012423188553343269
1382.0, 0.001305033875420466
1383.0, 0.0017161514670544695
1384.0, 0.0019250681340725634
1385.0, 0.001113638949782623
1386.0, 0.0016044592190978693
1387.0, 0.0018344097295677412
1388.0, 0.0017095351050936034
1389.0, 0.0018039588104112507
1390.0, 0.002576866443327494
1391.0, 0.0025188623821407667
1392.0, 0.0012714820139036965
1393.0, 0.0022996502124646443
1394.0, 0.0023859886874469218
1395.0, 0.0017818366035685018
1396.0, 0.002654069921545047
1397.0, 0.0028754120605110475
1398.0, 0.002144045164986139
1399.0, 0.0020882982170742936
1400.0, 0.0026978187332531785
1401.0, 0.00265278208659549
1402.0, 0.0011122918638230925
1403.0, 0.0019215005372413656
1404.0, 0.0010572149011246245
1405.0, 0.00047339341620555354
1406.0, 0.0018367259596950368
1407.0, 0.002927306774979139
1408.0, 0.0009874691623135456
1409.0, 9.095614932241717e-05
1410.0, 0.0022341714689808586
1411.0, 0.0018673410036227599
1412.0, 0.0016145702503679357
1413.0, 0.0016259441436168888
1414.0, 0.0010016157451316298
1415.0, 0.001274390341711034
1416.0, 0.0018095512629455854
1417.0, 0.0022408734678632677
1418.0, 0.0013487245102131364
1419.0, 0.001137537181294961
1420.0, 0.002686872260283377
1421.0, 0.0005447651912159502
1422.0, 0.0019143724340286812
1423.0, 0.0022940212735715524
1424.0, 0.0012280207904919148
1425.0, 0.0006484262498705673
1426.0, 0.0019169709967198532
1427.0, 0.003010502512405083
1428.0, 0.001621277186346237
1429.0, 0.0018939140268821619
1430.0, 0.0017425280039765959
1431.0, 0.000921768768213649
1432.0, 0.0008331465185157782
1433.0, 0.003779419448777778
1434.0, 0.0023384151683545702
1435.0, 0.0017038049583220556
1436.0, 0.00187545403437621
1437.0, 0.001548776055047824
1438.0, 0.0009556456443875223
1439.0, 0.0022569402224167996
1440.0, 0.0016440677676578341
1441.0, 0.0008491498907050499
1442.0, 0.0019159594962246105
1443.0, 0.0025056902814230403
1444.0, 0.0015125665399747757
1445.0, 0.000434181384337685
1446.0, 0.002445733415236527
1447.0, 0.0017507420986924492
1448.0, 0.001471185851805893
1449.0, 0.0017909200938778416
1450.0, 0.00185641647858787
1451.0, 0.0011169984585485673
1452.0, 0.002049167334886972
1453.0, 0.002300559245662144
1454.0, 0.0017743479512625996
1455.0, 0.0029748075059658208
1456.0, 0.00389575732695844
1457.0, 0.002038623020445154
1458.0, 0.00042154610207195263
1459.0, 0.0026152724833270998
1460.0, 0.001986564415638487
1461.0, 0.001603522197262589
1462.0, 0.0021852214296409133
1463.0, 0.003005506040293754
1464.0, 0.002809530754705313
1465.0, 0.0012767405807222938
1466.0, 0.0025839928485815377
1467.0, 0.002612322328572549
1468.0, 0.0024277764086593485
1469.0, 0.0025683201534893265
1470.0, 0.0017456313439777476
1471.0, 0.0009730950804136348
1472.0, 0.0017277400524436624
1473.0, 0.0020457930828019916
1474.0, 0.0017858093362598663
1475.0, 0.0020411537460743178
1476.0, 0.0031405117841873855
1477.0, 0.0003701002280415333
1478.0, 0.0011795188781808879
1479.0, 0.0018918208012391512
1480.0, 0.0013076226541418512
1481.0, 0.0011277558852897654
1482.0, 0.002142260362903655
1483.0, 0.0008839331392004314
1484.0, 0.001466181615905633
1485.0, 0.002566183876006256
1486.0, 0.002813009945892573
1487.0, 0.0019060048705180459
1488.0, 0.0010571122178520888
1489.0, 0.002091874399668898
1490.0, 0.001667356556312566
1491.0, 0.0015785109363750643
1492.0, 0.002357946401000956
1493.0, 0.0022710548788130278
1494.0, 0.0015333913414380125
1495.0, 0.001411684149859249
1496.0, 0.0009437695128021945
1497.0, 0.0004770327887762078
1498.0, 0.001276898932197797
1499.0, 0.0010128765839398368
1500.0, 0.0005703851523377123
1501.0, 0.001425684420570414
1502.0, 0.0031532945080148785
1503.0, 0.0015611529543224794
1504.0, 0.0003784857838115835
1505.0, 0.001281633750715438
1506.0, 0.0014715504830208682
1507.0, 0.0007155539742370456
1508.0, 0.0014507899738096194
1509.0, 0.0023815116264162446
1510.0, 0.001562132260910237
1511.0, 0.0020905317214079053
1512.0, 0.0026719380284350876
1513.0, 0.001917976512683427
1514.0, 0.0006408413289618631
1515.0, 0.0030702339787673093
1516.0, 0.001137541078569989
1517.0, 0.00024409746556817218
1518.0, 3.5250409277904347e-06
1519, 0.0
1520, 0.0
1521, 0.0
1522, 0.0
1523, 0.0
1524, 0.0
1525, 0.0
1526, 0.0
1527, 0.0
1528, 0.0
1529, 0.0
1530, 0.0
1531, 0.0
1532, 0.0
1533, 0.0
1534, 0.0
1535, 0.0
1536, 0.0
1537, 0.0
1538, 0.0
1539, 0.0
1540, 0.0
1541, 0.0
1542, 0.0
1543, 0.0
1544, 0.0
1545, 0.0
1546, 0.0
1547, 0.0
1548, 0.0
1549, 0.0
1550, 0.0
1551, 0.0
1552, 0.0
1553, 0.0
1554, 0.0
1555, 0.0
1556, 0.0
1557, 0.0
1558, 0.0
1559, 0.0
1560, 0.0
1561, 0.0
1562, 0.0
1563, 0.0
1564, 0.0
1565, 0.0
1566, 0.0
1567, 0.0
1568, 0.0
1569, 0.0
1570, 0.0
1571, 0.0
1572, 0.0
1573, 0.0
1574, 0.0
1575, 0.0
1576, 0.0
1577, 0.0
1578, 0.0
1579, 0.0
1580, 0.0
1581, 0.0
1582, 0.0
1583, 0.0
1584, 0.0
1585, 0.0
1586, 0.0
1587, 0.0
1588, 0.0
1589, 0.0
1590, 0.0
1591, 0.0
1592, 0.0
1593, 0.0
1594, 0.0
1595, 0.0
1596, 0.0
1597, 0.0
1598, 0.0
1599, 0.0
