30, 0.0
31, 0.0
32, 0.0
33, 0.0
34, 0.0
35, 0.0
36, 0.0
37, 0.0
38, 0.0
39, 0.0
40, 0.0
41, 0.0
42, 0.0
43, 0.0
44, 0.0
45, 0.0
46, 0.0
47, 0.0
48, 0.0
49, 0.0
50, 0.0
51, 0.0
52, 0.0
53, 0.0
54, 0.0
55, 0.0
56, 0.0
57, 0.0
58, 0.0
59, 0.0
60, 0.0
61, 0.0
62, 0.0
63, 0.0
64, 0.0
65, 0.0
66, 0.0
67, 0.0
68, 0.0
69, 0.0
70, 0.0
71, 0.0
72, 0.0
73, 0.0
74, 0.0
75, 0.0
76, 0.0
77, 0.0
78, 0.0
79, 0.0
80, 0.0
81, 0.0
82, 0.0
83, 0.0
84, 0.0
85, 0.0
86, 0.0
87, 0.0
88, 0.0
89, 0.0
90, 0.0
91, 0.0
92, 0.0
93, 0.0
94, 0.0
95, 0.0
96, 0.0
97, 0.0
98, 0.0
99, 0.0
100, 0.0
101, 0.0
102, 0.0
103, 0.0
104, 0.0
105, 0.0
106, 0.0
107, 0.0
108, 0.0
109, 0.0
110, 0.0
111, 0.0
112, 0.0
113, 0.0
114, 0.0
115, 0.0
116, 0.0
117, 0.0
118, 0.0
119, 0.0
120, 0.0
121, 0.0
122, 0.0
123, 0.0
124, 0.0
125, 0.0
126, 0.0
127, 0.0
128, 0.0
129, 0.0
130, 0.0
131, 0.0
132, 0.0
133, 0.0
134, 0.0
135, 0.0
136, 0.0
137, 0.0
138, 0.0
139, 0.0
140, 0.0
141, 0.0
142, 0.0
143, 0.0
144, 0.0
145, 0.0
146, 0.0
147, 0.0
148, 0.0
149, 0.0
150, 0.0
151.0, 0.00109977619017596
152.0, 0.009445677219105494
153.0, 0.017305088429389187
154.0, 0.022709951351902808
155.0, 0.04303417216882232
156.0, 0.05024276347304163
157.0, 0.0518003886116785
158.0, 0.05314053919652612
159.0, 0.05203316478488932
160.0, 0.05305864152863068
161.0, 0.047896243248201034
162.0, 0.0421852802235747
163.0, 0.04677907863327322
164.0, 0.052892896111023026
165.0, 0.05887880789751367
166.0, 0.06372655950291199
167.0, 0.06740052392543078
168.0, 0.07420813472781468
169.0, 0.08181234280526782
170.0, 0.08313382939502352
171.0, 0.07868643289582829
172.0, 0.07903254795615884
173.0, 0.07596361174615206
174.0, 0.0717143913072995
175.0, 0.0692755937680895
176.0, 0.06813032826508783
177.0, 0.06209394365027385
178.0, 0.06073926733194888
179.0, 0.06214766571973951
180.0, 0.06326004318955769
181.0, 0.0627648726302736
182.0, 0.0628817133881698
183.0, 0.062745886603383
184.0, 0.06033634870530662
185.0, 0.0640753285757487
186.0, 0.06907081906087624
187.0, 0.06901583810629723
188.0, 0.06388905536392218
189.0, 0.05517010219151529
190.0, 0.04988741816747276
191.0, 0.040932464692041155
192.0, 0.02987120462952556
193.0, 0.02217101810935676
194.0, 0.022264947839279604
195.0, 0.02148697585280956
196.0, 0.021923458269966504
197.0, 0.023650112011291365
198.0, 0.019136091224311574
199.0, 0.016062584722917758
200.0, 0.014708842350479086
201.0, 0.013941421924324578
202.0, 0.012093491289814356
203.0, 0.00630369404045404
204.0, 0.0034772933243228084
205.0, 0.0015662669833509944
206.0, 0.0017505708651053182
207.0, 0.0005303773566508169
208.0, 0.0020169650205710227
209.0, 0.006473508768026637
210.0, 0.010698345106127934
211.0, 0.008789708404212303
212.0, 0.0029606796844607553
213.0, 0.001682216871634787
214.0, 0.004043543896655641
215.0, 0.004548307423586916
216.0, 0.0020960827527170336
217.0, 0.002405502390874299
218.0, 0.002750899974407275
219.0, 0.0013332757527106734
220.0, 0.001055778924418053
221.0, 0.0025860099252035073
222.0, 0.005420257643484862
223.0, 0.01628552072742931
224.0, 0.0159837563167714
225.0, 0.015215093032450626
226.0, 0.017685353008291133
227.0, 0.02278123604185417
228.0, 0.027391144774672138
229.0, 0.026866854594519502
230.0, 0.02971674673862869
231.0, 0.032127775079732454
232.0, 0.03091779376914441
233.0, 0.02654209371954988
234.0, 0.03226873349517831
235.0, 0.03212989160247869
236.0, 0.02963878798294871
237.0, 0.031245530697106002
238.0, 0.03411694383600187
239.0, 0.03837022991552608
240.0, 0.03789213954849909
241.0, 0.034025284967621076
242.0, 0.034979373129507225
243.0, 0.035483204541436573
244.0, 0.03747662355584967
245.0, 0.036536297661342886
246.0, 0.02953324602733635
247.0, 0.022001942316879332
248.0, 0.01943246038863485
249.0, 0.018159524416132146
250.0, 0.01715778090130645
251.0, 0.01825980502941041
252.0, 0.01661010623575261
253.0, 0.0173221136239059
254.0, 0.017600964436882374
255.0, 0.015310931301120715
256.0, 0.017346841331860225
257.0, 0.02061739450978708
258.0, 0.02209697980215082
259.0, 0.021412305392929487
260.0, 0.02002035496955408
261.0, 0.01938951373248847
262.0, 0.020556903550719766
263.0, 0.022660144808217614
264.0, 0.02412856306740308
265.0, 0.023417055971966798
266.0, 0.019582842479724426
267.0, 0.01822285638150552
268.0, 0.019923398267336603
269.0, 0.020863478033110703
270.0, 0.021990355185391868
271.0, 0.020244675084129637
272.0, 0.018765621561352096
273.0, 0.01891283846658005
274.0, 0.015622807996270286
275.0, 0.02081225715223094
276.0, 0.022456825267608754
277.0, 0.021167497233847067
278.0, 0.023788514806480938
279.0, 0.025864222085886162
280.0, 0.024525781120222242
281.0, 0.02465608524709377
282.0, 0.027847626175693082
283.0, 0.029638565967518057
284.0, 0.032357617212107066
285.0, 0.038901892620598344
286.0, 0.044416731700818
287.0, 0.04596824934279572
288.0, 0.0537925125019753
289.0, 0.05439051127407853
290.0, 0.056422521120763514
291.0, 0.06455616480156019
292.0, 0.07434818700167671
293.0, 0.07866597152597585
294.0, 0.07665923537123687
295.0, 0.07452352440182025
296.0, 0.07434252082392435
297.0, 0.069380283928884
298.0, 0.06211295435366536
299.0, 0.05235872448542501
300.0, 0.04394589497790041
301.0, 0.040130329269579774
302.0, 0.03639744935226588
303.0, 0.03352006436855341
304.0, 0.027996515073781123
305.0, 0.022066501982275274
306.0, 0.0221246766164015
307.0, 0.018183419411961426
308.0, 0.011948026003024085
309.0, 0.006264706493354658
310.0, 0.004317248853746091
311.0, 0.0086254964891322
312.0, 0.007616610753904984
313.0, 0.004557458652022528
314.0, 0.004647674229732221
315.0, 0.008744818208810594
316.0, 0.008537261310136171
317.0, 0.009723688498945046
318.0, 0.00864609862807055
319.0, 0.006478337135935832
320.0, 0.009084957819070505
321.0, 0.009810030078272488
322.0, 0.00815981694302055
323.0, 0.00821169037046539
324.0, 0.011998793284016478
325.0, 0.016302192154054193
326.0, 0.012966092593713657
327.0, 0.012678154058318727
328.0, 0.013014018135656617
329.0, 0.009286629439458325
330.0, 0.012258881261675836
331.0, 0.016352148811740956
332.0, 0.015091060116100766
333.0, 0.01138938791523675
334.0, 0.013930026787221455
335.0, 0.01713713051133103
336.0, 0.015406970926873266
337.0, 0.01265470203635469
338.0, 0.010495428893750063
339.0, 0.006337781240402819
340.0, 0.015108699389203686
341.0, 0.014820563762862516
342.0, 0.008807269226941186
343.0, 0.00774907781235693
344.0, 0.010180759075912092
345.0, 0.01370828525934363
346.0, 0.015134370384510758
347.0, 0.01682271764285945
348.0, 0.02142608973014824
349.0, 0.022890591619596928
350.0, 0.019411451253066387
351.0, 0.02110600381153094
352.0, 0.024952854709047675
353.0, 0.022129285376117802
354.0, 0.024820472792076134
355.0, 0.021918303075075994
356.0, 0.017709166150508823
357.0, 0.01684587866529606
358.0, 0.01821567579697248
359.0, 0.014340561586224466
360.0, 0.011285497683523545
361.0, 0.012087708320755312
362.0, 0.014372737507467212
363.0, 0.012009937325419039
364.0, 0.009811988837304098
365.0, 0.01079392969316683
366.0, 0.011962552772768247
367.0, 0.010956505129006784
368.0, 0.010761178732470622
369.0, 0.0076273069131578995
370.0, 0.007193848991215401
371.0, 0.008546285866150694
372.0, 0.00822157331404033
373.0, 0.005757934496545897
374.0, 0.005011737507113521
375.0, 0.00439293978331454
376.0, 0.003477080424825225
377.0, 0.003146169382152163
378.0, 0.0023340748593178623
379.0, 0.001096698134238332
380.0, 0.00040711747927369335
381.0, 0.0007128922170176091
382.0, 0.0005380641404421117
383.0, 0.0002327628979839989
384.0, 0.0030777281386616395
385.0, 0.002277807209949903
386.0, 0.0009143244014367935
387.0, 0.004868251076758067
388.0, 0.0027247599888716
389.0, 0.0009681371222197403
390.0, 0.0014752981754202136
391.0, 0.002922990323117615
392.0, 0.0037746174448800613
393.0, 0.0009433302624986331
394.0, 0.001879351137848369
395.0, 0.003102429512665853
396.0, 0.00037462846888444
397.0, 0.002897910342436304
398.0, 0.003289608601528487
399.0, 0.005483789742833966
400.0, 0.007798772628737644
401.0, 0.009781604285100345
402.0, 0.01586682041037926
403.0, 0.021737124387563853
404.0, 0.028093603102865575
405.0, 0.03143691316752979
406.0, 0.0319500573058512
407.0, 0.037512493688162805
408.0, 0.049477863510812056
409.0, 0.051969983285760545
410.0, 0.05531552698545804
411.0, 0.06761258195189042
412.0, 0.07296093410634923
413.0, 0.08141529356753632
414.0, 0.08813550548261337
415.0, 0.09258086314273428
416.0, 0.09606809939105143
417.0, 0.09728733493404852
418.0, 0.09503237863882133
419.0, 0.10052347893798458
420.0, 0.1073434709145273
421.0, 0.10984618933952404
422.0, 0.11611790894882047
423.0, 0.11405995920312274
424.0, 0.10949184182059352
425.0, 0.10933314000208186
426.0, 0.11311836494132972
427.0, 0.10797101585775103
428.0, 0.11034935482427892
429.0, 0.11360715166297541
430.0, 0.11027720039880681
431.0, 0.10388417026442015
432.0, 0.1084412503863456
433.0, 0.10884009542202748
434.0, 0.11161393690568185
435.0, 0.12009846216269078
436.0, 0.1287213304085993
437.0, 0.12791360658442988
438.0, 0.14210240833873736
439.0, 0.1516427235569958
440.0, 0.15517664430467026
441.0, 0.1616173726186551
442.0, 0.1764145706687768
443.0, 0.17448751681676763
444.0, 0.1798349623840649
445.0, 0.18106679539878442
446.0, 0.17279404793282654
447.0, 0.1700045077272595
448.0, 0.16061615294025539
449.0, 0.15470713913842093
450.0, 0.1454863846724298
451.0, 0.13068523745308366
452.0, 0.11684870327159436
453.0, 0.1017427080235163
454.0, 0.09011886625772597
455.0, 0.08104868621835382
456.0, 0.07121723250897148
457.0, 0.05902162036348042
458.0, 0.04986058684995348
459.0, 0.04009782037878272
460.0, 0.034188013270066465
461.0, 0.030439397700949392
462.0, 0.02384028626906412
463.0, 0.018415045215189087
464.0, 0.01306742960922336
465.0, 0.005390060014390715
466.0, 0.001731147355761137
467.0, 0.007773224833449254
468.0, 0.0038932345566657376
469.0, 0.0012072044487153447
470.0, 0.00453775279812116
471.0, 0.004767620920655615
472.0, 0.0023254948178046257
473.0, 0.0005712723883210841
474.0, 0.0027654225491462055
475.0, 0.0012002330366918741
476.0, 0.0021613799210576817
477.0, 0.0031837716752503046
478.0, 0.0009053555007980079
479.0, 0.0017822138807171255
480.0, 0.006094209944068301
481.0, 0.008556831328715235
482.0, 0.008265872160112415
483.0, 0.00933846712275995
484.0, 0.015920471539786398
485.0, 0.018223209168750684
486.0, 0.022848275818080306
487.0, 0.027104483941247773
488.0, 0.022830042418140507
489.0, 0.025178235907325555
490.0, 0.027388467289040114
491.0, 0.025350824296523432
492.0, 0.02550507371559048
493.0, 0.03265897984448428
494.0, 0.03419902659470763
495.0, 0.034411004042469294
496.0, 0.032550143865852935
497.0, 0.03320139084906297
498.0, 0.036335634886528495
499.0, 0.033368251332715926
500.0, 0.03476372273065512
501.0, 0.03515494637218598
502.0, 0.03681859794995899
503.0, 0.04194061706065557
504.0, 0.04907428114158952
505.0, 0.05481402049456437
506.0, 0.05992217544074051
507.0, 0.06796464851658497
508.0, 0.07548831739067172
509.0, 0.07873756448674943
510.0, 0.08967049241493703
511.0, 0.09941953255433979
512.0, 0.11844891036205336
513.0, 0.14111421958048287
514.0, 0.1584182538847969
515.0, 0.1770362543802703
516.0, 0.2029022542831019
517.0, 0.24082869137166502
518.0, 0.2802149826669916
519.0, 0.31939024688229983
520.0, 0.3707748325474805
521.0, 0.4309597019967293
522.0, 0.4897565283101491
523.0, 0.5482784933734125
524.0, 0.615716562817239
525.0, 0.6935609761073626
526.0, 0.7585927097906263
527.0, 0.8112875205154614
528.0, 0.8752455963487794
529.0, 0.9366214549415706
530.0, 0.9753449393581485
531.0, 0.9930917464214838
532.0, 0.9997426835311751
533.0, 0.9758138598249642
534.0, 0.9202789417169372
535.0, 0.8360228923272521
536.0, 0.7319426254111696
537.0, 0.6434714963859621
538.0, 0.5487979653899874
539.0, 0.4632702111747345
540.0, 0.39581884502385345
541.0, 0.3395061913204934
542.0, 0.28419478638255535
543.0, 0.237998886711248
544.0, 0.20855604955718493
545.0, 0.18571248560128617
546.0, 0.15917051476117788
547.0, 0.12663341862354904
548.0, 0.11970318353182935
549.0, 0.11255840002387954
550.0, 0.10041572694023965
551.0, 0.08698236288956233
552.0, 0.07636896031953068
553.0, 0.06825482290674302
554.0, 0.0664301654331052
555.0, 0.06340061951630123
556.0, 0.0540346164734388
557.0, 0.044460047832150414
558.0, 0.04462574677608673
559.0, 0.04218461774356084
560.0, 0.030818627251903458
561.0, 0.0317763471224246
562.0, 0.03512571905606918
563.0, 0.025530677627916817
564.0, 0.026814467205980887
565.0, 0.026398758775598295
566.0, 0.01904443808195059
567.0, 0.011029989862405994
568.0, 0.010248065206651946
569.0, 0.014761605251542126
570.0, 0.008682005076982479
571.0, 0.0117357462383483
572.0, 0.013772650116795654
573.0, 0.011054953943987237
574.0, 0.007978414003845916
575.0, 0.00799401906214835
576.0, 0.012490049450844028
577.0, 0.005622721056547669
578.0, 0.0008880220628908485
579.0, 0.003495396337346694
580.0, 0.0033879737444015693
581.0, 0.0034276309488933594
582.0, 0.0037076693786639975
583.0, 0.0027622985228600966
584.0, 0.003934132050824245
585.0, 0.005360053863350277
586.0, 0.0008089281842657592
587.0, 0.0012207620188358283
588.0, 0.0006499897592277076
589.0, 0.0008894414843215028
590.0, 0.0006834182576426517
591.0, 0.0009117923028311247
592.0, 0.0006472905773239931
593.0, 0.0008706693608148942
594.0, 0.0034213580780459063
595.0, 0.0017050343765486666
596.0, 0.004158320342936486
597.0, 0.000690834364652703
598.0, 0.0024513598275584824
599.0, 0.004564439327868179
600.0, 0.0018450149508777844
601.0, 0.0005307091845089121
602.0, 0.0019579643218368935
603.0, 0.001931949900668312
604.0, 0.0018799774160466504
605.0, 0.0009746803643552031
606.0, 0.0005534816205946378
607.0, 0.004043698129123831
608.0, 0.008073841787080229
609.0, 0.005517909574540027
610.0, 0.0014528546771849322
611.0, 0.001167831383001628
612.0, 0.0042910401365138335
613.0, 0.006252219046665712
614.0, 0.00386621875099813
615.0, 0.005770778365452743
616.0, 0.0015851010427012598
617.0, 0.0007136566026014602
618.0, 0.0016039939345812754
619.0, 0.002102671999361345
620.0, 0.007194192930485519
621.0, 0.003918623308827395
622.0, 0.0008177705611508495
623.0, 0.004779072351654321
624.0, 0.005412229276602849
625.0, 0.0010032831600968021
626.0, 0.005154545002627158
627.0, 0.0030363186925423135
628.0, 0.004608581045284208
629.0, 0.004086275769191834
630.0, 0.0027982112215288167
631.0, 0.005150075223573132
632.0, 0.0014396428433044223
633.0, 0.0020891318044634305
634.0, 0.0010389727161568302
635.0, 0.004961795684481647
636.0, 0.007209594694856079
637.0, 0.001587653737488695
638.0, 0.0016316812308590765
639.0, 0.0026311146056837015
640.0, 0.000856533735080987
641.0, 0.0020460110128014512
642.0, 0.0025370401889058206
643.0, 0.00041542156744539283
644.0, 0.00278867580640035
645.0, 0.003790849426623876
646.0, 0.0010765090909394448
647.0, 0.0010294612525326187
648.0, 0.001217101737838836
649.0, 0.0007751457381733267
650.0, 0.00832324634603106
651.0, 0.005458415219732428
652.0, 0.001220793662544841
653.0, 0.0014393198635183416
654.0, 0.005291764096581854
655.0, 0.009726896917515333
656.0, 0.010610592289258222
657.0, 0.009403595084322883
658.0, 0.00722208693925942
659.0, 0.0022439879991349074
660.0, 0.00206914962332348
661.0, 0.009641500672677819
662.0, 0.00888171693544726
663.0, 0.009084216865834178
664.0, 0.014909712468988623
665.0, 0.013425876274272263
666.0, 0.00833872136867303
667.0, 0.013086062204794932
668.0, 0.012472641372203582
669.0, 0.011874610523119722
670.0, 0.009812094470509413
671.0, 0.007103292000958864
672.0, 0.00698917172241035
673.0, 0.010738383489347409
674.0, 0.013986312751620069
675.0, 0.015204214377639906
676.0, 0.017168681442815206
677.0, 0.011670329665495404
678.0, 0.004422926131819892
679.0, 0.006002007421917853
680.0, 0.006430978306771387
681.0, 0.00801787560382753
682.0, 0.008533475817448368
683.0, 0.00966940597850499
684.0, 0.010981784897698153
685.0, 0.01070299919812235
686.0, 0.010382551201423236
687.0, 0.012477853148630445
688.0, 0.014479967818568537
689.0, 0.011097776156933824
690.0, 0.008991030968305358
691.0, 0.013117324839230409
692.0, 0.01426072601148578
693.0, 0.015474103861461011
694.0, 0.01570221148474335
695.0, 0.016155988232296508
696.0, 0.015661255482186807
697.0, 0.01614492351993243
698.0, 0.024201610887137823
699.0, 0.026103614429043305
700.0, 0.0269039643300392
701.0, 0.030217800475099865
702.0, 0.03218512615256354
703.0, 0.034585429124652116
704.0, 0.043083559353894345
705.0, 0.042622035551141434
706.0, 0.04468918280126645
707.0, 0.04637847956850548
708.0, 0.04830151071722553
709.0, 0.05252964183458302
710.0, 0.058043633621680454
711.0, 0.05940966893054098
712.0, 0.06317143396644734
713.0, 0.06364087469121986
714.0, 0.0625094981411881
715.0, 0.06041548124579724
716.0, 0.05611823966265521
717.0, 0.05202340876330233
718.0, 0.04729686397080054
719.0, 0.04798548728830983
720.0, 0.04257780287170832
721.0, 0.03310422101665294
722.0, 0.027958341349055026
723.0, 0.02654177565945948
724.0, 0.019045294157681865
725.0, 0.018582779819437876
726.0, 0.02010116137484921
727.0, 0.02064050904623213
728.0, 0.019984974338148876
729.0, 0.01754346657467851
730.0, 0.01486199290825286
731.0, 0.013700518305034862
732.0, 0.015479481101988641
733.0, 0.015852966583712127
734.0, 0.013817420880854867
735.0, 0.01320699625051764
736.0, 0.01761901689936155
737.0, 0.014546860437895336
738.0, 0.012070291894295376
739.0, 0.016480870398745975
740.0, 0.0186469724626268
741.0, 0.01751339146214712
742.0, 0.02487203458332561
743.0, 0.02255312181829867
744.0, 0.02049826553916034
745.0, 0.02382517466965364
746.0, 0.02474943996543622
747.0, 0.02356026995554377
748.0, 0.027250988299229423
749.0, 0.026481012603600165
750.0, 0.02733853062540933
751.0, 0.030902575522359275
752.0, 0.03253976864678641
753.0, 0.030259177988067685
754.0, 0.029168101542649545
755.0, 0.03499103724144711
756.0, 0.03724122051671985
757.0, 0.03238108905018873
758.0, 0.03142012650627303
759.0, 0.02930336854644217
760.0, 0.02542740942734662
761.0, 0.025846335713072793
762.0, 0.027541629820119633
763.0, 0.030163435156313652
764.0, 0.02576404044511351
765.0, 0.016955661484442434
766.0, 0.014340978758431563
767.0, 0.018100195451822766
768.0, 0.01658229514664708
769.0, 0.016568893808540357
770.0, 0.01826440406517239
771.0, 0.010556920843758538
772.0, 0.006969594133196526
773.0, 0.008411418707863234
774.0, 0.007587765983462584
775.0, 0.010229329887653843
776.0, 0.008720057807088668
777.0, 0.0037025743398375246
778.0, 0.002778361951677793
779.0, 0.0019121301761641518
780.0, 0.0012913775763556965
781.0, 0.006495043417570561
782.0, 0.0074867628027682764
783.0, 0.004227894946830434
784.0, 0.0006968594807492741
785.0, 0.002295356617423069
786.0, 0.004095935629535855
787.0, 0.0017487546357925403
788.0, 0.002689227991564796
789.0, 0.0004140485504552042
790.0, 0.0029689240212498456
791.0, 0.0015454706041498954
792.0, 0.0034667519243921485
793.0, 0.0016530186508055115
794.0, 0.0041972735926320125
795.0, 0.000517871030757863
796.0, 0.0008332239843757891
797.0, 0.003882638587904958
798.0, 0.00423620007209007
799.0, 0.0005906756966505794
800.0, 0.002437440776214565
801.0, 6.00102121544187e-05
802.0, 0.005245209309673265
803.0, 0.0034839058164974858
804.0, 0.0007208691198261645
805.0, 0.0014904266719732535
806.0, 0.0036921919657242766
807.0, 0.006251825483025121
808.0, 0.0030505506756348887
809.0, 0.006633271924043156
810.0, 0.002517776003817405
811.0, 0.002282632344384766
812.0, 0.004979063464417907
813.0, 0.006357054837305631
814.0, 0.007142895025792972
815.0, 0.005450749710446681
816.0, 0.008677535239390749
817.0, 0.003928920204240947
818.0, 0.003461539557580624
819.0, 0.0026324212094641
820.0, 0.004068508433210651
821.0, 0.006273164992844328
822.0, 0.0013510668413412768
823.0, 0.00039621783924882547
824.0, 0.0059901634974539745
825.0, 0.0042162353464202445
826.0, 0.004441659575351351
827.0, 0.004914686558200868
828.0, 0.005588523872135231
829.0, 0.011488159557098945
830.0, 0.0036190939526985905
831.0, 0.0006975726309986264
832.0, 0.003216904783560962
833.0, 0.007456157633633445
834.0, 0.007839150719330428
835.0, 0.003959507959340912
836.0, 0.0004351166330367946
837.0, 0.003856008261827162
838.0, 0.006333480641708101
839.0, 0.00810442982395119
840.0, 0.008691891890359217
841.0, 0.006484370930774465
842.0, 0.004895013584289438
843.0, 0.0076540469441880536
844.0, 0.0056232823648557344
845.0, 0.009527078162430903
846.0, 0.011429279076082802
847.0, 0.00974291576750052
848.0, 0.007506080119359864
849.0, 0.007706652838393904
850.0, 0.008773608006926602
851.0, 0.006645194899570952
852.0, 0.009600947388416381
853.0, 0.010270956580946457
854.0, 0.011781308057954827
855.0, 0.00990934464958879
856.0, 0.006844360591306299
857.0, 0.0074512100950319795
858.0, 0.007746563519318545
859.0, 0.010432292160668656
860.0, 0.008253833092026446
861.0, 0.011119156686534178
862.0, 0.007868277398701494
863.0, 0.0014523429994350316
864.0, 0.004843598098838921
865.0, 0.012681322612656943
866.0, 0.009363111331047122
867.0, 0.004388604838213187
868.0, 0.005388902625393428
869.0, 0.006521504017065927
870.0, 0.005772180713229199
871.0, 0.004416981240900412
872.0, 0.003107293491713722
873.0, 0.0018600654276891922
874.0, 0.0038176159898864028
875.0, 0.007112356790632182
876.0, 0.008196178432459927
877.0, 0.004578754244125646
878.0, 0.0016039084891389763
879.0, 0.0046353827967986596
880.0, 0.0076555475039518815
881.0, 0.002512435759089553
882.0, 0.0013363639565536249
883.0, 0.0024001339630488764
884.0, 0.00426065314443327
885.0, 0.007121885380533489
886.0, 0.009617138616175523
887.0, 0.00796982646208903
888.0, 0.002043896392038711
889.0, 0.00806072553491016
890.0, 0.002699907617318615
891.0, 0.005421897784272405
892.0, 0.010675259551506989
893.0, 0.008677872555712045
894.0, 0.004812220309437345
895.0, 0.002606134035249291
896.0, 0.0029800348938294587
897.0, 0.006466121575570169
898.0, 0.007777727120550471
899.0, 0.0046422962988472306
900.0, 0.0038331761734965355
901.0, 0.0034069249216414884
902.0, 0.0018191527409424349
903.0, 0.0027589160658868924
904.0, 0.004001173414643256
905.0, 0.00725411351305696
906.0, 0.008528860580455013
907.0, 0.010056592803170589
908.0, 0.006425243027507996
909.0, 0.0023229397875920597
910.0, 0.0005237491728829239
911.0, 0.0025986055116325084
912.0, 0.0033162846251735896
913.0, 0.0008814966479562551
914.0, 0.0005834489765108866
915.0, 0.0017833528290847084
916.0, 0.004636460005729606
917.0, 0.0056513827868739435
918.0, 0.00926510819512529
919.0, 0.01065865442355193
920.0, 0.006866473950963328
921.0, 0.002526294979102169
922.0, 0.0015202021662280869
923.0, 0.0036228169728652407
924.0, 0.007080507627188843
925.0, 0.00933887949510757
926.0, 0.006910583703297442
927.0, 0.013612886237265583
928.0, 0.010330590177027752
929.0, 0.010967216827334954
930.0, 0.01453247288746535
931.0, 0.016576053242494306
932.0, 0.017847076267295186
933.0, 0.018642297925109047
934.0, 0.021449902105518587
935.0, 0.021389761371530244
936.0, 0.029147063042736766
937.0, 0.02557391519994309
938.0, 0.025650783191659907
939.0, 0.026348877696212553
940.0, 0.01631122544332023
941.0, 0.011152941157773658
942.0, 0.01579038073728766
943.0, 0.013614657037265476
944.0, 0.007199731788697711
945.0, 0.0021355914074083675
946.0, 0.004804528980012458
947.0, 0.008522247727347096
948.0, 0.00481843256088673
949.0, 0.001468232317154249
950.0, 0.004422599657808669
951.0, 0.00037909750112570734
952.0, 0.0017340384061088068
953.0, 0.0005672407846853747
954.0, 0.0008877063473993413
955.0, 0.0007410300409756417
956.0, 0.0006205875376116241
957.0, 0.0022473561965496275
958.0, 0.0010504469531633287
959.0, 0.0011084419518127778
960.0, 0.0008344781763883328
961.0, 0.0023214574673920264
962.0, 0.0018998070706370766
963.0, 0.0002378148757062883
964.0, 0.002910418645031185
965.0, 0.009712000684409798
966.0, 0.0052344028438058585
967.0, 0.0025514224189556586
968.0, 0.007459708868617635
969.0, 0.011684023942205694
970.0, 0.015429002004040838
971.0, 0.01500527547980108
972.0, 0.01311190042831418
973.0, 0.016387588759316285
974.0, 0.018463214763637003
975.0, 0.016899803567466443
976.0, 0.008299594501897547
977.0, 0.008284804386871496
978.0, 0.010328959430085018
979.0, 0.01189020023664744
980.0, 0.01257689022702665
981.0, 0.010513715383975993
982.0, 0.007303007974771887
983.0, 0.005541002949782693
984.0, 0.002577346735428028
985.0, 0.00046804439767240226
986.0, 0.0002066669722070636
987.0, 0.00042020191960926454
988.0, 0.004371955728774855
989.0, 0.01058283381396097
990.0, 0.007576998254561439
991.0, 0.01137864631344557
992.0, 0.008209203859330294
993.0, 0.007530048996364614
994.0, 0.01150848428533728
995.0, 0.013921469977560327
996.0, 0.014304521224542165
997.0, 0.015097739465680327
998.0, 0.015722929853034136
999.0, 0.014557303188238923
1000.0, 0.01189060838159143
1001.0, 0.007894199847390176
1002.0, 0.012548469469551574
1003.0, 0.012813297446597927
1004.0, 0.009530513159207037
1005.0, 0.011650215121400284
1006.0, 0.015146907406974443
1007.0, 0.009171938563396351
1008.0, 0.0030475745963368674
1009.0, 0.005704329250813101
1010.0, 0.009912444491692757
1011.0, 0.0070757455403941925
1012.0, 0.00901751868303671
1013.0, 0.005950660358346693
1014.0, 0.0047325362451428755
1015.0, 0.010796825858783433
1016.0, 0.008384446694199603
1017.0, 0.004698610736135601
1018.0, 0.00996100098284016
1019.0, 0.006743876224317919
1020.0, 0.0025955576990800235
1021.0, 0.007373323874303468
1022.0, 0.013496915542973088
1023.0, 0.01426473439155257
1024.0, 0.016505285014779884
1025.0, 0.021967391987623652
1026.0, 0.01670314234017875
1027.0, 0.018683012569073426
1028.0, 0.03014238454220504
1029.0, 0.030770058624038515
1030.0, 0.02799766329131264
1031.0, 0.037895078483850875
1032.0, 0.04766612192648487
1033.0, 0.04724820356297406
1034.0, 0.05725950038708003
1035.0, 0.05356666663846212
1036.0, 0.06294526896163946
1037.0, 0.06585209575077118
1038.0, 0.07378122215277273
1039.0, 0.08001254206425538
1040.0, 0.08535933593975097
1041.0, 0.09031224876765859
1042.0, 0.09416111123098664
1043.0, 0.10124760685738429
1044.0, 0.10240947814584556
1045.0, 0.0947360188340111
1046.0, 0.09347947313662142
1047.0, 0.09209983474841901
1048.0, 0.08533415025843236
1049.0, 0.06930730185940712
1050.0, 0.05432136273265691
1051.0, 0.04678428411614507
1052.0, 0.039724082188227865
1053.0, 0.03894036846360728
1054.0, 0.0315334672446488
1055.0, 0.02993955278599021
1056.0, 0.021919946729800868
1057.0, 0.01519740677983357
1058.0, 0.012556576190521031
1059.0, 0.01395188936661606
1060.0, 0.01741845610609862
1061.0, 0.01860798734866415
1062.0, 0.017644028591540288
1063.0, 0.014700543986819165
1064.0, 0.011087216588908889
1065.0, 0.008338445337992226
1066.0, 0.011144104653814641
1067.0, 0.014527056601773534
1068.0, 0.013801003460650893
1069.0, 0.015047002177654912
1070.0, 0.01897657576774179
1071.0, 0.016545753555658693
1072.0, 0.02136287155139533
1073.0, 0.018279580496067604
1074.0, 0.01774732568669908
1075.0, 0.020079822105987986
1076.0, 0.02357406550080529
1077.0, 0.025124732675875384
1078.0, 0.025619377499994694
1079.0, 0.026370861949638114
1080.0, 0.028392982792529848
1081.0, 0.03302939951863189
1082.0, 0.027378429251715575
1083.0, 0.030019495897705226
1084.0, 0.026721942289273142
1085.0, 0.028370182919998665
1086.0, 0.02936020858245201
1087.0, 0.02732755962733568
1088.0, 0.024994949599497128
1089.0, 0.02453289128818605
1090.0, 0.025136124328082363
1091.0, 0.0225563840296065
1092.0, 0.020593848040002624
1093.0, 0.01977112695381174
1094.0, 0.019638663075205745
1095.0, 0.017270515621424423
1096.0, 0.013567692612200873
1097.0, 0.014432359500438238
1098.0, 0.01691845568702273
1099.0, 0.01574578364335883
1100.0, 0.014081594202500101
1101.0, 0.008583126373192449
1102.0, 0.013236977606553126
1103.0, 0.010115110907849566
1104.0, 0.01750721465458915
1105.0, 0.013136275828990561
1106.0, 0.010759131610042482
1107.0, 0.01236923421015117
1108.0, 0.011841140951068786
1109.0, 0.013352463446007875
1110.0, 0.014326339814371206
1111.0, 0.010437366603514537
1112.0, 0.005634578698232256
1113.0, 0.005490554236886635
1114.0, 0.004510711501783483
1115.0, 0.009203674040277974
1116.0, 0.013115944995568203
1117.0, 0.006457727710665416
1118.0, 0.004087652777771764
1119.0, 0.007689144148014323
1120.0, 0.0009054694510536143
1121.0, 0.005200077165515591
1122.0, 0.005699469848114265
1123.0, 0.004786769834573921
1124.0, 0.006495095340447186
1125.0, 0.0006342735934414646
1126.0, 0.0012699134356838797
1127.0, 0.00277757614574813
1128.0, 0.003157142270436755
1129.0, 0.002253035586442945
1130.0, 0.0011954175883656742
1131.0, 0.003180330236479665
1132.0, 0.007228470253905553
1133.0, 0.0011621871820204038
1134.0, 0.0011424222578360565
1135.0, 0.0026441686223382453
1136.0, 0.0036964063336050812
1137.0, 0.0010706221695201375
1138.0, 0.0008637032967452068
1139.0, 0.0034162018091722698
1140.0, 0.005021475290593552
1141.0, 0.0043236784972959935
1142.0, 0.0022684171083699927
1143.0, 0.002757624685262036
1144.0, 0.0015427755331877309
1145.0, 0.0033273482474060704
1146.0, 0.0033337036226878496
1147.0, 0.005520027305425736
1148.0, 0.003078786462258266
1149.0, 0.0032682710119724583
1150.0, 0.004355017256472678
1151.0, 0.0067647250075134
1152.0, 0.004659850285235784
1153.0, 0.0061231264115915495
1154.0, 0.0073249063263054765
1155.0, 0.003384029606483562
1156.0, 0.002747071219920277
1157.0, 0.0005458276346322222
1158.0, 0.004143239720160894
1159.0, 0.0029176840562299116
1160.0, 0.001460442818098589
1161.0, 0.0036894523344739366
1162.0, 0.0031474992952215605
1163.0, 0.0020026107558623525
1164.0, 0.001962884625658985
1165.0, 0.0044719039633215425
1166.0, 0.001312995978021458
1167.0, 0.007147070858314874
1168.0, 0.005003298502474343
1169.0, 0.0031125345218637962
1170.0, 0.004228417377248838
1171.0, 0.00813074647904369
1172.0, 0.00940492902832841
1173.0, 0.0045313494300185525
1174.0, 0.004365893190965816
1175.0, 0.007564394556869986
1176.0, 0.006356027662088395
1177.0, 0.007523600775286443
1178.0, 0.002666824994512853
1179.0, 4.916170012775513e-05
1180.0, 0.001556263807454373
1181.0, 0.0042176456698533385
1182.0, 0.008701657914900098
1183.0, 0.010072898601937259
1184.0, 0.006160899963135155
1185.0, 0.004569229266030382
1186.0, 0.005289311574679343
1187.0, 0.011716717022046177
1188.0, 0.009416134649824336
1189.0, 0.009560802142050859
1190.0, 0.0066968447210967305
1191.0, 0.011987511363047067
1192.0, 0.009155416491556415
1193.0, 0.006679570788126076
1194.0, 0.008800071879312019
1195.0, 0.008131167459470899
1196.0, 0.005293023072811093
1197.0, 0.006473439671793861
1198.0, 0.007299921942729687
1199.0, 0.008083268576362363
1200.0, 0.00759246547673978
1201.0, 0.010642182026216994
1202.0, 0.00924213796574771
1203.0, 0.008898701584966464
1204.0, 0.012276763686018204
1205.0, 0.009706775357800151
1206.0, 0.008168293948093819
1207.0, 0.01023358437343578
1208.0, 0.008283771290239562
1209.0, 0.0064391867378190415
1210.0, 0.0074742929639087
1211.0, 0.005016309127685623
1212.0, 0.010525343989672814
1213.0, 0.007069844211169272
1214.0, 0.0033752534848741776
1215.0, 0.005931701301729453
1216.0, 0.005654464531434209
1217.0, 0.008335457458466347
1218.0, 0.00933171377069907
1219.0, 0.007269797432553977
1220.0, 0.006238028181079883
1221.0, 0.004162454154803278
1222.0, 0.005251631106712967
1223.0, 0.005708886408739185
1224.0, 0.00815826166112285
1225.0, 0.0043020079218171695
1226.0, 0.004360221486090922
1227.0, 0.008457680766387298
1228.0, 0.009100694979862527
1229.0, 0.007790124325625872
1230.0, 0.003325966047407116
1231.0, 0.003199592747897759
1232.0, 0.0093779340502032
1233.0, 0.00843509123097008
1234.0, 0.00044843489237946773
1235.0, 0.003178990718872857
1236.0, 0.007118985498356358
1237.0, 0.006382474590858862
1238.0, 0.006846791858084384
1239.0, 0.0036076593389395323
1240.0, 0.003142622937910231
1241.0, 0.0025228747457281386
1242.0, 0.0027188447239428625
1243.0, 0.0036659086266030835
1244.0, 0.003067266563082823
1245.0, 0.005701487745724253
1246.0, 0.009191031076193462
1247.0, 0.0014949782750084712
1248.0, 0.002081608450106194
1249.0, 0.00970446665897468
1250.0, 0.001874130565666772
1251.0, 0.0016429783951565048
1252.0, 0.010501006556939778
1253.0, 0.005514223825548066
1254.0, 0.005649071268377147
1255.0, 0.0019874376378524383
1256.0, 0.0018626507813128425
1257.0, 0.005528227207431953
1258.0, 0.0020628169682930025
1259.0, 0.0008340643395907595
1260.0, 0.004127424717061025
1261.0, 0.0023344470236129782
1262.0, 0.0002829076204506237
1263.0, 0.0018197060028648745
1264.0, 0.009452924727713002
1265.0, 0.010290894395078253
1266.0, 0.005052724261468537
1267.0, 0.007931769440545166
1268.0, 0.004560044477206533
1269.0, 0.005006719555408752
1270.0, 0.00720459881522002
1271.0, 0.004462186197679157
1272.0, 0.008498747109278133
1273.0, 0.014174652995903175
1274.0, 0.004973110620523246
1275.0, 0.0086102807853295
1276.0, 0.005721815855052017
1277.0, 0.005442752791010988
1278.0, 0.009314996760348403
1279.0, 0.007318054401391192
1280.0, 0.005754446419558852
1281.0, 0.010707450196679704
1282.0, 0.011745179189736079
1283.0, 0.009987511557966748
1284.0, 0.010004505748035084
1285.0, 0.01078055140231854
1286.0, 0.006732554596768171
1287.0, 0.003491729030518375
1288.0, 0.008548060266310054
1289.0, 0.0030419434638556202
1290.0, 0.006539153363784967
1291.0, 0.008676466186218519
1292.0, 0.007506750050488963
1293.0, 0.0012349830392190371
1294.0, 0.0010836455706981656
1295.0, 0.006087998648039515
1296.0, 0.008033947310699372
1297.0, 0.004004614103517079
1298.0, 0.00363332861434364
1299.0, 0.005265957807593302
1300.0, 0.006448864618157619
1301.0, 0.008818887724052725
1302.0, 0.007101241795931926
1303.0, 0.004298440056039699
1304.0, 0.00892072173756554
1305.0, 0.000674022132703762
1306.0, 0.0034849321751011238
1307.0, 0.002710308672393394
1308.0, 0.0007393294219519691
1309.0, 0.0020587060643029276
1310.0, 0.0004122933607443249
1311.0, 0.000637071796296009
1312.0, 0.0028317278038938807
1313.0, 0.0023566249085805223
1314.0, 0.0021005356822946415
1315, 0.0
1316, 0.0
1317, 0.0
1318, 0.0
1319, 0.0
1320, 0.0
1321, 0.0
1322, 0.0
1323, 0.0
1324, 0.0
1325, 0.0
1326, 0.0
1327, 0.0
1328, 0.0
1329, 0.0
1330, 0.0
1331, 0.0
1332, 0.0
1333, 0.0
1334, 0.0
1335, 0.0
1336, 0.0
1337, 0.0
1338, 0.0
1339, 0.0
1340, 0.0
1341, 0.0
1342, 0.0
1343, 0.0
1344, 0.0
1345, 0.0
1346, 0.0
1347, 0.0
1348, 0.0
1349, 0.0
1350, 0.0
1351, 0.0
1352, 0.0
1353, 0.0
1354, 0.0
1355, 0.0
1356, 0.0
1357, 0.0
1358, 0.0
1359, 0.0
1360, 0.0
1361, 0.0
1362, 0.0
1363, 0.0
1364, 0.0
1365, 0.0
1366, 0.0
1367, 0.0
1368, 0.0
1369, 0.0
1370, 0.0
1371, 0.0
1372, 0.0
1373, 0.0
1374, 0.0
1375, 0.0
1376, 0.0
1377, 0.0
1378, 0.0
1379, 0.0
1380, 0.0
1381, 0.0
1382, 0.0
1383, 0.0
1384, 0.0
1385, 0.0
1386, 0.0
1387, 0.0
1388, 0.0
1389, 0.0
1390, 0.0
1391, 0.0
1392, 0.0
1393, 0.0
1394, 0.0
1395, 0.0
1396, 0.0
1397, 0.0
1398, 0.0
1399, 0.0
1400, 0.0
1401, 0.0
1402, 0.0
1403, 0.0
1404, 0.0
1405, 0.0
1406, 0.0
1407, 0.0
1408, 0.0
1409, 0.0
1410, 0.0
1411, 0.0
1412, 0.0
1413, 0.0
1414, 0.0
1415, 0.0
1416, 0.0
1417, 0.0
1418, 0.0
1419, 0.0
1420, 0.0
1421, 0.0
1422, 0.0
1423, 0.0
1424, 0.0
1425, 0.0
1426, 0.0
1427, 0.0
1428, 0.0
1429, 0.0
1430, 0.0
1431, 0.0
1432, 0.0
1433, 0.0
1434, 0.0
1435, 0.0
1436, 0.0
1437, 0.0
1438, 0.0
1439, 0.0
1440, 0.0
1441, 0.0
1442, 0.0
1443, 0.0
1444, 0.0
1445, 0.0
1446, 0.0
1447, 0.0
1448, 0.0
1449, 0.0
1450, 0.0
1451, 0.0
1452, 0.0
1453, 0.0
1454, 0.0
1455, 0.0
1456, 0.0
1457, 0.0
1458, 0.0
1459, 0.0
1460, 0.0
1461, 0.0
1462, 0.0
1463, 0.0
1464, 0.0
1465, 0.0
1466, 0.0
1467, 0.0
1468, 0.0
1469, 0.0
1470, 0.0
1471, 0.0
1472, 0.0
1473, 0.0
1474, 0.0
1475, 0.0
1476, 0.0
1477, 0.0
1478, 0.0
1479, 0.0
1480, 0.0
1481, 0.0
1482, 0.0
1483, 0.0
1484, 0.0
1485, 0.0
1486, 0.0
1487, 0.0
1488, 0.0
1489, 0.0
1490, 0.0
1491, 0.0
1492, 0.0
1493, 0.0
1494, 0.0
1495, 0.0
1496, 0.0
1497, 0.0
1498, 0.0
1499, 0.0
1500, 0.0
1501, 0.0
1502, 0.0
1503, 0.0
1504, 0.0
1505, 0.0
1506, 0.0
1507, 0.0
1508, 0.0
1509, 0.0
1510, 0.0
1511, 0.0
1512, 0.0
1513, 0.0
1514, 0.0
1515, 0.0
1516, 0.0
1517, 0.0
1518, 0.0
1519, 0.0
1520, 0.0
1521, 0.0
1522, 0.0
1523, 0.0
1524, 0.0
1525, 0.0
1526, 0.0
1527, 0.0
1528, 0.0
1529, 0.0
1530, 0.0
1531, 0.0
1532, 0.0
1533, 0.0
1534, 0.0
1535, 0.0
1536, 0.0
1537, 0.0
1538, 0.0
1539, 0.0
1540, 0.0
1541, 0.0
1542, 0.0
1543, 0.0
1544, 0.0
1545, 0.0
1546, 0.0
1547, 0.0
1548, 0.0
1549, 0.0
1550, 0.0
1551, 0.0
1552, 0.0
1553, 0.0
1554, 0.0
1555, 0.0
1556, 0.0
1557, 0.0
1558, 0.0
1559, 0.0
1560, 0.0
1561, 0.0
1562, 0.0
1563, 0.0
1564, 0.0
1565, 0.0
1566, 0.0
1567, 0.0
1568, 0.0
1569, 0.0
1570, 0.0
1571, 0.0
1572, 0.0
1573, 0.0
1574, 0.0
1575, 0.0
1576, 0.0
1577, 0.0
1578, 0.0
1579, 0.0
1580, 0.0
1581, 0.0
1582, 0.0
1583, 0.0
1584, 0.0
1585, 0.0
1586, 0.0
1587, 0.0
1588, 0.0
1589, 0.0
1590, 0.0
1591, 0.0
1592, 0.0
1593, 0.0
1594, 0.0
1595, 0.0
1596, 0.0
1597, 0.0
1598, 0.0
1599, 0.0
