30, 0.0
31, 0.0
32, 0.0
33, 0.0
34, 0.0
35, 0.0
36, 0.0
37, 0.0
38, 0.0
39, 0.0
40, 0.0
41, 0.0
42, 0.0
43, 0.0
44, 0.0
45, 0.0
46, 0.0
47, 0.0
48, 0.0
49, 0.0
50, 0.0
51, 0.0
52, 0.0
53, 0.0
54, 0.0
55, 0.0
56, 0.0
57, 0.0
58, 0.0
59, 0.0
60, 0.0
61, 0.0
62, 0.0
63, 0.0
64, 0.0
65, 0.0
66, 0.0
67, 0.0
68, 0.0
69, 0.0
70, 0.0
71, 0.0
72, 0.0
73, 0.0
74, 0.0
75, 0.0
76, 0.0
77, 0.0
78, 0.0
79, 0.0
80, 0.0
81, 0.0
82, 0.0
83, 0.0
84, 0.0
85, 0.0
86, 0.0
87, 0.0
88, 0.0
89, 0.0
90, 0.0
91, 0.0
92, 0.0
93, 0.0
94, 0.0
95, 0.0
96, 0.0
97, 0.0
98, 0.0
99, 0.0
100, 0.0
101, 0.0
102, 0.0
103, 0.0
104, 0.0
105, 0.0
106, 0.0
107, 0.0
108, 0.0
109, 0.0
110, 0.0
111, 0.0
112, 0.0
113, 0.0
114, 0.0
115, 0.0
116, 0.0
117, 0.0
118, 0.0
119, 0.0
120, 0.0
121, 0.0
122, 0.0
123, 0.0
124, 0.0
125, 0.0
126, 0.0
127, 0.0
128, 0.0
129, 0.0
130, 0.0
131, 0.0
132, 0.0
133, 0.0
134, 0.0
135, 0.0
136, 0.0
137, 0.0
138, 0.0
139, 0.0
140, 0.0
141, 0.0
142, 0.0
143.0, 0.00037049672814025425
144.0, 0.0015812637625554932
145.0, 0.011493313674568788
146.0, 0.030015350743488347
147.0, 0.05389544268655576
148.0, 0.07709794139866566
149.0, 0.08456191242928694
150.0, 0.09542481564551035
151.0, 0.10577189876979086
152.0, 0.11202115032745474
153.0, 0.11800011200450171
154.0, 0.12006361013284639
155.0, 0.1132813619565035
156.0, 0.1019374832012654
157.0, 0.09269470359501783
158.0, 0.08364721361294937
159.0, 0.07800779638169776
160.0, 0.0769319402198772
161.0, 0.07839418642248902
162.0, 0.0775116717085298
163.0, 0.08784893553826278
164.0, 0.09343008759865092
165.0, 0.09621775455554922
166.0, 0.10676357377854434
167.0, 0.11406202216131789
168.0, 0.11891270841193274
169.0, 0.11922908905746114
170.0, 0.11617352368125114
171.0, 0.11555948962594642
172.0, 0.11039770960367701
173.0, 0.1057373216591896
174.0, 0.10159572743636855
175.0, 0.0956509838662167
176.0, 0.09080652976892901
177.0, 0.09738722060186587
178.0, 0.09928039194741327
179.0, 0.0946718361046852
180.0, 0.09292906095556991
181.0, 0.09242760739059251
182.0, 0.08930905597081608
183.0, 0.08466318428543633
184.0, 0.07997339529482872
185.0, 0.07952920303423203
186.0, 0.07470653528706699
187.0, 0.0675624590344605
188.0, 0.06108202524240468
189.0, 0.05659869749087412
190.0, 0.05128981823305001
191.0, 0.043359792052146906
192.0, 0.03672148578091852
193.0, 0.03501721438462609
194.0, 0.02871826185639566
195.0, 0.026400723575363536
196.0, 0.026725188760981455
197.0, 0.02655070935728957
198.0, 0.02585814054600108
199.0, 0.024831922731074547
200.0, 0.024228072463799932
201.0, 0.02024835740216391
202.0, 0.013981652174071654
203.0, 0.013042379191128203
204.0, 0.011004444493228516
205.0, 0.008257700803970543
206.0, 0.004440470067721624
207.0, 0.0003797851039449316
208.0, 0.0006195557038647451
209.0, 0.0005322963239100844
210.0, 0.004664203345387588
211.0, 0.009876786143520977
212.0, 0.008401556204479332
213.0, 0.004269579495783059
214.0, 0.0037451787982154838
215.0, 0.0042876432418581896
216.0, 0.0021501271862363397
217.0, 0.0036945471293861635
218.0, 0.003975185919439289
219.0, 0.004423934650557028
220.0, 0.004059962731308205
221.0, 0.0006160135298528194
222.0, 0.004043121823345645
223.0, 0.0020249282468122027
224.0, 0.0054291785706288885
225.0, 0.008181891408146822
226.0, 0.009239145692747022
227.0, 0.01072197770006751
228.0, 0.011588606923137169
229.0, 0.009619592088354228
230.0, 0.00707339128827008
231.0, 0.011543277340034802
232.0, 0.013336451596097698
233.0, 0.012329240197740121
234.0, 0.011701966422863612
235.0, 0.013584309423512402
236.0, 0.017730633148246737
237.0, 0.01837733408152982
238.0, 0.018546701622650034
239.0, 0.019117513278387607
240.0, 0.01719979616289641
241.0, 0.02304838969268864
242.0, 0.023130410775709005
243.0, 0.01971707074618937
244.0, 0.018822337862799732
245.0, 0.021477311779474102
246.0, 0.01850181733927568
247.0, 0.01395376529357449
248.0, 0.009646977979657809
249.0, 0.004817654593805176
250.0, 0.000740621815592185
251.0, 0.003843127762223737
252.0, 0.0076494665548098965
253.0, 0.007158530534569951
254.0, 0.005226310650109127
255.0, 0.007769289715105922
256.0, 0.006261795078303919
257.0, 0.007057806069810339
258.0, 0.013168799796512008
259.0, 0.018464863960837997
260.0, 0.008994909431604522
261.0, 0.005772950424738153
262.0, 0.009849225301888288
263.0, 0.01325616853827848
264.0, 0.011795624081696857
265.0, 0.016177831699930915
266.0, 0.016899104738261488
267.0, 0.01643580157247572
268.0, 0.01818681710702482
269.0, 0.015243694680196453
270.0, 0.018889951445661295
271.0, 0.021602666506759884
272.0, 0.02159858595184117
273.0, 0.021636573367475268
274.0, 0.023205758811199653
275.0, 0.025275026411122337
276.0, 0.027050200475094197
277.0, 0.02724825372391392
278.0, 0.02624692722647089
279.0, 0.029059774816272064
280.0, 0.03252393289739516
281.0, 0.03626387628673249
282.0, 0.038863554443850264
283.0, 0.03898428001124108
284.0, 0.05038672655656293
285.0, 0.048657554509542546
286.0, 0.048004775146896064
287.0, 0.05646769708122292
288.0, 0.062337405985481764
289.0, 0.06598092925259562
290.0, 0.07235916669280584
291.0, 0.07750350066326075
292.0, 0.07942450503874615
293.0, 0.0826894915422317
294.0, 0.08501841888652105
295.0, 0.08540363009027743
296.0, 0.0815635278054628
297.0, 0.0741244357360217
298.0, 0.06651231397512708
299.0, 0.0615829203117119
300.0, 0.054695699404761586
301.0, 0.048784147985960716
302.0, 0.0438819511756452
303.0, 0.03580114457942874
304.0, 0.031074467072526323
305.0, 0.025242066964647387
306.0, 0.02130005343674841
307.0, 0.01941262027441807
308.0, 0.012941123007289132
309.0, 0.011801795144475592
310.0, 0.008080884226383589
311.0, 0.007947457363736251
312.0, 0.012455041340081918
313.0, 0.0035132929802695447
314.0, 0.0054116549497161635
315.0, 0.0074761432027760245
316.0, 0.007889132399355991
317.0, 0.009662826661879799
318.0, 0.012410851571385285
319.0, 0.012600812733907844
320.0, 0.01757843314449446
321.0, 0.020100053493667062
322.0, 0.016243060134820755
323.0, 0.015434459703461027
324.0, 0.017542685197751377
325.0, 0.01843490641759157
326.0, 0.016173049086325365
327.0, 0.012641799140597291
328.0, 0.01330909275454572
329.0, 0.011799501089292246
330.0, 0.012904722242454585
331.0, 0.01523355388731059
332.0, 0.015987555490678356
333.0, 0.016110624275891692
334.0, 0.015447449909931356
335.0, 0.014139619304934717
336.0, 0.013835388856024325
337.0, 0.013272677118599138
338.0, 0.010359084712513407
339.0, 0.008887337228241162
340.0, 0.009031473162402635
341.0, 0.008579054090619657
342.0, 0.009285022081690422
343.0, 0.013402004431611573
344.0, 0.01422801107588111
345.0, 0.015329595670945374
346.0, 0.018085647206187327
347.0, 0.022909168317767365
348.0, 0.027868655362483237
349.0, 0.023395776610148886
350.0, 0.025902441444108956
351.0, 0.027597514845168838
352.0, 0.02749348392662902
353.0, 0.02943753848114058
354.0, 0.029320063812307433
355.0, 0.025163600534124402
356.0, 0.024321846820991474
357.0, 0.024741152736179696
358.0, 0.022345138300904545
359.0, 0.019540599100370853
360.0, 0.018289068722186594
361.0, 0.01759378776850581
362.0, 0.018232697117728597
363.0, 0.01941965882482709
364.0, 0.01641012506105715
365.0, 0.013154680567368265
366.0, 0.015672495769634656
367.0, 0.018793386615416043
368.0, 0.017438472067271622
369.0, 0.014285365425031903
370.0, 0.017093221685109825
371.0, 0.014308540057947565
372.0, 0.00984183397658202
373.0, 0.007334259584848238
374.0, 0.004851153878707539
375.0, 0.003747629497751566
376.0, 0.002964091015175688
377.0, 0.0010469967777063042
378.0, 0.0028600877618479214
379.0, 0.0020604610474773684
380.0, 0.0021724810008037845
381.0, 0.0016855956221071148
382.0, 0.0017894912187001136
383.0, 0.0010535966536044774
384.0, 0.0005269588981670106
385.0, 0.00036381679649498877
386.0, 0.003661793742400481
387.0, 0.00260010436813961
388.0, 0.001843859568503011
389.0, 0.0032821668676056323
390.0, 0.0016225118309515548
391.0, 0.0014926567300760944
392.0, 0.0021530778884041165
393.0, 0.002257273395986153
394.0, 0.0010554236092950586
395.0, 0.0004917411084738195
396.0, 0.00039324235402740947
397.0, 0.0016666720123481966
398.0, 0.005126074622477839
399.0, 0.006919162528336412
400.0, 0.008168936455917758
401.0, 0.012396972212624813
402.0, 0.01171076788240352
403.0, 0.015471858645290036
404.0, 0.020518523421142045
405.0, 0.026586999083531987
406.0, 0.03503347551198027
407.0, 0.03604570555620655
408.0, 0.04155741982520048
409.0, 0.047951877110718286
410.0, 0.05478915837464886
411.0, 0.06374465898919669
412.0, 0.07291503650292297
413.0, 0.0748653365543825
414.0, 0.07896850862464701
415.0, 0.07961749923905631
416.0, 0.07507869044919571
417.0, 0.07421132419375692
418.0, 0.08050897901015258
419.0, 0.07771233402663018
420.0, 0.07835942138381864
421.0, 0.08132368838161691
422.0, 0.08109752561653194
423.0, 0.08397380484201905
424.0, 0.08625407192391256
425.0, 0.08418918290560395
426.0, 0.07955208675476227
427.0, 0.07491319857252256
428.0, 0.07201981939854633
429.0, 0.07456013527192569
430.0, 0.07276868917438299
431.0, 0.07113919739448837
432.0, 0.07492248721896816
433.0, 0.08062057989720166
434.0, 0.07445625109702285
435.0, 0.08168309108097883
436.0, 0.0852133442764657
437.0, 0.08784478729896483
438.0, 0.0963492829883955
439.0, 0.10853062340416687
440.0, 0.11110500197507227
441.0, 0.11584588496370922
442.0, 0.12188439752735424
443.0, 0.12355896553442587
444.0, 0.12109067221272309
445.0, 0.12843685968980323
446.0, 0.12423358088698941
447.0, 0.12173518124882446
448.0, 0.11727552643061008
449.0, 0.10991759661676315
450.0, 0.10349318372810513
451.0, 0.09272912789362489
452.0, 0.08381903881128443
453.0, 0.07276026566759779
454.0, 0.0601843199187012
455.0, 0.05062382809217265
456.0, 0.046865574243712536
457.0, 0.039572071802148265
458.0, 0.030574374088269785
459.0, 0.0261194563825104
460.0, 0.02264518881000222
461.0, 0.016292051983165752
462.0, 0.017448131610086265
463.0, 0.012545830784867679
464.0, 0.010037600484060067
465.0, 0.007455545967582311
466.0, 0.004180619629663105
467.0, 0.003867905166210073
468.0, 0.004992973859823932
469.0, 0.0030055448417525927
470.0, 0.0010363553512993944
471.0, 0.0005818745190325995
472.0, 0.0012598424512955194
473.0, 0.0010238931547341575
474.0, 0.0023965451080777815
475.0, 0.004145736098248192
476.0, 0.0015676623606196748
477.0, 0.0009305400437083579
478.0, 0.0033575597448456027
479.0, 0.0025720659192694085
480.0, 0.0030970728521805086
481.0, 0.0010734057658754294
482.0, 0.003135948069032836
483.0, 0.004601238024449334
484.0, 0.005962691576004339
485.0, 0.004729546723828511
486.0, 0.008739837000437747
487.0, 0.010688882753914863
488.0, 0.010865604645449117
489.0, 0.009394682363187714
490.0, 0.00821206481580532
491.0, 0.01586985986272357
492.0, 0.01549867693734367
493.0, 0.01376081737835038
494.0, 0.01841724142792441
495.0, 0.024852432130306447
496.0, 0.024248701987814505
497.0, 0.01941281044211564
498.0, 0.02393689804778442
499.0, 0.027951567775402347
500.0, 0.0299490726047856
501.0, 0.032237901900209184
502.0, 0.03538085436990577
503.0, 0.0371804002495268
504.0, 0.044445582529903355
505.0, 0.05174302023382267
506.0, 0.05738359179088061
507.0, 0.06360059049441344
508.0, 0.07133047290027904
509.0, 0.07530415268861247
510.0, 0.08525769647950426
511.0, 0.10050981203634471
512.0, 0.11414814794499255
513.0, 0.12632508130743195
514.0, 0.14649661177364692
515.0, 0.16610760789553503
516.0, 0.19357451188836258
517.0, 0.22354792379365054
518.0, 0.2546482684726226
519.0, 0.29219183974002017
520.0, 0.3394845158190475
521.0, 0.38700053262242134
522.0, 0.43222638418774745
523.0, 0.48947435051670407
524.0, 0.5527462516767924
525.0, 0.6141732618465475
526.0, 0.6776140462137424
527.0, 0.7566511977797962
528.0, 0.8273843313911169
529.0, 0.8990830361722537
530.0, 0.9516979147659852
531.0, 0.9813646889379917
532.0, 0.9997188272519064
533.0, 0.982854586468455
534.0, 0.9350131521069837
535.0, 0.8580994779660606
536.0, 0.7617833102945752
537.0, 0.662277760703307
538.0, 0.5740307245036762
539.0, 0.4972399462403118
540.0, 0.42089762005422615
541.0, 0.3582088358702876
542.0, 0.30351298898450346
543.0, 0.2584473658898814
544.0, 0.2244447525870012
545.0, 0.1893037415752398
546.0, 0.1691279616718615
547.0, 0.14710767154098847
548.0, 0.12318563523975332
549.0, 0.10615880950397058
550.0, 0.09958510524362334
551.0, 0.09548630969846317
552.0, 0.08490660526258417
553.0, 0.07665630908377778
554.0, 0.07093321733532476
555.0, 0.06446300399882028
556.0, 0.05807492762835065
557.0, 0.053759377744710755
558.0, 0.04464130119478538
559.0, 0.04204047433739095
560.0, 0.040764565415434925
561.0, 0.037170351192820444
562.0, 0.034553291936426755
563.0, 0.03499696205869601
564.0, 0.03158220246134377
565.0, 0.02923040562618171
566.0, 0.025333375308489416
567.0, 0.022852815548058673
568.0, 0.021494384399299432
569.0, 0.019093550404261025
570.0, 0.018895872208030108
571.0, 0.015918608966257644
572.0, 0.014466143815939143
573.0, 0.011591444667977019
574.0, 0.009466915963757011
575.0, 0.01004509440538047
576.0, 0.007741444744075313
577.0, 0.004530617240648028
578.0, 0.00882473650044978
579.0, 0.009833172162101923
580.0, 0.006899764617138251
581.0, 0.0053227380552313824
582.0, 0.006199239274129644
583.0, 0.006805723088630943
584.0, 0.008029871691764369
585.0, 0.005414036143166824
586.0, 0.005194917907759857
587.0, 0.006908195525896335
588.0, 0.004608099840577947
589.0, 0.002613360523710087
590.0, 0.002421297038955038
591.0, 0.004612931821351122
592.0, 0.004594809515255331
593.0, 0.0016262244492344837
594.0, 0.0005604926989969971
595.0, 0.0027817539486815926
596.0, 0.00014768428221767938
597.0, 0.0007839383379263463
598.0, 0.004329210188881728
599.0, 0.004601070553882725
600.0, 0.0028785856419959546
601.0, 0.002060237028913861
602.0, 0.0007788309786729342
603.0, 0.0017969270719414567
604.0, 0.0033028764778845845
605.0, 0.001740891512642867
606.0, 0.00043236035126489186
607.0, 0.0012601492141219434
608.0, 0.0015941621341549641
609.0, 0.0014905045037900588
610.0, 0.0015640870674935746
611.0, 0.00337686972359253
612.0, 0.0011722318442108693
613.0, 0.001520659130940321
614.0, 0.0009437795946936521
615.0, 0.0017179755799579851
616.0, 0.0003755038446047515
617.0, 0.0013666404183997345
618.0, 0.001279231257310175
619.0, 0.0022323580909003418
620.0, 0.0015203638988703938
621.0, 0.004146458114795632
622.0, 0.0007567942938073157
623.0, 0.0002111434749012718
624.0, 0.0014536115390004218
625.0, 0.0005271115793118691
626.0, 0.000830321079440179
627.0, 0.0008970149614849875
628.0, 0.001212208090301112
629.0, 0.0012951920511421083
630.0, 0.0016930901773275018
631.0, 0.0014802362639576815
632.0, 0.000599094081213209
633.0, 0.0006485564133722598
634.0, 0.0005979853769478356
635.0, 0.00020625287350637824
636.0, 0.0014257931091304571
637.0, 0.0002880901937913219
638.0, 0.00032431977354430543
639.0, 0.0018167340634766777
640.0, 0.002141484808337546
641.0, 0.000792475010658257
642.0, 0.0028454009446689235
643.0, 0.0031897597836382185
644.0, 0.0007088138010376549
645.0, 0.003220226256055749
646.0, 0.0020882987535233485
647.0, 0.0016699648957688336
648.0, 0.0023146069470401922
649.0, 0.0003675780511961622
650.0, 0.001191245471515768
651.0, 0.0027879796674090537
652.0, 0.0028779492198450114
653.0, 0.003343277961543634
654.0, 0.0039851116818631
655.0, 0.0030687233663728264
656.0, 0.0018556336034372216
657.0, 0.006070200619521592
658.0, 0.007219988898790667
659.0, 0.007200920357770935
660.0, 0.007293854854014418
661.0, 0.008249305387889637
662.0, 0.009719742775729337
663.0, 0.010888667407334851
664.0, 0.012270682527902876
665.0, 0.01017445160024655
666.0, 0.011019147453163377
667.0, 0.011173517114282603
668.0, 0.010392062227222998
669.0, 0.010731108097259242
670.0, 0.011507323359250378
671.0, 0.012987426810452094
672.0, 0.012373119444609325
673.0, 0.012554874040115164
674.0, 0.013592745316854468
675.0, 0.014616275541031704
676.0, 0.014888318539521913
677.0, 0.01433328273430769
678.0, 0.015080222627648982
679.0, 0.016030164798072403
680.0, 0.014831973795137935
681.0, 0.01590113362075041
682.0, 0.016456045896078287
683.0, 0.014169885273389669
684.0, 0.01274647674553082
685.0, 0.014077372973748245
686.0, 0.014328301132547403
687.0, 0.017029572120603843
688.0, 0.017870231586602166
689.0, 0.01863618073905332
690.0, 0.01863876258722002
691.0, 0.01544404819680538
692.0, 0.012577244340724384
693.0, 0.014853841612347414
694.0, 0.01626458199302405
695.0, 0.014961087763517192
696.0, 0.015933272278028085
697.0, 0.0192224387378892
698.0, 0.022387087519033014
699.0, 0.023936072217480876
700.0, 0.022257020103395656
701.0, 0.02017461024575986
702.0, 0.025915556353130767
703.0, 0.030608866577265182
704.0, 0.03261464976338095
705.0, 0.03583134656314425
706.0, 0.040886990700508226
707.0, 0.04357257319622139
708.0, 0.046923865240301205
709.0, 0.051358921452840774
710.0, 0.05775379395101223
711.0, 0.05996330340391186
712.0, 0.061438218258718334
713.0, 0.06473598003897203
714.0, 0.06338800917606018
715.0, 0.05696170368183022
716.0, 0.05543152800289582
717.0, 0.051233019796997015
718.0, 0.046465689013658176
719.0, 0.04063372532369119
720.0, 0.03571147560710192
721.0, 0.03306147941855889
722.0, 0.029197267975889365
723.0, 0.026870941220997743
724.0, 0.025231654114448197
725.0, 0.022887291714571423
726.0, 0.021121225090323104
727.0, 0.018320686907746263
728.0, 0.01855754482125109
729.0, 0.02143078547344771
730.0, 0.015041276691083596
731.0, 0.01797293415529424
732.0, 0.016526857707055965
733.0, 0.014805922744464796
734.0, 0.01300929278920466
735.0, 0.012536369638684302
736.0, 0.013916247696334353
737.0, 0.013251495031122976
738.0, 0.012459629153997608
739.0, 0.013698396015182206
740.0, 0.017052296033450515
741.0, 0.018132860623579876
742.0, 0.01853686417801927
743.0, 0.018330463563491224
744.0, 0.01709124969772401
745.0, 0.019270928745834758
746.0, 0.025212364485497085
747.0, 0.02468823132847008
748.0, 0.023373340880232556
749.0, 0.025367327849657697
750.0, 0.02950242899154108
751.0, 0.03218629412721921
752.0, 0.032743701435377005
753.0, 0.032323266626612154
754.0, 0.029742298023737315
755.0, 0.03344655889227265
756.0, 0.031542827859033076
757.0, 0.03232435195512618
758.0, 0.03221455910800734
759.0, 0.028629564815245194
760.0, 0.02503475497082009
761.0, 0.023356640653667972
762.0, 0.02275832387863761
763.0, 0.018919103891944254
764.0, 0.019900016817662628
765.0, 0.019605835051009435
766.0, 0.01547913057660034
767.0, 0.012666128159069114
768.0, 0.012329811755265816
769.0, 0.009555661826583907
770.0, 0.00941924521133288
771.0, 0.006716917413633096
772.0, 0.006785685701482806
773.0, 0.004975110642804878
774.0, 0.004087456964355578
775.0, 0.00578087792087129
776.0, 0.007367142368003369
777.0, 0.006292382751001488
778.0, 0.0035097033639546592
779.0, 0.0035537088066511886
780.0, 0.0005624667026187975
781.0, 0.0015718049188098138
782.0, 0.0054163575674599646
783.0, 0.003466029890525556
784.0, 0.0005798528054285516
785.0, 0.0019063425354030003
786.0, 0.002128834759979171
787.0, 6.820961122943131e-05
788.0, 0.0014442493014490813
789.0, 0.0007168304975893237
790.0, 0.00112257119509688
791.0, 0.0008815438017351468
792.0, 0.0024664727013787285
793.0, 0.0010181397722040424
794.0, 0.0021344043965565765
795.0, 0.00054660834505704
796.0, 0.0010759329189021644
797.0, 0.00443610888729893
798.0, 0.0013323200289934646
799.0, 0.001401158446441339
800.0, 0.001181373174180171
801.0, 0.0004758162244598343
802.0, 0.0018118421049732702
803.0, 0.002091301097765398
804.0, 0.0006160239880075827
805.0, 0.0023547085450808863
806.0, 0.0013906802266675882
807.0, 0.0019106752170266563
808.0, 0.0011838552870638377
809.0, 0.003980069490993562
810.0, 0.0032277061305993585
811.0, 0.0009323189851664386
812.0, 0.0009677074111911429
813.0, 0.0021265002304748097
814.0, 0.001914163614249749
815.0, 0.0017854335684070817
816.0, 0.0016419232538664704
817.0, 0.0032650462073471553
818.0, 0.004246289465217616
819.0, 0.0019705044366893558
820.0, 4.381392013475396e-05
821.0, 0.0020487572971692155
822.0, 0.002386039003782838
823.0, 9.784090023912814e-05
824.0, 0.0029700250479870196
825.0, 0.0016555320902469411
826.0, 0.00037964340385785865
827.0, 0.0007675121826993926
828.0, 0.001021947959596264
829.0, 0.0020948326657186734
830.0, 0.0028032280718075747
831.0, 0.00395933522640486
832.0, 0.0005295542969568895
833.0, 0.0014712248561635584
834.0, 0.003968287848018739
835.0, 0.004929643396039804
836.0, 0.0054259915915717515
837.0, 0.006009160415272756
838.0, 0.005829292657330205
839.0, 0.006574851008033994
840.0, 0.0034063274645603514
841.0, 0.0019849776941492474
842.0, 0.004637159910829661
843.0, 0.00717515524848848
844.0, 0.007133370640149154
845.0, 0.005729574342876613
846.0, 0.004715772432931135
847.0, 0.004986423088104364
848.0, 0.0069750532390982535
849.0, 0.008493992741307589
850.0, 0.006858248492491513
851.0, 0.005286402507285613
852.0, 0.0047594375041084235
853.0, 0.004996552840664923
854.0, 0.006055178444155372
855.0, 0.007128393703473605
856.0, 0.007487773617032975
857.0, 0.007226218890236693
858.0, 0.0050572096166208
859.0, 0.007535945713472974
860.0, 0.005925848383536218
861.0, 0.00582560009661374
862.0, 0.005235431969919215
863.0, 0.005528948715425393
864.0, 0.005007705987339145
865.0, 0.0023970962303402816
866.0, 0.0032515720077309898
867.0, 0.0048041936632695625
868.0, 0.005788772730617155
869.0, 0.004817995927805986
870.0, 0.006844012524543385
871.0, 0.005795430499157258
872.0, 0.004920128784867042
873.0, 0.0053899126885509855
874.0, 0.005163971800870543
875.0, 0.004653749979847107
876.0, 0.005551076426470635
877.0, 0.00672277710797471
878.0, 0.005176263856969876
879.0, 0.0037218439832962923
880.0, 0.0042645376344569545
881.0, 0.0033710895126426816
882.0, 0.002000060822363477
883.0, 0.002724531759036908
884.0, 0.0043719423612786044
885.0, 0.004795437341526688
886.0, 0.004425216566200918
887.0, 0.0032590425967811646
888.0, 0.004968808901121305
889.0, 0.003533165565810314
890.0, 0.005909486301156625
891.0, 0.00275582689321165
892.0, 0.00019347649055754558
893.0, 0.0030426599520134295
894.0, 0.005022889901422737
895.0, 0.0030049362678917324
896.0, 0.004019720970590179
897.0, 0.004273726510209235
898.0, 0.004284679686533151
899.0, 0.0008385184013160794
900.0, 0.0011146558255642485
901.0, 0.0002030532931536226
902.0, 0.0009134047906854011
903.0, 0.0001283231232236811
904.0, 0.0006253272445132841
905.0, 0.0010801236457697884
906.0, 0.0033415182321976894
907.0, 0.003602663155988093
908.0, 0.0027657656112881884
909.0, 0.0019307164703864167
910.0, 0.0030110907206707654
911.0, 0.0014253578563121138
912.0, 0.0014107501396830192
913.0, 0.0019056118471320813
914.0, 0.0003157566386021492
915.0, 0.00038323484907124185
916.0, 0.001627835913954809
917.0, 0.0016681494148512684
918.0, 0.004502721272657595
919.0, 0.0018217220464293196
920.0, 0.001643692482376205
921.0, 0.005062762287718508
922.0, 0.00335396696308202
923.0, 0.003134765555543519
924.0, 0.0022966695347672677
925.0, 0.0007869433724745055
926.0, 0.002829008227068758
927.0, 0.004546807147849341
928.0, 0.00429567206519566
929.0, 0.004086748024988646
930.0, 0.005306249222270006
931.0, 0.0078033855480621125
932.0, 0.007535627838509714
933.0, 0.009815790708612054
934.0, 0.009595164991416993
935.0, 0.008632624909038425
936.0, 0.010309593904171624
937.0, 0.010554267466219744
938.0, 0.009730741579089626
939.0, 0.010523987491020322
940.0, 0.009598813271057311
941.0, 0.007281217468109517
942.0, 0.012120390372366409
943.0, 0.010212665633031985
944.0, 0.0033495282696340938
945.0, 0.003031543952742136
946.0, 0.004626836634468361
947.0, 0.003909880969346583
948.0, 0.0020841415890219274
949.0, 0.0021454696476888337
950.0, 0.0009168185182308732
951.0, 0.001280910309888082
952.0, 0.00010240366292539508
953.0, 0.0016307314487610724
954.0, 0.0020510991179484173
955.0, 0.000611125798329754
956.0, 0.0012474996112218043
957.0, 0.001189423681795055
958.0, 0.0008428232914516016
959.0, 0.00086583049929833
960.0, 0.0002184390427482084
961.0, 0.0006938116559758504
962.0, 0.001173108678209635
963.0, 0.0017612129275289068
964.0, 0.005254510037301734
965.0, 0.002696401401287363
966.0, 0.0046532431411021105
967.0, 0.0068187774400346604
968.0, 0.009334417041615195
969.0, 0.010077881052399968
970.0, 0.010981872982964568
971.0, 0.013714653089333539
972.0, 0.013991895197187371
973.0, 0.012062741819532928
974.0, 0.01369945157983738
975.0, 0.013904118159852286
976.0, 0.01611236010887537
977.0, 0.01337447954238519
978.0, 0.012861047808891237
979.0, 0.010048835027960043
980.0, 0.009907764823396982
981.0, 0.00900193334908595
982.0, 0.0060005138334818225
983.0, 0.007899409118631556
984.0, 0.010255751645441024
985.0, 0.0050026689767821006
986.0, 0.006522369788001441
987.0, 0.006323408599774681
988.0, 0.005589374541088828
989.0, 0.009021029301644388
990.0, 0.01142307952574274
991.0, 0.010745697776067799
992.0, 0.011365845528316851
993.0, 0.012334240765638438
994.0, 0.013218646240119133
995.0, 0.013540113604406098
996.0, 0.01262352165700303
997.0, 0.012685733251160888
998.0, 0.013268128044158002
999.0, 0.012433934673959675
1000.0, 0.011902553228881093
1001.0, 0.009322694930810135
1002.0, 0.007224101523808445
1003.0, 0.007708506508626622
1004.0, 0.006844975405452829
1005.0, 0.005728726003013336
1006.0, 0.006757318288249016
1007.0, 0.006629111262839363
1008.0, 0.00611239693013935
1009.0, 0.006186921917573588
1010.0, 0.0033928072953777477
1011.0, 0.001302004107189047
1012.0, 0.002120953430715476
1013.0, 0.0053982753085436656
1014.0, 0.0033973917679317725
1015.0, 0.0023188686242618306
1016.0, 0.004171663846553598
1017.0, 0.00504685368662681
1018.0, 0.007195529767688888
1019.0, 0.0049996407691161
1020.0, 0.0015104727665440987
1021.0, 0.0031869729844161993
1022.0, 0.006922567111126268
1023.0, 0.009197508868170933
1024.0, 0.01136824934567117
1025.0, 0.013436959719954825
1026.0, 0.015205608614003401
1027.0, 0.018493110500265534
1028.0, 0.015487735930352306
1029.0, 0.02008881601698749
1030.0, 0.02495683237874052
1031.0, 0.023527299242186474
1032.0, 0.02354540628447047
1033.0, 0.02761854664677419
1034.0, 0.030399012167890115
1035.0, 0.03288007320688665
1036.0, 0.0372685001910029
1037.0, 0.037964872819744575
1038.0, 0.036375726467380604
1039.0, 0.04651415347248426
1040.0, 0.049532504376008236
1041.0, 0.055999650591271884
1042.0, 0.055797539443273265
1043.0, 0.061409949649832096
1044.0, 0.06536044320243498
1045.0, 0.06251905990538736
1046.0, 0.05853332689028866
1047.0, 0.05365647995720987
1048.0, 0.04888846141206985
1049.0, 0.04277897240267799
1050.0, 0.033931498534314236
1051.0, 0.02850337741573999
1052.0, 0.026036638105086832
1053.0, 0.018552320105601715
1054.0, 0.01832837607922646
1055.0, 0.016824283788372783
1056.0, 0.010386585591813524
1057.0, 0.005932929799743616
1058.0, 0.007934824277774677
1059.0, 0.008152506296086489
1060.0, 0.006426029010460664
1061.0, 0.0017547828064136061
1062.0, 0.003476648549522642
1063.0, 0.00481353492161389
1064.0, 0.001548478736862872
1065.0, 0.0009179399738804314
1066.0, 0.0004157316520960287
1067.0, 0.0018995396616868954
1068.0, 0.004757197296375396
1069.0, 0.005655999840911171
1070.0, 0.003810578314860234
1071.0, 0.00233707617285884
1072.0, 0.00389949971292902
1073.0, 0.007532463741355587
1074.0, 0.008422791910966544
1075.0, 0.008046033890149434
1076.0, 0.0018181487926227052
1077.0, 0.0027743152707583258
1078.0, 0.005440658732911073
1079.0, 0.006783078314727179
1080.0, 0.008705605246262186
1081.0, 0.007457598513641847
1082.0, 0.006978818241448976
1083.0, 0.0075957398368029505
1084.0, 0.007370775714793613
1085.0, 0.008827915495244412
1086.0, 0.0032987626340177786
1087.0, 0.002855572776747579
1088.0, 0.00464624348537003
1089.0, 0.006676666512308607
1090.0, 0.008027019564970808
1091.0, 0.004944050875908606
1092.0, 0.0077067964210417875
1093.0, 0.009468497452604772
1094.0, 0.008740058588813509
1095.0, 0.006138108985347747
1096.0, 0.005653111292327486
1097.0, 0.007413818929932703
1098.0, 0.0065660232713722864
1099.0, 0.009021285954493388
1100.0, 0.006118353654242157
1101.0, 0.004209783721343926
1102.0, 0.006900778755625747
1103.0, 0.005692616516173601
1104.0, 0.005690954707292248
1105.0, 0.009411515235261033
1106.0, 0.006841643255479373
1107.0, 0.005764940551888055
1108.0, 0.006862580306925324
1109.0, 0.00644277083224987
1110.0, 0.0051974305685904545
1111.0, 0.0047854241843861
1112.0, 0.0035527795715697814
1113.0, 0.005467482770511695
1114.0, 0.007708460119329712
1115.0, 0.004662279811667894
1116.0, 0.004797809313044261
1117.0, 0.00632696750506354
1118.0, 0.0018639816995046747
1119.0, 0.0022197720618694146
1120.0, 0.0035805522107643702
1121.0, 0.0008939446076872721
1122.0, 0.0009418581106974525
1123.0, 0.0007684094571969677
1124.0, 0.000400805798503468
1125.0, 0.001369441977678396
1126.0, 0.000424286205129057
1127.0, 0.0010938304457923684
1128.0, 0.0012082969067863704
1129.0, 0.002895780149566352
1130.0, 0.003746577803035341
1131.0, 0.0029955981278204824
1132.0, 0.0012443949459371405
1133.0, 0.0008167732807122146
1134.0, 0.0009652657946932291
1135.0, 0.0006000280604909704
1136.0, 0.0005714391232090234
1137.0, 0.0008420085549901788
1138.0, 0.003266251308424464
1139.0, 0.0016075619940342913
1140.0, 0.0029529921304463184
1141.0, 0.003646443460891
1142.0, 0.004389223361447395
1143.0, 0.0035701523104928615
1144.0, 0.0025184177875947674
1145.0, 0.0007826437971996639
1146.0, 0.0007441504731275773
1147.0, 0.002216357058892042
1148.0, 0.0010160281195620354
1149.0, 0.0015331996454254957
1150.0, 0.0017398239802893178
1151.0, 0.0024801172419862162
1152.0, 0.000413641047692733
1153.0, 0.0006722615435249483
1154.0, 0.001967347624619179
1155.0, 0.0023840338802643504
1156.0, 0.001860782321023127
1157.0, 0.002404848345099013
1158.0, 0.0031265915181322144
1159.0, 0.002524235683229839
1160.0, 0.001201244690535556
1161.0, 0.002937290886486094
1162.0, 0.0007307339378367594
1163.0, 0.0003819282350962136
1164.0, 0.0005118033716577678
1165.0, 0.00011070237798093198
1166.0, 0.0014950910791489292
1167.0, 0.0019269046705247851
1168.0, 0.0013990385671743821
1169.0, 0.001407322530284878
1170.0, 0.0002722107789875242
1171.0, 0.0027350296685829615
1172.0, 0.0018744960573570419
1173.0, 0.0012232528235487572
1174.0, 0.0025773506247575924
1175.0, 0.0025617627438749508
1176.0, 0.002955846908761991
1177.0, 0.0033644227513443528
1178.0, 0.004705116849900148
1179.0, 0.006578730671260505
1180.0, 0.005182803049987946
1181.0, 0.003974251841037143
1182.0, 0.001911440950573293
1183.0, 0.005759921791699391
1184.0, 0.0053534053318338385
1185.0, 0.003424245296703008
1186.0, 0.002757666300950494
1187.0, 0.005997313795360902
1188.0, 0.0052161143349739045
1189.0, 0.005047569656768325
1190.0, 0.003931533656128811
1191.0, 0.004967658297755498
1192.0, 0.005518661391397129
1193.0, 0.006940770922284023
1194.0, 0.007979712264479336
1195.0, 0.007044853155426782
1196.0, 0.0027152948489407823
1197.0, 0.0025794694061420753
1198.0, 0.005611415037293846
1199.0, 0.0067330188109258025
1200.0, 0.004856189685897872
1201.0, 0.002017094588403056
1202.0, 0.0037984570825064417
1203.0, 0.0049440762063674175
1204.0, 0.0007784942434373868
1205.0, 0.0035866198306176568
1206.0, 0.005320952316930992
1207.0, 0.004102315731832587
1208.0, 0.0038802934675334997
1209.0, 0.00559373875670961
1210.0, 0.004509872517724687
1211.0, 0.0025335784544225767
1212.0, 0.0002794693731350391
1213.0, 0.004724369595009147
1214.0, 0.005934820511833668
1215.0, 7.424046579866942e-05
1216.0, 0.0021478278368593316
1217.0, 0.004346311868646166
1218.0, 0.003386305384092703
1219.0, 0.005926764013499785
1220.0, 0.009603096202910777
1221.0, 0.008492969415385297
1222.0, 0.006171032615604571
1223.0, 0.005397128507745934
1224.0, 0.007155545052028423
1225.0, 0.007886142898754955
1226.0, 0.00411748699956354
1227.0, 0.0018195376585115196
1228.0, 0.0016356377381661071
1229.0, 0.0024942494682512837
1230.0, 0.005321729906549583
1231.0, 0.007192895253743075
1232.0, 0.004455037007993972
1233.0, 0.00230828654285565
1234.0, 0.0032611609435617777
1235.0, 0.0014991947620665825
1236.0, 0.0007050780683372251
1237.0, 0.002826979057006673
1238.0, 0.002233882974897363
1239.0, 0.002938125047969545
1240.0, 0.002930623681174697
1241.0, 0.001023051908749336
1242.0, 3.442162345599679e-05
1243, 0.0
1244, 0.0
1245, 0.0
1246, 0.0
1247, 0.0
1248, 0.0
1249, 0.0
1250, 0.0
1251, 0.0
1252, 0.0
1253, 0.0
1254, 0.0
1255, 0.0
1256, 0.0
1257, 0.0
1258, 0.0
1259, 0.0
1260, 0.0
1261, 0.0
1262, 0.0
1263, 0.0
1264, 0.0
1265, 0.0
1266, 0.0
1267, 0.0
1268, 0.0
1269, 0.0
1270, 0.0
1271, 0.0
1272, 0.0
1273, 0.0
1274, 0.0
1275, 0.0
1276, 0.0
1277, 0.0
1278, 0.0
1279, 0.0
1280, 0.0
1281, 0.0
1282, 0.0
1283, 0.0
1284, 0.0
1285, 0.0
1286, 0.0
1287, 0.0
1288, 0.0
1289, 0.0
1290, 0.0
1291, 0.0
1292, 0.0
1293, 0.0
1294, 0.0
1295, 0.0
1296, 0.0
1297, 0.0
1298, 0.0
1299, 0.0
1300, 0.0
1301, 0.0
1302, 0.0
1303, 0.0
1304, 0.0
1305, 0.0
1306, 0.0
1307, 0.0
1308, 0.0
1309, 0.0
1310, 0.0
1311, 0.0
1312, 0.0
1313, 0.0
1314, 0.0
1315, 0.0
1316, 0.0
1317, 0.0
1318, 0.0
1319, 0.0
1320, 0.0
1321, 0.0
1322, 0.0
1323, 0.0
1324, 0.0
1325, 0.0
1326, 0.0
1327, 0.0
1328, 0.0
1329, 0.0
1330, 0.0
1331, 0.0
1332, 0.0
1333, 0.0
1334, 0.0
1335, 0.0
1336, 0.0
1337, 0.0
1338, 0.0
1339, 0.0
1340, 0.0
1341, 0.0
1342, 0.0
1343, 0.0
1344, 0.0
1345, 0.0
1346, 0.0
1347, 0.0
1348, 0.0
1349, 0.0
1350, 0.0
1351, 0.0
1352, 0.0
1353, 0.0
1354, 0.0
1355, 0.0
1356, 0.0
1357, 0.0
1358, 0.0
1359, 0.0
1360, 0.0
1361, 0.0
1362, 0.0
1363, 0.0
1364, 0.0
1365, 0.0
1366, 0.0
1367, 0.0
1368, 0.0
1369, 0.0
1370, 0.0
1371, 0.0
1372, 0.0
1373, 0.0
1374, 0.0
1375, 0.0
1376, 0.0
1377, 0.0
1378, 0.0
1379, 0.0
1380, 0.0
1381, 0.0
1382, 0.0
1383, 0.0
1384, 0.0
1385, 0.0
1386, 0.0
1387, 0.0
1388, 0.0
1389, 0.0
1390, 0.0
1391, 0.0
1392, 0.0
1393, 0.0
1394, 0.0
1395, 0.0
1396, 0.0
1397, 0.0
1398, 0.0
1399, 0.0
1400, 0.0
1401, 0.0
1402, 0.0
1403, 0.0
1404, 0.0
1405, 0.0
1406, 0.0
1407, 0.0
1408, 0.0
1409, 0.0
1410, 0.0
1411, 0.0
1412, 0.0
1413, 0.0
1414, 0.0
1415, 0.0
1416, 0.0
1417, 0.0
1418, 0.0
1419, 0.0
1420, 0.0
1421, 0.0
1422, 0.0
1423, 0.0
1424, 0.0
1425, 0.0
1426, 0.0
1427, 0.0
1428, 0.0
1429, 0.0
1430, 0.0
1431, 0.0
1432, 0.0
1433, 0.0
1434, 0.0
1435, 0.0
1436, 0.0
1437, 0.0
1438, 0.0
1439, 0.0
1440, 0.0
1441, 0.0
1442, 0.0
1443, 0.0
1444, 0.0
1445, 0.0
1446, 0.0
1447, 0.0
1448, 0.0
1449, 0.0
1450, 0.0
1451, 0.0
1452, 0.0
1453, 0.0
1454, 0.0
1455, 0.0
1456, 0.0
1457, 0.0
1458, 0.0
1459, 0.0
1460, 0.0
1461, 0.0
1462, 0.0
1463, 0.0
1464, 0.0
1465, 0.0
1466, 0.0
1467, 0.0
1468, 0.0
1469, 0.0
1470, 0.0
1471, 0.0
1472, 0.0
1473, 0.0
1474, 0.0
1475, 0.0
1476, 0.0
1477, 0.0
1478, 0.0
1479, 0.0
1480, 0.0
1481, 0.0
1482, 0.0
1483, 0.0
1484, 0.0
1485, 0.0
1486, 0.0
1487, 0.0
1488, 0.0
1489, 0.0
1490, 0.0
1491, 0.0
1492, 0.0
1493, 0.0
1494, 0.0
1495, 0.0
1496, 0.0
1497, 0.0
1498, 0.0
1499, 0.0
1500, 0.0
1501, 0.0
1502, 0.0
1503, 0.0
1504, 0.0
1505, 0.0
1506, 0.0
1507, 0.0
1508, 0.0
1509, 0.0
1510, 0.0
1511, 0.0
1512, 0.0
1513, 0.0
1514, 0.0
1515, 0.0
1516, 0.0
1517, 0.0
1518, 0.0
1519, 0.0
1520, 0.0
1521, 0.0
1522, 0.0
1523, 0.0
1524, 0.0
1525, 0.0
1526, 0.0
1527, 0.0
1528, 0.0
1529, 0.0
1530, 0.0
1531, 0.0
1532, 0.0
1533, 0.0
1534, 0.0
1535, 0.0
1536, 0.0
1537, 0.0
1538, 0.0
1539, 0.0
1540, 0.0
1541, 0.0
1542, 0.0
1543, 0.0
1544, 0.0
1545, 0.0
1546, 0.0
1547, 0.0
1548, 0.0
1549, 0.0
1550, 0.0
1551, 0.0
1552, 0.0
1553, 0.0
1554, 0.0
1555, 0.0
1556, 0.0
1557, 0.0
1558, 0.0
1559, 0.0
1560, 0.0
1561, 0.0
1562, 0.0
1563, 0.0
1564, 0.0
1565, 0.0
1566, 0.0
1567, 0.0
1568, 0.0
1569, 0.0
1570, 0.0
1571, 0.0
1572, 0.0
1573, 0.0
1574, 0.0
1575, 0.0
1576, 0.0
1577, 0.0
1578, 0.0
1579, 0.0
1580, 0.0
1581, 0.0
1582, 0.0
1583, 0.0
1584, 0.0
1585, 0.0
1586, 0.0
1587, 0.0
1588, 0.0
1589, 0.0
1590, 0.0
1591, 0.0
1592, 0.0
1593, 0.0
1594, 0.0
1595, 0.0
1596, 0.0
1597, 0.0
1598, 0.0
1599, 0.0
