30, 0.0
31, 0.0
32, 0.0
33, 0.0
34, 0.0
35, 0.0
36, 0.0
37, 0.0
38, 0.0
39, 0.0
40, 0.0
41, 0.0
42, 0.0
43, 0.0
44, 0.0
45, 0.0
46, 0.0
47, 0.0
48, 0.0
49, 0.0
50, 0.0
51, 0.0
52, 0.0
53, 0.0
54, 0.0
55, 0.0
56, 0.0
57, 0.0
58, 0.0
59, 0.0
60, 0.0
61, 0.0
62, 0.0
63, 0.0
64, 0.0
65, 0.0
66, 0.0
67, 0.0
68, 0.0
69, 0.0
70, 0.0
71, 0.0
72, 0.0
73, 0.0
74, 0.0
75, 0.0
76, 0.0
77, 0.0
78, 0.0
79, 0.0
80, 0.0
81, 0.0
82, 0.0
83, 0.0
84, 0.0
85, 0.0
86, 0.0
87, 0.0
88, 0.0
89, 0.0
90, 0.0
91, 0.0
92, 0.0
93, 0.0
94, 0.0
95, 0.0
96, 0.0
97, 0.0
98, 0.0
99, 0.0
100, 0.0
101, 0.0
102, 0.0
103, 0.0
104.0, 0.00011710709511696116
105.0, 0.0002527392517129876
106.0, 0.00018030833061389616
107.0, 0.0006350385515994296
108.0, 0.0006114105354499446
109.0, 0.0003774788214774364
110.0, 3.446460868782435e-05
111.0, 0.0012138489455967058
112.0, 0.003202188067326354
113.0, 0.0048949386990318556
114.0, 0.007026365915131654
115.0, 0.010742012197869369
116.0, 0.015211873290178372
117.0, 0.01732746034287991
118.0, 0.014927836783738511
119.0, 0.010217516844702054
120.0, 0.0060044837187102655
121.0, 0.0038846343933354255
122.0, 0.004159174574681511
123.0, 0.00544672165497111
124.0, 0.008922687476297278
125.0, 0.014943252101546727
126.0, 0.022674434830434607
127.0, 0.032680844180446186
128.0, 0.043534106413799976
129.0, 0.05408091442545686
130.0, 0.06381587257223272
131.0, 0.07423857323251964
132.0, 0.08274355768220211
133.0, 0.08435862110186142
134.0, 0.07632921612038095
135.0, 0.06599579294707246
136.0, 0.05543680403544053
137.0, 0.04710602900096943
138.0, 0.04228970936003803
139.0, 0.039307359089556494
140.0, 0.03964603343279632
141.0, 0.04237573816801071
142.0, 0.046731004798012
143.0, 0.05252156143060766
144.0, 0.06043391260798264
145.0, 0.06899846462120836
146.0, 0.07730150559335866
147.0, 0.08501368096648701
148.0, 0.09185124220480438
149.0, 0.09631421979663796
150.0, 0.09798496204510583
151.0, 0.09721147574507875
152.0, 0.09495347730750683
153.0, 0.09198415520418504
154.0, 0.08755937626471991
155.0, 0.0826383442250391
156.0, 0.0788633414866737
157.0, 0.07606935165545343
158.0, 0.07261170994638952
159.0, 0.06963561237198618
160.0, 0.06856960946008786
161.0, 0.06920248555378383
162.0, 0.06947846943800379
163.0, 0.06974569416289796
164.0, 0.07033374461448755
165.0, 0.07116089651579276
166.0, 0.07213634768674215
167.0, 0.07288482889884536
168.0, 0.07303239915187955
169.0, 0.07275443333032956
170.0, 0.07274593044887705
171.0, 0.07240363482951732
172.0, 0.07130053828394385
173.0, 0.07016129004813734
174.0, 0.069961722529806
175.0, 0.06900680676090266
176.0, 0.06781605979484846
177.0, 0.06737137639198741
178.0, 0.06826989863193353
179.0, 0.06994819748399363
180.0, 0.07075838658884105
181.0, 0.07187166654810798
182.0, 0.07284662293409104
183.0, 0.07132698964871018
184.0, 0.06812991451483522
185.0, 0.06386997833067151
186.0, 0.059853503636710305
187.0, 0.05684190907398755
188.0, 0.05429858816002766
189.0, 0.052817631458103816
190.0, 0.050919288082793134
191.0, 0.04926949279038654
192.0, 0.04885609589219255
193.0, 0.04681021801777951
194.0, 0.04619970973380928
195.0, 0.04591594552285025
196.0, 0.04504763022082951
197.0, 0.04464512077867688
198.0, 0.04436829764452417
199.0, 0.04390352036025436
200.0, 0.043397873671949055
201.0, 0.04308546619840289
202.0, 0.04233975022928819
203.0, 0.04157344151131504
204.0, 0.041082583174413434
205.0, 0.040938004858874666
206.0, 0.04083896856850287
207.0, 0.04012075946308115
208.0, 0.03891198249620397
209.0, 0.037622657253704714
210.0, 0.03676693166023626
211.0, 0.03630454141009925
212.0, 0.03501844315184723
213.0, 0.03487902414887144
214.0, 0.03544247120897126
215.0, 0.03426629863632869
216.0, 0.03387124463636109
217.0, 0.03430490431792091
218.0, 0.03466173803926581
219.0, 0.03458489008568415
220.0, 0.034535039408732274
221.0, 0.03556394254616711
222.0, 0.036441810652373924
223.0, 0.03731221034802042
224.0, 0.03904440471732026
225.0, 0.04157295614664049
226.0, 0.043801799212201696
227.0, 0.046696209438667806
228.0, 0.05101734358423497
229.0, 0.05679088461767372
230.0, 0.06328585426679567
231.0, 0.07187075148274302
232.0, 0.08264265946201145
233.0, 0.09543007560279756
234.0, 0.11107124316085913
235.0, 0.12996491042632002
236.0, 0.1510867074159021
237.0, 0.16684698691525793
238.0, 0.16377343406106812
239.0, 0.13829848863780123
240.0, 0.10671864882416224
241.0, 0.08099314507026897
242.0, 0.06540509525013025
243.0, 0.0574206985300346
244.0, 0.05236719251693626
245.0, 0.049309107500454856
246.0, 0.04715167016754742
247.0, 0.04488233165619918
248.0, 0.04228880678535896
249.0, 0.04016619709484716
250.0, 0.03883272055412928
251.0, 0.03746675201176253
252.0, 0.035352541639717246
253.0, 0.03346565482128165
254.0, 0.03299816590062259
255.0, 0.032298899874682936
256.0, 0.031032949127775517
257.0, 0.030297096175035548
258.0, 0.029352870750949375
259.0, 0.02835235845738294
260.0, 0.02778816137271316
261.0, 0.02738190766569956
262.0, 0.02599083198520346
263.0, 0.024773216282778714
264.0, 0.02419022204314865
265.0, 0.023550327340008236
266.0, 0.022545591072895475
267.0, 0.02223385646006639
268.0, 0.021758373081450007
269.0, 0.021431745521816665
270.0, 0.020872536090437117
271.0, 0.01956032833156696
272.0, 0.018877290419866802
273.0, 0.01878977748994298
274.0, 0.01865164914330633
275.0, 0.01821640101757513
276.0, 0.017689031613887584
277.0, 0.01688688096251358
278.0, 0.016696966742214825
279.0, 0.017110862337057976
280.0, 0.01742454430697411
281.0, 0.017258368053097183
282.0, 0.017813714906559353
283.0, 0.018461033095545726
284.0, 0.01845590529492266
285.0, 0.01806424161609089
286.0, 0.018192348479035062
287.0, 0.019325342341204612
288.0, 0.019305928481420178
289.0, 0.018678372682353707
290.0, 0.018369118907594524
291.0, 0.018439402209188396
292.0, 0.019466989682731757
293.0, 0.02104969645905312
294.0, 0.022417122671040637
295.0, 0.023823361412226008
296.0, 0.027649798908522993
297.0, 0.03295745635264189
298.0, 0.039362066039249105
299.0, 0.047646768759164355
300.0, 0.058774375840236696
301.0, 0.07231666022170828
302.0, 0.0828720518810389
303.0, 0.09209729833966
304.0, 0.10403190834525479
305.0, 0.1152763810915041
306.0, 0.10771344182183347
307.0, 0.08236855196383971
308.0, 0.05519389137819222
309.0, 0.03596324920362671
310.0, 0.026007363574965386
311.0, 0.0217332585501348
312.0, 0.018631824173905746
313.0, 0.015300356110671987
314.0, 0.01272067329974113
315.0, 0.012463556824274639
316.0, 0.011890886704160018
317.0, 0.011404320535874706
318.0, 0.010800426769692869
319.0, 0.010237615200381366
320.0, 0.01006032159281943
321.0, 0.009674364160707794
322.0, 0.00955508634494124
323.0, 0.009667515363766092
324.0, 0.009744132444083616
325.0, 0.009683238690587105
326.0, 0.009670796364383227
327.0, 0.009342237929158533
328.0, 0.00914680265538652
329.0, 0.009183407975192735
330.0, 0.009135252721408282
331.0, 0.008586094790863988
332.0, 0.008413051376398382
333.0, 0.008890949781610133
334.0, 0.00921435476058784
335.0, 0.008691519117055974
336.0, 0.00843562810575231
337.0, 0.008510463145467575
338.0, 0.008060299408575314
339.0, 0.007341822451664304
340.0, 0.007106529381487433
341.0, 0.007028549894567545
342.0, 0.007750595497874383
343.0, 0.00801220697173611
344.0, 0.007673966984378669
345.0, 0.007417743077709721
346.0, 0.007578726185970179
347.0, 0.008732942774075275
348.0, 0.009317703904336491
349.0, 0.009267407697034097
350.0, 0.009202268517632155
351.0, 0.0090044808316249
352.0, 0.008919869339270466
353.0, 0.009348550740322151
354.0, 0.010070946691761002
355.0, 0.010845932288218047
356.0, 0.012442904181652134
357.0, 0.015755731235627905
358.0, 0.020658004904274475
359.0, 0.029155781827530314
360.0, 0.04248881415881358
361.0, 0.05935759789503244
362.0, 0.08153116664084693
363.0, 0.11120691246806934
364.0, 0.15129062186590644
365.0, 0.19391831213353114
366.0, 0.2213920903552651
367.0, 0.2558007723855907
368.0, 0.2988830032710896
369.0, 0.27281802756965184
370.0, 0.16170829851297233
371.0, 0.06617640007551646
372.0, 0.02552243584387412
373.0, 0.012901697705690315
374.0, 0.009192094403030681
375.0, 0.0073867370660275255
376.0, 0.0064963176945136035
377.0, 0.0065713858610224616
378.0, 0.005491799485023182
379.0, 0.005001357994526769
380.0, 0.004888887073370209
381.0, 0.004297551219244739
382.0, 0.0040085469766766475
383.0, 0.004002445053110925
384.0, 0.004412942074694866
385.0, 0.0045059907030221835
386.0, 0.003914909287611581
387.0, 0.0033929379196318394
388.0, 0.0032691409204702333
389.0, 0.0030043095274128115
390.0, 0.003055790462456334
391.0, 0.0032983173812407367
392.0, 0.0032365528882044386
393.0, 0.003986034402400409
394.0, 0.00394461123018017
395.0, 0.0038226259251642877
396.0, 0.003858226598924113
397.0, 0.0037907160056055516
398.0, 0.0037892273896438285
399.0, 0.002899807127463011
400.0, 0.002775012331003876
401.0, 0.0032501515830763847
402.0, 0.0035210123818377997
403.0, 0.003542162872711072
404.0, 0.00313006968003136
405.0, 0.003136396033449926
406.0, 0.0032980039182384036
407.0, 0.0032272434531543186
408.0, 0.003016687619412039
409.0, 0.0032562152883149785
410.0, 0.0026995418409001878
411.0, 0.002731274929996089
412.0, 0.0032802535656822284
413.0, 0.0034085328958975755
414.0, 0.0031707075181489487
415.0, 0.003365948225891929
416.0, 0.0037298276252987934
417.0, 0.004064938522357325
418.0, 0.004252762612241249
419.0, 0.004142285144483871
420.0, 0.0038438669926648622
421.0, 0.003898396691333944
422.0, 0.004407941099969123
423.0, 0.004867664145435057
424.0, 0.004643361753102743
425.0, 0.0040041617329110955
426.0, 0.004820050493017938
427.0, 0.004717924820536567
428.0, 0.004145244438841505
429.0, 0.004357271314579018
430.0, 0.00499817969218669
431.0, 0.00495199458104586
432.0, 0.005688941615140761
433.0, 0.006569142493699782
434.0, 0.007741328442343482
435.0, 0.010576005924786382
436.0, 0.014042484228201948
437.0, 0.019419498644080838
438.0, 0.026595851212439327
439.0, 0.036531962312885524
440.0, 0.04999968132136753
441.0, 0.06647515051670219
442.0, 0.08744868144537651
443.0, 0.1126350960203278
444.0, 0.14134061480795512
445.0, 0.17238186063655264
446.0, 0.20371064859268426
447.0, 0.22389666196590702
448.0, 0.2350002321836093
449.0, 0.23391096016847718
450.0, 0.21208646010424786
451.0, 0.16746749692735874
452.0, 0.11631645545403957
453.0, 0.07605166077158394
454.0, 0.05210923790215885
455.0, 0.03936502876760033
456.0, 0.032660127827145245
457.0, 0.029688237823919498
458.0, 0.028937013012647374
459.0, 0.03003865685779065
460.0, 0.03088145201326953
461.0, 0.03217739621754872
462.0, 0.03442880288248888
463.0, 0.036051556244055115
464.0, 0.03838024424484631
465.0, 0.04014178374459506
466.0, 0.04163868674051478
467.0, 0.04429598092756674
468.0, 0.04866994807591252
469.0, 0.05372746656896048
470.0, 0.06052373173321528
471.0, 0.06962136701838206
472.0, 0.08305706001549192
473.0, 0.10378805340020261
474.0, 0.13494203117385922
475.0, 0.1800478700526219
476.0, 0.2366181161424594
477.0, 0.30047468929389015
478.0, 0.37840371525558314
479.0, 0.479623413495695
480.0, 0.6072858996986098
481.0, 0.7656521900104454
482.0, 0.9328375725384987
483.0, 0.9988551981252968
484.0, 0.9027054958280263
485.0, 0.6887263155480841
486.0, 0.4953564197237106
487.0, 0.32325625571085914
488.0, 0.18911193564084278
489.0, 0.10369838940716092
490.0, 0.0605601805841199
491.0, 0.039092320439961366
492.0, 0.02840717198207233
493.0, 0.022326351962509188
494.0, 0.017781910875198696
495.0, 0.01403883821595364
496.0, 0.011137418606365053
497.0, 0.009099957692303763
498.0, 0.008030324806926581
499.0, 0.006597802481855002
500.0, 0.0057642008136473254
501.0, 0.005543321102789125
502.0, 0.005024798999432822
503.0, 0.0035954106983857427
504.0, 0.003840416600356617
505.0, 0.0036106229257812424
506.0, 0.003417833281364933
507.0, 0.0035634467237300755
508.0, 0.003712852466464597
509.0, 0.0034695740687130036
510.0, 0.0027662445377210298
511.0, 0.0020951192397266447
512.0, 0.002815069299028944
513.0, 0.003390850819211227
514.0, 0.0029289275131404394
515.0, 0.003289117147182431
516.0, 0.0031520118881950953
517.0, 0.001802209779004503
518.0, 0.0011531720076967532
519.0, 0.001430796238362615
520.0, 0.001660419388878032
521.0, 0.0014080793616759078
522.0, 0.0014223568156537052
523.0, 0.0018512528210962284
524.0, 0.0015285310452159127
525.0, 0.0010107181625073286
526.0, 0.0009894881645856625
527.0, 0.0009886116478568813
528.0, 0.0009015458546614643
529.0, 0.0004463701437253428
530.0, 7.785137876414185e-05
531.0, 0.00013538688866366485
532.0, 0.0007052487697326356
533.0, 0.001204683845837461
534.0, 0.0005550532489039784
535.0, 5.833765037011803e-05
536.0, 0.0005337387343433829
537.0, 0.0011436659866214784
538.0, 0.0012469042325815658
539.0, 0.0012963346695346815
540.0, 0.0015900730154764734
541.0, 0.0008196845854740993
542.0, 0.0009716922409163937
543.0, 0.0012250919505701076
544.0, 0.0009126651254608303
545.0, 0.0007664751761948933
546.0, 0.0007938124304721375
547.0, 0.0003455886978809501
548.0, 0.0004982007805020756
549.0, 0.0005058892766270532
550.0, 0.0001370404171109572
551.0, 0.00018349572293663104
552.0, 0.00024931390384395067
553.0, 0.0012127183429622712
554.0, 0.00019902008013702614
555.0, 6.918123209510857e-05
556.0, 0.0007591718397198365
557.0, 0.00028773615606830164
558.0, 0.0007521260931536512
559.0, 0.0010266914840517001
560.0, 0.0006719724843791123
561.0, 0.0006587666383581252
562.0, 0.0010000174753098804
563.0, 0.0011240946075373656
564.0, 0.001543117437404646
565.0, 0.0016986823907956675
566.0, 0.0012294608199875565
567.0, 0.0021762371138626725
568.0, 0.0025660120154956815
569.0, 0.0010484783545116239
570.0, 0.0005863293248703717
571.0, 0.0005290665640516424
572.0, 0.0009491794242405757
573.0, 0.0015681066481588117
574.0, 0.0015575402503053145
575.0, 0.001001876477765403
576.0, 0.00124356820894222
577.0, 0.00214746541992044
578.0, 0.001610450465115569
579.0, 0.001878136061039092
580.0, 0.002623865917188233
581.0, 0.003001006631710298
582.0, 0.00305831485038853
583.0, 0.0030375587044180496
584.0, 0.0035888809396357416
585.0, 0.0035954236263610923
586.0, 0.0042609423644034165
587.0, 0.005599447665375035
588.0, 0.006931506855595323
589.0, 0.008434904947131118
590.0, 0.008021181698359366
591.0, 0.007988915895879179
592.0, 0.008201445750657699
593.0, 0.008767695353414024
594.0, 0.009572947264475036
595.0, 0.010325611646202378
596.0, 0.012532778577492435
597.0, 0.0142241698325899
598.0, 0.015416438340542975
599.0, 0.016732915261653453
600.0, 0.017632409344246824
601.0, 0.018026072819265684
602.0, 0.019168814294049888
603.0, 0.020362993031560864
604.0, 0.020446553242640216
605.0, 0.020834465869423967
606.0, 0.021321843268162558
607.0, 0.021574833201397563
608.0, 0.021649461837906395
609.0, 0.020825528032865342
610.0, 0.020045521225670673
611.0, 0.0188763194829139
612.0, 0.017443214525376408
613.0, 0.015702463654390864
614.0, 0.013779379689452
615.0, 0.011888234336799723
616.0, 0.00900286613302396
617.0, 0.006930045307582014
618.0, 0.005332313759507639
619.0, 0.0037376220632374894
620.0, 0.002177746697384495
621.0, 0.001251401430806941
622.0, 0.001701450755117358
623.0, 0.0011590285825302602
624.0, 0.001063909832289084
625.0, 0.0017897689459248959
626.0, 0.00200201656684149
627.0, 0.0014405942700811455
628.0, 0.0017145986626301664
629.0, 0.0014865301944971007
630.0, 0.0012635726752005625
631.0, 0.0017845210767307483
632.0, 0.0014300372046098817
633.0, 0.0008526593622712262
634.0, 0.001291810241761206
635.0, 0.0017863217820974226
636.0, 0.0016261191451439035
637.0, 0.0018637239945179917
638.0, 0.002440529531547778
639.0, 0.0028431391251094477
640.0, 0.002910715782924829
641.0, 0.003161182145510556
642.0, 0.004019186498390717
643.0, 0.004621496749191791
644.0, 0.00622975927676639
645.0, 0.007051681072464339
646.0, 0.0072238560905856595
647.0, 0.00720065631361967
648.0, 0.007223528306187011
649.0, 0.008441843714701167
650.0, 0.010790396115217891
651.0, 0.013858546772507382
652.0, 0.018264780531332077
653.0, 0.023836930049555134
654.0, 0.03216704672688155
655.0, 0.046180124699551066
656.0, 0.06574668871882858
657.0, 0.0791441713525278
658.0, 0.0653939418817968
659.0, 0.039796424073876624
660.0, 0.022778697376042024
661.0, 0.01730768680258115
662.0, 0.016207833562823914
663.0, 0.014275379441750856
664.0, 0.011005282537903166
665.0, 0.007778927667002587
666.0, 0.0053741658981100345
667.0, 0.003987777982276001
668.0, 0.0031557470630734076
669.0, 0.0024552299589178594
670.0, 0.0025657739387496678
671.0, 0.0026032717332542476
672.0, 0.002563866456386587
673.0, 0.0028515772842961245
674.0, 0.0031009679187184317
675.0, 0.0031792865629916437
676.0, 0.0034846083344478316
677.0, 0.003941983023981332
678.0, 0.0036514615515160025
679.0, 0.003901276454804716
680.0, 0.0039838785817108095
681.0, 0.0029355354457413847
682.0, 0.00191267092519298
683.0, 0.002216754843009322
684.0, 0.0026181021409777583
685.0, 0.0011036980196266117
686.0, 0.0009004235789279688
687.0, 0.0006343547829031592
688.0, 0.0006055885025505672
689.0, 0.0009521396881963808
690.0, 0.0008753179867857721
691.0, 0.0003822634247548373
692.0, 0.0011028989899501509
693.0, 0.001241599843895215
694.0, 0.0012527557273966183
695.0, 0.0014593816886599887
696.0, 0.0013408354674869566
697.0, 0.0008854334361823135
698.0, 0.000825747025015704
699.0, 0.0006505848459579831
700.0, 0.0006588374190231562
701.0, 0.001244427676903484
702.0, 0.0010450438358600316
703.0, 0.00034832106587127595
704.0, 0.00016298694443985223
705.0, 0.0006359946561764632
706.0, 0.0008375311509068463
707.0, 0.0009866230828483892
708.0, 0.0007288287503737135
709.0, 0.0009617095815499038
710.0, 0.001073605329003103
711.0, 0.0007010531569322366
712.0, 0.0006009403702129609
713.0, 0.0012980859253956336
714.0, 0.0010478439545211896
715.0, 0.00014329921533410604
716.0, 0.0005341881430865707
717.0, 0.0007270036434535601
718.0, 0.0008902483394019661
719.0, 0.0009175063927668359
720.0, 0.000238503046056554
721.0, 0.00032047966095530034
722.0, 0.001234517696998428
723.0, 0.0009095024824822199
724.0, 0.0002161333663078412
725.0, 0.00033096917775535955
726.0, 0.0005576315719879668
727.0, 0.00020471014104205443
728.0, 0.00017718157857554836
729.0, 0.00107493771846269
730.0, 0.000782352143922956
731.0, 0.0007159879580566861
732.0, 0.00024257681268927963
733.0, 0.00015334469482429375
734.0, 0.0007718591931293973
735.0, 0.0013772225233217334
736.0, 0.0006363301371368098
737.0, 0.0002859239100412322
738.0, 0.00033440377720676427
739.0, 0.000278003909141951
740.0, 0.00037947671886811863
741.0, 0.00020775272548685225
742.0, 0.0003650217880287116
743.0, 5.90197626695704e-05
744.0, 0.0009629114792582746
745.0, 0.0008271710104687561
746.0, 0.0004784790733046289
747.0, 7.522764616669706e-05
748.0, 0.0002500212444315228
749.0, 0.001123041664344986
750.0, 0.0013646730380368636
751.0, 0.0009008373208124045
752.0, 0.0010312687327588396
753.0, 0.001460521532086687
754.0, 0.001637970032953295
755.0, 0.0016784279702138974
756.0, 0.002474957780304886
757.0, 0.0031382147085015724
758.0, 0.0030485686530258207
759.0, 0.004311082890644505
760.0, 0.005244302042515858
761.0, 0.005830698036459962
762.0, 0.0034490522006411194
763.0, 0.0020522808986046834
764.0, 0.001617825965555755
765.0, 0.0009024779616842624
766.0, 0.0004696360149652947
767.0, 0.0007996814888818515
768.0, 0.0002145672228939756
769.0, 0.00044733622708335825
770.0, 8.858676949541791e-05
771.0, 0.0007235157565037701
772.0, 0.0007030910502466739
773.0, 0.0002669166350816027
774.0, 0.00019178352473465105
775.0, 0.0007573262096388288
776.0, 0.0005931811610070965
777.0, 0.00015696437786566513
778.0, 6.232467836822564e-05
779.0, 0.0003694575379712733
780.0, 8.696269259201022e-05
781.0, 0.00021918695090724974
782.0, 0.0007175893302034234
783.0, 0.00010412264067385968
784.0, 8.986728545392906e-05
785.0, 0.00015420541392854832
786.0, 0.0004915757991336656
787.0, 0.0008764199305679727
788.0, 0.0005439728024305424
789.0, 0.00048549177273380663
790.0, 0.0008065813109262591
791.0, 0.0005181205281219716
792.0, 0.00011326724403824272
793.0, 0.00021557570082703212
794.0, 0.0006537733694785506
795.0, 0.00011535454645843245
796.0, 8.58177991749119e-05
797.0, 1.3643754587289695e-05
798.0, 0.0002067181642594119
799.0, 0.0005525289809168437
800.0, 0.0007585394193256484
801.0, 0.00031169041531335857
802.0, 0.0001254480632135961
803.0, 0.00027034036695370103
804.0, 0.0005566853249921388
805.0, 0.0007506466075745426
806.0, 0.0007663684395984061
807.0, 0.0004378872506992778
808.0, 8.617085410175657e-05
809.0, 0.00038476005919463107
810.0, 0.0005201608858317066
811.0, 0.00019672988930363088
812.0, 4.78376699899839e-05
813.0, 0.0001325961831845872
814.0, 0.0001272718010531256
815.0, 0.0004749857727651464
816.0, 0.0003693448221861784
817.0, 0.0002637192235779552
818.0, 0.0012116683085643702
819.0, 0.0008974446160811016
820.0, 0.0009128344011380791
821.0, 0.0006206335146648688
822.0, 0.0006394455389715592
823.0, 0.0007343412390632845
824.0, 0.0008133979091293569
825.0, 0.0012044471051327354
826.0, 0.0013508840999276583
827.0, 0.0018994977627096736
828.0, 0.002490060604709032
829.0, 0.0037571390640252634
830.0, 0.004677861151895673
831.0, 0.006402904769458169
832.0, 0.008903874040167974
833.0, 0.012169153536000843
834.0, 0.015723563322161044
835.0, 0.016560346951703966
836.0, 0.013154642714210935
837.0, 0.009146755225877023
838.0, 0.007685803030611408
839.0, 0.00901951884409705
840.0, 0.009374479087685662
841.0, 0.00760612711052601
842.0, 0.005090917513367449
843.0, 0.003282723122303642
844.0, 0.0030423604372627885
845.0, 0.002712351444476669
846.0, 0.003004678419109454
847.0, 0.004126735034465475
848.0, 0.0072292212811561635
849.0, 0.009218316336634452
850.0, 0.011729065216698142
851.0, 0.015136395164489226
852.0, 0.01946060843409891
853.0, 0.027595677272914343
854.0, 0.035826846337699995
855.0, 0.02605218181184084
856.0, 0.01064688928643637
857.0, 0.0029030644520524696
858.0, 0.0009257313493480373
859.0, 0.0002377215499466034
860.0, 0.00026963967068969867
861.0, 0.0003973039120778014
862.0, 0.00011294852904592137
863.0, 0.00027322528505314736
864.0, 0.0005508321841520899
865.0, 0.00010997004472486645
866.0, 0.0005652340294926632
867.0, 0.0011515672419564898
868.0, 0.000643317554745921
869.0, 0.00026197596690174016
870.0, 0.000846490455633207
871.0, 0.0011238314828390691
872.0, 0.00045086956971789266
873.0, 0.00034968702766684744
874.0, 0.0005774467646072056
875.0, 0.0005330049909424126
876.0, 0.0006841351669165583
877.0, 0.0002490960674592863
878.0, 2.4617410263029846e-05
879.0, 0.0003927596883420741
880.0, 0.0009708219457757199
881.0, 0.0012961772310348613
882.0, 0.0006361313695157969
883.0, 0.001212527089726979
884.0, 0.0010508846587385249
885.0, 0.0013114206067709655
886.0, 0.0017986436778038128
887.0, 0.0018301021282233416
888.0, 0.0022727687706100043
889.0, 0.002768868916717252
890.0, 0.002747807790473583
891.0, 0.003125508205528523
892.0, 0.0028217604958711744
893.0, 0.0025747441356465815
894.0, 0.00243625509849765
895.0, 0.002458384439104592
896.0, 0.002340760952172215
897.0, 0.0014798779702812118
898.0, 0.0012493579219032365
899.0, 0.0013744246906438294
900.0, 0.0011740662822585493
901.0, 0.0013014947627446084
902.0, 0.0006096001745017023
903.0, 0.0003885029908581294
904.0, 0.0002188176583898314
905.0, 2.97324041105082e-05
906.0, 5.248337833221063e-05
907.0, 0.0001828200746248677
908.0, 0.00019467624001921676
909.0, 0.0005263375896548884
910.0, 8.540022557108044e-05
911.0, 6.815260965635591e-05
912.0, 0.0002383810382891713
913.0, 6.037507954548525e-05
914.0, 8.241697405911813e-05
915.0, 0.0003556150699641137
916.0, 0.00043650993652536487
917.0, 0.00014219342728592755
918.0, 0.00040783794959299276
919.0, 0.0006951150146542242
920.0, 0.0006605937248744808
921.0, 0.0007683528030148958
922.0, 0.0003207404828579548
923.0, 0.0001996606209157308
924.0, 0.0005658199899754899
925.0, 0.0007837075209387227
926.0, 0.0014374983038714431
927.0, 0.0013018700649805835
928.0, 0.001256979892570736
929.0, 0.0016672276167691352
930.0, 0.002167680265641032
931.0, 0.0024779034194886
932.0, 0.0038056214359859864
933.0, 0.0065075389539565095
934.0, 0.003458594464378597
935.0, 0.0022201494465369817
936.0, 0.0015901731668855061
937.0, 0.0015533916226152908
938.0, 0.0025672236091856537
939.0, 0.0032805363651430336
940.0, 0.0033913327498923504
941.0, 0.004365634421833471
942.0, 0.0062503575492060355
943.0, 0.008235357607599537
944.0, 0.011809089707318782
945.0, 0.01577607659643652
946.0, 0.020936474216012316
947.0, 0.02674029378423681
948.0, 0.03511330273658288
949.0, 0.04582836406503779
950.0, 0.054354025176728486
951.0, 0.0511909810391678
952.0, 0.03600472004775558
953.0, 0.021395274693353842
954.0, 0.01351585163830959
955.0, 0.010019503071441267
956.0, 0.008735782969460008
957.0, 0.006463158911373997
958.0, 0.0056979640895380235
959.0, 0.0035124811705039287
960.0, 0.00361091570402304
961.0, 0.0034219305607528466
962.0, 0.003233492876838821
963.0, 0.0033321930917942447
964.0, 0.0032413520758540395
965.0, 0.003925384502838951
966.0, 0.003900733116240698
967.0, 0.003593936141597234
968.0, 0.005113145752985873
969.0, 0.00452619999689004
970.0, 0.0030736536115974415
971.0, 0.002315188379578794
972.0, 0.001685754496244711
973.0, 0.0011631427894859
974.0, 0.0009376100578994037
975.0, 0.0003667729226899183
976.0, 0.0008636891068413403
977.0, 0.00010793962539617881
978.0, 0.00016446388482381242
979.0, 0.00020277487900604725
980.0, 0.0011093961863622125
981.0, 0.00038767402483870256
982.0, 0.0014247928098090991
983.0, 0.0018077645260134718
984.0, 0.0025017660379908027
985.0, 0.00463022830374366
986.0, 0.006644000278571735
987.0, 0.008713041570019993
988.0, 0.011832257851144955
989.0, 0.015760562864415715
990.0, 0.02137356341114974
991.0, 0.028311726840853688
992.0, 0.03598065705441807
993.0, 0.03661483976526682
994.0, 0.031113879920909283
995.0, 0.026557008423699395
996.0, 0.02479474483613112
997.0, 0.021293425154346252
998.0, 0.014632877713723924
999.0, 0.008303090664055796
1000.0, 0.0046703055121303395
1001.0, 0.003169271785686398
1002.0, 0.0029765536895336986
1003.0, 0.002120422761881503
1004.0, 0.0014983240791025443
1005.0, 0.0017014051032043908
1006.0, 0.0010636082872640283
1007.0, 0.0004086315656798538
1008.0, 7.391606793699055e-05
1009.0, 7.067566564576424e-05
1010.0, 0.0002693508516403837
1011.0, 0.0006760103354802902
1012.0, 0.0005511003553276954
1013.0, 0.00028344311237126635
1014.0, 0.0007499421541176589
1015.0, 0.0013334315352036882
1016.0, 0.0013730197429225317
1017.0, 0.0029662273884223933
1018.0, 0.005307963554335186
1019.0, 0.01114295650660619
1020.0, 0.02143220244494553
1021.0, 0.038137449797771526
1022.0, 0.059540710141900946
1023.0, 0.0864221261898649
1024.0, 0.12588876730852772
1025.0, 0.18226424819068285
1026.0, 0.22597956919771744
1027.0, 0.20799266131617636
1028.0, 0.12688679957201388
1029.0, 0.054517004525985395
1030.0, 0.0218178931567657
1031.0, 0.010172642913060859
1032.0, 0.006484507119470392
1033.0, 0.005218476270556758
1034.0, 0.003856710734176212
1035.0, 0.004076532209452236
1036.0, 0.005051407721899049
1037.0, 0.005459852999686531
1038.0, 0.006177078007232297
1039.0, 0.007888587615970567
1040.0, 0.01050907811959462
1041.0, 0.013827096818116632
1042.0, 0.01634471355184088
1043.0, 0.01817969247596562
1044.0, 0.01930045631185373
1045.0, 0.017684677751828404
1046.0, 0.012439195670723446
1047.0, 0.0069534468821633106
1048.0, 0.003329989749252287
1049.0, 0.0016251280286384852
1050.0, 0.0010517435166860832
1051.0, 0.0009815006958150253
1052.0, 0.00017329514638552633
1053.0, 0.00028673792808919904
1054.0, 0.00023078956956349832
1055.0, 0.0003334410066424259
1056.0, 8.8404081043744e-05
1057.0, 7.398340933900979e-05
1058.0, 0.0005563888703573869
1059.0, 0.000621765156907231
1060.0, 0.0004800909494313495
1061.0, 7.497300545221203e-05
1062.0, 0.0001226818804877819
1063.0, 0.0004117304013714197
1064.0, 5.647012353087549e-05
1065.0, 0.00047524182747694834
1066.0, 0.0007661777519619856
1067.0, 0.0005273988148314997
1068.0, 0.00025877653540196024
1069.0, 0.0009149149971711608
1070.0, 0.0016205597318183153
1071.0, 0.0015554072151722647
1072.0, 0.0013152288651099504
1073.0, 0.0015824295116500112
1074.0, 0.0015124013949567548
1075.0, 0.0020310704946456446
1076.0, 0.003130391909817078
1077.0, 0.004759467010929715
1078.0, 0.0054446200105782196
1079.0, 0.007389778816628109
1080.0, 0.01022927924187485
1081.0, 0.013465543836229147
1082.0, 0.014781721372330423
1083.0, 0.013257875708181047
1084.0, 0.010868129283807555
1085.0, 0.009432156482114706
1086.0, 0.008774518213605108
1087.0, 0.007630628950828888
1088.0, 0.007280719709366295
1089.0, 0.005527222864682905
1090.0, 0.004957938985311865
1091.0, 0.0037243499027922794
1092.0, 0.0034610831361023033
1093.0, 0.002717614948440937
1094.0, 0.002203702072296468
1095.0, 0.0022871374880137543
1096.0, 0.0021844165630673005
1097.0, 0.00240143129409471
1098.0, 0.0023986469314035597
1099.0, 0.0023042927497045566
1100.0, 0.0022169169679001352
1101.0, 0.0018108076098113546
1102.0, 0.0014950365194784836
1103.0, 0.0008435709955996312
1104.0, 0.0015405827866373136
1105.0, 0.001683538237270367
1106.0, 0.0018139828013573574
1107.0, 0.0014250690771962285
1108.0, 0.0016448214154900173
1109.0, 0.002268356695022277
1110.0, 0.0024309434782250816
1111.0, 0.0021799695415462414
1112.0, 0.0018282325813879234
1113.0, 0.0022764587379744835
1114.0, 0.0019028766102672722
1115.0, 0.0015224403932286384
1116.0, 0.0010446336599589064
1117.0, 0.0007556788623797953
1118.0, 0.0010036807787252348
1119.0, 0.0004052685548919814
1120.0, 0.00023452963283251843
1121.0, 0.0010555822769669032
1122.0, 0.0010571611867564942
1123.0, 0.00020478050315386428
1124.0, 4.0342191481305774e-05
1125.0, 0.00022623892224003992
1126.0, 0.00017813740035310544
1127.0, 0.00028158172632029215
1128.0, 0.0008184182914594582
1129.0, 0.0003776660751204491
1130.0, 0.0008170202470227975
1131.0, 0.0014848599000818056
1132.0, 0.0013120677327371718
1133.0, 0.0008016284419696885
1134.0, 0.0013275716475765374
1135.0, 0.0017416387804925397
1136.0, 0.0015409479412156492
1137.0, 0.0013426244568759218
1138.0, 0.000588453158021784
1139.0, 0.0009650828943180521
1140.0, 0.0014946727989719522
1141.0, 0.0009598838686308795
1142.0, 0.0010320229406864411
1143.0, 0.0009403976525844258
1144.0, 0.000802075224717815
1145.0, 0.00046337753408647
1146.0, 0.001690664056483777
1147.0, 0.0015126274135386553
1148.0, 0.0018825106858982223
1149.0, 0.0022144335442351847
1150.0, 0.002884155348905566
1151.0, 0.0033716724101778848
1152.0, 0.00456092825547528
1153.0, 0.005989878904156606
1154.0, 0.0056460637628941235
1155.0, 0.0049340573788459775
1156.0, 0.004270529447966043
1157.0, 0.002562469084612831
1158.0, 0.001310901669760363
1159.0, 0.0005591795354364987
1160.0, 0.0006587257132361455
1161.0, 0.00032194492216483734
1162.0, 0.0010332376451704774
1163.0, 0.0013859945821840666
1164.0, 0.00048595968464167544
1165.0, 0.00031004097629181083
1166.0, 0.0004852756331459165
1167.0, 0.0005060171959988711
1168.0, 0.0005687162604532732
1169.0, 0.00033493653099106344
1170.0, 0.00047578585283968044
1171.0, 0.0010165322770218147
1172.0, 0.00021479766405449447
1173.0, 0.0002106489959646567
1174.0, 0.0007094078206027458
1175.0, 0.0010338170608656793
1176.0, 0.0012012813267687863
1177.0, 0.0011528364055366329
1178.0, 0.0011997422109033566
1179.0, 0.0011615150765893559
1180.0, 0.0008083831474907695
1181.0, 0.00030403002431912224
1182.0, 0.0003311891553359666
1183.0, 0.0010218947607973472
1184.0, 0.00029231251146033435
1185.0, 0.0005942122074412531
1186.0, 0.0010076113416831768
1187.0, 0.00042753283124167087
1188.0, 0.00010085630690162512
1189.0, 0.0006439111826823802
1190.0, 0.000927686293590804
1191.0, 0.0006868657139828361
1192.0, 0.0002087272928286824
1193.0, 0.00011366348648275386
1194.0, 0.00021478683219115706
1195.0, 0.0006702535484565083
1196.0, 0.00019779067008102516
1197.0, 0.00013989442926933007
1198.0, 0.0003569756585699287
1199.0, 0.0005250422065247138
1200.0, 0.0006729001878102875
1201.0, 0.0005048359830510628
1202.0, 0.0002879527537729244
1203.0, 0.0004227828506982292
1204.0, 0.0006195192443894453
1205.0, 0.0005570624986729875
1206.0, 0.0007451214737090756
1207.0, 0.0008160544060643167
1208.0, 0.0008614061475941247
1209.0, 0.0003221469657763004
1210.0, 0.0003687045642069458
1211.0, 0.00038114232689236355
1212.0, 0.0013900622888282528
1213.0, 0.0028189296732686287
1214.0, 0.005742419760776624
1215.0, 0.009659827016024882
1216.0, 0.015285105099350505
1217.0, 0.02283144658586757
1218.0, 0.027958757157845248
1219.0, 0.02979590296111434
1220.0, 0.03142172115276183
1221.0, 0.03570710120841264
1222.0, 0.040258852580984765
1223.0, 0.039835989307339434
1224.0, 0.036456106003517244
1225.0, 0.028465296401649867
1226.0, 0.017315175453503202
1227.0, 0.009294819973968041
1228.0, 0.006037722836134853
1229.0, 0.00445534398598816
1230.0, 0.003076638277106692
1231.0, 0.0028294443996206655
1232.0, 0.0027943936688504057
1233.0, 0.0012462083439083943
1234.0, 0.00040046128725776734
1235.0, 0.00022350247385749522
1236.0, 0.0005104169092101181
1237.0, 0.0006532357273036596
1238.0, 0.0007595904637216975
1239.0, 0.001059804068917342
1240.0, 0.0010812656391975136
1241.0, 8.163248835438687e-06
1242.0, 0.0007147795963606846
1243.0, 6.361989989868465e-05
1244.0, 5.78593152821548e-05
1245.0, 0.00032792205396517355
1246.0, 0.00024049161106500723
1247.0, 0.0004736763304618037
1248.0, 0.0005022651253374569
1249.0, 0.0003666758820749361
1250.0, 0.0009391161670277615
1251.0, 0.0009066023898203801
1252.0, 0.000987393332389297
1253.0, 0.00136363645681326
1254.0, 0.0015820954042870415
1255.0, 0.001542789996028955
1256.0, 0.0014043503800305588
1257.0, 0.0007341109595023513
1258.0, 0.00026616778210938587
1259.0, 0.0004943076015250654
1260.0, 0.00050532074172679
1261.0, 0.00014782404535028802
1262.0, 0.0001840640690529976
1263.0, 9.06671231289507e-05
1264, 0.0
1265, 0.0
1266, 0.0
1267, 0.0
1268, 0.0
1269, 0.0
1270, 0.0
1271, 0.0
1272, 0.0
1273, 0.0
1274, 0.0
1275, 0.0
1276, 0.0
1277, 0.0
1278, 0.0
1279, 0.0
1280, 0.0
1281, 0.0
1282, 0.0
1283, 0.0
1284, 0.0
1285, 0.0
1286, 0.0
1287, 0.0
1288, 0.0
1289, 0.0
1290, 0.0
1291, 0.0
1292, 0.0
1293, 0.0
1294, 0.0
1295, 0.0
1296, 0.0
1297, 0.0
1298, 0.0
1299, 0.0
1300, 0.0
1301, 0.0
1302, 0.0
1303, 0.0
1304, 0.0
1305, 0.0
1306, 0.0
1307, 0.0
1308, 0.0
1309, 0.0
1310, 0.0
1311, 0.0
1312, 0.0
1313, 0.0
1314, 0.0
1315, 0.0
1316, 0.0
1317, 0.0
1318, 0.0
1319, 0.0
1320, 0.0
1321, 0.0
1322, 0.0
1323, 0.0
1324, 0.0
1325, 0.0
1326, 0.0
1327, 0.0
1328, 0.0
1329, 0.0
1330, 0.0
1331, 0.0
1332, 0.0
1333, 0.0
1334, 0.0
1335, 0.0
1336, 0.0
1337, 0.0
1338, 0.0
1339, 0.0
1340, 0.0
1341, 0.0
1342, 0.0
1343, 0.0
1344, 0.0
1345, 0.0
1346, 0.0
1347, 0.0
1348, 0.0
1349, 0.0
1350, 0.0
1351, 0.0
1352, 0.0
1353, 0.0
1354, 0.0
1355, 0.0
1356, 0.0
1357, 0.0
1358, 0.0
1359, 0.0
1360, 0.0
1361, 0.0
1362, 0.0
1363, 0.0
1364, 0.0
1365, 0.0
1366, 0.0
1367, 0.0
1368, 0.0
1369, 0.0
1370, 0.0
1371, 0.0
1372, 0.0
1373, 0.0
1374, 0.0
1375, 0.0
1376, 0.0
1377, 0.0
1378, 0.0
1379, 0.0
1380, 0.0
1381, 0.0
1382, 0.0
1383, 0.0
1384, 0.0
1385, 0.0
1386, 0.0
1387, 0.0
1388, 0.0
1389, 0.0
1390, 0.0
1391, 0.0
1392, 0.0
1393, 0.0
1394, 0.0
1395, 0.0
1396, 0.0
1397, 0.0
1398, 0.0
1399, 0.0
1400, 0.0
1401, 0.0
1402, 0.0
1403, 0.0
1404, 0.0
1405, 0.0
1406, 0.0
1407, 0.0
1408, 0.0
1409, 0.0
1410, 0.0
1411, 0.0
1412, 0.0
1413, 0.0
1414, 0.0
1415, 0.0
1416, 0.0
1417, 0.0
1418, 0.0
1419, 0.0
1420, 0.0
1421, 0.0
1422, 0.0
1423, 0.0
1424, 0.0
1425, 0.0
1426, 0.0
1427, 0.0
1428, 0.0
1429, 0.0
1430, 0.0
1431, 0.0
1432, 0.0
1433, 0.0
1434, 0.0
1435, 0.0
1436, 0.0
1437, 0.0
1438, 0.0
1439, 0.0
1440, 0.0
1441, 0.0
1442, 0.0
1443, 0.0
1444, 0.0
1445, 0.0
1446, 0.0
1447, 0.0
1448, 0.0
1449, 0.0
1450, 0.0
1451, 0.0
1452, 0.0
1453, 0.0
1454, 0.0
1455, 0.0
1456, 0.0
1457, 0.0
1458, 0.0
1459, 0.0
1460, 0.0
1461, 0.0
1462, 0.0
1463, 0.0
1464, 0.0
1465, 0.0
1466, 0.0
1467, 0.0
1468, 0.0
1469, 0.0
1470, 0.0
1471, 0.0
1472, 0.0
1473, 0.0
1474, 0.0
1475, 0.0
1476, 0.0
1477, 0.0
1478, 0.0
1479, 0.0
1480, 0.0
1481, 0.0
1482, 0.0
1483, 0.0
1484, 0.0
1485, 0.0
1486, 0.0
1487, 0.0
1488, 0.0
1489, 0.0
1490, 0.0
1491, 0.0
1492, 0.0
1493, 0.0
1494, 0.0
1495, 0.0
1496, 0.0
1497, 0.0
1498, 0.0
1499, 0.0
1500, 0.0
1501, 0.0
1502, 0.0
1503, 0.0
1504, 0.0
1505, 0.0
1506, 0.0
1507, 0.0
1508, 0.0
1509, 0.0
1510, 0.0
1511, 0.0
1512, 0.0
1513, 0.0
1514, 0.0
1515, 0.0
1516, 0.0
1517, 0.0
1518, 0.0
1519, 0.0
1520, 0.0
1521, 0.0
1522, 0.0
1523, 0.0
1524, 0.0
1525, 0.0
1526, 0.0
1527, 0.0
1528, 0.0
1529, 0.0
1530, 0.0
1531, 0.0
1532, 0.0
1533, 0.0
1534, 0.0
1535, 0.0
1536, 0.0
1537, 0.0
1538, 0.0
1539, 0.0
1540, 0.0
1541, 0.0
1542, 0.0
1543, 0.0
1544, 0.0
1545, 0.0
1546, 0.0
1547, 0.0
1548, 0.0
1549, 0.0
1550, 0.0
1551, 0.0
1552, 0.0
1553, 0.0
1554, 0.0
1555, 0.0
1556, 0.0
1557, 0.0
1558, 0.0
1559, 0.0
1560, 0.0
1561, 0.0
1562, 0.0
1563, 0.0
1564, 0.0
1565, 0.0
1566, 0.0
1567, 0.0
1568, 0.0
1569, 0.0
1570, 0.0
1571, 0.0
1572, 0.0
1573, 0.0
1574, 0.0
1575, 0.0
1576, 0.0
1577, 0.0
1578, 0.0
1579, 0.0
1580, 0.0
1581, 0.0
1582, 0.0
1583, 0.0
1584, 0.0
1585, 0.0
1586, 0.0
1587, 0.0
1588, 0.0
1589, 0.0
1590, 0.0
1591, 0.0
1592, 0.0
1593, 0.0
1594, 0.0
1595, 0.0
1596, 0.0
1597, 0.0
1598, 0.0
1599, 0.0
