30, 0.0
31, 0.0
32, 0.0
33, 0.0
34, 0.0
35, 0.0
36, 0.0
37, 0.0
38, 0.0
39, 0.0
40, 0.0
41, 0.0
42, 0.0
43, 0.0
44, 0.0
45, 0.0
46, 0.0
47, 0.0
48, 0.0
49, 0.0
50, 0.0
51, 0.0
52, 0.0
53, 0.0
54, 0.0
55, 0.0
56, 0.0
57, 0.0
58, 0.0
59, 0.0
60, 0.0
61, 0.0
62, 0.0
63, 0.0
64, 0.0
65, 0.0
66, 0.0
67, 0.0
68, 0.0
69, 0.0
70, 0.0
71, 0.0
72, 0.0
73, 0.0
74, 0.0
75, 0.0
76, 0.0
77, 0.0
78, 0.0
79, 0.0
80, 0.0
81, 0.0
82, 0.0
83, 0.0
84, 0.0
85, 0.0
86, 0.0
87, 0.0
88, 0.0
89, 0.0
90, 0.0
91, 0.0
92, 0.0
93.0, 5.3456078769300284e-05
94.0, 0.00021946874575470347
95.0, 0.0026630774737901085
96.0, 0.006692197045137499
97.0, 0.012128981865002438
98.0, 0.018658794084299275
99.0, 0.02728212746066902
100.0, 0.035796176352072745
101.0, 0.04284340371010545
102.0, 0.04800256438860058
103.0, 0.053992050124508376
104.0, 0.0605065450529024
105.0, 0.06634207427779826
106.0, 0.06790071892353819
107.0, 0.06713671231232766
108.0, 0.06461434630548468
109.0, 0.06791531802819184
110.0, 0.06741845013811965
111.0, 0.06620820781217979
112.0, 0.07086652060767414
113.0, 0.06275659979941739
114.0, 0.05274548311485408
115.0, 0.043609535666650996
116.0, 0.03479020679047048
117.0, 0.030155910482307587
118.0, 0.026635281556645837
119.0, 0.020336744308983353
120.0, 0.018757955761836954
121.0, 0.017829627272853307
122.0, 0.017170400744259743
123.0, 0.018738305022176563
124.0, 0.019894014423754915
125.0, 0.0209500648918715
126.0, 0.02214204984779348
127.0, 0.02163406533931388
128.0, 0.02091290169663197
129.0, 0.02035214058425856
130.0, 0.021061673008089414
131.0, 0.02199664366474717
132.0, 0.023006185306951085
133.0, 0.024028491445186942
134.0, 0.025345981508835318
135.0, 0.026312052322871426
136.0, 0.027088810319790744
137.0, 0.027990769636305535
138.0, 0.029788578105200074
139.0, 0.0314534926374141
140.0, 0.03233492853581881
141.0, 0.027174075761574143
142.0, 0.025415779520115762
143.0, 0.025059333447570636
144.0, 0.02416315530572524
145.0, 0.023103005773629507
146.0, 0.022457197495622118
147.0, 0.022451950345454122
148.0, 0.02399978472186196
149.0, 0.025216886920452534
150.0, 0.026507479212307786
151.0, 0.028117718591453584
152.0, 0.0311875112795142
153.0, 0.03279343307147367
154.0, 0.033889590578338125
155.0, 0.03683491784108537
156.0, 0.03591269018695948
157.0, 0.034280281193914616
158.0, 0.03287960252692866
159.0, 0.03336446189945488
160.0, 0.031075775403252525
161.0, 0.027752217975542937
162.0, 0.02510345026389227
163.0, 0.021512310397577894
164.0, 0.01811113332841775
165.0, 0.015186402441637213
166.0, 0.013580931779417497
167.0, 0.010800285554113918
168.0, 0.008939127807907113
169.0, 0.009137832365563791
170.0, 0.007857590429816087
171.0, 0.006528662169095544
172.0, 0.005837021778313012
173.0, 0.007269583535254796
174.0, 0.006190652051523301
175.0, 0.005701694880052721
176.0, 0.006138328485579935
177.0, 0.004908047047354364
178.0, 0.003956961039310063
179.0, 0.0028202773176118313
180.0, 0.0010979692407906449
181.0, 0.0006844166323405264
182.0, 0.000504010836974981
183.0, 0.000691497718318459
184.0, 0.0018597484879119336
185.0, 0.0009987497099405564
186.0, 0.0006842772162396866
187.0, 0.0015884467773009015
188.0, 0.0014614223264916234
189.0, 0.0007741539651902617
190.0, 0.0003079921940349015
191.0, 0.0009594184748522438
192.0, 0.001138708356092737
193.0, 0.000893433814000977
194.0, 0.0005024518872907549
195.0, 0.0009721125344904456
196.0, 0.0008528630860230259
197.0, 0.0005358560455231406
198.0, 0.000261480854581172
199.0, 0.0026496580226039717
200.0, 0.0021282720288615595
201.0, 0.0008722556924593363
202.0, 0.001552482726983773
203.0, 0.00262171523404187
204.0, 0.0023920514801542524
205.0, 0.0013312786979024194
206.0, 0.0022268197364721095
207.0, 0.0030306511548327006
208.0, 0.0031926945209688963
209.0, 0.0024727409197016397
210.0, 0.0028011151148187316
211.0, 0.0019009423574428469
212.0, 0.0007271010129729899
213.0, 0.0005380192623701088
214.0, 0.0004876223895325318
215.0, 0.0007522782080459684
216.0, 0.0013063496612246506
217.0, 0.0019763070489637
218.0, 0.0026918912948289903
219.0, 0.004034030050360993
220.0, 0.006227947376815998
221.0, 0.007071686057500915
222.0, 0.007565105721203712
223.0, 0.008898432359676507
224.0, 0.012781137912754677
225.0, 0.01483701067616041
226.0, 0.0176226270440576
227.0, 0.02070711737509972
228.0, 0.021458792124573828
229.0, 0.023703094583154397
230.0, 0.026635562475517925
231.0, 0.02999542145898954
232.0, 0.033546482041391386
233.0, 0.03616663755930634
234.0, 0.038591691176136825
235.0, 0.04156264083434274
236.0, 0.043310931962228114
237.0, 0.04486610113950472
238.0, 0.04697330123555235
239.0, 0.05171049480492538
240.0, 0.05300716011573736
241.0, 0.05383336664630708
242.0, 0.055009976695230375
243.0, 0.05662008620567752
244.0, 0.05513864118288866
245.0, 0.05307115184177686
246.0, 0.05224210509539983
247.0, 0.04943539645337427
248.0, 0.04608877468410102
249.0, 0.042522076864423074
250.0, 0.039270839873315845
251.0, 0.03552398236065957
252.0, 0.03211326283662029
253.0, 0.029113115322603973
254.0, 0.026095812187096733
255.0, 0.02310852980315604
256.0, 0.020262866125164633
257.0, 0.017618562063028066
258.0, 0.014928578644512178
259.0, 0.01431378179110272
260.0, 0.014087914670441338
261.0, 0.012213023969280354
262.0, 0.010746866085535798
263.0, 0.010684595756422385
264.0, 0.011335313479135132
265.0, 0.01041716102221534
266.0, 0.010046217901221136
267.0, 0.010190864989627348
268.0, 0.01096815459481875
269.0, 0.013322979305980231
270.0, 0.013901482183878017
271.0, 0.014333639385568796
272.0, 0.015687463407335282
273.0, 0.016222522904978193
274.0, 0.01937297652970398
275.0, 0.023027286183359204
276.0, 0.023846278335843907
277.0, 0.026375147411394607
278.0, 0.02857066316908976
279.0, 0.030210729783152136
280.0, 0.031340300162427566
281.0, 0.031960149042830274
282.0, 0.032097453657871464
283.0, 0.031601697971427124
284.0, 0.0290584059628941
285.0, 0.029437837645680847
286.0, 0.02996250629366702
287.0, 0.028647055833533334
288.0, 0.02769255691555075
289.0, 0.02760815818354829
290.0, 0.027714202108871107
291.0, 0.02692889072131076
292.0, 0.027320060098128034
293.0, 0.028135949409856198
294.0, 0.029024985908241804
295.0, 0.02908854877617011
296.0, 0.029599015413686623
297.0, 0.030000266171794153
298.0, 0.03046406014941067
299.0, 0.03390250204630734
300.0, 0.0367567301560053
301.0, 0.039982915073641614
302.0, 0.04419548132589342
303.0, 0.04883985760455052
304.0, 0.054769816084370204
305.0, 0.06171680670409382
306.0, 0.06946991935695812
307.0, 0.07936990027432234
308.0, 0.08979267500169869
309.0, 0.10088158406397753
310.0, 0.11343501825174541
311.0, 0.12563221751448733
312.0, 0.13721555137613917
313.0, 0.14858111635990406
314.0, 0.16219180126245775
315.0, 0.17071167998667033
316.0, 0.17643759712325405
317.0, 0.17978484818645935
318.0, 0.1747272746604673
319.0, 0.1657740107215602
320.0, 0.15509102057390006
321.0, 0.14427761946921278
322.0, 0.1322629353238095
323.0, 0.1191697185242033
324.0, 0.1056153128134015
325.0, 0.0925097417863624
326.0, 0.08443279986113703
327.0, 0.07677363995122707
328.0, 0.0690772520503753
329.0, 0.06140810638754599
330.0, 0.057580592266938686
331.0, 0.05373562461107208
332.0, 0.049376605809948605
333.0, 0.04665657201770613
334.0, 0.044753013006082615
335.0, 0.04249156118465466
336.0, 0.03947696971672737
337.0, 0.0373715426089436
338.0, 0.03352974641682316
339.0, 0.029916886933505592
340.0, 0.028009623405130947
341.0, 0.027156878283816074
342.0, 0.023950401552908375
343.0, 0.02071385875380006
344.0, 0.020531777569342085
345.0, 0.016978609982578614
346.0, 0.014480005800591217
347.0, 0.013141109438486408
348.0, 0.012633762423259521
349.0, 0.010645229385778226
350.0, 0.009439542102789734
351.0, 0.008906881948126418
352.0, 0.007274629542315573
353.0, 0.006425019859398691
354.0, 0.005581853993412454
355.0, 0.004603994927984232
356.0, 0.004077217782978958
357.0, 0.003972329822842328
358.0, 0.0037376397628247613
359.0, 0.0031432583716543084
360.0, 0.0028628248983425778
361.0, 0.002515285164109013
362.0, 0.0021970966301341583
363.0, 0.0019807324569943996
364.0, 0.0011973036295307767
365.0, 0.0010496455002141968
366.0, 0.0012785955513850927
367.0, 0.0015971385728597216
368.0, 0.0008231916737178774
369.0, 0.0006571524764090991
370.0, 0.001258577673025747
371.0, 0.0028369778103959262
372.0, 0.0012186870225859361
373.0, 0.0013481896299757652
374.0, 0.0025281962932585133
375.0, 0.001156736644162791
376.0, 0.0031867685314569258
377.0, 0.004677943688921467
378.0, 0.005344983814423839
379.0, 0.007494735318829762
380.0, 0.008214478744753643
381.0, 0.008889670217517066
382.0, 0.010064670173952047
383.0, 0.012466717364835561
384.0, 0.015579140701109525
385.0, 0.01865689079896004
386.0, 0.021358222568313663
387.0, 0.023789703816573905
388.0, 0.029102595694336687
389.0, 0.03480992216965336
390.0, 0.039262662875786815
391.0, 0.041967281495621914
392.0, 0.04386765890345185
393.0, 0.046067482802657
394.0, 0.049615610186666166
395.0, 0.05149468907780779
396.0, 0.0526343880028357
397.0, 0.05298262956219482
398.0, 0.05240221097786839
399.0, 0.054787007018538905
400.0, 0.05507835881014503
401.0, 0.05444064210112826
402.0, 0.05531522671260371
403.0, 0.0564093593032574
404.0, 0.05786680696105
405.0, 0.05883452205960857
406.0, 0.05724197629898652
407.0, 0.054994857290874596
408.0, 0.051559583272052394
409.0, 0.046906832605709
410.0, 0.041122493507524595
411.0, 0.03603376694474157
412.0, 0.03180031849348739
413.0, 0.0280816587464431
414.0, 0.023356196065728446
415.0, 0.01988283643729475
416.0, 0.017083372192138714
417.0, 0.014576126684472793
418.0, 0.011136040399422136
419.0, 0.010065719262257633
420.0, 0.009170058241229176
421.0, 0.007661733385882068
422.0, 0.005562642880743996
423.0, 0.004433790066464625
424.0, 0.0032063132372973703
425.0, 0.0015107558308328078
426.0, 0.0005143839121040462
427.0, 0.0015336623957185314
428.0, 0.0023391109395421985
429.0, 0.0018327561403200122
430.0, 0.001994714743669621
431.0, 0.0010441764019010476
432.0, 0.0004514764825533817
433.0, 0.001081027696562886
434.0, 0.00034151328886893164
435.0, 0.000287652358266774
436.0, 0.0007271735009125705
437.0, 0.0015009408569906918
438.0, 0.0013228105302067704
439.0, 0.001350304304832568
440.0, 0.0018118059593755299
441.0, 0.0029141340476168966
442.0, 0.002311803825383008
443.0, 0.002500391119441732
444.0, 0.0024137217007589745
445.0, 0.0009442059751323341
446.0, 0.00033086244261610654
447.0, 9.384881387970523e-05
448.0, 0.00019299986292383586
449.0, 0.0005983815464698217
450.0, 0.0005699010892937635
451.0, 0.0004925404160113319
452.0, 0.00041807235380254625
453.0, 0.0004004531986272918
454.0, 0.00018913839271712612
455.0, 8.482258437931475e-05
456.0, 9.065743883552446e-05
457.0, 0.0002000021756294019
458.0, 0.0004167959705837993
459.0, 0.00045760330530943567
460.0, 0.0005080793374274006
461.0, 0.0008653864653529289
462.0, 0.0006680835735151955
463.0, 0.000451896216149492
464.0, 0.0003902626924246088
465.0, 0.0007138384870334941
466.0, 0.0005131008020380497
467.0, 0.00044985556292899864
468.0, 0.00044839359774677217
469.0, 0.00031582988230395494
470.0, 0.0007326267745216661
471.0, 0.0010284642496990917
472.0, 0.001248853583666799
473.0, 0.001546709089499673
474.0, 0.0004780244981657818
475.0, 0.0010662111817545123
476.0, 0.002709928330498374
477.0, 0.004073181565542426
478.0, 0.005058496387021862
479.0, 0.007867721687529696
480.0, 0.011231395778921884
481.0, 0.01277772577532669
482.0, 0.01595248393777734
483.0, 0.01670824350795891
484.0, 0.015591573863886134
485.0, 0.013900321591159321
486.0, 0.013806593734975397
487.0, 0.01169511970558217
488.0, 0.008754881278362634
489.0, 0.007203663484424909
490.0, 0.007280583175210208
491.0, 0.006454061699552016
492.0, 0.005256755248693284
493.0, 0.004697204707825624
494.0, 0.003847309443932402
495.0, 0.0033241515159170487
496.0, 0.0030960600365918566
497.0, 0.0030829889067483327
498.0, 0.0028162262771018274
499.0, 0.0035774496011300033
500.0, 0.0043901234736638765
501.0, 0.003930810050557744
502.0, 0.006154590576924371
503.0, 0.007616745168228785
504.0, 0.008904215232607586
505.0, 0.01081687542459403
506.0, 0.013771403803251201
507.0, 0.016886032697044296
508.0, 0.019916820587890918
509.0, 0.0226242652975372
510.0, 0.027014843559110272
511.0, 0.030189925942537544
512.0, 0.032775139184313705
513.0, 0.03533794297745172
514.0, 0.03660351022954761
515.0, 0.038724476930038054
516.0, 0.03948910538390926
517.0, 0.03716923830637836
518.0, 0.03404684858004079
519.0, 0.031007672798134118
520.0, 0.026797382447745117
521.0, 0.020884121973848885
522.0, 0.018994270306798653
523.0, 0.016555505099710672
524.0, 0.013802312614526972
525.0, 0.010949571398494666
526.0, 0.008852288311576032
527.0, 0.006941573634534615
528.0, 0.005340012394792022
529.0, 0.004097868338972493
530.0, 0.00309990009785626
531.0, 0.0036924994164995472
532.0, 0.0032109193428961247
533.0, 0.001356272566365532
534.0, 0.0026889039445147584
535.0, 0.0014583156149920585
536.0, 0.0006545915460270074
537.0, 0.0008982193851144816
538.0, 0.0006439904398678362
539.0, 0.001225757091644333
540.0, 0.0012870977300620753
541.0, 0.0008741354351341312
542.0, 0.0012900204970994343
543.0, 0.000848561131881104
544.0, 0.0007271631943997085
545.0, 0.000799963250569946
546.0, 0.00017136191808543062
547.0, 0.0001511227982502671
548.0, 0.0007840341437630186
549.0, 0.0013487284216698913
550.0, 0.0004161427265963732
551.0, 0.0003555544432142723
552.0, 0.0002742744493811187
553.0, 0.0005798266972037859
554.0, 0.001992271469426574
555.0, 0.0016717457073928102
556.0, 0.0010516398093111333
557.0, 0.0011704663318386102
558.0, 0.0031110949595342064
559.0, 0.004421188327298052
560.0, 0.0040878320979080085
561.0, 0.0033354780305622092
562.0, 0.0033264196193663774
563.0, 0.006309939242255134
564.0, 0.006845790934730784
565.0, 0.007072798354965907
566.0, 0.008353809335298454
567.0, 0.010909571015076539
568.0, 0.011997587157693662
569.0, 0.013877848961081952
570.0, 0.017000164629657828
571.0, 0.01796183820859306
572.0, 0.02212581256828245
573.0, 0.024852404493085352
574.0, 0.025687359387874552
575.0, 0.028488597182203562
576.0, 0.029423494033390188
577.0, 0.029499250776466354
578.0, 0.02868572865204502
579.0, 0.02635134794648335
580.0, 0.023832316243373536
581.0, 0.022057717350043936
582.0, 0.020576414395402483
583.0, 0.018404835587993124
584.0, 0.017161279588429394
585.0, 0.014473767397373776
586.0, 0.012261940523136967
587.0, 0.012929170696647152
588.0, 0.011001139160857815
589.0, 0.009565500111652508
590.0, 0.008817580344904642
591.0, 0.008805663917925071
592.0, 0.007927676661863937
593.0, 0.006750023148289982
594.0, 0.006114063257914547
595.0, 0.006312045223370695
596.0, 0.006136287899607422
597.0, 0.007711412065924267
598.0, 0.008447490498251877
599.0, 0.007961728355738266
600.0, 0.008376482602112921
601.0, 0.010006241075443196
602.0, 0.010136377748176375
603.0, 0.009210137214634458
604.0, 0.00971341487830418
605.0, 0.010679498363659879
606.0, 0.01284494427187667
607.0, 0.014553718199910583
608.0, 0.013170335851647378
609.0, 0.014004302227467428
610.0, 0.014701756607013644
611.0, 0.014690129585709392
612.0, 0.013594236990435367
613.0, 0.014014410084187892
614.0, 0.017039088171290843
615.0, 0.01969511101229763
616.0, 0.02042822095905013
617.0, 0.021483659257991488
618.0, 0.021388408012553553
619.0, 0.023671946417368493
620.0, 0.028167849880895976
621.0, 0.02896975437181301
622.0, 0.03269054947486188
623.0, 0.03566251611984688
624.0, 0.037752406168457736
625.0, 0.04036788410063729
626.0, 0.047558576403408416
627.0, 0.053447598415917334
628.0, 0.05904962085263749
629.0, 0.06640970961286603
630.0, 0.07928855268374846
631.0, 0.09108644295082478
632.0, 0.10473694503761176
633.0, 0.12224168582389326
634.0, 0.13876227290748988
635.0, 0.16566112869435545
636.0, 0.19716108889505082
637.0, 0.2313953244154442
638.0, 0.27266004840830216
639.0, 0.323785361517317
640.0, 0.38389367933018703
641.0, 0.44717139526403543
642.0, 0.4990126160101622
643.0, 0.5629789242140434
644.0, 0.6028488690282906
645.0, 0.6203578085994026
646.0, 0.6243943879012126
647.0, 0.5982021257104629
648.0, 0.5529576490261194
649.0, 0.4960357067469757
650.0, 0.4341858527929881
651.0, 0.37252329422541086
652.0, 0.3222514067351192
653.0, 0.2748516614295862
654.0, 0.22964380336847798
655.0, 0.2012090183019422
656.0, 0.1715658402478864
657.0, 0.14594642745034545
658.0, 0.1252905106443772
659.0, 0.10901958824754328
660.0, 0.09409017660745424
661.0, 0.08256516889832026
662.0, 0.07351436857115956
663.0, 0.06547896771949274
664.0, 0.055867519684643166
665.0, 0.0506708453280016
666.0, 0.046639633702805626
667.0, 0.041661782271541416
668.0, 0.036286606482034536
669.0, 0.03379485608886434
670.0, 0.03062964839493227
671.0, 0.026637371457417673
672.0, 0.02501430381956487
673.0, 0.02240147491168215
674.0, 0.021861953530303766
675.0, 0.021890745449885333
676.0, 0.01952950420947833
677.0, 0.017777677669316982
678.0, 0.01700939175533735
679.0, 0.01644295735727492
680.0, 0.015594687484799636
681.0, 0.016256544040920824
682.0, 0.016402480047301472
683.0, 0.01676693061408739
684.0, 0.017461240543105293
685.0, 0.017808147421029423
686.0, 0.019092130096200602
687.0, 0.021084304850828073
688.0, 0.02320901994737395
689.0, 0.024549391884955987
690.0, 0.025038317146740905
691.0, 0.025479169108709208
692.0, 0.025309054611735233
693.0, 0.02398463417989001
694.0, 0.020853311664495503
695.0, 0.019961694593112797
696.0, 0.01943049949944341
697.0, 0.018299722239240274
698.0, 0.01589761751510585
699.0, 0.014915154815530277
700.0, 0.013777955383077458
701.0, 0.012834853070970452
702.0, 0.013067199695319224
703.0, 0.0129241490400911
704.0, 0.012904390258957274
705.0, 0.012373211446791406
706.0, 0.01101746366377258
707.0, 0.01064591686432452
708.0, 0.011239648175259099
709.0, 0.01263265832097619
710.0, 0.014391227365595083
711.0, 0.015352324817552804
712.0, 0.01855100297826834
713.0, 0.02020344936408801
714.0, 0.021556626920004554
715.0, 0.024936716177965283
716.0, 0.026483074840463028
717.0, 0.027466498971351797
718.0, 0.02825695635947929
719.0, 0.02873621324764846
720.0, 0.026600510065241157
721.0, 0.024171268837800762
722.0, 0.02121627641634129
723.0, 0.018627873966740705
724.0, 0.018570825454599843
725.0, 0.0172222236032245
726.0, 0.014299006991873366
727.0, 0.011665830412868457
728.0, 0.01102328293891692
729.0, 0.009298590713507552
730.0, 0.008287858957002205
731.0, 0.007724069246239894
732.0, 0.00734558156007156
733.0, 0.006640536909726317
734.0, 0.0069080623630043934
735.0, 0.006142346308640251
736.0, 0.00534764034507509
737.0, 0.006427922476764646
738.0, 0.004574573765054534
739.0, 0.0034156434852530273
740.0, 0.002341724048531546
741.0, 0.0010671815422087488
742.0, 0.0003588759104167018
743.0, 0.0015073151058210463
744.0, 0.001611346100387341
745.0, 0.0008114943887343114
746.0, 0.0009370100113615796
747.0, 0.0005228717155632448
748.0, 0.0007652232557559859
749.0, 0.001661764554498284
750.0, 0.0027752895231742815
751.0, 0.0005456543877612899
752.0, 0.00043286931033630966
753.0, 0.0011923092014515376
754.0, 0.0019329752212154574
755.0, 0.0014251747478982236
756.0, 0.0014243832527727322
757.0, 0.001820359977620178
758.0, 0.0020219840786659133
759.0, 0.001462100245754348
760.0, 0.0010606278093327449
761.0, 0.0011822174692068584
762.0, 0.0013505840127155568
763.0, 0.0012463987195305217
764.0, 0.0005071079854426585
765.0, 0.0015884171441825378
766.0, 0.0020021218047790615
767.0, 0.0014663275716158381
768.0, 0.00019186077855967948
769.0, 0.0012563946072695264
770.0, 0.002084669998814451
771.0, 0.0018766329139299747
772.0, 0.0007406623573759627
773.0, 0.0006490393451704271
774.0, 0.0005940585430845688
775.0, 0.0017132054277587282
776.0, 0.0027184538087877807
777.0, 0.0016890270677169415
778.0, 0.0019503882545341038
779.0, 0.0010772080551211675
780.0, 0.0002659358179890651
781.0, 0.00012066612341045445
782.0, 0.00038264971974134247
783.0, 0.0011242493057111505
784.0, 0.0010176628304867715
785.0, 0.0010856603994403048
786.0, 0.00295573206888668
787.0, 0.0009536894877173127
788.0, 0.0010544256280393032
789.0, 0.0016065828849814673
790.0, 0.0016405814899148378
791.0, 0.0010038854265574267
792.0, 0.0008449120524192731
793.0, 0.0012037166663886715
794.0, 0.0014217742203881507
795.0, 0.0006540342031616563
796.0, 0.0004185534224164367
797.0, 0.0007727481296056746
798.0, 0.001077573107172693
799.0, 0.0010977483720378861
800.0, 0.0011953081065519836
801.0, 0.00041648866189518137
802.0, 0.00017151350055310735
803.0, 0.0003795980784858349
804.0, 0.0007409176847984408
805.0, 0.002571442406559577
806.0, 0.001932526832554922
807.0, 0.0011035575241460595
808.0, 0.0010187889723870917
809.0, 0.001363937230540158
810.0, 0.0008477894820170045
811.0, 0.0007628534965414998
812.0, 0.000945288678742581
813.0, 0.001162099604139384
814.0, 0.002548626055966425
815.0, 0.0018498740385502973
816.0, 0.0010440097416305725
817.0, 0.0012089130193141968
818.0, 0.0031833108642648393
819.0, 0.0027261984566070885
820.0, 0.001960461140197616
821.0, 0.0015690918934802376
822.0, 0.0017285223029426667
823.0, 0.0003970714637824759
824.0, 0.0006524404058745239
825.0, 0.0005979481263400721
826.0, 0.00021171234704031196
827.0, 0.00036527417746230116
828.0, 0.0016479707100412668
829.0, 0.00248308128519431
830.0, 0.002356120785467972
831.0, 0.0014241356815613713
832.0, 0.0016702335437874902
833.0, 0.00176855458532474
834.0, 0.001065042942320418
835.0, 0.00031884336954975015
836.0, 0.0005776877735259021
837.0, 0.0001604142518653115
838.0, 0.0013513864835079442
839.0, 0.0016930131884622588
840.0, 0.0010112403235567756
841.0, 0.001844436557298553
842.0, 0.001440493584398622
843.0, 0.0017899176327849326
844.0, 0.0018394997704135369
845.0, 0.0008634986780984286
846.0, 0.001593697616709667
847.0, 0.001905190273091638
848.0, 0.0019426570892379512
849.0, 0.0014979105972134045
850.0, 0.00017831910448124963
851.0, 0.001940541732336997
852.0, 0.0014447619850422476
853.0, 0.0009444693209767596
854.0, 0.0016010872285602109
855.0, 0.0027122643143134262
856.0, 0.002494295142230373
857.0, 0.001597879160281443
858.0, 0.0012766720310235795
859.0, 0.0025498789677690105
860.0, 0.0029423457932922026
861.0, 0.003284025346757255
862.0, 0.0024639248410877625
863.0, 0.001365076796625322
864.0, 0.0024768087363815747
865.0, 0.004336266336910638
866.0, 0.0030824091008888528
867.0, 0.0024800084648346947
868.0, 0.004544232561831069
869.0, 0.007265668109918899
870.0, 0.006489085578497899
871.0, 0.005623798360958967
872.0, 0.005903942278713109
873.0, 0.007969196971830954
874.0, 0.010289962182972196
875.0, 0.008728818758703806
876.0, 0.010549268309584971
877.0, 0.013921587545410265
878.0, 0.010497300389624082
879.0, 0.012921575436487793
880.0, 0.014965495047172251
881.0, 0.015797511196052855
882.0, 0.015342106212165951
883.0, 0.014886369218690323
884.0, 0.019557160707111075
885.0, 0.021426215830899528
886.0, 0.022104924769440756
887.0, 0.023996885670315694
888.0, 0.024326415863490575
889.0, 0.025597750049256452
890.0, 0.027601221888041764
891.0, 0.028891685096359886
892.0, 0.027332366646115
893.0, 0.029019862835476105
894.0, 0.026450183890346368
895.0, 0.024462979143829985
896.0, 0.024521970999493416
897.0, 0.023785804730170956
898.0, 0.023883397404576946
899.0, 0.02268280278929603
900.0, 0.020897860403575077
901.0, 0.01933629648728753
902.0, 0.01842695588723513
903.0, 0.01722803832384098
904.0, 0.016373981192408463
905.0, 0.0161363228892705
906.0, 0.016514845136166596
907.0, 0.015459300877962033
908.0, 0.014056136786293336
909.0, 0.013488196582276403
910.0, 0.013934189558362101
911.0, 0.014939834013526925
912.0, 0.014947560503612184
913.0, 0.016092297364437284
914.0, 0.0172928918817334
915.0, 0.01792215504016603
916.0, 0.017907560006500015
917.0, 0.016776711440151963
918.0, 0.01588489948897986
919.0, 0.01694311187226857
920.0, 0.01987586726338523
921.0, 0.018127086432300293
922.0, 0.01961571523301093
923.0, 0.02006726103890312
924.0, 0.02085141419858697
925.0, 0.02369654260388357
926.0, 0.022550491116936647
927.0, 0.02506943936429647
928.0, 0.02506910942083296
929.0, 0.024467529013131754
930.0, 0.02877832757592627
931.0, 0.02832654711126017
932.0, 0.02874465594075385
933.0, 0.029348190455461755
934.0, 0.02979849459975016
935.0, 0.030025022501908014
936.0, 0.03101476645290779
937.0, 0.03210581056311789
938.0, 0.03291190639762121
939.0, 0.033282773885191096
940.0, 0.03344716077805151
941.0, 0.03364689760956456
942.0, 0.03250061150226237
943.0, 0.031125737681967955
944.0, 0.030725761587024104
945.0, 0.032208917665674464
946.0, 0.032099660040156706
947.0, 0.033136101349227155
948.0, 0.03531599445554777
949.0, 0.037907730984846205
950.0, 0.039178812202387454
951.0, 0.04063044501633903
952.0, 0.043313806850045926
953.0, 0.04709161684053669
954.0, 0.051449570591136376
955.0, 0.05740369540505663
956.0, 0.06406569228357492
957.0, 0.07171461646624543
958.0, 0.08051350437274017
959.0, 0.09052523014563617
960.0, 0.10181445574402911
961.0, 0.12033757458436181
962.0, 0.14238159343474943
963.0, 0.16615466110041432
964.0, 0.1913549973570964
965.0, 0.2369485715978051
966.0, 0.28939307049342927
967.0, 0.35841379714198646
968.0, 0.44430192882014335
969.0, 0.5342788869779358
970.0, 0.6380769283458495
971.0, 0.7623086223815504
972.0, 0.8769489646603734
973.0, 0.9588975341632273
974.0, 0.9972751866718843
975.0, 0.9800559834043744
976.0, 0.9108983605432777
977.0, 0.8176316543026524
978.0, 0.7217230289615646
979.0, 0.6188261111176948
980.0, 0.5232085939932682
981.0, 0.4465999261909485
982.0, 0.3838889149017498
983.0, 0.3289441052768047
984.0, 0.2836264476478616
985.0, 0.2593586360826519
986.0, 0.2345059832239531
987.0, 0.2151853450989193
988.0, 0.2080404569255214
989.0, 0.19728553006206967
990.0, 0.19043671972940845
991.0, 0.18889971477158904
992.0, 0.18831345033499503
993.0, 0.18462862604276956
994.0, 0.1863485374053608
995.0, 0.18443544834892525
996.0, 0.1855708151741575
997.0, 0.18893249212896035
998.0, 0.1910295985467483
999.0, 0.18586824179266095
1000.0, 0.18375951927585651
1001.0, 0.1798716993287711
1002.0, 0.17363932555577333
1003.0, 0.16615675842025301
1004.0, 0.1592693738267808
1005.0, 0.1454477889643891
1006.0, 0.13337846626546754
1007.0, 0.12341645066522056
1008.0, 0.11314157851969249
1009.0, 0.10646569028603227
1010.0, 0.09784908975563125
1011.0, 0.09137357008021407
1012.0, 0.08541970597077586
1013.0, 0.07696116583136803
1014.0, 0.07674985186461644
1015.0, 0.07302392129416241
1016.0, 0.06935310502615262
1017.0, 0.06627135251696821
1018.0, 0.06309863201504756
1019.0, 0.060732018883074466
1020.0, 0.0629346675580163
1021.0, 0.06266077029485849
1022.0, 0.061238091944710984
1023.0, 0.06319889727513368
1024.0, 0.06536315466327623
1025.0, 0.06365370871883504
1026.0, 0.06585629006401487
1027.0, 0.06976823307659534
1028.0, 0.06966230348972592
1029.0, 0.07053339095366777
1030.0, 0.072293384429808
1031.0, 0.07639749377337347
1032.0, 0.08454100230695628
1033.0, 0.09763774885351177
1034.0, 0.10974127311137948
1035.0, 0.11808041720472826
1036.0, 0.1332277713704157
1037.0, 0.14983460114150798
1038.0, 0.1584692322507795
1039.0, 0.1647538806627888
1040.0, 0.16283432488619728
1041.0, 0.1552597765298392
1042.0, 0.14322608664103278
1043.0, 0.12795748710164648
1044.0, 0.11139081539758729
1045.0, 0.09736604765184058
1046.0, 0.08507170928549349
1047.0, 0.07363045754696401
1048.0, 0.06281685474078541
1049.0, 0.056333833799571936
1050.0, 0.04929126690687524
1051.0, 0.04312516430511121
1052.0, 0.038104672809820016
1053.0, 0.033891483795440235
1054.0, 0.028931375915419406
1055.0, 0.027680151171072802
1056.0, 0.024724608772854224
1057.0, 0.021156208127285605
1058.0, 0.018823216242328314
1059.0, 0.01883812265406841
1060.0, 0.0172638065693844
1061.0, 0.01615413094973182
1062.0, 0.015602260199829158
1063.0, 0.015319720717074463
1064.0, 0.01468620895540001
1065.0, 0.014264657357721526
1066.0, 0.014307545593382261
1067.0, 0.013790127298154061
1068.0, 0.012681884353816763
1069.0, 0.012628065413777728
1070.0, 0.010739071616193365
1071.0, 0.010743322314201779
1072.0, 0.011113839761752752
1073.0, 0.010645731605583894
1074.0, 0.008755478270703707
1075.0, 0.012906133744154513
1076.0, 0.011229305029313257
1077.0, 0.009026668950854374
1078.0, 0.009440628149030109
1079.0, 0.013244658715609415
1080.0, 0.009361338380156126
1081.0, 0.009307553781498473
1082.0, 0.009223377854942368
1083.0, 0.008449274620692783
1084.0, 0.007912057010729548
1085.0, 0.008368103958814635
1086.0, 0.006994002074825066
1087.0, 0.007368565098116904
1088.0, 0.008979713550847208
1089.0, 0.009764736233697936
1090.0, 0.006522560203768086
1091.0, 0.007323554323454458
1092.0, 0.007389251351678791
1093.0, 0.007028164916718153
1094.0, 0.00669691419228386
1095.0, 0.004544646778081555
1096.0, 0.002188040733824383
1097.0, 0.002980497461975085
1098.0, 0.004891991013591974
1099.0, 0.005648727195757329
1100.0, 0.0034948704764786844
1101.0, 0.0021968047804295002
1102.0, 0.003816574279022128
1103.0, 0.0036145211835568423
1104.0, 0.0024414865293710163
1105.0, 0.006218454632371225
1106.0, 0.0040620721954123355
1107.0, 0.0038053886139518796
1108.0, 0.003684863715199033
1109.0, 0.0029989412191166027
1110.0, 0.0020662341939430492
1111.0, 0.004932113925479532
1112.0, 0.0041025406823001955
1113.0, 0.0032673913725512387
1114.0, 0.0036864161584306385
1115.0, 0.0052698053733337856
1116.0, 0.005513776842836309
1117.0, 0.0026090298415074164
1118.0, 0.003911529647671029
1119.0, 0.0047009880337525204
1120.0, 0.0026784574072234953
1121.0, 0.003806244155120175
1122.0, 0.004089814156956457
1123.0, 0.004022861911425968
1124.0, 0.004921537207273846
1125.0, 0.0055948501013752035
1126.0, 0.0026149965761274783
1127.0, 0.0013380551024102147
1128.0, 0.0028426372808356493
1129.0, 0.003339911524598651
1130.0, 0.0027930708610712147
1131.0, 0.0029383129608942437
1132.0, 0.0038403051534733994
1133.0, 0.0019201761632322463
1134.0, 0.0035850165645125755
1135.0, 0.004630963206935559
1136.0, 0.0017030864618718757
1137.0, 0.0015128849419342202
1138.0, 0.001835480721240618
1139.0, 0.0010405361158182995
1140.0, 0.0017504428336807753
1141.0, 0.0035086626800186426
1142.0, 0.0014336403168422776
1143.0, 0.001035631125684775
1144.0, 0.0038578843914715438
1145.0, 0.0033126495686387042
1146.0, 0.0015865863070441473
1147.0, 0.0046820289322337845
1148.0, 0.0029575929218500557
1149.0, 0.0009796786668954682
1150.0, 0.0016549828846401564
1151.0, 0.0028317010510562363
1152.0, 0.002430856420874029
1153.0, 0.002896023555106519
1154.0, 0.0029632426959437974
1155.0, 0.0031782820987288495
1156.0, 0.0025963707237166007
1157.0, 0.001924992765324211
1158.0, 0.003886190606995711
1159.0, 0.0015002802359771529
1160.0, 0.0005522969269940087
1161.0, 0.0003023673009609432
1162.0, 0.00045511448263757385
1163.0, 0.0010871211935405659
1164.0, 0.003096470999409661
1165.0, 0.0009923758331732563
1166.0, 0.0002996665822994219
1167.0, 0.0007360776553742035
1168.0, 0.0011459319250582871
1169.0, 0.001262793604860699
1170.0, 0.0005731368617525767
1171.0, 0.001898927369122126
1172.0, 0.0018221646220287957
1173.0, 0.0008551525130413095
1174.0, 0.0026313997055644194
1175.0, 0.0012273241959233753
1176.0, 0.0018653838954657553
1177.0, 0.0020426572021514915
1178.0, 0.0018413436041076767
1179.0, 0.002070247730060325
1180.0, 0.0028839604481162534
1181.0, 0.0010233848897920482
1182.0, 0.0007294044852560219
1183.0, 0.001303894949193088
1184.0, 0.0016417108105165347
1185.0, 0.0009187036830323721
1186.0, 0.000503585443528784
1187.0, 0.0006312604496979833
1188.0, 0.0007566675026989311
1189.0, 0.0016345039211912694
1190.0, 0.003564313377396594
1191.0, 0.001963656274400638
1192.0, 0.0007961617783563595
1193.0, 0.0011697571300411727
1194.0, 0.001539546133158303
1195.0, 0.001402505122418093
1196.0, 0.0023379877534108686
1197.0, 0.0007142039122549985
1198.0, 0.0003960886138714761
1199.0, 0.000277446433196902
1200.0, 9.964684252563707e-05
1201.0, 0.00011283159978430635
1202.0, 0.0006841090798391714
1203.0, 0.0018441943142786816
1204.0, 0.0010873748174012945
1205.0, 0.00124132256646062
1206.0, 0.0026532729205594008
1207.0, 0.0006997666403148569
1208.0, 0.0006266939183592137
1209.0, 0.0020927492427323625
1210.0, 0.0023152222689888985
1211.0, 0.0011748270333965987
1212.0, 0.00019230936309690637
1213.0, 0.0015308287725431646
1214.0, 0.002278119907301045
1215.0, 0.0013513325619630776
1216.0, 0.0016486841837239053
1217.0, 0.0030220055838514784
1218.0, 0.0007079800686441422
1219.0, 0.0020384357088918453
1220.0, 0.0017829979245797207
1221.0, 0.0010054382330157588
1222.0, 0.0010190091258729952
1223.0, 0.0023568722135387963
1224.0, 0.0023721506670431845
1225.0, 0.0013601847976824608
1226.0, 0.0006221520257476078
1227.0, 0.0008683536687521968
1228.0, 0.0015894917213573805
1229.0, 0.0011983785458409865
1230.0, 0.0004838618819513077
1231.0, 0.0016726741939428569
1232.0, 0.0025536509568220246
1233.0, 0.002918342943361191
1234.0, 0.0026686730699986916
1235.0, 0.00020631352781264414
1236.0, 0.003774736113606563
1237.0, 0.00261412427810705
1238.0, 0.0033712065005262557
1239.0, 0.004607239737184007
1240.0, 0.0003430546525536152
1241.0, 0.001898563434314935
1242.0, 0.003064656849795973
1243.0, 0.0019766790792538364
1244.0, 0.0008561747483693605
1245.0, 0.0014481425618825322
1246.0, 0.003179193657314612
1247.0, 0.0016347896362994255
1248.0, 0.002209815495619477
1249.0, 0.001899171115194482
1250.0, 0.0015477015034038408
1251.0, 0.002981436191061581
1252.0, 0.004979254079635741
1253.0, 0.004273828745380981
1254.0, 0.003873852428758452
1255.0, 0.0024155864478224076
1256.0, 0.0007969745013011523
1257.0, 0.0017416784510325828
1258.0, 0.0032953095088117763
1259.0, 0.0036949168799877753
1260.0, 0.0017615664738108439
1261.0, 0.0013903921194580678
1262.0, 0.0032990021168663648
1263.0, 0.0010900883258851861
1264.0, 0.00020566525930652
1265.0, 0.001799475728418033
1266.0, 0.0018029819571498355
1267.0, 0.0009904921526814113
1268.0, 0.0013984729150128084
1269.0, 0.0016144069742799862
1270.0, 0.0026775826710731952
1271.0, 0.0036200383337965645
1272.0, 0.003103872503123222
1273.0, 0.0017547641974635364
1274.0, 0.0017678815754758677
1275.0, 0.00531727687550314
1276.0, 0.0015476865920326197
1277.0, 0.002450874496981068
1278.0, 0.0031980271046169215
1279.0, 0.001191635519910768
1280.0, 0.0006824504043199094
1281.0, 0.0040228913979558755
1282.0, 0.004005773308203916
1283.0, 0.0025278416951471988
1284.0, 0.002276376207165445
1285.0, 0.0034721022112477185
1286.0, 0.0008872994738957217
1287.0, 0.000663355913551605
1288.0, 0.0015502383374901255
1289.0, 0.002034219176266535
1290.0, 0.0033099218117763323
1291.0, 0.00598224085631441
1292.0, 0.0039550905780097135
1293.0, 0.0038288826495117586
1294.0, 0.0026523379261457164
1295.0, 0.002369437110817673
1296.0, 0.002250330970429493
1297.0, 0.0011102216123769892
1298.0, 0.008165069024653901
1299.0, 0.003145319349356226
1300.0, 0.003103430387534198
1301.0, 0.004003124232742912
1302.0, 0.0026415832500309676
1303.0, 0.0005995435119644662
1304.0, 0.003921535277644201
1305.0, 0.0020036252850919646
1306.0, 0.0007707761597933044
1307.0, 0.0009021010717293434
1308.0, 0.001654557184281929
1309.0, 0.0019961978489394503
1310.0, 0.0006334910154902507
1311.0, 0.002803600865543782
1312.0, 0.0024343818251850186
1313.0, 0.0019669746775530577
1314.0, 0.0035470305513471477
1315.0, 0.0036585706286983376
1316.0, 0.0006907375531598062
1317.0, 0.0031805181678692357
1318.0, 0.0030497195240649796
1319.0, 0.001035749994710858
1320.0, 0.0006160613568795421
1321.0, 0.0023388084369774854
1322.0, 0.0012160080293812793
1323.0, 0.0026891017449624426
1324.0, 0.0027701551773849464
1325.0, 0.001639469308591245
1326.0, 0.0015469718061153874
1327.0, 0.0038422900693440764
1328.0, 0.001708069338540959
1329.0, 0.0014288872617283443
1330.0, 0.002469287807342313
1331.0, 0.0026705966827793755
1332.0, 0.0010775665402161512
1333.0, 0.0032711225869878602
1334.0, 0.003117752991054339
1335.0, 0.0011665067957787646
1336.0, 0.0019173816586474624
1337.0, 0.003466808278092564
1338.0, 0.0017672192979562634
1339.0, 0.0023903643260199644
1340.0, 0.0027545012858464528
1341.0, 0.0020355076067242123
1342.0, 0.002059955455142226
1343.0, 0.003672819531056763
1344.0, 0.005616454405357387
1345.0, 0.0017458109750408384
1346.0, 0.00456747101764356
1347.0, 0.0042296489355088465
1348.0, 0.002466551721173101
1349.0, 0.002172427726344228
1350.0, 0.004584195117736889
1351.0, 0.00407864907459871
1352.0, 0.0016868319747423434
1353.0, 0.0034012304489365467
1354.0, 0.002758694534494747
1355.0, 0.0016376212181856626
1356.0, 0.005747016077232299
1357.0, 0.004780107069614788
1358.0, 0.0023512516716783604
1359.0, 0.0029530903844533513
1360.0, 0.005035274408427939
1361.0, 0.00508397484550737
1362.0, 0.001696491657108131
1363.0, 0.005637253370553366
1364.0, 0.0028860529653613855
1365.0, 0.003179783996281522
1366.0, 0.0034658264616229204
1367.0, 0.0028795120132709116
1368.0, 0.002758927740389513
1369.0, 0.003595591695697354
1370.0, 0.0011310002816614908
1371.0, 0.0011787197004937257
1372.0, 0.0033064881591717238
1373.0, 0.004774317766552906
1374.0, 0.0032440430598999754
1375.0, 0.0011435203750028487
1376.0, 0.004918911132732752
1377.0, 0.003362108761358526
1378.0, 0.002850952990147388
1379.0, 0.004350778363974468
1380.0, 0.004904412109967575
1381.0, 0.001248128769453594
1382.0, 0.0037835912218702862
1383.0, 0.005514904740345306
1384.0, 0.005691898095899387
1385.0, 0.005513303401404632
1386.0, 0.0059219044359040155
1387.0, 0.005404367373527168
1388.0, 0.0017529755196504459
1389.0, 0.004535928554037452
1390.0, 0.004588425528171066
1391.0, 0.003701881807414362
1392.0, 0.005012066803452304
1393.0, 0.006229884125219142
1394.0, 0.005032535500982926
1395.0, 0.006331166247584382
1396.0, 0.005869399960169738
1397.0, 0.0039095295709338385
1398.0, 0.003561671688023292
1399.0, 0.008050083914050946
1400.0, 0.003935625147687058
1401.0, 0.005173655569630976
1402.0, 0.008526228938949984
1403.0, 0.006357406182496304
1404.0, 0.0017534357554071188
1405.0, 0.005799120600600894
1406.0, 0.006292706381987363
1407.0, 0.0027915274444460956
1408.0, 0.005278667985005144
1409.0, 0.007543107994935702
1410.0, 0.006097049296735485
1411.0, 0.003034489002304293
1412.0, 0.006065069068676134
1413.0, 0.003517601746561983
1414.0, 0.0036940754861801537
1415.0, 0.005918447841699739
1416.0, 0.005494767895614902
1417.0, 0.0019088147893083405
1418.0, 0.008102587356092256
1419.0, 0.007265032508925015
1420.0, 0.0038983310084491772
1421.0, 0.004038450385207747
1422.0, 0.0055548283427023885
1423.0, 0.005297696352062016
1424.0, 0.004085512588643496
1425.0, 0.007390719074574521
1426.0, 0.003492184795547537
1427.0, 0.001980404779703313
1428.0, 0.0036969017606665938
1429.0, 0.00512100345473745
1430.0, 0.0025970066527065123
1431.0, 0.004260121392257812
1432.0, 0.005979436727636157
1433.0, 0.005861984957923345
1434.0, 0.005857538709545873
1435.0, 0.006406759296006172
1436.0, 0.006573380756090457
1437.0, 0.0055791217642085465
1438.0, 0.007255244785261683
1439.0, 0.005698070512160442
1440.0, 0.004404543355743933
1441.0, 0.006916197973100071
1442.0, 0.011207053613552988
1443.0, 0.0077067264105716935
1444.0, 0.004416044311688683
1445.0, 0.008013204886324397
1446.0, 0.0071313016974838385
1447.0, 0.006982447414689863
1448.0, 0.00885336500721929
1449.0, 0.0078052246114044994
1450.0, 0.009072646474878559
1451.0, 0.009466132084147136
1452.0, 0.008098971048405902
1453.0, 0.0064176889666271615
1454.0, 0.0073606874070766895
1455.0, 0.010847837055192124
1456.0, 0.008500283237557544
1457.0, 0.008595312014644125
1458.0, 0.0088943849684839
1459.0, 0.0069028319462420135
1460.0, 0.007362508222256038
1461.0, 0.010635768941399436
1462.0, 0.009454593168350097
1463.0, 0.006827405790308388
1464.0, 0.011434771204376063
1465.0, 0.009656968206931715
1466.0, 0.008002265982252128
1467.0, 0.01008719351025384
1468.0, 0.012306552989043556
1469.0, 0.003973968824620251
1470.0, 0.00851606048106287
1471.0, 0.01211043789766387
1472.0, 0.009994237473376955
1473.0, 0.008873574188962952
1474.0, 0.011337094877588851
1475.0, 0.009057274569114569
1476.0, 0.008229442860768169
1477.0, 0.009249350611368166
1478.0, 0.006391905295987634
1479.0, 0.005475639637601042
1480.0, 0.007556639990959355
1481.0, 0.009097358469279027
1482.0, 0.00875384057323999
1483.0, 0.005234778538569335
1484.0, 0.008003783465392704
1485.0, 0.006596159374751851
1486.0, 0.0042855057050704
1487.0, 0.005848086878470752
1488.0, 0.009190888644712927
1489.0, 0.003822721596960877
1490.0, 0.008036902601066912
1491.0, 0.006819410299461323
1492.0, 0.005044585095967522
1493.0, 0.006923219458929526
1494.0, 0.010382769111089537
1495.0, 0.005067682793174461
1496.0, 0.0033547237361587186
1497.0, 0.00872696699555428
1498.0, 0.006741040079371623
1499.0, 0.0037483264451876113
1500.0, 0.005116900182775191
1501.0, 0.007368573435660635
1502.0, 0.006817847087239778
1503.0, 0.007352146231943556
1504.0, 0.00636791718668385
1505.0, 0.0031382562312137798
1506.0, 0.0037257915687184794
1507.0, 0.008840000842478376
1508.0, 0.005543652641306974
1509.0, 0.0020368480770420047
1510.0, 0.005814859748284025
1511.0, 0.0031229619417089635
1512.0, 0.0019536130042732453
1513.0, 0.005773919887800374
1514.0, 0.009083967286115604
1515.0, 0.0024152041832137
1516.0, 0.006334564723861956
1517.0, 0.007883960317019092
1518.0, 0.005122102233455456
1519.0, 0.003720130780222647
1520.0, 0.005759538197604718
1521.0, 0.006117517944916903
1522.0, 0.0003193701590382858
1523.0, 0.00559293691927507
1524.0, 0.0023574901494400643
1525, 0.0
1526, 0.0
1527, 0.0
1528, 0.0
1529, 0.0
1530, 0.0
1531, 0.0
1532, 0.0
1533, 0.0
1534, 0.0
1535, 0.0
1536, 0.0
1537, 0.0
1538, 0.0
1539, 0.0
1540, 0.0
1541, 0.0
1542, 0.0
1543, 0.0
1544, 0.0
1545, 0.0
1546, 0.0
1547, 0.0
1548, 0.0
1549, 0.0
1550, 0.0
1551, 0.0
1552, 0.0
1553, 0.0
1554, 0.0
1555, 0.0
1556, 0.0
1557, 0.0
1558, 0.0
1559, 0.0
1560, 0.0
1561, 0.0
1562, 0.0
1563, 0.0
1564, 0.0
1565, 0.0
1566, 0.0
1567, 0.0
1568, 0.0
1569, 0.0
1570, 0.0
1571, 0.0
1572, 0.0
1573, 0.0
1574, 0.0
1575, 0.0
1576, 0.0
1577, 0.0
1578, 0.0
1579, 0.0
1580, 0.0
1581, 0.0
1582, 0.0
1583, 0.0
1584, 0.0
1585, 0.0
1586, 0.0
1587, 0.0
1588, 0.0
1589, 0.0
1590, 0.0
1591, 0.0
1592, 0.0
1593, 0.0
1594, 0.0
1595, 0.0
1596, 0.0
1597, 0.0
1598, 0.0
1599, 0.0
