30, 0.0
31, 0.0
32, 0.0
33, 0.0
34, 0.0
35, 0.0
36, 0.0
37, 0.0
38, 0.0
39, 0.0
40, 0.0
41, 0.0
42, 0.0
43, 0.0
44, 0.0
45, 0.0
46, 0.0
47, 0.0
48, 0.0
49, 0.0
50, 0.0
51, 0.0
52, 0.0
53, 0.0
54, 0.0
55, 0.0
56, 0.0
57, 0.0
58, 0.0
59, 0.0
60, 0.0
61, 0.0
62, 0.0
63, 0.0
64, 0.0
65, 0.0
66, 0.0
67, 0.0
68, 0.0
69, 0.0
70, 0.0
71, 0.0
72, 0.0
73, 0.0
74, 0.0
75, 0.0
76, 0.0
77, 0.0
78, 0.0
79, 0.0
80, 0.0
81, 0.0
82, 0.0
83, 0.0
84, 0.0
85, 0.0
86, 0.0
87, 0.0
88, 0.0
89, 0.0
90, 0.0
91, 0.0
92, 0.0
93, 0.0
94.0, 2.033714556710335e-05
95.0, 0.0005164113388136251
96.0, 0.0023208794103045725
97.0, 0.007180476392193962
98.0, 0.016105111127183096
99.0, 0.021562447192848683
100.0, 0.02346235779319465
101.0, 0.02545946614957547
102.0, 0.034376213040927646
103.0, 0.04350790769583002
104.0, 0.052565889962193954
105.0, 0.06880041187683786
106.0, 0.09127800688195747
107.0, 0.09690396774735405
108.0, 0.12424582912883639
109.0, 0.13163964716268298
110.0, 0.13921516624708224
111.0, 0.15762174137462134
112.0, 0.1822026543784667
113.0, 0.21389298786400515
114.0, 0.24685919391737035
115.0, 0.2763241792033118
116.0, 0.29574049310769346
117.0, 0.2964568156978532
118.0, 0.25664835074505454
119.0, 0.2227220105876404
120.0, 0.18521485595017495
121.0, 0.14951197826908894
122.0, 0.12298021855498416
123.0, 0.10936072101699988
124.0, 0.08232835172988556
125.0, 0.06405803366214995
126.0, 0.04851688325810079
127.0, 0.03292172923707738
128.0, 0.021035259181080814
129.0, 0.017074259328736685
130.0, 0.01199386633141527
131.0, 0.008416394922834287
132.0, 0.007698293989501847
133.0, 0.010242669269196508
134.0, 0.015791875745958146
135.0, 0.017666793006910004
136.0, 0.023960087163650598
137.0, 0.03275586110674459
138.0, 0.042141845937939966
139.0, 0.05556334108783369
140.0, 0.06834851413647491
141.0, 0.08030760203241795
142.0, 0.09392972220898484
143.0, 0.1105127138885525
144.0, 0.12970008664046476
145.0, 0.14724106543905274
146.0, 0.16836040864716664
147.0, 0.19302984178855823
148.0, 0.21845900487070707
149.0, 0.24160552517858583
150.0, 0.2632844323932141
151.0, 0.2866130095914798
152.0, 0.30799583572321476
153.0, 0.3296462765589108
154.0, 0.3513554545936931
155.0, 0.36794870313295036
156.0, 0.378414656854412
157.0, 0.38901345217256983
158.0, 0.39626993893306706
159.0, 0.3972671320335515
160.0, 0.39136644760532135
161.0, 0.3897170904740997
162.0, 0.37752285351945236
163.0, 0.3673809038758272
164.0, 0.35753835764006714
165.0, 0.3438990583265571
166.0, 0.3246368951250455
167.0, 0.31073775443780416
168.0, 0.2995345109065437
169.0, 0.2912600991590067
170.0, 0.28685796967465643
171.0, 0.28715955123477854
172.0, 0.2865806998717802
173.0, 0.28643143678322913
174.0, 0.29406872785058874
175.0, 0.3032746124281443
176.0, 0.306915999901675
177.0, 0.308173841446999
178.0, 0.3070656383388717
179.0, 0.2973524345438594
180.0, 0.28695163785442995
181.0, 0.276380356375359
182.0, 0.2577787685526924
183.0, 0.23242178203859393
184.0, 0.21481016909639125
185.0, 0.19616137337420503
186.0, 0.17850221029473612
187.0, 0.16532482917828942
188.0, 0.15167317373481637
189.0, 0.14459929722184459
190.0, 0.1414387923584956
191.0, 0.13763528601769356
192.0, 0.13462935360148706
193.0, 0.13972402451804428
194.0, 0.14414939483732583
195.0, 0.14100147558616505
196.0, 0.14204840088045645
197.0, 0.1447715473162162
198.0, 0.14447122868470558
199.0, 0.1474951081041129
200.0, 0.14265614567369755
201.0, 0.1371749954488102
202.0, 0.1297712838934483
203.0, 0.12165187726870262
204.0, 0.11654627389080079
205.0, 0.10723341993541746
206.0, 0.09917331470869571
207.0, 0.09119435595993616
208.0, 0.08403482676085511
209.0, 0.07830693669746863
210.0, 0.0724974562585711
211.0, 0.07110374960867852
212.0, 0.06882327633017671
213.0, 0.06692895669620626
214.0, 0.06647725349260782
215.0, 0.0673069892205462
216.0, 0.06338053416946049
217.0, 0.06273970604894544
218.0, 0.06165340994900131
219.0, 0.059669385613398
220.0, 0.05699370314717453
221.0, 0.053301167452439124
222.0, 0.050469745558764094
223.0, 0.04650016330680648
224.0, 0.039919446263345384
225.0, 0.03255756045835745
226.0, 0.027282487043816223
227.0, 0.01971285919093206
228.0, 0.011377504857990793
229.0, 0.00703378763048749
230.0, 0.003891854466252286
231.0, 0.0013949573999858143
232.0, 0.004163866814215393
233.0, 0.004860115531091329
234.0, 0.005750798331394405
235.0, 0.005947488597424662
236.0, 0.005264059739293454
237.0, 0.00419029782343834
238.0, 0.004329254833460206
239.0, 0.008418021877921076
240.0, 0.01288108589494751
241.0, 0.015610154623267243
242.0, 0.016250369189539135
243.0, 0.01573777736574113
244.0, 0.01090736826193718
245.0, 0.010556921495134337
246.0, 0.007599351811752483
247.0, 0.0035144151594219807
248.0, 0.0015729879366426698
249.0, 0.0037514393193848823
250.0, 0.006891956825527411
251.0, 0.008302646216683193
252.0, 0.007618000655367349
253.0, 0.007042691443887468
254.0, 0.008064432872937358
255.0, 0.0031198695663546975
256.0, 0.0027808316617364028
257.0, 0.005293024028469526
258.0, 0.0058811628421839715
259.0, 0.006739782313578592
260.0, 0.015554392103373659
261.0, 0.01496919632156819
262.0, 0.01508412898785487
263.0, 0.01319086039971889
264.0, 0.010350905540819669
265.0, 0.00802018533841164
266.0, 0.006234497403342375
267.0, 0.009344546284096669
268.0, 0.01260195288060127
269.0, 0.009309104081538398
270.0, 0.00462658450330037
271.0, 0.005258375419852534
272.0, 0.00046236176791962123
273.0, 0.00018297275783790487
274.0, 0.008268692341732838
275.0, 0.013635046659263001
276.0, 0.01593539646767623
277.0, 0.023412942653179343
278.0, 0.0252244719020168
279.0, 0.0325001378262519
280.0, 0.04049063436363547
281.0, 0.04439365115579227
282.0, 0.04714506954097086
283.0, 0.06118357378205545
284.0, 0.06881907706277486
285.0, 0.07438099957718428
286.0, 0.08466390242093028
287.0, 0.09222798358585105
288.0, 0.09243573761798222
289.0, 0.09926752407660268
290.0, 0.10553728823278008
291.0, 0.10981332899612482
292.0, 0.11108551067800455
293.0, 0.11101231387636873
294.0, 0.11183850009747176
295.0, 0.1121333509241993
296.0, 0.11022276321284004
297.0, 0.10910484158872491
298.0, 0.10786626574596121
299.0, 0.10689442752217665
300.0, 0.10711129912370125
301.0, 0.10327266342693503
302.0, 0.10248808202656312
303.0, 0.10240211775996307
304.0, 0.10031944547509786
305.0, 0.0948196443539864
306.0, 0.08702813308718751
307.0, 0.0884416927826425
308.0, 0.07830199701159854
309.0, 0.0723905237392829
310.0, 0.06951395433546585
311.0, 0.06550386192236933
312.0, 0.059770072672281724
313.0, 0.056715275091748826
314.0, 0.05400178308315888
315.0, 0.05355271152245033
316.0, 0.05392434362467517
317.0, 0.053437863440110686
318.0, 0.053145414081832626
319.0, 0.05674383863330321
320.0, 0.05813594596827882
321.0, 0.06058094826993979
322.0, 0.06434219338192769
323.0, 0.06754777139825557
324.0, 0.06735334870164518
325.0, 0.06811572787935033
326.0, 0.07065036404067758
327.0, 0.0755686243379288
328.0, 0.08045014779754352
329.0, 0.08192107339265485
330.0, 0.08068743172965724
331.0, 0.08950279183754763
332.0, 0.0938216610256846
333.0, 0.0959907198919463
334.0, 0.09959937383431205
335.0, 0.10628255239833717
336.0, 0.11002672526832981
337.0, 0.11682686797506951
338.0, 0.12235608948741895
339.0, 0.12476881525414808
340.0, 0.12709571746387244
341.0, 0.1336702871546767
342.0, 0.128091103207681
343.0, 0.1319131376980173
344.0, 0.12856273612626914
345.0, 0.1245106849612386
346.0, 0.12246283918689502
347.0, 0.11696969017860377
348.0, 0.1074340850754861
349.0, 0.09804143843480873
350.0, 0.09254753259509624
351.0, 0.08515265341437334
352.0, 0.07350977189005696
353.0, 0.062333709092785794
354.0, 0.0595852006469353
355.0, 0.05080570564917493
356.0, 0.04195512102347087
357.0, 0.03454498554399616
358.0, 0.029100628565117782
359.0, 0.025869416620246218
360.0, 0.022345736765177343
361.0, 0.017082496875524295
362.0, 0.015310729333988464
363.0, 0.013319218415959736
364.0, 0.009739944966922282
365.0, 0.008975090496273859
366.0, 0.009681525742524018
367.0, 0.00818127874039867
368.0, 0.008773419394451363
369.0, 0.011527888663006467
370.0, 0.014127164943775956
371.0, 0.013440026357280234
372.0, 0.015356296771727203
373.0, 0.017135156110008883
374.0, 0.017840346048769724
375.0, 0.019293001737757668
376.0, 0.021244659945177106
377.0, 0.0205464481862276
378.0, 0.022048011950057143
379.0, 0.02487294490392087
380.0, 0.024868671312909204
381.0, 0.026574267186067167
382.0, 0.02998586985173069
383.0, 0.028057639899347533
384.0, 0.025113479161580243
385.0, 0.03375267015936481
386.0, 0.04247785314097505
387.0, 0.0476424208782417
388.0, 0.05077470915610225
389.0, 0.05632064366212753
390.0, 0.05990625661104307
391.0, 0.06212639265715992
392.0, 0.06283433849549354
393.0, 0.062202072988436476
394.0, 0.05976037161968507
395.0, 0.054980993623268956
396.0, 0.051584165428711505
397.0, 0.04350574356762422
398.0, 0.03469981411522846
399.0, 0.027784444762015054
400.0, 0.022764356452193376
401.0, 0.017798635297829664
402.0, 0.013187284668142502
403.0, 0.009021858534742473
404.0, 0.0052762411710221245
405.0, 0.0021919784222401723
406.0, 0.001102071565371537
407.0, 0.00271787481377534
408.0, 0.002548364219016152
409.0, 0.002836059759126901
410.0, 0.0018524605354502028
411.0, 0.0007055030606225536
412.0, 0.0010628391808846435
413.0, 0.0035347881415284223
414.0, 0.005327072178853105
415.0, 0.008762191354915412
416.0, 0.013214663276943707
417.0, 0.016824232097274062
418.0, 0.019898962816263268
419.0, 0.023475731775821126
420.0, 0.02757325059648671
421.0, 0.028959372037704885
422.0, 0.031246100869758393
423.0, 0.03360411868615395
424.0, 0.038636102906170616
425.0, 0.04591205661322885
426.0, 0.048832711596099206
427.0, 0.05321265800946108
428.0, 0.06792204370406549
429.0, 0.07404370744379929
430.0, 0.08210346588655824
431.0, 0.09741841775132334
432.0, 0.11052582774153878
433.0, 0.1247779299841108
434.0, 0.13778938506747818
435.0, 0.1614058755581254
436.0, 0.17271180805095623
437.0, 0.17261707926454456
438.0, 0.18230204651809861
439.0, 0.19144336672534595
440.0, 0.18738189068670363
441.0, 0.18348561199072197
442.0, 0.17907169933594175
443.0, 0.16936077248688822
444.0, 0.1522130952116704
445.0, 0.13732734584205636
446.0, 0.1222261720163163
447.0, 0.10800924195950726
448.0, 0.09463513031678049
449.0, 0.08068823241882099
450.0, 0.0680320716199751
451.0, 0.06380180145200132
452.0, 0.05003955028326383
453.0, 0.042492353819272397
454.0, 0.03884833779022168
455.0, 0.0348585196541877
456.0, 0.03013456517298955
457.0, 0.028889480188298684
458.0, 0.031130297531142208
459.0, 0.03304067299853894
460.0, 0.039327077759238986
461.0, 0.04640301121286442
462.0, 0.054314769759044555
463.0, 0.06585482165960194
464.0, 0.0800931720680251
465.0, 0.09590055415910673
466.0, 0.10767242891718154
467.0, 0.12423363491467189
468.0, 0.13914726947175868
469.0, 0.14733023269663748
470.0, 0.16046468352078824
471.0, 0.16292890996912043
472.0, 0.16302999813169242
473.0, 0.15738195974025
474.0, 0.14638557334877192
475.0, 0.13287872002835657
476.0, 0.11981122347947898
477.0, 0.10209496398037018
478.0, 0.08886954859777886
479.0, 0.0796858670265815
480.0, 0.07326222030474261
481.0, 0.06674851760862383
482.0, 0.059617103917304244
483.0, 0.060174174826629886
484.0, 0.05765536528961638
485.0, 0.06007284667253665
486.0, 0.062291378616007004
487.0, 0.06283189384271393
488.0, 0.0646261150359171
489.0, 0.07281847512423835
490.0, 0.07464530063872901
491.0, 0.07964181891515681
492.0, 0.07812562328021713
493.0, 0.07670286565923597
494.0, 0.07724309891871282
495.0, 0.07481391206978212
496.0, 0.06575563342997211
497.0, 0.05727084251912928
498.0, 0.05265370250303772
499.0, 0.04946402748077355
500.0, 0.043181538562222524
501.0, 0.03446783954714726
502.0, 0.03260582043642382
503.0, 0.024479900427846653
504.0, 0.026876343636727223
505.0, 0.027611637725156114
506.0, 0.02653075570508977
507.0, 0.025975893977234973
508.0, 0.028025721889025367
509.0, 0.03487663375751693
510.0, 0.03411580498717499
511.0, 0.03923588053650719
512.0, 0.045725849714313004
513.0, 0.05563345965094922
514.0, 0.06998273419718655
515.0, 0.08240043879785842
516.0, 0.10053184118590902
517.0, 0.11624408931447028
518.0, 0.13961748221272902
519.0, 0.16828308355252755
520.0, 0.19774934771006333
521.0, 0.22756109791574652
522.0, 0.2687485025875495
523.0, 0.32024983400621254
524.0, 0.3742424157069923
525.0, 0.43677207741521495
526.0, 0.5039004657611397
527.0, 0.5739749917810913
528.0, 0.6536109776469744
529.0, 0.7277717945059142
530.0, 0.8084006598997215
531.0, 0.8759882859904449
532.0, 0.9336070045053734
533.0, 0.9777545792045612
534.0, 0.999449414484461
535.0, 0.9963928610521223
536.0, 0.9826937404864036
537.0, 0.9382285174268145
538.0, 0.8778540789278283
539.0, 0.8092088953989803
540.0, 0.7331474983892232
541.0, 0.6508209279403117
542.0, 0.5915364578027554
543.0, 0.5209214776464159
544.0, 0.46092283922058785
545.0, 0.40217226468571565
546.0, 0.35034438301955684
547.0, 0.3094048548781196
548.0, 0.26492081527689676
549.0, 0.23503819045833085
550.0, 0.20239539516450727
551.0, 0.1793960840443551
552.0, 0.1598651048659356
553.0, 0.14234014484424798
554.0, 0.12841215695776526
555.0, 0.10869232285029289
556.0, 0.10112867312570101
557.0, 0.09243968464211773
558.0, 0.07904005863199583
559.0, 0.07065310698471564
560.0, 0.06699085181842647
561.0, 0.05660754402744207
562.0, 0.0538881963548627
563.0, 0.04964592393213824
564.0, 0.04795156921421796
565.0, 0.042753634214827016
566.0, 0.0396325328807285
567.0, 0.040541105644878526
568.0, 0.03489011434950186
569.0, 0.03443109576471816
570.0, 0.0304824962683199
571.0, 0.024239992383495952
572.0, 0.02239019713545321
573.0, 0.02342072555196226
574.0, 0.021469035299582696
575.0, 0.015096652600003535
576.0, 0.013350470528593537
577.0, 0.012600648857351604
578.0, 0.014340758583672487
579.0, 0.014229351454517307
580.0, 0.011209225231145021
581.0, 0.008668012974455809
582.0, 0.010912430253830784
583.0, 0.008342291361053796
584.0, 0.008667027162295539
585.0, 0.009697783105094086
586.0, 0.009969233786709235
587.0, 0.00746287865387128
588.0, 0.0027205456384355397
589.0, 0.007915033975437245
590.0, 0.0051966559556356
591.0, 0.002632088809425029
592.0, 0.0057413393226126205
593.0, 0.00734457338678643
594.0, 0.004533993855521926
595.0, 0.003654027826386997
596.0, 0.0031530910070104376
597.0, 0.0014649408144465298
598.0, 0.007491439861726623
599.0, 0.008732344125617653
600.0, 0.007866899738078373
601.0, 0.009071713463009376
602.0, 0.009175776563059604
603.0, 0.009534909924262399
604.0, 0.008628848701712334
605.0, 0.008876480363903361
606.0, 0.0088918976533547
607.0, 0.007165166636836172
608.0, 0.004979779710499908
609.0, 0.006178826465761013
610.0, 0.0065690517691591906
611.0, 0.0019538170167652854
612.0, 0.004485068138352631
613.0, 0.004694417617734336
614.0, 0.003115586801724172
615.0, 0.003609162048658599
616.0, 0.0048296572880010226
617.0, 0.004458032007991001
618.0, 0.008009033883594686
619.0, 0.007368470272037309
620.0, 0.007904442964233881
621.0, 0.009477471836092115
622.0, 0.011877700334984692
623.0, 0.018018502013058494
624.0, 0.011086672198824568
625.0, 0.015145996388527715
626.0, 0.01426449091206044
627.0, 0.012419590363023878
628.0, 0.012918345187828752
629.0, 0.013981031342024075
630.0, 0.01075668084831308
631.0, 0.01336476948356767
632.0, 0.008676916454791328
633.0, 0.006816680002055555
634.0, 0.006500704297982525
635.0, 0.006024806755999694
636.0, 0.005625959950698398
637.0, 0.006974537439216473
638.0, 0.0068540272538301725
639.0, 0.009742653045545746
640.0, 0.011439244770204693
641.0, 0.012517014168503336
642.0, 0.013581411710286153
643.0, 0.014463908405607026
644.0, 0.014490440695967048
645.0, 0.014370304758165071
646.0, 0.013660391437688813
647.0, 0.013183126873398798
648.0, 0.0127559510552167
649.0, 0.01223192002069886
650.0, 0.011784715043282615
651.0, 0.011793523793136772
652.0, 0.012199309432466892
653.0, 0.012534302288068592
654.0, 0.011409523123679991
655.0, 0.006756285056656793
656.0, 0.004942364822434362
657.0, 0.00588568465823387
658.0, 0.0034216780226896245
659.0, 0.00036758653931322823
660.0, 0.003787847202715573
661.0, 0.0014017895868335428
662.0, 0.0015285152494574307
663.0, 0.0012513408961132633
664.0, 0.0014960833121824273
665.0, 0.0045342378196270355
666.0, 0.004110322061567931
667.0, 0.002729635780463851
668.0, 0.0009584869829087091
669.0, 0.004280521800676127
670.0, 0.0047629772397211135
671.0, 0.00313895865510256
672.0, 0.0027642628729024543
673.0, 0.00036992967113582466
674.0, 0.0010472680984488854
675.0, 0.002104742563573442
676.0, 0.0008905208093219207
677.0, 0.0011829677808205296
678.0, 0.0030304601028519687
679.0, 0.003932437056632665
680.0, 0.0025435738537516986
681.0, 0.004179185703779945
682.0, 0.006509196769067735
683.0, 0.003041883940793834
684.0, 0.003650753700514735
685.0, 0.005524771836213305
686.0, 0.005426608446314991
687.0, 0.004695370526075888
688.0, 0.0057086789428563225
689.0, 0.003429824716860145
690.0, 0.006940067757671678
691.0, 0.00743951503776517
692.0, 0.005949291418907297
693.0, 0.007996390925789763
694.0, 0.014267891836075812
695.0, 0.015805168150457547
696.0, 0.016602810730177754
697.0, 0.018722933056840266
698.0, 0.017703843297588836
699.0, 0.016750626667741412
700.0, 0.017425448859860037
701.0, 0.018156131124605294
702.0, 0.016756673492824784
703.0, 0.01724047295242924
704.0, 0.019909652596993205
705.0, 0.020368499154314334
706.0, 0.02216190452106921
707.0, 0.023062726848203815
708.0, 0.020029281537146105
709.0, 0.015638195501688296
710.0, 0.01991553640440079
711.0, 0.017970684678041155
712.0, 0.014327285972959661
713.0, 0.015354450042135318
714.0, 0.015308388443837381
715.0, 0.016221826830071794
716.0, 0.018656622412568474
717.0, 0.017135021769220594
718.0, 0.014201524869042423
719.0, 0.017367825059899176
720.0, 0.019628473672334047
721.0, 0.018443690232761233
722.0, 0.017333348799911746
723.0, 0.015624398218209276
724.0, 0.012074177284218458
725.0, 0.012924726509610712
726.0, 0.014938914119567423
727.0, 0.013012929238799875
728.0, 0.014870173588468944
729.0, 0.013815555944429325
730.0, 0.012685163035355995
731.0, 0.011986791560019422
732.0, 0.008089705252205636
733.0, 0.012541174645727887
734.0, 0.006734546694318246
735.0, 0.004104081771374125
736.0, 0.009679132960362168
737.0, 0.011734108249361913
738.0, 0.006613495426112734
739.0, 0.0008401260986887909
740.0, 0.0015637089492522476
741.0, 0.003156814435234614
742.0, 0.0039262295334673404
743.0, 0.003252103360895002
744.0, 0.0032190013953358495
745.0, 0.002103705343094081
746.0, 0.002980221377805588
747.0, 0.008013743164708638
748.0, 0.0055960867404916455
749.0, 0.0024382929522251194
750.0, 0.005127881596347212
751.0, 0.0056310052969165214
752.0, 0.0032736774776928063
753.0, 0.001055654711483119
754.0, 0.0007038091230015351
755.0, 0.0016024017441222346
756.0, 0.0054263689422051915
757.0, 0.0016329987337945007
758.0, 0.005381987153046142
759.0, 0.003573657030758243
760.0, 0.004600395811040968
761.0, 0.006015780430405309
762.0, 0.0055547621629974085
763.0, 0.010273283836162604
764.0, 0.006412884772577616
765.0, 0.010962112056708785
766.0, 0.013288411606664165
767.0, 0.012868763493739959
768.0, 0.0147766058358176
769.0, 0.016531302087496837
770.0, 0.015245491466048275
771.0, 0.0170521223574704
772.0, 0.017094136997322686
773.0, 0.02103574208554394
774.0, 0.01919962066316168
775.0, 0.016098660354622263
776.0, 0.015886363197484956
777.0, 0.014712188404631864
778.0, 0.010791214452826839
779.0, 0.014611948864861118
780.0, 0.007361927031471932
781.0, 0.009580684260678683
782.0, 0.00911671903162071
783.0, 0.0068341541868206625
784.0, 0.006000117182974261
785.0, 0.006791789390633475
786.0, 0.006527380307365659
787.0, 0.004282361518507998
788.0, 0.005247986017780776
789.0, 0.0031375335136559325
790.0, 0.006910473767988385
791.0, 0.005387304121379478
792.0, 0.0046361060156520665
793.0, 0.006399140067857418
794.0, 0.006296370194011821
795.0, 0.008923450506134502
796.0, 0.00600042428271723
797.0, 0.001384080688208517
798.0, 0.0022446402844344708
799.0, 0.0032799299471012225
800.0, 0.0036536869548523293
801.0, 0.0036368852448722595
802.0, 0.003257528782849271
803.0, 0.0035357594877374627
804.0, 0.0016075650915873176
805.0, 0.0018455667175489977
806.0, 0.0017532899001172562
807.0, 0.0023250889158501166
808.0, 0.0016809656837591866
809.0, 0.0013082589524781598
810.0, 0.002614899545730873
811.0, 0.0007742433437137245
812.0, 0.0007299065358970856
813.0, 0.0007888779168556436
814.0, 0.0007673469793119635
815.0, 0.0034789421473259276
816.0, 0.004789297917987871
817.0, 0.004075270371426167
818.0, 0.003251374873307419
819.0, 0.0014949871777840257
820.0, 0.001966503121745697
821.0, 0.0031732666311717283
822.0, 0.0012634889852469909
823.0, 0.0018534631103085137
824.0, 0.001955486321460777
825.0, 0.0007900907789223279
826.0, 0.0010960542915244822
827.0, 0.0037314455007771193
828.0, 0.000782883827016718
829.0, 0.00278746334254702
830.0, 0.0023064776128611576
831.0, 0.0014267219655113269
832.0, 0.000616539173491512
833.0, 0.00047208631057352006
834.0, 0.0008016124293362502
835.0, 0.001019584128062915
836.0, 0.002563715243530278
837.0, 0.002173129538668215
838.0, 0.0023442002735189482
839.0, 0.0008501135656629726
840.0, 0.0010929561509766521
841.0, 0.005154545932376376
842.0, 0.006771850497882658
843.0, 0.0019465658162310753
844.0, 0.0032665805443862555
845.0, 0.005443448199872747
846.0, 0.002000264646782072
847.0, 0.002416196778070062
848.0, 0.00612226818015339
849.0, 0.0070378144538252195
850.0, 0.006537116938016594
851.0, 0.0062833981803432125
852.0, 0.002117008912034511
853.0, 0.00310583091390057
854.0, 0.006139479970055118
855.0, 0.006122204865355733
856.0, 0.005561028876708027
857.0, 0.0075901736977268385
858.0, 0.010764688304578664
859.0, 0.011651463774444877
860.0, 0.010731437432345493
861.0, 0.014549049751382919
862.0, 0.011772918058171492
863.0, 0.00806461273689097
864.0, 0.011171828334251432
865.0, 0.009602544961019364
866.0, 0.0052478685779748365
867.0, 0.004431525208793905
868.0, 0.00635970342529677
869.0, 0.003752681062983245
870.0, 0.0044199956908020765
871.0, 0.004939666908328239
872.0, 0.0026122922727556375
873.0, 0.002037916079987335
874.0, 0.0034587492104600427
875.0, 0.0056702610150735034
876.0, 0.006936583750073165
877.0, 0.005934078012137597
878.0, 0.003426365169354772
879.0, 0.005489369335540068
880.0, 0.004101160308096555
881.0, 0.0014245690421863257
882.0, 0.0006051246370080555
883.0, 0.0026832237221859293
884.0, 0.003381630725258584
885.0, 0.002442864176684569
886.0, 0.0047457856080367605
887.0, 0.00391064018676246
888.0, 0.0015625513195521008
889.0, 0.0054948273343205945
890.0, 0.003963069401234229
891.0, 0.005700322517227959
892.0, 0.008767763350021126
893.0, 0.008385166899283574
894.0, 0.006398954001962184
895.0, 0.009411593721790856
896.0, 0.010866206762933825
897.0, 0.007147936624555067
898.0, 0.0077925162014537384
899.0, 0.010638165061941958
900.0, 0.007217924660587082
901.0, 0.004119418030796544
902.0, 0.005930956226086279
903.0, 0.009679893618193467
904.0, 0.013336417320490747
905.0, 0.01293037433955702
906.0, 0.014726228222392834
907.0, 0.014823313511233983
908.0, 0.014955564435769994
909.0, 0.016982244962465882
910.0, 0.019066873984944905
911.0, 0.021364625582927635
912.0, 0.024814758688047184
913.0, 0.025605532228001396
914.0, 0.02705089581829869
915.0, 0.030214625584878092
916.0, 0.02924817836273339
917.0, 0.02934732176820262
918.0, 0.032031427712612935
919.0, 0.03549623052132011
920.0, 0.03640991182192672
921.0, 0.03781709240742373
922.0, 0.050479931806635105
923.0, 0.05409389400533945
924.0, 0.05449975576955011
925.0, 0.05851459656833364
926.0, 0.058254492512511906
927.0, 0.0605667274452582
928.0, 0.06575042466179434
929.0, 0.06893410045571281
930.0, 0.06833656814565241
931.0, 0.0677598785030628
932.0, 0.06529246660336303
933.0, 0.06983544430072637
934.0, 0.07138661681153141
935.0, 0.06901212353312591
936.0, 0.0676821560699531
937.0, 0.0668231870095626
938.0, 0.06325905994370869
939.0, 0.06010986234875091
940.0, 0.06447708849046645
941.0, 0.05743999974663499
942.0, 0.055872318777070544
943.0, 0.05712742120059738
944.0, 0.05616032333200022
945.0, 0.05616726046918064
946.0, 0.054719349350951955
947.0, 0.05209171542461433
948.0, 0.05074219501431855
949.0, 0.05018409637118507
950.0, 0.05147357112748382
951.0, 0.051070059757649514
952.0, 0.04977594841778022
953.0, 0.05175118310744897
954.0, 0.04959803315473569
955.0, 0.050135955314605636
956.0, 0.05187447782858927
957.0, 0.05140614398824706
958.0, 0.05383818507784493
959.0, 0.061152187100355665
960.0, 0.060818101924851924
961.0, 0.06049192980773323
962.0, 0.06153809039692929
963.0, 0.05888346148669503
964.0, 0.059067869779590026
965.0, 0.06177950766288007
966.0, 0.0667676016550762
967.0, 0.07055224908630749
968.0, 0.0631012247508269
969.0, 0.07019881730778231
970.0, 0.06811878924866938
971.0, 0.07319225379318609
972.0, 0.07269877399869888
973.0, 0.0741721687884462
974.0, 0.07852740652136107
975.0, 0.0838337943550457
976.0, 0.08935115298337902
977.0, 0.09387705708187798
978.0, 0.09464706998440019
979.0, 0.10830737398266609
980.0, 0.11521330007745667
981.0, 0.12562557853949108
982.0, 0.12734588065323588
983.0, 0.13671353666951658
984.0, 0.1404587166443766
985.0, 0.13784125646320833
986.0, 0.14480999373916092
987.0, 0.15335333360042885
988.0, 0.1498073001674843
989.0, 0.15362562848182076
990.0, 0.15160294944026803
991.0, 0.14658020524340404
992.0, 0.13744299646924282
993.0, 0.13084395093998175
994.0, 0.12675874685154254
995.0, 0.12134498669695039
996.0, 0.11453650536051867
997.0, 0.10929327950039266
998.0, 0.10595186224634141
999.0, 0.09703186489454649
1000.0, 0.0970317825376762
1001.0, 0.09876174218961647
1002.0, 0.09089737189270367
1003.0, 0.08255529783677197
1004.0, 0.07288547049887935
1005.0, 0.06433747996069078
1006.0, 0.06630863501023657
1007.0, 0.061360766888856215
1008.0, 0.057251662488599815
1009.0, 0.053166553885259066
1010.0, 0.05691373582977755
1011.0, 0.05959860982012415
1012.0, 0.05612385654788916
1013.0, 0.056822587316092035
1014.0, 0.05788444932523371
1015.0, 0.05406402936614703
1016.0, 0.05408853355338727
1017.0, 0.05574112100286476
1018.0, 0.05165374932663239
1019.0, 0.04615984454721921
1020.0, 0.04843131858078662
1021.0, 0.049581997223773384
1022.0, 0.04607105575382517
1023.0, 0.04089325675351661
1024.0, 0.03815196134360055
1025.0, 0.0387304481259334
1026.0, 0.03998993181926045
1027.0, 0.037847255710904665
1028.0, 0.02619407138663875
1029.0, 0.03132851317782769
1030.0, 0.02544760379573847
1031.0, 0.02769223657563402
1032.0, 0.027707592604023414
1033.0, 0.026639792375527892
1034.0, 0.023536432328927562
1035.0, 0.018907605597747332
1036.0, 0.01834081824019573
1037.0, 0.020205865398430632
1038.0, 0.01871002698544569
1039.0, 0.025045787680456993
1040.0, 0.022242452302652604
1041.0, 0.019896098576428295
1042.0, 0.02383056283455174
1043.0, 0.02800883447922995
1044.0, 0.02702874812571457
1045.0, 0.028179047904170685
1046.0, 0.03439549676183152
1047.0, 0.03151107345363865
1048.0, 0.035029600464252415
1049.0, 0.03839000992939535
1050.0, 0.039100692779902704
1051.0, 0.04500515700661855
1052.0, 0.04876886221753821
1053.0, 0.05182560980736636
1054.0, 0.05619586200625244
1055.0, 0.05955574563552267
1056.0, 0.06070477479439027
1057.0, 0.06331396380440193
1058.0, 0.06784654814374513
1059.0, 0.06838284639741823
1060.0, 0.07197277593636908
1061.0, 0.0706124458533335
1062.0, 0.07391358478160172
1063.0, 0.07741393171553142
1064.0, 0.08081958159527641
1065.0, 0.08312255665874319
1066.0, 0.0830746372549768
1067.0, 0.08374352558556893
1068.0, 0.08756088856881868
1069.0, 0.08144676079588344
1070.0, 0.0869861971731911
1071.0, 0.08626159242601451
1072.0, 0.08496472991232011
1073.0, 0.08400291443881283
1074.0, 0.07827167830036855
1075.0, 0.0736508633152813
1076.0, 0.07525428977971164
1077.0, 0.07674151342002924
1078.0, 0.07338863019256621
1079.0, 0.07684169732296656
1080.0, 0.07735288061199126
1081.0, 0.07235943949525486
1082.0, 0.06761870290931839
1083.0, 0.06969783848862271
1084.0, 0.061335759780049334
1085.0, 0.05833040461375958
1086.0, 0.05493538668001786
1087.0, 0.04742342794995245
1088.0, 0.04429954916324023
1089.0, 0.04623044997819902
1090.0, 0.040351822198837185
1091.0, 0.03383079526708971
1092.0, 0.030982453370300703
1093.0, 0.03355080045572974
1094.0, 0.034079569718851184
1095.0, 0.031746360823152985
1096.0, 0.029745634575462046
1097.0, 0.026700569733834546
1098.0, 0.02295836765873787
1099.0, 0.02024889165837275
1100.0, 0.01919922446068924
1101.0, 0.020999355405389223
1102.0, 0.017648491077228472
1103.0, 0.013608059673682893
1104.0, 0.007404989290626518
1105.0, 0.007324131253868126
1106.0, 0.010455587692201184
1107.0, 0.010556252085961278
1108.0, 0.00875197419047785
1109.0, 0.005232750189568529
1110.0, 0.004691818746104562
1111.0, 0.010753734431354762
1112.0, 0.011384804215134919
1113.0, 0.007851763411408738
1114.0, 0.0016880098863061798
1115.0, 0.009550448269376868
1116.0, 0.00686270986747094
1117.0, 0.013848082087511449
1118.0, 0.013753285048904875
1119.0, 0.011977834939163537
1120.0, 0.014040062786930037
1121.0, 0.013944454315494589
1122.0, 0.010841612427054823
1123.0, 0.013051945999059027
1124.0, 0.010841198703626891
1125.0, 0.012914956183925914
1126.0, 0.006701515029822761
1127.0, 0.007873513750626044
1128.0, 0.006675771843384918
1129.0, 0.002756183709733234
1130.0, 0.0013126063219166307
1131.0, 0.0015660399462048753
1132.0, 0.0036921935143619795
1133.0, 0.004395133303874088
1134.0, 0.0007889159506606896
1135.0, 0.0021226591690902477
1136.0, 0.0003944449147915048
1137.0, 0.0027039089278093793
1138.0, 0.00519975974119593
1139.0, 0.005468549293143785
1140.0, 0.003698656289746308
1141.0, 0.00414789607851259
1142.0, 0.002276663234738352
1143.0, 0.0006938541362256567
1144.0, 0.0006195917187550745
1145.0, 0.0005524865961327693
1146.0, 0.0014097763672929883
1147.0, 0.0011051010786358095
1148.0, 0.004076430881306944
1149.0, 0.0012059073853135634
1150.0, 0.0011114187908340535
1151.0, 0.0019473742172215547
1152.0, 0.002068848080860245
1153.0, 0.003523971422084789
1154.0, 0.0024651690639779264
1155.0, 0.0028949999423714167
1156.0, 0.0035120681869328834
1157.0, 0.0028464559382747087
1158.0, 0.0053325006643604005
1159.0, 0.0020893865242830097
1160.0, 0.0018026338373141584
1161.0, 0.0023558119208060366
1162.0, 0.00113176310374022
1163.0, 0.0012967742594563426
1164.0, 0.0017513010882237096
1165.0, 0.0006974080059584356
1166.0, 0.0034920836219622517
1167.0, 0.0037636246522853374
1168.0, 0.0018368610145497503
1169.0, 0.004671049641726421
1170.0, 0.007647270728033749
1171.0, 0.002891094775526212
1172.0, 0.0026717411827273823
1173.0, 0.004345227364390596
1174.0, 0.0004508221330522359
1175.0, 0.0017659466951580216
1176.0, 0.003390758921517972
1177.0, 0.0043818344264896295
1178.0, 0.0019130675093799944
1179.0, 0.001571965926249447
1180.0, 0.005106610890886383
1181.0, 0.005292029813670094
1182.0, 0.0006839693128684502
1183.0, 0.00054797938813472
1184.0, 0.0017556068279020332
1185.0, 0.00805243898090784
1186.0, 0.008140089887299619
1187.0, 0.0023824299853885613
1188.0, 0.002442824658043981
1189.0, 0.0029033255918918346
1190.0, 0.001500355639242018
1191.0, 0.003443907078609313
1192.0, 0.00878888764648233
1193.0, 0.009066545502791347
1194.0, 0.0035842193701730108
1195.0, 0.0025037448317776555
1196.0, 0.005246427037259876
1197.0, 0.0023901501977155286
1198.0, 0.001019572117434127
1199.0, 0.004875662403074193
1200.0, 0.0033814884501931776
1201.0, 0.0016702007590144565
1202.0, 0.006857901354029679
1203.0, 0.003521155597560024
1204.0, 0.0020904152621030055
1205.0, 0.004810995493179869
1206.0, 0.005513518361567757
1207.0, 0.004557144394063663
1208.0, 0.005538409791405319
1209.0, 0.007677700189823351
1210.0, 0.01017388646737964
1211.0, 0.010783783603642304
1212.0, 0.007702859031119264
1213.0, 0.008332240370905616
1214.0, 0.007841391283919997
1215.0, 0.0055540861699641345
1216.0, 0.005258354175298195
1217.0, 0.0072514764412169655
1218.0, 0.0075436365328353724
1219.0, 0.003956514185570147
1220.0, 0.0018351611105669498
1221.0, 0.004725258741436401
1222.0, 0.0046733017497872995
1223.0, 0.0011832716700849943
1224.0, 0.004237399638059941
1225.0, 0.009000060719300717
1226.0, 0.009127765239132658
1227.0, 0.006546836274738068
1228.0, 0.008820419162203613
1229.0, 0.008289363731512107
1230.0, 0.0038593264853865787
1231.0, 0.005697231196898005
1232.0, 0.008039847915899363
1233.0, 0.008845752086562905
1234.0, 0.010863596432317376
1235.0, 0.008827302479276896
1236.0, 0.011487332588346293
1237.0, 0.010782256158551225
1238.0, 0.00925475462636054
1239.0, 0.011932978562746728
1240.0, 0.010174742431395371
1241.0, 0.012923396778495196
1242.0, 0.013476231829615557
1243.0, 0.008743762947155044
1244.0, 0.012883961377391489
1245.0, 0.01516750105549054
1246.0, 0.016754704744257786
1247.0, 0.016573527662750675
1248.0, 0.010584355498767652
1249.0, 0.012275479160159627
1250.0, 0.012823627279481569
1251.0, 0.013108390800586714
1252.0, 0.01297445923210063
1253.0, 0.011927894206436812
1254.0, 0.01343851072617713
1255.0, 0.005826499285814949
1256.0, 0.0092244106364361
1257.0, 0.015436249550652488
1258.0, 0.009565485253419942
1259.0, 0.004384982620383329
1260.0, 0.009132025434526042
1261.0, 0.017130949074450123
1262.0, 0.018495277083948467
1263.0, 0.014115774648073487
1264.0, 0.014828261889367277
1265.0, 0.010741343958683649
1266.0, 0.009421287492157612
1267.0, 0.015662518728360764
1268.0, 0.016806291631443544
1269.0, 0.013129895963563405
1270.0, 0.015950983639829757
1271.0, 0.017732640681397214
1272.0, 0.01793310960477051
1273.0, 0.01813473015630255
1274.0, 0.016548690014893227
1275.0, 0.014075200442875926
1276.0, 0.013470904591933895
1277.0, 0.011764128859125408
1278.0, 0.00890572731589622
1279.0, 0.01388907490913106
1280.0, 0.005609867789661899
1281.0, 0.01232293147133933
1282.0, 0.009217940803260442
1283.0, 0.0042545903694769256
1284.0, 0.005988328444459275
1285.0, 0.003501296615291085
1286.0, 0.007887434255295048
1287.0, 0.004542957945494385
1288.0, 0.002047735518942089
1289.0, 0.003079341264354801
1290.0, 0.008780879175282369
1291.0, 0.014158344066664417
1292.0, 0.01297373722429593
1293.0, 0.01413443599551354
1294.0, 0.016082160796222014
1295.0, 0.013497702559010623
1296.0, 0.013615240156204708
1297.0, 0.009179844843770619
1298.0, 0.009481075731448642
1299.0, 0.005910659690674742
1300.0, 0.006711136131764685
1301.0, 0.008968200973655503
1302.0, 0.009375388960036275
1303.0, 0.009924015224546211
1304.0, 0.0107513408085307
1305.0, 0.010547016743049465
1306.0, 0.011340222786275198
1307.0, 0.012958285016494632
1308.0, 0.013313630938601514
1309.0, 0.01529237573959768
1310.0, 0.01495026507400759
1311.0, 0.014629775596826957
1312.0, 0.02259867426257261
1313.0, 0.016853787695805197
1314.0, 0.020376059533248125
1315.0, 0.017298057143021378
1316.0, 0.020803286162703053
1317.0, 0.020249221470083578
1318.0, 0.0178362009322416
1319.0, 0.014658320906437844
1320.0, 0.011336214137660025
1321.0, 0.013571344169750118
1322.0, 0.015550146987481039
1323.0, 0.01364286273056442
1324.0, 0.01345352154583892
1325.0, 0.011410025880850412
1326.0, 0.016078816034478964
1327.0, 0.01261565309291351
1328.0, 0.014511431734000064
1329.0, 0.008878689819728516
1330.0, 0.009972531178089411
1331.0, 0.014645675008484628
1332.0, 0.010708482507187282
1333.0, 0.009140305006000129
1334.0, 0.011043405847401988
1335.0, 0.005220696489717053
1336.0, 0.006534299754000682
1337.0, 0.006981643250413098
1338.0, 0.007393701860140448
1339.0, 0.009944968438482055
1340.0, 0.010222558606712576
1341.0, 0.012956382534781293
1342.0, 0.009738881806268309
1343.0, 0.010681941017055703
1344.0, 0.014469740210014565
1345.0, 0.01315592694265551
1346.0, 0.015192680860221687
1347.0, 0.015341800879874036
1348.0, 0.014848713852473088
1349.0, 0.01443302330262517
1350.0, 0.010212820251430593
1351.0, 0.007977431377876067
1352.0, 0.006203968569326116
1353.0, 0.00745654443012618
1354.0, 0.007227860218286316
1355.0, 0.009532644693748538
1356.0, 0.011434335762209329
1357.0, 0.008563619106498584
1358.0, 0.0099064868789107
1359.0, 0.010770685558589715
1360.0, 0.004899075156049963
1361.0, 0.012340389139340546
1362.0, 0.015248768416129805
1363.0, 0.010575664608457729
1364.0, 0.007015308623459749
1365.0, 0.001721700339946264
1366.0, 0.004182841814653233
1367.0, 0.008352074594175762
1368.0, 0.00898763452549502
1369.0, 0.012047661672147592
1370.0, 0.011917885101759007
1371.0, 0.01161215540417148
1372.0, 0.012590994744691612
1373.0, 0.015565841177554347
1374.0, 0.015951347662503793
1375.0, 0.013688659889502514
1376.0, 0.013883593541886695
1377.0, 0.012092020238131896
1378.0, 0.011017203926069146
1379.0, 0.009677217320319936
1380.0, 0.01283828249816605
1381.0, 0.015289311372957401
1382.0, 0.019202406943990762
1383.0, 0.017803927486422375
1384.0, 0.010608277233947494
1385.0, 0.013731720435548017
1386.0, 0.009999601773454832
1387.0, 0.0074647856444606895
1388.0, 0.011382217954390261
1389.0, 0.012263901303874274
1390.0, 0.01112174671953453
1391.0, 0.00784200432681636
1392.0, 0.0038924210021688676
1393.0, 0.0057057384604709965
1394.0, 0.010380508734766687
1395.0, 0.009140801877034156
1396.0, 0.004500928111298046
1397.0, 0.001959069827756555
1398.0, 0.004028919664032364
1399.0, 0.007276983680232397
1400.0, 0.0064033942890747465
1401.0, 0.006255686184115736
1402.0, 0.013139845738978717
1403.0, 0.013045545220460695
1404.0, 0.005703876674442235
1405.0, 0.010420695604284824
1406.0, 0.01046640781201873
1407.0, 0.0064277784530970185
1408.0, 0.006024928150949439
1409.0, 0.00490182646108784
1410.0, 0.005187841124844004
1411.0, 0.004962796143458803
1412.0, 0.0034000456474186994
1413.0, 0.0045973900157829685
1414.0, 0.006075666530851718
1415.0, 0.0067014848815018365
1416.0, 0.010397274859062142
1417.0, 0.007852784529233658
1418.0, 0.004157404732127886
1419.0, 0.011918915629071386
1420.0, 0.009247840515654122
1421.0, 0.006362056170235062
1422.0, 0.00957071576719283
1423.0, 0.012909664353073735
1424.0, 0.009904516891947213
1425.0, 0.009040347009259816
1426.0, 0.007960603515932993
1427.0, 0.007138746066571075
1428.0, 0.00749757928706716
1429.0, 0.007471150993884464
1430.0, 0.008997229965455565
1431.0, 0.010863513152341325
1432.0, 0.012522587733017971
1433.0, 0.016390879714824613
1434.0, 0.018726261757040733
1435.0, 0.01923540859077773
1436.0, 0.02284093354577857
1437.0, 0.024630154875175503
1438.0, 0.022609808540109865
1439.0, 0.02224853638171728
1440.0, 0.02159324308447702
1441.0, 0.027616765995354287
1442.0, 0.030940348016808603
1443.0, 0.03522360333619427
1444.0, 0.034902871243889536
1445.0, 0.03589804616373944
1446.0, 0.041342162388042294
1447.0, 0.04070463554755056
1448.0, 0.03253553130311677
1449.0, 0.030831620333940667
1450.0, 0.0365377943913411
1451.0, 0.03459711845949837
1452.0, 0.038519317703786096
1453.0, 0.032418349329135454
1454.0, 0.03216840560835005
1455.0, 0.0374094120822468
1456.0, 0.034775728835043464
1457.0, 0.034286493561981275
1458.0, 0.035247785229015116
1459.0, 0.02984060894589501
1460.0, 0.028083422896647916
1461.0, 0.02686202274444522
1462.0, 0.02695710065276525
1463.0, 0.02280872355447334
1464.0, 0.022803017654873945
1465.0, 0.027204107214975366
1466.0, 0.020623653131176357
1467.0, 0.023902596090857407
1468.0, 0.01656292738128679
1469.0, 0.019915427840812912
1470.0, 0.015061362733959848
1471.0, 0.01920718791268977
1472.0, 0.024302788438072057
1473.0, 0.01950416896725536
1474.0, 0.013076516805000334
1475.0, 0.01499705142708304
1476.0, 0.012043184195980466
1477.0, 0.008675786461963918
1478.0, 0.013726856629697306
1479.0, 0.014834807129955356
1480.0, 0.016277655533691114
1481.0, 0.017711157639792287
1482.0, 0.012142836633444903
1483.0, 0.010023238128591242
1484.0, 0.01481482041910537
1485.0, 0.01672581684553772
1486.0, 0.014666321192871855
1487.0, 0.014753042978499437
1488.0, 0.009608128365873297
1489.0, 0.013932963871546956
1490.0, 0.011891438010844614
1491.0, 0.00851182567959288
1492.0, 0.008149003800427155
1493.0, 0.011758545921068321
1494.0, 0.0029777278565285966
1495.0, 0.009259121863844455
1496.0, 0.007084024863563269
1497.0, 0.005174380199317212
1498.0, 0.008167794719052273
1499.0, 0.011840790968113532
1500.0, 0.0032699536238772527
1501.0, 0.0008838004627624869
1502.0, 0.003993165692831878
1503.0, 0.004489935053434452
1504.0, 0.011711766843892902
1505.0, 0.010742342120647187
1506.0, 0.007944588326291396
1507.0, 0.005929338407256181
1508.0, 0.005282509207549209
1509.0, 0.00664787057420189
1510.0, 0.005755496386765799
1511.0, 0.005538305028352424
1512.0, 0.006115861539113098
1513.0, 0.008191621580910398
1514.0, 0.007279233675173857
1515.0, 0.006273457151374725
1516.0, 0.006728231109240283
1517.0, 0.003949114074754019
1518.0, 0.0017335841330886844
1519.0, 0.0033390201988725845
1520.0, 0.007574527292316838
1521.0, 0.009113454275086608
1522.0, 0.006875290112800048
1523.0, 0.010078858840002619
1524.0, 0.008362293461615688
1525.0, 0.006419154056890151
1526.0, 0.005834439042201483
1527.0, 0.005429884103446748
1528.0, 0.0038653236141923124
1529.0, 0.0036234317677640107
1530.0, 0.002932569029490991
1531.0, 0.006559057175382478
1532.0, 0.006922216964944311
1533.0, 0.0047301167795301205
1534.0, 0.0014868840238745316
1535.0, 0.0031903220798831897
1536.0, 0.008822183570640059
1537.0, 0.007970038274562568
1538.0, 0.008269681045751888
1539.0, 0.0071585357138991
1540.0, 0.0016151911010733207
1541.0, 0.005672926650829587
1542.0, 0.012222623773632365
1543.0, 0.010152765420534306
1544.0, 0.005782892837239111
1545.0, 0.002729490212263609
1546.0, 0.004903037679958082
1547.0, 0.0005714928359491035
1548.0, 0.0038343565257944493
1549.0, 0.009128719153127417
1550.0, 0.006953946112267859
1551.0, 0.014470179359933553
1552.0, 0.010095479290216043
1553.0, 0.014768980424351074
1554.0, 0.013964801410666383
1555.0, 0.01044330637208622
1556.0, 0.006076439635762607
1557.0, 0.012759615854519228
1558.0, 0.009366689151542932
1559.0, 0.013183080961947662
1560.0, 0.0023957597402604527
1561.0, 0.005478893021049152
1562.0, 0.006071057166412548
1563.0, 0.009576306149187749
1564.0, 0.010446401116437102
1565.0, 0.015586542736808717
1566.0, 0.017049949826375994
1567.0, 0.005859791939298695
1568.0, 0.01006853693094227
1569.0, 0.005024791462367154
1570.0, 1.5250283193492695e-05
1571, 0.0
1572, 0.0
1573, 0.0
1574, 0.0
1575, 0.0
1576, 0.0
1577, 0.0
1578, 0.0
1579, 0.0
1580, 0.0
1581, 0.0
1582, 0.0
1583, 0.0
1584, 0.0
1585, 0.0
1586, 0.0
1587, 0.0
1588, 0.0
1589, 0.0
1590, 0.0
1591, 0.0
1592, 0.0
1593, 0.0
1594, 0.0
1595, 0.0
1596, 0.0
1597, 0.0
1598, 0.0
1599, 0.0
