30, 0.0
31, 0.0
32, 0.0
33, 0.0
34, 0.0
35, 0.0
36, 0.0
37, 0.0
38, 0.0
39, 0.0
40, 0.0
41, 0.0
42, 0.0
43, 0.0
44, 0.0
45, 0.0
46, 0.0
47, 0.0
48, 0.0
49, 0.0
50, 0.0
51, 0.0
52, 0.0
53, 0.0
54, 0.0
55, 0.0
56, 0.0
57, 0.0
58, 0.0
59, 0.0
60, 0.0
61, 0.0
62, 0.0
63, 0.0
64, 0.0
65, 0.0
66, 0.0
67, 0.0
68, 0.0
69, 0.0
70, 0.0
71, 0.0
72, 0.0
73, 0.0
74, 0.0
75, 0.0
76, 0.0
77, 0.0
78, 0.0
79, 0.0
80, 0.0
81, 0.0
82, 0.0
83, 0.0
84, 0.0
85, 0.0
86, 0.0
87, 0.0
88, 0.0
89, 0.0
90, 0.0
91, 0.0
92, 0.0
93, 0.0
94.0, 0.0020396165289450034
95.0, 0.008829375300750272
96.0, 0.023041995996139878
97.0, 0.04207373153029939
98.0, 0.062087767973785166
99.0, 0.08302245479629515
100.0, 0.10737747182604211
101.0, 0.13664423127990963
102.0, 0.16223008252686477
103.0, 0.19592207101307407
104.0, 0.23620228077784985
105.0, 0.28129020918347303
106.0, 0.3232390374268647
107.0, 0.3400355833863591
108.0, 0.34454989715707324
109.0, 0.3471936483462591
110.0, 0.3460942295663277
111.0, 0.3423756657371174
112.0, 0.34109171231708457
113.0, 0.34520520235249774
114.0, 0.3351034450731629
115.0, 0.3185025720396962
116.0, 0.29299446580924354
117.0, 0.25464199581753033
118.0, 0.22457390026885
119.0, 0.19713977763801932
120.0, 0.17192278819757206
121.0, 0.1481486047128667
122.0, 0.1243760721465828
123.0, 0.09777178647139587
124.0, 0.07715489344000102
125.0, 0.058847620256156724
126.0, 0.043646092163241806
127.0, 0.031125309388934853
128.0, 0.01917042863269352
129.0, 0.009005234953505102
130.0, 0.0034379164800814347
131.0, 0.005486820651105194
132.0, 0.010904284798296375
133.0, 0.012411754595549574
134.0, 0.008559237150083897
135.0, 0.010441964831487146
136.0, 0.008875148543893367
137.0, 0.004696164255218712
138.0, 0.0017775149967749022
139.0, 0.005880146676270182
140.0, 0.013609476064674357
141.0, 0.019496033451526246
142.0, 0.02521405236681391
143.0, 0.031184682247065356
144.0, 0.036149827341239275
145.0, 0.0381368799789099
146.0, 0.0399719702947943
147.0, 0.03988744664436263
148.0, 0.038693960077332876
149.0, 0.037310731874876976
150.0, 0.032243658989156265
151.0, 0.026647432428611798
152.0, 0.021952394838926092
153.0, 0.019759562139768032
154.0, 0.018653437726706735
155.0, 0.012694087043204436
156.0, 0.00975068509990834
157.0, 0.015768570060818516
158.0, 0.023166014552538177
159.0, 0.03022879817995877
160.0, 0.03912142904322158
161.0, 0.05060436285673328
162.0, 0.0631704201550166
163.0, 0.07858201061019074
164.0, 0.09587310542722392
165.0, 0.11440730544283638
166.0, 0.13597900390148032
167.0, 0.16629536319310262
168.0, 0.19478616589588837
169.0, 0.2227009939918767
170.0, 0.25413310366106706
171.0, 0.29322592801224373
172.0, 0.32406658758903045
173.0, 0.3525467458515812
174.0, 0.37631538625019356
175.0, 0.3929547406084655
176.0, 0.40258254969997986
177.0, 0.41205770349012893
178.0, 0.4092736744138097
179.0, 0.40025757349169433
180.0, 0.38608967781632675
181.0, 0.36562576179545175
182.0, 0.33615307768901204
183.0, 0.300593186229123
184.0, 0.26877623469256356
185.0, 0.2373041089669521
186.0, 0.20735574007845747
187.0, 0.1808321668183419
188.0, 0.1566025595073639
189.0, 0.14790042536576314
190.0, 0.13541235798765397
191.0, 0.12231845002903174
192.0, 0.11254418642753827
193.0, 0.1077379471577591
194.0, 0.09965701564885426
195.0, 0.09102399726055813
196.0, 0.08345022787961465
197.0, 0.07641772542056678
198.0, 0.06947916678878191
199.0, 0.06520617462132183
200.0, 0.06580750564389375
201.0, 0.06213453234305709
202.0, 0.058130414931011044
203.0, 0.0568375076389905
204.0, 0.05900356156924628
205.0, 0.06821720416260478
206.0, 0.07645456733099462
207.0, 0.08854679849971979
208.0, 0.10254198584237398
209.0, 0.11617611220940187
210.0, 0.13317704112169673
211.0, 0.15172509464698988
212.0, 0.17216019662430307
213.0, 0.19455778148755926
214.0, 0.21727571257840303
215.0, 0.23781138695501144
216.0, 0.2590087754201597
217.0, 0.27701756462379323
218.0, 0.29343366080097455
219.0, 0.3035607024636713
220.0, 0.3078245306905652
221.0, 0.3208649684066332
222.0, 0.32808622798845316
223.0, 0.3357793915126463
224.0, 0.340205920058628
225.0, 0.33903059915287137
226.0, 0.3304642396970363
227.0, 0.3065786726605433
228.0, 0.2815052646631623
229.0, 0.25367798837941247
230.0, 0.22748002183110852
231.0, 0.20256007427706904
232.0, 0.1701503959898408
233.0, 0.12914026005547202
234.0, 0.09765847324438029
235.0, 0.0723658845485728
236.0, 0.04904768969165123
237.0, 0.026189800494980372
238.0, 0.013174953794479301
239.0, 0.0029143357303827765
240.0, 0.002916727869634179
241.0, 0.006359846738321567
242.0, 0.00836446891737635
243.0, 0.008524417029606953
244.0, 0.01498552251092996
245.0, 0.010497851586980859
246.0, 0.008184012216060297
247.0, 0.006300460206654013
248.0, 0.0032675971146808366
249.0, 0.005494709400756869
250.0, 0.010606342834226127
251.0, 0.015958391029645375
252.0, 0.02128048477821396
253.0, 0.02646489503628245
254.0, 0.03145509227786608
255.0, 0.03598202378841293
256.0, 0.04145848157596701
257.0, 0.04599492351256955
258.0, 0.04366793973587469
259.0, 0.034023244005253785
260.0, 0.02333481837258654
261.0, 0.02285959220721185
262.0, 0.016349454471026738
263.0, 0.012343543618228148
264.0, 0.009285452153723946
265.0, 0.005180725653571186
266.0, 0.0026554918937129225
267.0, 0.003779289609771538
268.0, 0.0022691975189021115
269.0, 0.0009505406497441747
270.0, 0.0007378661630130614
271.0, 0.0014857932693435635
272.0, 0.0034217300017965434
273.0, 0.0037836683608473455
274.0, 0.004559472905441878
275.0, 0.005977596627839619
276.0, 0.00829320249455002
277.0, 0.011074600621941716
278.0, 0.007202910048959085
279.0, 0.010628477531038582
280.0, 0.01200915443045229
281.0, 0.01041465743255968
282.0, 0.008331901258479563
283.0, 0.009964478392926726
284.0, 0.008588870342756325
285.0, 0.0066547279177984605
286.0, 0.005908953443554074
287.0, 0.0044294676164704
288.0, 0.0013984560041990798
289.0, 0.0016488696454579198
290.0, 0.0018062124713871027
291.0, 0.0012176604206780668
292.0, 0.0018914832895060123
293.0, 0.0024968794448311424
294.0, 0.0012634828185999485
295.0, 0.0025197507866902722
296.0, 0.0030062497044178868
297.0, 0.0038939312509622685
298.0, 0.004175441819745499
299.0, 0.004006470679618681
300.0, 0.004198547042191944
301.0, 0.0018079376579613628
302.0, 0.0013949631154288218
303.0, 0.001487041024346785
304.0, 0.0010097005252502824
305.0, 0.0011467331115359572
306.0, 0.0046685775163508286
307.0, 0.0007044936644676253
308.0, 0.0027022151339562983
309.0, 0.0024587250995191986
310.0, 0.0017011370461963743
311.0, 0.002339106313233713
312.0, 0.0018531233581933397
313.0, 0.0021895614505461364
314.0, 0.000924844989120627
315.0, 0.0002141711575642612
316.0, 0.0026611574227604347
317.0, 0.006857111690852592
318.0, 0.0022552953597896924
319.0, 0.007334514430925825
320.0, 0.00923814485309694
321.0, 0.009351829227493062
322.0, 0.009737442259071557
323.0, 0.012082045448908079
324.0, 0.016504775185047952
325.0, 0.01351822237764081
326.0, 0.01819178650191041
327.0, 0.022680964909888825
328.0, 0.024620092358727197
329.0, 0.02572243383148553
330.0, 0.02402430173382872
331.0, 0.029194759326915343
332.0, 0.03450887450387545
333.0, 0.03833932066688828
334.0, 0.04186522374118571
335.0, 0.04716699053239983
336.0, 0.05075030859629662
337.0, 0.054633062007995004
338.0, 0.060041376624536104
339.0, 0.06377350867305039
340.0, 0.06593653264672496
341.0, 0.06966783942503939
342.0, 0.07244351987214623
343.0, 0.07206401086878189
344.0, 0.07064378972930027
345.0, 0.07055287200131424
346.0, 0.07035480005349468
347.0, 0.06592061033648373
348.0, 0.06601697841973447
349.0, 0.06586530623589978
350.0, 0.06920660258952087
351.0, 0.07125486536784296
352.0, 0.06991992010649656
353.0, 0.06858131502568791
354.0, 0.06933033531088788
355.0, 0.06877828400879388
356.0, 0.06994303384108831
357.0, 0.07188870353066878
358.0, 0.07168568700190728
359.0, 0.06649685878716191
360.0, 0.06822764981372657
361.0, 0.0628925004704941
362.0, 0.06007752142596081
363.0, 0.05672818531401793
364.0, 0.05194166244222064
365.0, 0.050894802853713145
366.0, 0.04542687105071137
367.0, 0.042739499799491446
368.0, 0.03975667811876727
369.0, 0.03635378163061846
370.0, 0.03436921146931812
371.0, 0.036443161689061074
372.0, 0.0368889070467801
373.0, 0.03091790816532147
374.0, 0.03224030934321173
375.0, 0.03335027452764135
376.0, 0.0305728298829727
377.0, 0.03149654870010872
378.0, 0.031647129291692305
379.0, 0.025757365526895747
380.0, 0.024870551336269864
381.0, 0.023933439697427134
382.0, 0.019532454278191613
383.0, 0.015191385834869429
384.0, 0.013230643937413484
385.0, 0.008792233740435236
386.0, 0.005982933744101599
387.0, 0.00483675669974398
388.0, 0.003717309334214626
389.0, 0.001034991028859959
390.0, 0.0021736788830566196
391.0, 0.0024864115122310627
392.0, 0.0035665445791891455
393.0, 0.0028592681442907433
394.0, 0.0019352199119156883
395.0, 0.005484896401815626
396.0, 0.006359105052652004
397.0, 0.003875106651681355
398.0, 0.003253720093019952
399.0, 0.0038237633762624504
400.0, 0.004505880459857774
401.0, 0.004725872706883505
402.0, 0.003955954071249886
403.0, 0.004263691141456212
404.0, 0.00376336006317638
405.0, 0.00405027656745885
406.0, 0.003889128987729901
407.0, 0.0012461456398249538
408.0, 0.000373268791395398
409.0, 0.0007383386510182925
410.0, 0.004260029105286656
411.0, 0.003848131363177807
412.0, 0.003855627100253077
413.0, 0.009999337598639786
414.0, 0.009842292070359275
415.0, 0.01250722575385822
416.0, 0.01860514520489229
417.0, 0.025288134394795294
418.0, 0.03123993583987627
419.0, 0.03680804198876372
420.0, 0.04381357091465384
421.0, 0.05141542160430261
422.0, 0.057876514444580224
423.0, 0.06603338130240553
424.0, 0.07801689493954403
425.0, 0.09190526747539765
426.0, 0.1009465946874621
427.0, 0.11477638866077082
428.0, 0.1262288060402379
429.0, 0.1425003442202415
430.0, 0.1567079532082747
431.0, 0.16829405690096452
432.0, 0.18656199554282535
433.0, 0.2009172407922292
434.0, 0.21634598744571285
435.0, 0.22916003436345714
436.0, 0.239017127706237
437.0, 0.24532827137030536
438.0, 0.24823957947624437
439.0, 0.2543203547404756
440.0, 0.2522883188211011
441.0, 0.2474857459410642
442.0, 0.23436194005782854
443.0, 0.21686383045377614
444.0, 0.20187160578834787
445.0, 0.18559133341222547
446.0, 0.17059992231786564
447.0, 0.15332472712694653
448.0, 0.1417063950810081
449.0, 0.1318256631246917
450.0, 0.1184282177979033
451.0, 0.10420123940021653
452.0, 0.09993904936757354
453.0, 0.09777810629690059
454.0, 0.0951008962722402
455.0, 0.09329156491901576
456.0, 0.0944144357036281
457.0, 0.0992485285799938
458.0, 0.10429067926563564
459.0, 0.11604224568675414
460.0, 0.13418945167217722
461.0, 0.1529526010162012
462.0, 0.17117533528143017
463.0, 0.19134248398031783
464.0, 0.21307849326851774
465.0, 0.24617242267097675
466.0, 0.2732853352636212
467.0, 0.29445356540559486
468.0, 0.31453601711754026
469.0, 0.33358200492707796
470.0, 0.33981415073579696
471.0, 0.3415307344039693
472.0, 0.3390989273779983
473.0, 0.32749551692108647
474.0, 0.3066668955472185
475.0, 0.2814872400914587
476.0, 0.2579192115614787
477.0, 0.22505082450870834
478.0, 0.20601141361175498
479.0, 0.18471795263301902
480.0, 0.16768691333206784
481.0, 0.15606196428810074
482.0, 0.14692879202730172
483.0, 0.14283499095966481
484.0, 0.14114760394653708
485.0, 0.14027067625432904
486.0, 0.14170423630557474
487.0, 0.14512613573223387
488.0, 0.14794347021352663
489.0, 0.14665542239500665
490.0, 0.15003719357372491
491.0, 0.148458156818686
492.0, 0.14758607358173187
493.0, 0.14429555504141695
494.0, 0.1373751073054082
495.0, 0.12904899898634473
496.0, 0.12214248286207458
497.0, 0.11304317983376672
498.0, 0.10202691431506739
499.0, 0.09461004563306886
500.0, 0.08648900581490827
501.0, 0.07485243304470968
502.0, 0.06745879646806038
503.0, 0.06149664757189583
504.0, 0.05765319780245394
505.0, 0.05421400291776815
506.0, 0.05238203646574874
507.0, 0.05341640664504218
508.0, 0.05658571765218338
509.0, 0.055811886320402945
510.0, 0.05801572429072591
511.0, 0.06476325001578878
512.0, 0.07407437998535958
513.0, 0.08343999974734043
514.0, 0.09266676383708583
515.0, 0.10552493023354768
516.0, 0.12431545790715146
517.0, 0.14536818479533742
518.0, 0.17100199938060695
519.0, 0.2023311870551812
520.0, 0.2389866346109781
521.0, 0.28040186518897287
522.0, 0.32916467199451754
523.0, 0.3820209277114199
524.0, 0.44480709196135265
525.0, 0.5113074466810381
526.0, 0.5833602377314195
527.0, 0.6607554689513443
528.0, 0.7352904412219333
529.0, 0.8076263621208556
530.0, 0.8715236052689522
531.0, 0.9240437030872193
532.0, 0.9646442358946258
533.0, 0.9905096069149831
534.0, 0.9986966028285654
535.0, 0.9914662744789746
536.0, 0.959941249190373
537.0, 0.9172841263208125
538.0, 0.85899233984269
539.0, 0.7912763889641706
540.0, 0.7205955523822787
541.0, 0.649027093643566
542.0, 0.5789921498026217
543.0, 0.5128798403050048
544.0, 0.4506442259976259
545.0, 0.4023580002242063
546.0, 0.3607249530816001
547.0, 0.31609048357142794
548.0, 0.273639569229756
549.0, 0.244987581890777
550.0, 0.2179866155359162
551.0, 0.19276282640704484
552.0, 0.17130414406818123
553.0, 0.15266932830456603
554.0, 0.13448487810700668
555.0, 0.11796534129759306
556.0, 0.10811016540497756
557.0, 0.0975245465934587
558.0, 0.08873947422369946
559.0, 0.08040396887422055
560.0, 0.07220461691872261
561.0, 0.06626775448430913
562.0, 0.06338990354822419
563.0, 0.05707477542185029
564.0, 0.05286431803149487
565.0, 0.04766668593538641
566.0, 0.042562901143073505
567.0, 0.037759446067461656
568.0, 0.03026064052337012
569.0, 0.03299057781293673
570.0, 0.03292606025387695
571.0, 0.02666174814240778
572.0, 0.021575526553143258
573.0, 0.018293109667367042
574.0, 0.015514642763319755
575.0, 0.018655888176894772
576.0, 0.01522415966972089
577.0, 0.012361557912198628
578.0, 0.01018636341541456
579.0, 0.009917747897939129
580.0, 0.011354502257312448
581.0, 0.011589564250728395
582.0, 0.0046920289135285835
583.0, 0.006972016848212267
584.0, 0.00385177676594381
585.0, 0.005861684844536454
586.0, 0.0059402591329933046
587.0, 0.001981118420885555
588.0, 0.0014407733828926007
589.0, 0.007619054814969051
590.0, 0.00615825899850825
591.0, 0.007032261229909677
592.0, 0.007527784039994269
593.0, 0.008027599036251219
594.0, 0.010030680575529147
595.0, 0.013641917853868604
596.0, 0.01396245180389756
597.0, 0.017605893138282043
598.0, 0.022617628363828978
599.0, 0.026831223700917044
600.0, 0.02900850914262735
601.0, 0.03036406464733039
602.0, 0.03386176196182541
603.0, 0.03773224105896591
604.0, 0.0374012533765246
605.0, 0.0351323210472253
606.0, 0.03460130169474321
607.0, 0.03377749268204715
608.0, 0.030242267357643553
609.0, 0.025716692216245122
610.0, 0.02385340807764112
611.0, 0.021488166804847324
612.0, 0.020312530652642075
613.0, 0.01620483916523627
614.0, 0.013808665319843165
615.0, 0.014309053343764786
616.0, 0.009063194269102503
617.0, 0.011023138790794607
618.0, 0.012242158551176979
619.0, 0.012796071234329713
620.0, 0.012414460681060122
621.0, 0.012321818559544739
622.0, 0.012634953162024135
623.0, 0.011462526848888065
624.0, 0.013958306251183538
625.0, 0.009131079968241026
626.0, 0.0053823304406331145
627.0, 0.006256387961622112
628.0, 0.005882469815034054
629.0, 0.002887598951192733
630.0, 0.007159357117654899
631.0, 0.009953739387838447
632.0, 0.007419091334049832
633.0, 0.006969929095813146
634.0, 0.006009764748279837
635.0, 0.0058987956030389765
636.0, 0.007364485785531725
637.0, 0.007256914694818254
638.0, 0.005859116706296937
639.0, 0.012108169205363103
640.0, 0.010546699247303138
641.0, 0.010598934890431773
642.0, 0.007982536539010899
643.0, 0.003240704138862037
644.0, 0.00695361375460734
645.0, 0.0031160243463480616
646.0, 0.007328912835706861
647.0, 0.0073420162539361445
648.0, 0.008398940220931754
649.0, 0.007985503787651999
650.0, 0.006723661465788526
651.0, 0.008552867805248976
652.0, 0.0017340716832022797
653.0, 0.00998847739013769
654.0, 0.00972022038834521
655.0, 0.0074900003402650845
656.0, 0.008349969853686981
657.0, 0.009486708964377994
658.0, 0.00635472022518564
659.0, 0.008975753359506924
660.0, 0.0075386490479214426
661.0, 0.008235858290084079
662.0, 0.006383901967755957
663.0, 0.007637022688467563
664.0, 0.010013919616036593
665.0, 0.008742338853592624
666.0, 0.010682936106213174
667.0, 0.011265827349380142
668.0, 0.007209527148509831
669.0, 0.008124643885580663
670.0, 0.013000318045195197
671.0, 0.014963465459674271
672.0, 0.01114092695358245
673.0, 0.0095386652824376
674.0, 0.016935021163514228
675.0, 0.013872733976370575
676.0, 0.014215723563781264
677.0, 0.014627504445482593
678.0, 0.012629520165001528
679.0, 0.013125267025251226
680.0, 0.022828637123995455
681.0, 0.02338934243455727
682.0, 0.0199569740209741
683.0, 0.022917150772098167
684.0, 0.024372264405070822
685.0, 0.023307894601955752
686.0, 0.02419057793957434
687.0, 0.02961043594084684
688.0, 0.030622431219669018
689.0, 0.03013132483226621
690.0, 0.035582444708224026
691.0, 0.03821641195144047
692.0, 0.037215378205459525
693.0, 0.038409722698963616
694.0, 0.04193387466331957
695.0, 0.03592633464267402
696.0, 0.038210603705880516
697.0, 0.039344517825007794
698.0, 0.04299054399073727
699.0, 0.04325769197350255
700.0, 0.0421876789582068
701.0, 0.042685308784094385
702.0, 0.0435082111674084
703.0, 0.04308111663685295
704.0, 0.0421732827705492
705.0, 0.04148318798088857
706.0, 0.040809011238268
707.0, 0.03974700650547991
708.0, 0.03901773026719384
709.0, 0.03931063756866042
710.0, 0.03942199533842348
711.0, 0.0394343837110711
712.0, 0.03771342781966742
713.0, 0.03795831495409181
714.0, 0.03785790938254119
715.0, 0.038281814694657176
716.0, 0.03928250839093479
717.0, 0.038439636944501095
718.0, 0.03794527143925607
719.0, 0.03815950572879814
720.0, 0.034429797366177795
721.0, 0.033914751228910564
722.0, 0.03203008420043062
723.0, 0.028227556195396266
724.0, 0.026598860203630517
725.0, 0.028006504762826026
726.0, 0.031131163513045224
727.0, 0.028775327890259855
728.0, 0.02847690495678435
729.0, 0.026804452435600472
730.0, 0.024537503620625737
731.0, 0.02223233530989144
732.0, 0.019603176836598388
733.0, 0.02382584269585393
734.0, 0.019175636792185737
735.0, 0.0197147764435462
736.0, 0.021175727553430727
737.0, 0.01791078132842041
738.0, 0.01370583501997276
739.0, 0.013419708970454509
740.0, 0.013032419028070797
741.0, 0.012391010333495102
742.0, 0.011878389030038078
743.0, 0.010640205620660119
744.0, 0.012096391479146
745.0, 0.012634691382405852
746.0, 0.010703438021096136
747.0, 0.009144753579528594
748.0, 0.009993461912741915
749.0, 0.0068110185449222725
750.0, 0.011997809346759022
751.0, 0.013063411649973914
752.0, 0.006049402973609452
753.0, 0.002078502110581978
754.0, 0.005336518842077472
755.0, 0.006401992786848232
756.0, 0.005645093247569432
757.0, 0.009249164857453376
758.0, 0.007515990723870618
759.0, 0.0061813138667123815
760.0, 0.005637235988757456
761.0, 0.0064973211599562595
762.0, 0.008145518152602371
763.0, 0.008786834882862915
764.0, 0.01418868743812712
765.0, 0.00965311545119973
766.0, 0.011012058719066638
767.0, 0.017100339482770933
768.0, 0.016662311763252596
769.0, 0.013925636332807283
770.0, 0.015909953915083413
771.0, 0.013977525635540704
772.0, 0.016289010183049592
773.0, 0.019478794076246038
774.0, 0.02023372042569912
775.0, 0.0172800482500501
776.0, 0.012852425358466717
777.0, 0.010170605993299801
778.0, 0.010177859202848865
779.0, 0.010229610733263849
780.0, 0.011319667314672257
781.0, 0.00708256576321204
782.0, 0.002284327444198618
783.0, 0.005369296632913402
784.0, 0.010102032790688156
785.0, 0.010014226770360457
786.0, 0.00648378125631914
787.0, 0.006064858470297205
788.0, 0.00780654880830705
789.0, 0.003659856318524479
790.0, 0.0031771227838363184
791.0, 0.0030715994824062694
792.0, 0.0038086476375984017
793.0, 0.005415995501256682
794.0, 0.006868532846061547
795.0, 0.0084460932629059
796.0, 0.0011385726059871216
797.0, 0.005418931527898047
798.0, 0.0033467776519773965
799.0, 0.0013147585790748615
800.0, 0.0014797029711596339
801.0, 0.002342066711733472
802.0, 0.00246827281705201
803.0, 0.002813461521680264
804.0, 0.003204018107696877
805.0, 0.0031973161771350796
806.0, 0.001311819661646334
807.0, 0.00022296965188193754
808.0, 0.0012187946257456663
809.0, 0.0025151600880588387
810.0, 0.002645936645454328
811.0, 0.004267194922158419
812.0, 0.00605589048319835
813.0, 0.004011375355325779
814.0, 0.0025492542386582407
815.0, 0.0032263113945343322
816.0, 0.0025322943830879885
817.0, 0.001066166356129505
818.0, 0.0011016565188505403
819.0, 0.0008367322541197152
820.0, 0.002448941154282322
821.0, 0.005139172265234894
822.0, 0.0019292251099777777
823.0, 0.0006335052116323223
824.0, 0.0025128531769475835
825.0, 0.003109616279166018
826.0, 0.0016999729406733505
827.0, 0.0036402933995388297
828.0, 0.0023931219938663345
829.0, 0.003546239357096915
830.0, 0.0014638862395342136
831.0, 0.0032424904108378
832.0, 0.004761954750370587
833.0, 0.0035874010141727208
834.0, 0.0022146263646111103
835.0, 0.00321088165471108
836.0, 0.0009120016328004847
837.0, 0.0002705046770474832
838.0, 0.001413653768539717
839.0, 0.0008122790690508441
840.0, 0.001613557755470819
841.0, 0.0024856435967741805
842.0, 0.0025061472255358728
843.0, 0.0024560259111664883
844.0, 0.0016031017753189234
845.0, 0.0008434845876993638
846.0, 0.001236123620183866
847.0, 0.002583088155258117
848.0, 0.0028909807498106884
849.0, 0.003861663214070372
850.0, 0.0032710458551044415
851.0, 0.0008348454283260764
852.0, 0.0022340716704228446
853.0, 0.0035853297599712152
854.0, 0.0016089390126337029
855.0, 0.001211571017338702
856.0, 0.002575165407169643
857.0, 0.002264092648806876
858.0, 0.0013550080411223954
859.0, 0.0024522410284588984
860.0, 0.004557876892110851
861.0, 0.0023563548951199467
862.0, 0.00133861484175483
863.0, 0.0008775992979940944
864.0, 0.004845216833211874
865.0, 0.0037781726066189745
866.0, 0.005689705812862547
867.0, 0.006047084545930825
868.0, 0.0014759619817990776
869.0, 0.0053160410912174395
870.0, 0.00467956652961793
871.0, 0.000880001020630578
872.0, 0.0024251615160814557
873.0, 0.002517084338049922
874.0, 0.0026679067013816848
875.0, 0.0022350285365513043
876.0, 0.0009481452573501864
877.0, 0.0006448125661552993
878.0, 0.0021962894441829263
879.0, 0.0009199675131989493
880.0, 0.004742578049966513
881.0, 0.0032118916774258066
882.0, 0.006145923055475415
883.0, 0.006805026794924961
884.0, 0.005758532545530698
885.0, 0.007203457172577932
886.0, 0.009176667100222266
887.0, 0.00835694108776549
888.0, 0.009723527709416695
889.0, 0.010048358931277097
890.0, 0.01110291458130839
891.0, 0.011576258449375557
892.0, 0.012208133540335394
893.0, 0.012293455853616164
894.0, 0.012349974562335842
895.0, 0.015132563341266237
896.0, 0.014019912121925153
897.0, 0.015443521138659454
898.0, 0.018304239090977892
899.0, 0.017742980623614495
900.0, 0.020591320687575087
901.0, 0.02243254231160503
902.0, 0.022443836299409776
903.0, 0.023873050265382164
904.0, 0.024686477426374212
905.0, 0.0361498482231213
906.0, 0.03252449054562068
907.0, 0.044573795924360136
908.0, 0.05382246508659233
909.0, 0.056214409765235486
910.0, 0.0588722467627024
911.0, 0.0657186661677866
912.0, 0.07323140623949244
913.0, 0.07814558918043865
914.0, 0.07911518381213829
915.0, 0.08287601072870361
916.0, 0.08769966209326499
917.0, 0.08968796699563322
918.0, 0.09204437384476735
919.0, 0.09442012437678372
920.0, 0.09646853499860562
921.0, 0.09915470509269353
922.0, 0.10042432423059153
923.0, 0.0970278057234992
924.0, 0.10054329950661328
925.0, 0.10389300132910007
926.0, 0.1075324586392491
927.0, 0.11208762656132555
928.0, 0.11754077327143116
929.0, 0.1225269687761695
930.0, 0.12612296410562487
931.0, 0.12967289660164838
932.0, 0.13142821820026265
933.0, 0.13078803458483274
934.0, 0.131448632237202
935.0, 0.1304700501672042
936.0, 0.128656864512952
937.0, 0.12736954532759973
938.0, 0.12467916732232948
939.0, 0.12069384913469704
940.0, 0.12156732007651072
941.0, 0.1206280776070581
942.0, 0.10744024296109353
943.0, 0.10740094781731582
944.0, 0.10891649459851467
945.0, 0.10640278019770824
946.0, 0.1047267995221574
947.0, 0.10305290142606958
948.0, 0.09856191365091306
949.0, 0.0967110107208931
950.0, 0.09953950369858688
951.0, 0.0986947272554041
952.0, 0.1016892716414439
953.0, 0.10058249941644379
954.0, 0.09878969765956498
955.0, 0.09818353999230633
956.0, 0.09761638527688583
957.0, 0.09644815628685789
958.0, 0.09640055356282053
959.0, 0.09782981548702858
960.0, 0.0943158232695637
961.0, 0.09513147885568829
962.0, 0.08944780295683578
963.0, 0.09400741157294329
964.0, 0.09174950487765472
965.0, 0.08747762635017886
966.0, 0.08732312059575907
967.0, 0.08597248973103372
968.0, 0.08487328777273948
969.0, 0.09172940344392458
970.0, 0.09040020381645351
971.0, 0.09058556672988996
972.0, 0.09089768481033564
973.0, 0.0914943816185728
974.0, 0.09603204413919095
975.0, 0.1026137818775301
976.0, 0.10718455170663106
977.0, 0.11138299101934108
978.0, 0.1197882361672455
979.0, 0.12078770328016988
980.0, 0.1251240376710346
981.0, 0.1306228103137207
982.0, 0.13264283183304673
983.0, 0.13637166383998459
984.0, 0.14020884667433123
985.0, 0.14245538859904364
986.0, 0.14332026366221282
987.0, 0.14064278449312492
988.0, 0.13815879329078276
989.0, 0.13475583576435815
990.0, 0.12943198115906895
991.0, 0.12135524333476322
992.0, 0.11584273040825487
993.0, 0.10992656774999145
994.0, 0.10250572246826509
995.0, 0.09676686627459881
996.0, 0.09370341623874628
997.0, 0.08786173373143696
998.0, 0.08193174442788005
999.0, 0.07619795793599211
1000.0, 0.07227739377378516
1001.0, 0.06720031372762007
1002.0, 0.0656369061102324
1003.0, 0.0634524006217215
1004.0, 0.06027753239790012
1005.0, 0.05907107023450023
1006.0, 0.057057927344965856
1007.0, 0.04786018950707373
1008.0, 0.05055038056665913
1009.0, 0.05592793939248914
1010.0, 0.04664162551874576
1011.0, 0.0438934173891803
1012.0, 0.04116902290396667
1013.0, 0.04173632688776038
1014.0, 0.04469017075628449
1015.0, 0.043214676164480936
1016.0, 0.03655018745958683
1017.0, 0.033535487046755456
1018.0, 0.038728277153042875
1019.0, 0.03821890578719258
1020.0, 0.029312816462115074
1021.0, 0.02741158627212399
1022.0, 0.025068641600498567
1023.0, 0.020909898275176256
1024.0, 0.018828583584659355
1025.0, 0.01864006059611183
1026.0, 0.015411120669736381
1027.0, 0.01035256148787481
1028.0, 0.013026421165502339
1029.0, 0.010695335456787457
1030.0, 0.008660167342302792
1031.0, 0.010200098175145715
1032.0, 0.011952685372844501
1033.0, 0.008770402600708669
1034.0, 0.007179210309031321
1035.0, 0.010383154351742684
1036.0, 0.010764858591431128
1037.0, 0.00898491508328063
1038.0, 0.015607280106947893
1039.0, 0.015561867695877694
1040.0, 0.010056269954679281
1041.0, 0.007459048563149649
1042.0, 0.011571477495750942
1043.0, 0.009210237562028132
1044.0, 0.007642407031076698
1045.0, 0.011927433315721648
1046.0, 0.014468895423881637
1047.0, 0.0161301725194293
1048.0, 0.018562919957548676
1049.0, 0.02077820504438197
1050.0, 0.02270801943887759
1051.0, 0.020509632279308625
1052.0, 0.02492705548952852
1053.0, 0.028657750315116574
1054.0, 0.03028907080998752
1055.0, 0.028981341416107448
1056.0, 0.027934715696014075
1057.0, 0.0330215779853169
1058.0, 0.0335888161463733
1059.0, 0.031374177421813226
1060.0, 0.03542012249705603
1061.0, 0.04222908891907186
1062.0, 0.04094547015054085
1063.0, 0.04086689967349507
1064.0, 0.04542431981788405
1065.0, 0.047180006299632725
1066.0, 0.0449541327261659
1067.0, 0.04568051440363777
1068.0, 0.049191258693110335
1069.0, 0.052103887835756084
1070.0, 0.05434003495740763
1071.0, 0.052996604207132675
1072.0, 0.051131973659720324
1073.0, 0.0529442506788548
1074.0, 0.04989766329374309
1075.0, 0.04922621363498203
1076.0, 0.051940757594570335
1077.0, 0.051945579380386644
1078.0, 0.04926335741400005
1079.0, 0.04861778082362077
1080.0, 0.04968151194266233
1081.0, 0.05506530920967171
1082.0, 0.05019877808648142
1083.0, 0.04790067952962736
1084.0, 0.041446385438352495
1085.0, 0.03992554266053932
1086.0, 0.03793653792532995
1087.0, 0.0341600684919366
1088.0, 0.03211000693936588
1089.0, 0.03002711553056296
1090.0, 0.02779986521956388
1091.0, 0.023099076637937522
1092.0, 0.022871113843188726
1093.0, 0.021225306834864337
1094.0, 0.016130493492217512
1095.0, 0.01704469435007489
1096.0, 0.018305185068622925
1097.0, 0.015417749404886603
1098.0, 0.011022710075388313
1099.0, 0.010726404678079048
1100.0, 0.01221949766439481
1101.0, 0.005478304903456122
1102.0, 0.008479631389572924
1103.0, 0.0077639504403420375
1104.0, 0.005129589469973895
1105.0, 0.0030580624655207303
1106.0, 0.0032430232370154934
1107.0, 0.0018695310532131143
1108.0, 0.000978101465433854
1109.0, 0.0016246095287848353
1110.0, 0.001753711311842065
1111.0, 0.000893198917186906
1112.0, 0.001345275541492649
1113.0, 0.0023674121668099835
1114.0, 0.005129316271146704
1115.0, 0.005556522055247589
1116.0, 0.01231171821343464
1117.0, 0.01146979538935623
1118.0, 0.010054017935397603
1119.0, 0.012607737062669927
1120.0, 0.014338900089279533
1121.0, 0.013544763126107801
1122.0, 0.012780265298151064
1123.0, 0.011208041796502947
1124.0, 0.010773233429784772
1125.0, 0.0036166072244373133
1126.0, 0.005285849156484675
1127.0, 0.0021841788169133392
1128.0, 0.001425091006333057
1129.0, 0.0033674366810544486
1130.0, 0.002520036793240081
1131.0, 0.002636643821671022
1132.0, 0.00283315010088433
1133.0, 0.0023759845109403966
1134.0, 0.00393722363138976
1135.0, 0.001793348173816432
1136.0, 0.0013411198913845471
1137.0, 0.004364668638147713
1138.0, 0.003890782989051614
1139.0, 0.0049308758194920605
1140.0, 0.004485293924159118
1141.0, 0.0045335842484536875
1142.0, 0.004303470223125931
1143.0, 0.004645985467757664
1144.0, 0.005435200743823362
1145.0, 0.004115086214804928
1146.0, 0.0008238028594190424
1147.0, 0.0010946679732167634
1148.0, 0.004086458243972335
1149.0, 0.0077928598744980496
1150.0, 0.0023753112383156434
1151.0, 0.0011129401767855202
1152.0, 0.0046688767472670865
1153.0, 0.003234815052236915
1154.0, 0.0018174265012392233
1155.0, 0.0017990735117470935
1156.0, 0.0030401757534532173
1157.0, 0.004244043589111217
1158.0, 0.002748943486543751
1159.0, 0.003938804491822563
1160.0, 0.0012453992507993185
1161.0, 0.0013586378780172412
1162.0, 0.0023619354715900143
1163.0, 0.002010306459519734
1164.0, 0.0037406995780295558
1165.0, 0.003369041636891096
1166.0, 0.0045033120299013945
1167.0, 0.005565440548542518
1168.0, 0.00443584207071781
1169.0, 0.0037168124690520445
1170.0, 0.005263360361195065
1171.0, 0.006052138754037364
1172.0, 0.005428007644170642
1173.0, 0.00044452260012147913
1174.0, 0.0025389798498491843
1175.0, 0.0007137558554991105
1176.0, 0.006159411834740377
1177.0, 0.007907163105933495
1178.0, 0.00497214162110217
1179.0, 0.00560016593945859
1180.0, 0.004799166627035309
1181.0, 0.0010526056406335086
1182.0, 0.0011267868360186615
1183.0, 0.0007350519155664837
1184.0, 0.001775526951900332
1185.0, 0.005777879353864625
1186.0, 0.012831435589802905
1187.0, 0.016922909949044593
1188.0, 0.005248160975062323
1189.0, 0.0020843714055812676
1190.0, 0.0049686124773866466
1191.0, 0.006591120581532772
1192.0, 0.005466016323504042
1193.0, 0.0033139864152382293
1194.0, 0.0034294505416856353
1195.0, 0.006716168631528245
1196.0, 0.007871993912202389
1197.0, 0.008130027812274888
1198.0, 0.007112921091967467
1199.0, 0.011653337840725987
1200.0, 0.006399295397105758
1201.0, 0.009717884982848961
1202.0, 0.009383716912242601
1203.0, 0.005038050582955903
1204.0, 0.006659441818955316
1205.0, 0.009802513742285949
1206.0, 0.008465244049739086
1207.0, 0.007036817035013943
1208.0, 0.00866003308781876
1209.0, 0.007682889063989109
1210.0, 0.005089861912741368
1211.0, 0.008828369797514793
1212.0, 0.014864725670170015
1213.0, 0.011498348782011168
1214.0, 0.013911178494163578
1215.0, 0.01090693279354777
1216.0, 0.012106289410260429
1217.0, 0.010535436931193973
1218.0, 0.008473330702543969
1219.0, 0.007084001561153806
1220.0, 0.005836321467734562
1221.0, 0.008971619206700279
1222.0, 0.013060366960369756
1223.0, 0.01089892658938612
1224.0, 0.014452619999876133
1225.0, 0.012035417387755272
1226.0, 0.01274956458948535
1227.0, 0.013987783251685858
1228.0, 0.01102578264790964
1229.0, 0.015238988020645472
1230.0, 0.01608991639680295
1231.0, 0.015654190403846757
1232.0, 0.015325643044528202
1233.0, 0.01572950793319955
1234.0, 0.01488733976209798
1235.0, 0.012226164639141933
1236.0, 0.021212154007261563
1237.0, 0.0166964894475544
1238.0, 0.012400809100528237
1239.0, 0.015786910102525555
1240.0, 0.012980708981526567
1241.0, 0.013196626396915526
1242.0, 0.015528213072687974
1243.0, 0.020013079697212707
1244.0, 0.020585760454703277
1245.0, 0.015862903840409923
1246.0, 0.014870600278196392
1247.0, 0.01754741634491019
1248.0, 0.017092501402191172
1249.0, 0.01761166937750668
1250.0, 0.019081766591272486
1251.0, 0.017613199779972107
1252.0, 0.017394666988700347
1253.0, 0.015351857280328372
1254.0, 0.019092716548727257
1255.0, 0.015019879368163487
1256.0, 0.015924687172628155
1257.0, 0.016883456456151493
1258.0, 0.013730736931764836
1259.0, 0.016460585783856833
1260.0, 0.020146068129227753
1261.0, 0.02138164871045321
1262.0, 0.023569519226470468
1263.0, 0.022102791776453648
1264.0, 0.02054507170676013
1265.0, 0.023054075011987613
1266.0, 0.01941869286244466
1267.0, 0.01531319494653372
1268.0, 0.022432517487238776
1269.0, 0.017375024575821636
1270.0, 0.015407526951964618
1271.0, 0.013925789372562884
1272.0, 0.017573951493454393
1273.0, 0.01955511289624108
1274.0, 0.01737289334370748
1275.0, 0.01781568174472298
1276.0, 0.017431867738239765
1277.0, 0.013947317414670618
1278.0, 0.01893667642976788
1279.0, 0.021465728668749268
1280.0, 0.021248387051491447
1281.0, 0.012867027196237661
1282.0, 0.016736135033689464
1283.0, 0.015597461182250744
1284.0, 0.014146250179474837
1285.0, 0.018574225263542566
1286.0, 0.01396967178360162
1287.0, 0.015381605771417336
1288.0, 0.017697863600812245
1289.0, 0.019291803067729422
1290.0, 0.019470950207440354
1291.0, 0.017702358003464654
1292.0, 0.018572389479732897
1293.0, 0.021998409838895488
1294.0, 0.02257736108196407
1295.0, 0.02036401012304217
1296.0, 0.02260411236317757
1297.0, 0.015013635349790925
1298.0, 0.016555518449733395
1299.0, 0.02184442823938645
1300.0, 0.020321698110583725
1301.0, 0.022110350537867363
1302.0, 0.02349183962412788
1303.0, 0.017831363539545363
1304.0, 0.01877490843207106
1305.0, 0.02305273534727836
1306.0, 0.0203380627972158
1307.0, 0.018905326743834584
1308.0, 0.022240922131006376
1309.0, 0.01752876427478253
1310.0, 0.017037839533261257
1311.0, 0.01904736291361169
1312.0, 0.0180320753679624
1313.0, 0.022641662645961434
1314.0, 0.02173360486791791
1315.0, 0.02026686779081612
1316.0, 0.02065092439658106
1317.0, 0.01640877621706258
1318.0, 0.01913825909355197
1319.0, 0.02004308240156602
1320.0, 0.020458869340307485
1321.0, 0.023000392913175433
1322.0, 0.02260111580112965
1323.0, 0.01988376177309854
1324.0, 0.019761906798998845
1325.0, 0.01965877982230667
1326.0, 0.020429503117123993
1327.0, 0.019500469829499996
1328.0, 0.02023619523046828
1329.0, 0.01971477096177691
1330.0, 0.02037232402351463
1331.0, 0.02082338734900928
1332.0, 0.019459114726782918
1333.0, 0.02098367673574878
1334.0, 0.022442130182808846
1335.0, 0.02445581177999595
1336.0, 0.022878703881730307
1337.0, 0.022392622097008985
1338.0, 0.025525248012103884
1339.0, 0.02529909864653521
1340.0, 0.021762974867235774
1341.0, 0.022898619190624712
1342.0, 0.024149498567953537
1343.0, 0.020734885256466794
1344.0, 0.023069062903883684
1345.0, 0.02555209292709167
1346.0, 0.024287747541965832
1347.0, 0.01424205038003177
1348.0, 0.021850669012795202
1349.0, 0.017011334940536197
1350.0, 0.02067553653085441
1351.0, 0.02163797808508465
1352.0, 0.023948068573082733
1353.0, 0.023219242274043934
1354.0, 0.022882387079950023
1355.0, 0.02306884648192326
1356.0, 0.02259473107753892
1357.0, 0.020937481806597248
1358.0, 0.01771362058510126
1359.0, 0.019201026394193608
1360.0, 0.02101847152682965
1361.0, 0.01917831746983974
1362.0, 0.021810807469941434
1363.0, 0.025314127316257262
1364.0, 0.023206718420019444
1365.0, 0.026000607456436692
1366.0, 0.027308591594920637
1367.0, 0.025229041622691465
1368.0, 0.02559802438886326
1369.0, 0.019707791217860166
1370.0, 0.01846321853477431
1371.0, 0.01955590463831154
1372.0, 0.020928516945495967
1373.0, 0.022293951074214995
1374.0, 0.02343082478044305
1375.0, 0.023881267471843617
1376.0, 0.02184473887977183
1377.0, 0.019526359991978208
1378.0, 0.02116236763986104
1379.0, 0.023195134127625017
1380.0, 0.018830829092373477
1381.0, 0.022891478983736085
1382.0, 0.022277047542313994
1383.0, 0.02378019458525109
1384.0, 0.02283051608210643
1385.0, 0.02160258751916787
1386.0, 0.02053932702139799
1387.0, 0.0199828050517631
1388.0, 0.01974946766605326
1389.0, 0.019364187013448872
1390.0, 0.02100767530209143
1391.0, 0.022052022035474628
1392.0, 0.022358059163819635
1393.0, 0.02186900537357191
1394.0, 0.01978218210769153
1395.0, 0.016256519936319342
1396.0, 0.0152018743916456
1397.0, 0.023888605383373892
1398.0, 0.019952177938202177
1399.0, 0.016737451578318158
1400.0, 0.02611226443188299
1401.0, 0.016226992065830247
1402.0, 0.015692491492742572
1403.0, 0.01768910246074876
1404.0, 0.01941959441885819
1405.0, 0.021502140385981725
1406.0, 0.021284738555231247
1407.0, 0.016275959432898758
1408.0, 0.021902701669638917
1409.0, 0.020221055072466656
1410.0, 0.019408027653123612
1411.0, 0.019958156761839117
1412.0, 0.019191544494000474
1413.0, 0.017960680423235037
1414.0, 0.015016844678008739
1415.0, 0.0124202126961414
1416.0, 0.01118948706451124
1417.0, 0.012312721548874852
1418.0, 0.013382452722317889
1419.0, 0.014617549803509194
1420.0, 0.01835094297970314
1421.0, 0.015421844657560926
1422.0, 0.015604709493787984
1423.0, 0.01936009687586079
1424.0, 0.01724807561107175
1425.0, 0.0171834245882481
1426.0, 0.02087089499030548
1427.0, 0.015967406204082484
1428.0, 0.01944110630426827
1429.0, 0.019859302460827247
1430.0, 0.015702903403098826
1431.0, 0.01933064314209026
1432.0, 0.02223284573794296
1433.0, 0.023782253384318792
1434.0, 0.025569781255978533
1435.0, 0.026827777783491207
1436.0, 0.0281335705402585
1437.0, 0.025130293316838262
1438.0, 0.023655821939225257
1439.0, 0.02003656036854489
1440.0, 0.026552316659494656
1441.0, 0.02706794205769955
1442.0, 0.027709383390662423
1443.0, 0.026285926044831025
1444.0, 0.024214219985410724
1445.0, 0.02165986734344868
1446.0, 0.03161678501375417
1447.0, 0.02616814450379786
1448.0, 0.028114007315926576
1449.0, 0.02412102609625394
1450.0, 0.022455284404029333
1451.0, 0.029256870508951476
1452.0, 0.026561399311951547
1453.0, 0.023212303981981427
1454.0, 0.02804848422262745
1455.0, 0.029011532403509635
1456.0, 0.026634259684141803
1457.0, 0.02667304893848586
1458.0, 0.024655081213043644
1459.0, 0.02236119184201667
1460.0, 0.02128720416802429
1461.0, 0.01947548190361469
1462.0, 0.024486880893041508
1463.0, 0.022188258011599342
1464.0, 0.02147460831537865
1465.0, 0.020761236947502336
1466.0, 0.015768627143189648
1467.0, 0.025030209404956035
1468.0, 0.023688098267112795
1469.0, 0.019717220941454866
1470.0, 0.013813125376183653
1471.0, 0.01802320500151032
1472.0, 0.01665556955549564
1473.0, 0.014290044064133043
1474.0, 0.012680663048297533
1475.0, 0.02003894650550956
1476.0, 0.0183393066368796
1477.0, 0.018216084051913436
1478.0, 0.019803635471345962
1479.0, 0.01840018275837544
1480.0, 0.01844758050719646
1481.0, 0.018491510014700948
1482.0, 0.015143204358054444
1483.0, 0.01120336906685843
1484.0, 0.010693219972524402
1485.0, 0.013144235641207256
1486.0, 0.013507127702248616
1487.0, 0.0171000402228622
1488.0, 0.019680926566656844
1489.0, 0.017891820308662258
1490.0, 0.016009185943988005
1491.0, 0.016209685959499957
1492.0, 0.013141426008879225
1493.0, 0.011821367762972622
1494.0, 0.013029017341556271
1495.0, 0.01124910663523282
1496.0, 0.01167294895862235
1497.0, 0.01375299873421825
1498.0, 0.011696593351534012
1499.0, 0.0151515293654324
1500.0, 0.0203002991536902
1501.0, 0.013766827432044852
1502.0, 0.012320463164575317
1503.0, 0.012296946785202208
1504.0, 0.009442450412216818
1505.0, 0.012231036457662261
1506.0, 0.011372753529609796
1507.0, 0.0062463587774832675
1508.0, 0.005340125352279534
1509.0, 0.005817242249060852
1510.0, 0.0064433006534430305
1511.0, 0.008763474685713637
1512.0, 0.006523458636973829
1513.0, 0.003668158305276628
1514.0, 0.009982160033574123
1515.0, 0.008757722125214284
1516.0, 0.006847696685900132
1517.0, 0.013549812873993136
1518.0, 0.009183731951266262
1519.0, 0.010511399990626488
1520.0, 0.015542569375102974
1521.0, 0.00250445442698152
1522.0, 0.003732109091175405
1523.0, 0.006967141152127727
1524.0, 0.003997774190737586
1525.0, 0.011955894613037478
1526.0, 0.006100203631382621
1527.0, 0.005461742941122942
1528.0, 0.009904535399480465
1529.0, 0.008704734897683253
1530.0, 0.014809523157987567
1531.0, 0.01386160512195914
1532.0, 0.012236105591411785
1533.0, 0.00809760274502689
1534.0, 0.006416962279239307
1535.0, 0.007235942812616757
1536.0, 0.008954930912649027
1537.0, 0.009245877024196724
1538.0, 0.0068306161594360055
1539.0, 0.005430657529742067
1540.0, 0.004285006325983611
1541.0, 0.0020374603851593667
1542.0, 0.0029303712605277706
1543.0, 0.003759058895536013
1544.0, 0.0014155450976554439
1545.0, 0.0018951328852044344
1546.0, 0.00219783409305006
1547.0, 0.0016069499663572478
1548.0, 0.003619231791862288
1549.0, 0.004019882576156186
1550.0, 0.007025425240126678
1551.0, 0.005445574761287186
1552.0, 0.0032044809476031656
1553.0, 0.0043971796789075545
1554.0, 0.0007782360904908888
1555.0, 0.0010828839127618103
1556.0, 0.0033450874236920355
1557.0, 0.001113662455623824
1558.0, 0.005574968686892916
1559.0, 0.0023428355618013014
1560.0, 0.003086870523550555
1561.0, 0.002771092639353293
1562.0, 0.005178561256641158
1563.0, 0.0013573141511101252
1564.0, 0.005702101367705648
1565.0, 0.002613144042347032
1566.0, 0.004574643688914713
1567.0, 0.002233871792281082
1568.0, 0.004641671168760493
1569.0, 0.006416091436229259
1570.0, 0.0023793365626491514
1571, 0.0
1572, 0.0
1573, 0.0
1574, 0.0
1575, 0.0
1576, 0.0
1577, 0.0
1578, 0.0
1579, 0.0
1580, 0.0
1581, 0.0
1582, 0.0
1583, 0.0
1584, 0.0
1585, 0.0
1586, 0.0
1587, 0.0
1588, 0.0
1589, 0.0
1590, 0.0
1591, 0.0
1592, 0.0
1593, 0.0
1594, 0.0
1595, 0.0
1596, 0.0
1597, 0.0
1598, 0.0
1599, 0.0
