30, 0.0
31, 0.0
32, 0.0
33, 0.0
34, 0.0
35, 0.0
36, 0.0
37, 0.0
38, 0.0
39, 0.0
40, 0.0
41, 0.0
42, 0.0
43, 0.0
44, 0.0
45, 0.0
46, 0.0
47, 0.0
48, 0.0
49, 0.0
50, 0.0
51, 0.0
52, 0.0
53, 0.0
54, 0.0
55, 0.0
56, 0.0
57, 0.0
58, 0.0
59, 0.0
60, 0.0
61, 0.0
62, 0.0
63, 0.0
64, 0.0
65, 0.0
66, 0.0
67, 0.0
68, 0.0
69, 0.0
70, 0.0
71, 0.0
72, 0.0
73, 0.0
74, 0.0
75, 0.0
76, 0.0
77, 0.0
78, 0.0
79, 0.0
80, 0.0
81, 0.0
82, 0.0
83, 0.0
84, 0.0
85, 0.0
86, 0.0
87, 0.0
88, 0.0
89, 0.0
90, 0.0
91, 0.0
92, 0.0
93, 0.0
94, 0.0
95, 0.0
96, 0.0
97, 0.0
98, 0.0
99, 0.0
100, 0.0
101, 0.0
102, 0.0
103, 0.0
104, 0.0
105, 0.0
106, 0.0
107, 0.0
108, 0.0
109, 0.0
110, 0.0
111, 0.0
112, 0.0
113, 0.0
114, 0.0
115, 0.0
116, 0.0
117, 0.0
118, 0.0
119, 0.0
120, 0.0
121, 0.0
122, 0.0
123, 0.0
124, 0.0
125, 0.0
126, 0.0
127, 0.0
128, 0.0
129, 0.0
130, 0.0
131, 0.0
132, 0.0
133, 0.0
134, 0.0
135, 0.0
136, 0.0
137, 0.0
138, 0.0
139, 0.0
140.0, 0.007597794706448016
141.0, 0.007198008851631011
142.0, 0.00026912180163296366
143.0, 0.003175910603759835
144.0, 0.0005517761632090298
145.0, 0.0006125013619359381
146.0, 0.0009507251260631262
147.0, 0.0005548660184274848
148.0, 0.0008072952273358629
149.0, 0.00028015582478098074
150.0, 0.0012448388538557733
151.0, 0.003258600102546665
152.0, 0.006964996871104223
153.0, 0.013439019987705398
154.0, 0.022145233344922875
155.0, 0.02778663071421334
156.0, 0.02043417621195561
157.0, 0.011204603697083709
158.0, 0.01055309886335359
159.0, 0.015244850591620321
160.0, 0.017430203863505602
161.0, 0.015377756962276026
162.0, 0.018486905535304403
163.0, 0.021766170836196922
164.0, 0.02033528600872917
165.0, 0.01898071154795925
166.0, 0.02243931676914747
167.0, 0.02444669726142165
168.0, 0.023595501961543836
169.0, 0.02435907656158975
170.0, 0.026124684041539014
171.0, 0.02620675376813805
172.0, 0.02567857457424174
173.0, 0.02615928518741372
174.0, 0.024765906458798746
175.0, 0.0310192063601177
176.0, 0.03263403519064962
177.0, 0.023824109940404216
178.0, 0.01874534460278985
179.0, 0.01637964542134181
180.0, 0.017537774024549795
181.0, 0.018731288607341377
182.0, 0.015388527637304415
183.0, 0.01678225960503545
184.0, 0.020000895761858456
185.0, 0.01968542034050814
186.0, 0.01602883571089147
187.0, 0.0224605501498725
188.0, 0.02397877790968376
189.0, 0.023961685217669684
190.0, 0.02707364243432095
191.0, 0.03205876418529722
192.0, 0.04004146650792359
193.0, 0.04915852873508623
194.0, 0.05732208013818866
195.0, 0.06461289273286447
196.0, 0.07912213735909857
197.0, 0.08599821773024538
198.0, 0.09543291531534914
199.0, 0.1136421897291165
200.0, 0.12480369769525519
201.0, 0.12516236826971835
202.0, 0.1349968570151533
203.0, 0.153153712114723
204.0, 0.1619384085317868
205.0, 0.17142784181253373
206.0, 0.18406867753444464
207.0, 0.19404954464680407
208.0, 0.19867343775273735
209.0, 0.2061647509814518
210.0, 0.22059004509103522
211.0, 0.23864104642211706
212.0, 0.25611008811264807
213.0, 0.2704552394824353
214.0, 0.2928495581922055
215.0, 0.31962162324248033
216.0, 0.34591791845618763
217.0, 0.37190155274720266
218.0, 0.4071661893916502
219.0, 0.428827053011907
220.0, 0.4527723885359305
221.0, 0.4834499097393093
222.0, 0.5080726654020231
223.0, 0.535108991629423
224.0, 0.5568997101751274
225.0, 0.5748519970339342
226.0, 0.591845184811632
227.0, 0.6031606543361401
228.0, 0.6221409493686713
229.0, 0.6406986414722731
230.0, 0.6559557603461378
231.0, 0.6752717863344188
232.0, 0.6923986905770564
233.0, 0.7067793518481335
234.0, 0.7210326531011443
235.0, 0.7347278825503789
236.0, 0.7371150732150241
237.0, 0.7314671268643665
238.0, 0.7144516931756748
239.0, 0.6900939980238435
240.0, 0.6677213133882098
241.0, 0.6263006753708719
242.0, 0.5830616010078096
243.0, 0.5448372898945166
244.0, 0.5108103400722127
245.0, 0.4787524269382695
246.0, 0.44388610855871724
247.0, 0.4186193264873786
248.0, 0.40218321957795167
249.0, 0.3844817994239783
250.0, 0.3719349165372042
251.0, 0.36896280340670523
252.0, 0.36086211299999377
253.0, 0.34253574491554156
254.0, 0.33784786345525136
255.0, 0.3277890832093477
256.0, 0.31893066875979975
257.0, 0.31076059921732296
258.0, 0.29787308457131806
259.0, 0.2874096561029714
260.0, 0.27616206206611094
261.0, 0.26393966007913816
262.0, 0.2496498024810759
263.0, 0.23037021644150596
264.0, 0.21211253931577626
265.0, 0.19506419032885178
266.0, 0.1791455013635118
267.0, 0.1637293349488277
268.0, 0.14574554887211372
269.0, 0.13460027944768227
270.0, 0.12432329604890707
271.0, 0.11082651105258155
272.0, 0.09550094986461836
273.0, 0.0786619310261381
274.0, 0.0709006174398885
275.0, 0.06575454581007943
276.0, 0.05702692319420155
277.0, 0.04990291606246257
278.0, 0.03653738445471035
279.0, 0.029207115869484435
280.0, 0.025296477447561645
281.0, 0.016869677507269934
282.0, 0.013394286561130288
283.0, 0.009087007275148279
284.0, 0.00444267006758103
285.0, 0.0012886705048320672
286.0, 0.005692269102460732
287.0, 0.008227698398476238
288.0, 0.009506055896592444
289.0, 0.011432642269062104
290.0, 0.014240084379964421
291.0, 0.0159801623369429
292.0, 0.0191142182136716
293.0, 0.015714849834766387
294.0, 0.009272118353386375
295.0, 0.007810050362766808
296.0, 0.005516198652342364
297.0, 0.007416455788925331
298.0, 0.003604084468014247
299.0, 0.005994397552185897
300.0, 0.009846934706227004
301.0, 0.0076697398411050555
302.0, 0.016661466332086258
303.0, 0.024458621711309535
304.0, 0.02362351540527958
305.0, 0.030135709421798277
306.0, 0.03382708260795623
307.0, 0.04009243582152162
308.0, 0.04568580472620225
309.0, 0.047659633885164414
310.0, 0.056303315692414486
311.0, 0.059975088810162204
312.0, 0.06367113971385634
313.0, 0.0680066179191231
314.0, 0.06820231675528986
315.0, 0.06460634353421481
316.0, 0.05980151732252144
317.0, 0.05428731902559536
318.0, 0.04969941942856846
319.0, 0.04919461098021481
320.0, 0.04414922550617189
321.0, 0.036856151788790065
322.0, 0.033952092250504565
323.0, 0.03716762477408243
324.0, 0.03776312887893993
325.0, 0.039402509784426054
326.0, 0.04026196626307793
327.0, 0.04229243598902827
328.0, 0.048002591027384675
329.0, 0.05619702979877624
330.0, 0.056429759282091756
331.0, 0.06026142951598034
332.0, 0.06820265436513995
333.0, 0.07285085552078518
334.0, 0.07840209071507545
335.0, 0.0829286584418078
336.0, 0.0919567205573926
337.0, 0.10230391670508183
338.0, 0.10300560688063093
339.0, 0.11440152224763309
340.0, 0.12654103109344314
341.0, 0.13902813148256285
342.0, 0.15072428693011627
343.0, 0.1550300976135164
344.0, 0.16950971662789704
345.0, 0.1869221331656956
346.0, 0.20490234156572304
347.0, 0.2254447133211803
348.0, 0.2506405670711413
349.0, 0.2727552882159664
350.0, 0.2963783567564533
351.0, 0.3254414258227899
352.0, 0.3588619645774515
353.0, 0.3914631275512779
354.0, 0.42792980241866924
355.0, 0.4650292157021135
356.0, 0.5045852439490938
357.0, 0.5500879817791132
358.0, 0.5982169078218496
359.0, 0.6477914141887953
360.0, 0.7091714583674046
361.0, 0.7752419506570551
362.0, 0.8312023156259832
363.0, 0.8840242619199701
364.0, 0.9358683570953192
365.0, 0.9786781651001417
366.0, 0.999394362023666
367.0, 0.9886932295224137
368.0, 0.9612263626761597
369.0, 0.9243843775810163
370.0, 0.870056655034157
371.0, 0.8022165293194182
372.0, 0.7363865251328612
373.0, 0.6734772975537598
374.0, 0.6269442813547972
375.0, 0.5873421492844487
376.0, 0.5452185604477088
377.0, 0.5016682001603737
378.0, 0.467720449991479
379.0, 0.4449356322572864
380.0, 0.42470490035560576
381.0, 0.4042476719377515
382.0, 0.39023446772429154
383.0, 0.37052605296134283
384.0, 0.35518228067102126
385.0, 0.3376522460993919
386.0, 0.31606586904034895
387.0, 0.30515700500069287
388.0, 0.2992045355024824
389.0, 0.28971877151404535
390.0, 0.2820077385702508
391.0, 0.2783178100558014
392.0, 0.27041010990790326
393.0, 0.2652195139440312
394.0, 0.26568761546278646
395.0, 0.26403409393278227
396.0, 0.25801767406818005
397.0, 0.25567452583419364
398.0, 0.2530275328837302
399.0, 0.2584015923819962
400.0, 0.26164695845632396
401.0, 0.25641976223758806
402.0, 0.2534814624311062
403.0, 0.24739029956005223
404.0, 0.23829319501019006
405.0, 0.2329493669127899
406.0, 0.23099077620764027
407.0, 0.21907920305543116
408.0, 0.2015958824382004
409.0, 0.18718838552309047
410.0, 0.1762836197034608
411.0, 0.16452806022823394
412.0, 0.14718511089849665
413.0, 0.13203702429553246
414.0, 0.11772729769096191
415.0, 0.10357430646333524
416.0, 0.09089703715008353
417.0, 0.08168505481086158
418.0, 0.07160507526742102
419.0, 0.05906237227267415
420.0, 0.05048727738065626
421.0, 0.0459076485406113
422.0, 0.037198377951602954
423.0, 0.03267914345187215
424.0, 0.02651730220645184
425.0, 0.022185158886195842
426.0, 0.019311169716141826
427.0, 0.01098575452726077
428.0, 0.007727295157010827
429.0, 0.006094564675409545
430.0, 0.004217671294201231
431.0, 0.0027003572426727456
432.0, 0.002827720207235251
433.0, 0.0006156497915681982
434.0, 0.0027131312675937073
435.0, 0.0022113659664867564
436.0, 0.0002994974798565358
437.0, 0.0017603000515811781
438.0, 0.0011491196997770936
439.0, 0.0020209850492495266
440.0, 0.00034121031307781036
441.0, 0.0018283560670067406
442.0, 0.0013632900129909003
443.0, 0.00031240699910256554
444.0, 0.001638003011752219
445.0, 0.0012266869351019536
446.0, 0.005506409311949725
447.0, 0.006492239149432333
448.0, 0.002951166947451246
449.0, 0.0009046197449351996
450.0, 0.001545199119056148
451.0, 0.001323952883082397
452.0, 0.0011954006101007122
453.0, 0.0016780418464233024
454.0, 0.0023611925801755246
455.0, 0.0023455368542173944
456.0, 0.002623844209409677
457.0, 0.006704936582936343
458.0, 0.00509532511576552
459.0, 0.0054514248253135465
460.0, 0.0038660109089681976
461.0, 0.0012648278325842126
462.0, 0.0008516753835026397
463.0, 0.003214783788404658
464.0, 0.0038419104164313486
465.0, 0.002508931811612807
466.0, 0.006086418084900908
467.0, 0.004874754335983358
468.0, 0.0026842770239222796
469.0, 0.0027662698703901406
470.0, 0.0037322238885595807
471.0, 0.006956539768588883
472.0, 0.010431702481266562
473.0, 0.012515514590707415
474.0, 0.017083166980011263
475.0, 0.01602451104816526
476.0, 0.01561056437124739
477.0, 0.02092124982416675
478.0, 0.029885994700803366
479.0, 0.034535910505362866
480.0, 0.03294848611178814
481.0, 0.03806553055545454
482.0, 0.04317308345185515
483.0, 0.0462743537901462
484.0, 0.05423989749003636
485.0, 0.05896257737218937
486.0, 0.06221262932464576
487.0, 0.06719436197435995
488.0, 0.07299608584668374
489.0, 0.07706295675743072
490.0, 0.08108205355930552
491.0, 0.0814421709948666
492.0, 0.08226622582701146
493.0, 0.08483161478653142
494.0, 0.08696384037056964
495.0, 0.08525890618551375
496.0, 0.08551178328609359
497.0, 0.09001748431901421
498.0, 0.0924606989931419
499.0, 0.08912652880352745
500.0, 0.0849728101194204
501.0, 0.08947277419208818
502.0, 0.08032399270653733
503.0, 0.07309320158110127
504.0, 0.07201457952744204
505.0, 0.06872277391788294
506.0, 0.060726427801980384
507.0, 0.05675879376132182
508.0, 0.05947702863912322
509.0, 0.05828744445884151
510.0, 0.05007165691225808
511.0, 0.05000370481715518
512.0, 0.04899297307532859
513.0, 0.04524396727051431
514.0, 0.03948981136831015
515.0, 0.03368393013862617
516.0, 0.030338899537071338
517.0, 0.02993881513668579
518.0, 0.02822812626255133
519.0, 0.026152025933892067
520.0, 0.0252638518303079
521.0, 0.02519609236865213
522.0, 0.021509741492359208
523.0, 0.019649729832088424
524.0, 0.020953204675573368
525.0, 0.01957136007406299
526.0, 0.01566065509890848
527.0, 0.017315689122426228
528.0, 0.023016806692912395
529.0, 0.019057439572440178
530.0, 0.016896029651523328
531.0, 0.021138026074409167
532.0, 0.025784399463159483
533.0, 0.025436563472226763
534.0, 0.02763858060137083
535.0, 0.02781850768696912
536.0, 0.027413805227002156
537.0, 0.0296073818590527
538.0, 0.03432313476133991
539.0, 0.03001617101014641
540.0, 0.027673082796398976
541.0, 0.028477882941205214
542.0, 0.02817511511963724
543.0, 0.026284781031177675
544.0, 0.027668813969267857
545.0, 0.02244858488409183
546.0, 0.023898303443718908
547.0, 0.024965694257285384
548.0, 0.02227989351707677
549.0, 0.02290676608678949
550.0, 0.023753472533171685
551.0, 0.025519645058669372
552.0, 0.023650634041516044
553.0, 0.01982574626026374
554.0, 0.018526125893095203
555.0, 0.019320534152636088
556.0, 0.02075153844647522
557.0, 0.020690606184221774
558.0, 0.017503235900783263
559.0, 0.013957844738264811
560.0, 0.013998656396622199
561.0, 0.015441410191478547
562.0, 0.01446994181064723
563.0, 0.011929773368873877
564.0, 0.009898040589426959
565.0, 0.008662480509029794
566.0, 0.006183005984720529
567.0, 0.006102848665880666
568.0, 0.0037156034375969114
569.0, 0.004366338608422275
570.0, 0.0068678871942348075
571.0, 0.006180322798841708
572.0, 0.004717241727832899
573.0, 0.00494066310432051
574.0, 0.004190622540802071
575.0, 0.0016201203836266674
576.0, 0.0005629244076135649
577.0, 0.0010308632102759446
578.0, 0.00032199297084342025
579.0, 0.00045621401566488674
580.0, 0.0003722293824469758
581.0, 0.0031363261254935613
582.0, 0.005143847725509302
583.0, 0.0016770196351819876
584.0, 0.0006344202154233919
585.0, 0.0023889103962741955
586.0, 0.003251136058570566
587.0, 0.0038430607544882407
588.0, 0.0062672921539268945
589.0, 0.000829052035229777
590.0, 0.002866583759011564
591.0, 0.0025238007271432567
592.0, 0.0014476057518845674
593.0, 0.001310031888968694
594.0, 0.0007797573058841575
595.0, 0.0021730720216476826
596.0, 0.0007944095190605747
597.0, 0.0005816947276182544
598.0, 0.0019937740739791716
599.0, 0.001971977288010217
600.0, 0.0046676967748033055
601.0, 0.004871511176718959
602.0, 0.003672045372929688
603.0, 0.003805331656311362
604.0, 0.006090041123282319
605.0, 0.009950699385795259
606.0, 0.012731362645963274
607.0, 0.011116969516397264
608.0, 0.012144176100923498
609.0, 0.01778758110974907
610.0, 0.02065923041095714
611.0, 0.019850825187230848
612.0, 0.027600572023237627
613.0, 0.04032705893125031
614.0, 0.04303196096340529
615.0, 0.05038567367680396
616.0, 0.06499199852592462
617.0, 0.07815197658521979
618.0, 0.08742701195364369
619.0, 0.10113366297210201
620.0, 0.11433665116187601
621.0, 0.12806906775055166
622.0, 0.14510584797753773
623.0, 0.164548565256169
624.0, 0.18319557794034944
625.0, 0.21146311122811642
626.0, 0.24340476800251476
627.0, 0.2727497659279251
628.0, 0.2971102603267974
629.0, 0.3186352087980995
630.0, 0.3423035411498724
631.0, 0.36670148775183437
632.0, 0.38118147650281475
633.0, 0.3813693510857297
634.0, 0.37334411820871355
635.0, 0.3648672479062561
636.0, 0.3508052769944321
637.0, 0.33391366630824176
638.0, 0.32031899330681335
639.0, 0.30738141358749305
640.0, 0.29109145088978683
641.0, 0.2734567671177418
642.0, 0.2640466439144533
643.0, 0.24760474171253144
644.0, 0.23716976709719026
645.0, 0.22791430381744437
646.0, 0.21460238558822564
647.0, 0.2035795984004108
648.0, 0.1979558041033951
649.0, 0.18880388155156888
650.0, 0.1777723765491908
651.0, 0.16570147205896507
652.0, 0.1595896542477067
653.0, 0.1614592016338355
654.0, 0.14824213865540817
655.0, 0.14491962486874904
656.0, 0.14209136810313075
657.0, 0.13941538023795877
658.0, 0.13792122565992587
659.0, 0.1360782638694356
660.0, 0.13829815505185292
661.0, 0.13738953501179832
662.0, 0.13686606384633965
663.0, 0.14041443528213823
664.0, 0.145835517848131
665.0, 0.14975152952199286
666.0, 0.15310628981170699
667.0, 0.16137531273490663
668.0, 0.16286132255048819
669.0, 0.1651278393664825
670.0, 0.171666827204829
671.0, 0.1792285855217176
672.0, 0.18647289694359573
673.0, 0.18770544235943076
674.0, 0.19280312091140514
675.0, 0.19951767899428674
676.0, 0.20301081236086846
677.0, 0.20268989865531245
678.0, 0.19969997782182922
679.0, 0.19560648908542472
680.0, 0.19348113310266432
681.0, 0.19511403116728027
682.0, 0.1973158022981226
683.0, 0.19841196089692498
684.0, 0.2032628101831976
685.0, 0.21397921232893072
686.0, 0.2211083392296627
687.0, 0.22931531058390164
688.0, 0.24393750565750355
689.0, 0.261476666964193
690.0, 0.2745833797051491
691.0, 0.2932407965253758
692.0, 0.3109603283057231
693.0, 0.3261187473469608
694.0, 0.3370826546170008
695.0, 0.34163655082606353
696.0, 0.3387469713222212
697.0, 0.3306353309764838
698.0, 0.32101254733295237
699.0, 0.299828700826562
700.0, 0.27638111058833803
701.0, 0.2471985391621311
702.0, 0.206776228867814
703.0, 0.17561430281518078
704.0, 0.15013987710044427
705.0, 0.12212699139846821
706.0, 0.1037089575770709
707.0, 0.09098915293230814
708.0, 0.07498046459849292
709.0, 0.05835286900112232
710.0, 0.046649638741352174
711.0, 0.040509754371680216
712.0, 0.037085112006421395
713.0, 0.03052057453214849
714.0, 0.02160565953222742
715.0, 0.0156802538936636
716.0, 0.008578861589114039
717.0, 0.007688432427177987
718.0, 0.006674412175193152
719.0, 0.0009518350065347706
720.0, 0.0035168506798389488
721.0, 0.0019904366685600757
722.0, 0.0013362604005624184
723.0, 0.0008821195340142757
724.0, 0.002719185958056259
725.0, 0.0048043399379037585
726.0, 0.003875581038618678
727.0, 0.0007945976481593215
728.0, 0.0018253800915374791
729.0, 0.0059788995526542325
730.0, 0.002267789818103169
731.0, 0.002953439374945325
732.0, 0.004402133440751617
733.0, 0.0009877005714054826
734.0, 0.0022540752366269922
735.0, 0.0006132357077890287
736.0, 0.008175782640323781
737.0, 0.011000468492582328
738.0, 0.014290603709065975
739.0, 0.017116914099336366
740.0, 0.017617364689358
741.0, 0.021589220429727253
742.0, 0.029970571630450048
743.0, 0.0299828994536959
744.0, 0.03182419845546427
745.0, 0.03747547030690219
746.0, 0.03975999445003978
747.0, 0.036498372129293445
748.0, 0.037121733718584356
749.0, 0.03612866507428391
750.0, 0.03306829872592846
751.0, 0.028887248124437853
752.0, 0.025629535482650793
753.0, 0.024664736466373884
754.0, 0.024531858514529156
755.0, 0.02188656200975936
756.0, 0.021670001384489043
757.0, 0.017981975920627283
758.0, 0.018344140404751803
759.0, 0.019751474596284627
760.0, 0.01834128322781577
761.0, 0.02201425606308935
762.0, 0.01885776930227748
763.0, 0.020314174299200675
764.0, 0.019745986272135252
765.0, 0.021015877791041342
766.0, 0.02437124462974005
767.0, 0.025238650268731625
768.0, 0.02856738770218007
769.0, 0.028313082103934756
770.0, 0.03331853135181947
771.0, 0.03410319248324998
772.0, 0.0360092651831659
773.0, 0.04150107474026727
774.0, 0.041413463916347704
775.0, 0.04044391834193015
776.0, 0.039480509990217336
777.0, 0.03606383992489141
778.0, 0.0351349087627274
779.0, 0.034833573242657116
780.0, 0.0316976358970762
781.0, 0.02932548951037717
782.0, 0.02809229913687014
783.0, 0.02875872763874999
784.0, 0.0238779385526573
785.0, 0.02193636204131417
786.0, 0.020805366979522722
787.0, 0.01689983329916508
788.0, 0.019433321404703656
789.0, 0.011992557433378279
790.0, 0.007997605810773158
791.0, 0.007618609129395182
792.0, 0.005706839536330687
793.0, 0.003353944911305549
794.0, 0.00300935023056651
795.0, 0.0006000043797732285
796.0, 0.0011606045651425306
797.0, 0.002837330725321361
798.0, 0.001952148609881818
799.0, 0.0033303784256603717
800.0, 0.0020989458931676896
801.0, 0.001399269550016671
802.0, 0.0039109575660967915
803.0, 0.0002891780899220835
804.0, 0.0034227788800974468
805.0, 0.0038605928248986745
806.0, 0.0008986640026563463
807.0, 0.0016591588705068376
808.0, 0.006813534674067813
809.0, 0.004876304004765473
810.0, 0.005223043526586531
811.0, 0.005878820283253638
812.0, 0.0048040083151655215
813.0, 0.00416370594430013
814.0, 0.0035551469799357934
815.0, 0.0020094006478335712
816.0, 0.0038682539771390466
817.0, 0.0052749085158880805
818.0, 0.007924312370709006
819.0, 0.010787284894077246
820.0, 0.008063558851763242
821.0, 0.003727876345713464
822.0, 0.005697431377712347
823.0, 0.007018371173965093
824.0, 0.007806028895446736
825.0, 0.010320321017678493
826.0, 0.007358199553259875
827.0, 0.002648597109846958
828.0, 0.004796114752633295
829.0, 0.010720084617608839
830.0, 0.006162612899590725
831.0, 0.007329934821416141
832.0, 0.009297504021587001
833.0, 0.005694820857862744
834.0, 0.005427115861575599
835.0, 0.008625203213011629
836.0, 0.009357070477767411
837.0, 0.011110699619999031
838.0, 0.011696844439422312
839.0, 0.009856932691775795
840.0, 0.010507602459296524
841.0, 0.009747228674040619
842.0, 0.007802494804716396
843.0, 0.008072436516238226
844.0, 0.012065078376218955
845.0, 0.014432351721842809
846.0, 0.009629661558171725
847.0, 0.00864947470000567
848.0, 0.011651757249191461
849.0, 0.01256420384205958
850.0, 0.011700586364210137
851.0, 0.014658557046718288
852.0, 0.01481129136961444
853.0, 0.01631696529729927
854.0, 0.017528892464767274
855.0, 0.01812862856685372
856.0, 0.017900749295086987
857.0, 0.015911401443018707
858.0, 0.013470357115818067
859.0, 0.013656563495249635
860.0, 0.016198177027497974
861.0, 0.014764998504325699
862.0, 0.01232914743585522
863.0, 0.012674304313229585
864.0, 0.012265232422289633
865.0, 0.011176948826611343
866.0, 0.013604743139823107
867.0, 0.010564848030178096
868.0, 0.015316904648365565
869.0, 0.01262660209083531
870.0, 0.011199946927516392
871.0, 0.009607996173921201
872.0, 0.007050223213950786
873.0, 0.007370084368487476
874.0, 0.006316812910332738
875.0, 0.008084496697517768
876.0, 0.01144494377546459
877.0, 0.011439475774583633
878.0, 0.007706513830405765
879.0, 0.004306905686356259
880.0, 0.00415329996332131
881.0, 0.005684294629237727
882.0, 0.008155123691331534
883.0, 0.0015917404106173753
884.0, 0.005936910832436656
885.0, 0.006120427224050661
886.0, 0.003127771267583162
887.0, 0.0026475793769571514
888.0, 0.00326712319429157
889.0, 0.00490413799180533
890.0, 0.004529514480812928
891.0, 0.004615125287640895
892.0, 0.0051494083505672665
893.0, 0.0057173168657694085
894.0, 0.003385766858624093
895.0, 0.0008258636779713628
896.0, 0.0030669972927599245
897.0, 0.001483582411986308
898.0, 0.0006759522061201426
899.0, 0.0018790142985429875
900.0, 0.001305657730048964
901.0, 0.0032503283070459774
902.0, 0.0017676030330689347
903.0, 0.0008114792789421941
904.0, 0.0008011625793545627
905.0, 7.559632650062523e-05
906.0, 0.0019820457512729523
907.0, 0.0016373206966688958
908.0, 0.0007806993381812077
909.0, 0.002551188476663216
910.0, 0.001964015239562695
911.0, 0.0013356911349575178
912.0, 0.00048292977859910294
913.0, 0.003505666169256798
914.0, 0.0019039410105625638
915.0, 0.0014895154601734673
916.0, 0.0022973554054572247
917.0, 0.0038953435991550735
918.0, 0.003739682511190186
919.0, 0.0010245986785129629
920.0, 0.001179117614011285
921.0, 0.0015372583249345772
922.0, 0.0034516745563737683
923.0, 0.0019614445716604986
924.0, 0.0015621757197497813
925.0, 0.0011247372522450174
926.0, 0.0003120366070461276
927.0, 0.0013288974483643447
928.0, 0.003078547198781753
929.0, 0.00028741864374767686
930.0, 0.00174732182736883
931.0, 0.0010401679104051914
932.0, 0.0015986171493506255
933.0, 0.0012932121905172447
934.0, 0.000987608968444314
935.0, 0.004050387307526789
936.0, 0.002768700352422888
937.0, 0.0018639029651549388
938.0, 0.00017762225735634202
939.0, 0.0036013200652189885
940.0, 0.002989312797040444
941.0, 0.004850637728175799
942.0, 0.010290922451684479
943.0, 0.00942650805897245
944.0, 0.010353069722845151
945.0, 0.00975425654181868
946.0, 0.010543114523755009
947.0, 0.015147817401839769
948.0, 0.018857312961530117
949.0, 0.018826049467120028
950.0, 0.018582780243281916
951.0, 0.02257381743232829
952.0, 0.029754507132973538
953.0, 0.026043162401345923
954.0, 0.03116257131547091
955.0, 0.03125153170538222
956.0, 0.03487750457038099
957.0, 0.03686277689413591
958.0, 0.0388844372360476
959.0, 0.0444821850446938
960.0, 0.04499797775598122
961.0, 0.046297398015033825
962.0, 0.043024927294380934
963.0, 0.041031876826959725
964.0, 0.048952299630549076
965.0, 0.044704001362696644
966.0, 0.03586470081893199
967.0, 0.03665767284755781
968.0, 0.037739207628946655
969.0, 0.03690553667045186
970.0, 0.03720229021233775
971.0, 0.03799877145813648
972.0, 0.035362544168055746
973.0, 0.03614372087009405
974.0, 0.039729262175752664
975.0, 0.03821661490497555
976.0, 0.0340959411615071
977.0, 0.03732004262415827
978.0, 0.030895836937027455
979.0, 0.031524916581939955
980.0, 0.03242945290939424
981.0, 0.031826369819420684
982.0, 0.028485361300830393
983.0, 0.028200268281041947
984.0, 0.03234467395964601
985.0, 0.033417928968383505
986.0, 0.0340863675480727
987.0, 0.03341784992487085
988.0, 0.03714861902189423
989.0, 0.03769129306206804
990.0, 0.03709517283108353
991.0, 0.03865393746466852
992.0, 0.03959637532152713
993.0, 0.03973659187349969
994.0, 0.04373679424495976
995.0, 0.043298930448634164
996.0, 0.048707456134848504
997.0, 0.05132366361322379
998.0, 0.05458753086665603
999.0, 0.058770590976919425
1000.0, 0.06255251295310729
1001.0, 0.06549327970242448
1002.0, 0.06722507311217418
1003.0, 0.06856980252179597
1004.0, 0.074522175333098
1005.0, 0.07848286256028818
1006.0, 0.08183082710874126
1007.0, 0.08565689744435308
1008.0, 0.09090138697196941
1009.0, 0.09606926583646021
1010.0, 0.09714012067487161
1011.0, 0.09704828567860715
1012.0, 0.10600777036096762
1013.0, 0.10942968831362236
1014.0, 0.10897221576780532
1015.0, 0.11271201624950185
1016.0, 0.11602903876629413
1017.0, 0.11743552056149775
1018.0, 0.11551719231410534
1019.0, 0.11346816576375894
1020.0, 0.11557314800465589
1021.0, 0.1133251050371013
1022.0, 0.11285080614845498
1023.0, 0.10476481266308635
1024.0, 0.10358080365897065
1025.0, 0.10406548550277893
1026.0, 0.09895637935169412
1027.0, 0.09184533957241521
1028.0, 0.0880694374436639
1029.0, 0.08596870756279329
1030.0, 0.08359042252611515
1031.0, 0.08293226026699788
1032.0, 0.0811660731322721
1033.0, 0.07908139424588627
1034.0, 0.08192454975029985
1035.0, 0.08350068297440437
1036.0, 0.08409079463558315
1037.0, 0.08511516755137462
1038.0, 0.08485241420935544
1039.0, 0.08851995024562981
1040.0, 0.09584727320036772
1041.0, 0.10255347880737041
1042.0, 0.10551387480409659
1043.0, 0.11641917318535347
1044.0, 0.12549231401239722
1045.0, 0.1297175795328087
1046.0, 0.13419408117401052
1047.0, 0.14309172563236278
1048.0, 0.15562195330429257
1049.0, 0.1578142386858363
1050.0, 0.16573534456450364
1051.0, 0.16966310021165548
1052.0, 0.17414346610446357
1053.0, 0.17346194590818004
1054.0, 0.17291358013893157
1055.0, 0.17185956218638254
1056.0, 0.1657031228830255
1057.0, 0.15861538778931947
1058.0, 0.1520295791031297
1059.0, 0.14136144645839196
1060.0, 0.1380689708719303
1061.0, 0.12585359831290877
1062.0, 0.1108544799198835
1063.0, 0.10427736344279556
1064.0, 0.10015393591236896
1065.0, 0.09005649401188275
1066.0, 0.07919832072315709
1067.0, 0.07359849556477463
1068.0, 0.06947187941694001
1069.0, 0.0604434674036636
1070.0, 0.05315964567118204
1071.0, 0.04716863119609594
1072.0, 0.0450380282656071
1073.0, 0.040896848457890135
1074.0, 0.03631821379017821
1075.0, 0.031962278354522054
1076.0, 0.025836431019318665
1077.0, 0.026154663591686052
1078.0, 0.019779927067683948
1079.0, 0.016729295373290057
1080.0, 0.01488407724056432
1081.0, 0.010902176191453158
1082.0, 0.011233698238523443
1083.0, 0.00850658013429227
1084.0, 0.007114870814166698
1085.0, 0.008484258781127272
1086.0, 0.003559465632767699
1087.0, 0.004259655186390042
1088.0, 0.005771330567393977
1089.0, 0.00028789872932956124
1090.0, 0.0014656844906424907
1091.0, 0.0006193472942171371
1092.0, 0.00033918573415288897
1093.0, 0.001747839833865862
1094.0, 0.0038703929989800717
1095.0, 0.003941185242524125
1096.0, 0.0035165973159462234
1097.0, 0.001418766950146582
1098.0, 0.0006531524857473355
1099.0, 0.002401154290691314
1100.0, 0.0016721428129038481
1101.0, 0.0014355432322283998
1102.0, 0.0010144795921796614
1103.0, 0.0018250980190825546
1104.0, 0.002020362598840618
1105.0, 0.0020661466665383055
1106.0, 0.0008106826677422165
1107.0, 0.0009300251279160421
1108.0, 0.0037014077165403608
1109.0, 0.001550250524091731
1110.0, 0.0008174839402030112
1111.0, 0.0003127468801045283
1112.0, 0.0004758036213370804
1113.0, 0.0021814066801642256
1114.0, 0.0028646649373878174
1115.0, 0.0022295391555558703
1116.0, 0.0007998901747989973
1117.0, 0.0028374804461620134
1118.0, 0.0010217562255432607
1119.0, 0.0006109853848522039
1120.0, 0.0013589933262344062
1121.0, 0.0015531043727679713
1122.0, 0.0020795231062660465
1123.0, 0.0037033577509424835
1124.0, 0.007768176235654059
1125.0, 0.006856588942371578
1126.0, 0.0016946064973471795
1127.0, 0.003056112631173469
1128.0, 0.0027220230865704384
1129.0, 0.001131308578916089
1130.0, 5.6714360403543245e-05
1131.0, 0.0019944661524205366
1132.0, 0.003466701275042682
1133.0, 0.0048807642723050155
1134.0, 0.00619700730644069
1135.0, 0.0035157053590610388
1136.0, 0.0004517247698512053
1137.0, 0.0016302669536598232
1138.0, 0.005802189655211334
1139.0, 0.005454398935941587
1140.0, 0.006547821469296028
1141.0, 0.007925681355199828
1142.0, 0.004888942956782268
1143.0, 0.003336131907899053
1144.0, 0.003102610374297861
1145.0, 0.002276676995254876
1146.0, 0.006503463766438106
1147.0, 0.009747654153337316
1148.0, 0.006950533946577183
1149.0, 0.00826692406930433
1150.0, 0.006754757682675669
1151.0, 0.007480680060341827
1152.0, 0.004782709851929943
1153.0, 0.006906656553191251
1154.0, 0.005358236266508934
1155.0, 0.007152698013770546
1156.0, 0.0065356552398070245
1157.0, 0.005131530912944895
1158.0, 0.005640421192558506
1159.0, 0.008462666902400783
1160.0, 0.012787753002837013
1161.0, 0.008209506901647129
1162.0, 0.006329088198181822
1163.0, 0.006221643527631871
1164.0, 0.009063213933921295
1165.0, 0.00965275552956354
1166.0, 0.0095722342399763
1167.0, 0.00811406538418757
1168.0, 0.007543889509123188
1169.0, 0.008519349066433264
1170.0, 0.008072299165305384
1171.0, 0.007075063652098307
1172.0, 0.01130067190750788
1173.0, 0.01334856983458894
1174.0, 0.01194837542774682
1175.0, 0.006997387656208128
1176.0, 0.006291384280193108
1177.0, 0.006170978943083397
1178.0, 0.007136961442504609
1179.0, 0.008309426335857954
1180.0, 0.008757689158362815
1181.0, 0.01135419295349717
1182.0, 0.012862969405374423
1183.0, 0.0076979469712903335
1184.0, 0.008353683277545524
1185.0, 0.010724178329437409
1186.0, 0.009062990470617413
1187.0, 0.007910956017839718
1188.0, 0.009391672497304208
1189.0, 0.011185875573367424
1190.0, 0.013670518537085535
1191.0, 0.013316602586251988
1192.0, 0.011749895224753216
1193.0, 0.00962087654046932
1194.0, 0.006503383215031025
1195.0, 0.0067589761537952325
1196.0, 0.006868410172985858
1197.0, 0.003830099115145198
1198.0, 0.008514153905507242
1199.0, 0.008430959616391858
1200.0, 0.005519041099259506
1201.0, 0.008736920771554666
1202.0, 0.007024730203523161
1203.0, 0.006959432906161656
1204.0, 0.005428118203185835
1205.0, 0.0033762013802651424
1206.0, 0.006305600671369185
1207.0, 0.007197707462847035
1208.0, 0.008056854432483116
1209.0, 0.007174195805768884
1210.0, 0.006847977330036592
1211.0, 0.004512041623035305
1212.0, 0.0066179282117217395
1213.0, 0.0029099765687663906
1214.0, 0.004766586349459573
1215.0, 0.007400359701823858
1216.0, 0.004283204194775118
1217.0, 0.0031771173789913944
1218.0, 0.005165984750513859
1219.0, 0.005451888562684134
1220.0, 0.005429867516798716
1221.0, 0.002501912286250755
1222.0, 0.004212038901588839
1223.0, 0.003771646588643449
1224.0, 0.0053134982675507566
1225.0, 0.004951094562424716
1226.0, 0.0038258076726114944
1227.0, 0.002988004866344769
1228.0, 0.004781612196516296
1229.0, 0.003944819090046228
1230.0, 0.004454949180569647
1231.0, 0.006093774526277676
1232.0, 0.002765898455783931
1233.0, 0.0031976635054194176
1234.0, 0.001109568743842472
1235.0, 0.003896446100361869
1236.0, 0.002954503290017798
1237.0, 0.0009208746889005482
1238.0, 0.0013643454883623231
1239.0, 0.004243453135378317
1240.0, 0.003179037700673753
1241.0, 0.001927315408033019
1242.0, 0.0018385846002339785
1243.0, 0.0007358998535814295
1244.0, 0.0012962087192747772
1245.0, 0.003570355808008743
1246.0, 0.0014778060711502783
1247.0, 0.003783090327089209
1248.0, 0.003489489892420257
1249.0, 0.005563166464415424
1250.0, 0.005908379427511334
1251.0, 0.0029838159481419568
1252.0, 0.007011986546902785
1253.0, 0.005734276898801844
1254.0, 0.0022531372767552998
1255.0, 0.0053262813316111365
1256.0, 0.006443117056711473
1257.0, 0.005435126588304957
1258.0, 0.004815775357605558
1259.0, 0.0008019980520324001
1260.0, 0.004159288591194085
1261.0, 0.0050561296448742915
1262.0, 0.0009293065467214527
1263.0, 0.0036981249350833134
1264.0, 0.0013710440713623716
1265.0, 0.0034285726324210317
1266.0, 0.005460744211541535
1267.0, 0.004044375249236078
1268.0, 0.001381136408406666
1269.0, 0.0005968810582513503
1270.0, 0.002226644704257884
1271.0, 0.004324064239624829
1272.0, 0.0045238229881071
1273.0, 0.003582867696891931
1274.0, 0.003477532387064323
1275.0, 0.0020252817638626245
1276.0, 0.0038285820565419518
1277.0, 0.000549894984647969
1278.0, 0.005813843791112436
1279.0, 0.0015199503734726263
1280, 0.0
1281, 0.0
1282, 0.0
1283, 0.0
1284, 0.0
1285, 0.0
1286, 0.0
1287, 0.0
1288, 0.0
1289, 0.0
1290, 0.0
1291, 0.0
1292, 0.0
1293, 0.0
1294, 0.0
1295, 0.0
1296, 0.0
1297, 0.0
1298, 0.0
1299, 0.0
1300, 0.0
1301, 0.0
1302, 0.0
1303, 0.0
1304, 0.0
1305, 0.0
1306, 0.0
1307, 0.0
1308, 0.0
1309, 0.0
1310, 0.0
1311, 0.0
1312, 0.0
1313, 0.0
1314, 0.0
1315, 0.0
1316, 0.0
1317, 0.0
1318, 0.0
1319, 0.0
1320, 0.0
1321, 0.0
1322, 0.0
1323, 0.0
1324, 0.0
1325, 0.0
1326, 0.0
1327, 0.0
1328, 0.0
1329, 0.0
1330, 0.0
1331, 0.0
1332, 0.0
1333, 0.0
1334, 0.0
1335, 0.0
1336, 0.0
1337, 0.0
1338, 0.0
1339, 0.0
1340, 0.0
1341, 0.0
1342, 0.0
1343, 0.0
1344, 0.0
1345, 0.0
1346, 0.0
1347, 0.0
1348, 0.0
1349, 0.0
1350, 0.0
1351, 0.0
1352, 0.0
1353, 0.0
1354, 0.0
1355, 0.0
1356, 0.0
1357, 0.0
1358, 0.0
1359, 0.0
1360, 0.0
1361, 0.0
1362, 0.0
1363, 0.0
1364, 0.0
1365, 0.0
1366, 0.0
1367, 0.0
1368, 0.0
1369, 0.0
1370, 0.0
1371, 0.0
1372, 0.0
1373, 0.0
1374, 0.0
1375, 0.0
1376, 0.0
1377, 0.0
1378, 0.0
1379, 0.0
1380, 0.0
1381, 0.0
1382, 0.0
1383, 0.0
1384, 0.0
1385, 0.0
1386, 0.0
1387, 0.0
1388, 0.0
1389, 0.0
1390, 0.0
1391, 0.0
1392, 0.0
1393, 0.0
1394, 0.0
1395, 0.0
1396, 0.0
1397, 0.0
1398, 0.0
1399, 0.0
1400, 0.0
1401, 0.0
1402, 0.0
1403, 0.0
1404, 0.0
1405, 0.0
1406, 0.0
1407, 0.0
1408, 0.0
1409, 0.0
1410, 0.0
1411, 0.0
1412, 0.0
1413, 0.0
1414, 0.0
1415, 0.0
1416, 0.0
1417, 0.0
1418, 0.0
1419, 0.0
1420, 0.0
1421, 0.0
1422, 0.0
1423, 0.0
1424, 0.0
1425, 0.0
1426, 0.0
1427, 0.0
1428, 0.0
1429, 0.0
1430, 0.0
1431, 0.0
1432, 0.0
1433, 0.0
1434, 0.0
1435, 0.0
1436, 0.0
1437, 0.0
1438, 0.0
1439, 0.0
1440, 0.0
1441, 0.0
1442, 0.0
1443, 0.0
1444, 0.0
1445, 0.0
1446, 0.0
1447, 0.0
1448, 0.0
1449, 0.0
1450, 0.0
1451, 0.0
1452, 0.0
1453, 0.0
1454, 0.0
1455, 0.0
1456, 0.0
1457, 0.0
1458, 0.0
1459, 0.0
1460, 0.0
1461, 0.0
1462, 0.0
1463, 0.0
1464, 0.0
1465, 0.0
1466, 0.0
1467, 0.0
1468, 0.0
1469, 0.0
1470, 0.0
1471, 0.0
1472, 0.0
1473, 0.0
1474, 0.0
1475, 0.0
1476, 0.0
1477, 0.0
1478, 0.0
1479, 0.0
1480, 0.0
1481, 0.0
1482, 0.0
1483, 0.0
1484, 0.0
1485, 0.0
1486, 0.0
1487, 0.0
1488, 0.0
1489, 0.0
1490, 0.0
1491, 0.0
1492, 0.0
1493, 0.0
1494, 0.0
1495, 0.0
1496, 0.0
1497, 0.0
1498, 0.0
1499, 0.0
1500, 0.0
1501, 0.0
1502, 0.0
1503, 0.0
1504, 0.0
1505, 0.0
1506, 0.0
1507, 0.0
1508, 0.0
1509, 0.0
1510, 0.0
1511, 0.0
1512, 0.0
1513, 0.0
1514, 0.0
1515, 0.0
1516, 0.0
1517, 0.0
1518, 0.0
1519, 0.0
1520, 0.0
1521, 0.0
1522, 0.0
1523, 0.0
1524, 0.0
1525, 0.0
1526, 0.0
1527, 0.0
1528, 0.0
1529, 0.0
1530, 0.0
1531, 0.0
1532, 0.0
1533, 0.0
1534, 0.0
1535, 0.0
1536, 0.0
1537, 0.0
1538, 0.0
1539, 0.0
1540, 0.0
1541, 0.0
1542, 0.0
1543, 0.0
1544, 0.0
1545, 0.0
1546, 0.0
1547, 0.0
1548, 0.0
1549, 0.0
1550, 0.0
1551, 0.0
1552, 0.0
1553, 0.0
1554, 0.0
1555, 0.0
1556, 0.0
1557, 0.0
1558, 0.0
1559, 0.0
1560, 0.0
1561, 0.0
1562, 0.0
1563, 0.0
1564, 0.0
1565, 0.0
1566, 0.0
1567, 0.0
1568, 0.0
1569, 0.0
1570, 0.0
1571, 0.0
1572, 0.0
1573, 0.0
1574, 0.0
1575, 0.0
1576, 0.0
1577, 0.0
1578, 0.0
1579, 0.0
1580, 0.0
1581, 0.0
1582, 0.0
1583, 0.0
1584, 0.0
1585, 0.0
1586, 0.0
1587, 0.0
1588, 0.0
1589, 0.0
1590, 0.0
1591, 0.0
1592, 0.0
1593, 0.0
1594, 0.0
1595, 0.0
1596, 0.0
1597, 0.0
1598, 0.0
1599, 0.0
