30, 0.0
31, 0.0
32, 0.0
33, 0.0
34, 0.0
35, 0.0
36, 0.0
37, 0.0
38, 0.0
39, 0.0
40, 0.0
41, 0.0
42, 0.0
43, 0.0
44, 0.0
45, 0.0
46, 0.0
47, 0.0
48, 0.0
49, 0.0
50, 0.0
51, 0.0
52, 0.0
53, 0.0
54, 0.0
55, 0.0
56, 0.0
57, 0.0
58, 0.0
59, 0.0
60, 0.0
61, 0.0
62, 0.0
63, 0.0
64, 0.0
65, 0.0
66, 0.0
67, 0.0
68, 0.0
69, 0.0
70, 0.0
71, 0.0
72, 0.0
73, 0.0
74, 0.0
75, 0.0
76, 0.0
77, 0.0
78, 0.0
79, 0.0
80, 0.0
81, 0.0
82, 0.0
83, 0.0
84, 0.0
85, 0.0
86, 0.0
87, 0.0
88, 0.0
89, 0.0
90, 0.0
91, 0.0
92, 0.0
93, 0.0
94, 0.0
95, 0.0
96, 0.0
97, 0.0
98, 0.0
99, 0.0
100, 0.0
101, 0.0
102, 0.0
103, 0.0
104, 0.0
105, 0.0
106, 0.0
107, 0.0
108, 0.0
109, 0.0
110, 0.0
111, 0.0
112, 0.0
113, 0.0
114, 0.0
115, 0.0
116, 0.0
117, 0.0
118, 0.0
119, 0.0
120, 0.0
121, 0.0
122, 0.0
123, 0.0
124, 0.0
125, 0.0
126, 0.0
127, 0.0
128, 0.0
129, 0.0
130, 0.0
131, 0.0
132, 0.0
133, 0.0
134, 0.0
135, 0.0
136, 0.0
137, 0.0
138, 0.0
139, 0.0
140, 0.0
141, 0.0
142, 0.0
143, 0.0
144, 0.0
145, 0.0
146, 0.0
147, 0.0
148, 0.0
149, 0.0
150, 0.0
151, 0.0
152, 0.0
153, 0.0
154, 0.0
155, 0.0
156, 0.0
157, 0.0
158, 0.0
159, 0.0
160, 0.0
161, 0.0
162, 0.0
163, 0.0
164, 0.0
165, 0.0
166, 0.0
167, 0.0
168, 0.0
169, 0.0
170, 0.0
171, 0.0
172, 0.0
173, 0.0
174, 0.0
175, 0.0
176, 0.0
177, 0.0
178, 0.0
179, 0.0
180, 0.0
181, 0.0
182.0, 0.00250455593419072
183.0, 0.018558311822257523
184.0, 0.02730321418068776
185.0, 0.025237496860577087
186.0, 0.02918645732623201
187.0, 0.026532404338146593
188.0, 0.02863562542687803
189.0, 0.006933117048039388
190.0, 0.007230248088353533
191.0, 0.002580113140319696
192.0, 0.025477773858468573
193.0, 0.021858743601781628
194.0, 0.012567781640822775
195.0, 0.018717494898590866
196.0, 0.04289250312547219
197.0, 0.05315868674779766
198.0, 0.05285216129413509
199.0, 0.06529397835544239
200.0, 0.09391440348693725
201.0, 0.11031670599988022
202.0, 0.1276729509361619
203.0, 0.12850858281110036
204.0, 0.13194048028928682
205.0, 0.17576797580897477
206.0, 0.1970217382694868
207.0, 0.22679717663889123
208.0, 0.26242039356324315
209.0, 0.28983711645753774
210.0, 0.320133107494195
211.0, 0.35312973954850396
212.0, 0.392711352823198
213.0, 0.4356798723950652
214.0, 0.46951040151853046
215.0, 0.5131564317228909
216.0, 0.5581771199037678
217.0, 0.5981201287019877
218.0, 0.6308482369543422
219.0, 0.6562698915618762
220.0, 0.6725712811184
221.0, 0.6883468765642796
222.0, 0.6977130736666627
223.0, 0.6602542219052656
224.0, 0.6266366641702985
225.0, 0.588688782382911
226.0, 0.5501624684136054
227.0, 0.5331501460122876
228.0, 0.4829492536427893
229.0, 0.4479308394356762
230.0, 0.42913504356660565
231.0, 0.4086679423233393
232.0, 0.3770426186532709
233.0, 0.36552760814164265
234.0, 0.3613504808163939
235.0, 0.3559924264796954
236.0, 0.35953796714039393
237.0, 0.35823300204259495
238.0, 0.34622876542985737
239.0, 0.33755836657948646
240.0, 0.3502688887912
241.0, 0.35347674630603415
242.0, 0.3437122801543406
243.0, 0.3355411062249942
244.0, 0.3277341593505078
245.0, 0.30152922454641395
246.0, 0.3133590401862811
247.0, 0.30148747638837753
248.0, 0.27389628323916204
249.0, 0.2755999096735657
250.0, 0.2389442102868499
251.0, 0.23206320942717887
252.0, 0.2389160324522315
253.0, 0.23253872863463923
254.0, 0.227071134357059
255.0, 0.20610358256206712
256.0, 0.20209199366726957
257.0, 0.2024230837782997
258.0, 0.16859808900134968
259.0, 0.15944812753877566
260.0, 0.14978676124344167
261.0, 0.14426134536526894
262.0, 0.15179389795763487
263.0, 0.16353149773124948
264.0, 0.15369211260003024
265.0, 0.1439443070870003
266.0, 0.14206954589438475
267.0, 0.1411207901981535
268.0, 0.1603250023714452
269.0, 0.1455194282895767
270.0, 0.1274128214181418
271.0, 0.13711718386154906
272.0, 0.14248805941986473
273.0, 0.14124895800242696
274.0, 0.13369844049622126
275.0, 0.11733265119518184
276.0, 0.09763814260979381
277.0, 0.1108262161866992
278.0, 0.10473248960814843
279.0, 0.08400967444725048
280.0, 0.06773197912936237
281.0, 0.053979858824395426
282.0, 0.04595273630436175
283.0, 0.04540520791525871
284.0, 0.044186500666544504
285.0, 0.033095184706738674
286.0, 0.020928827459928405
287.0, 0.027939840951870375
288.0, 0.027092742954387662
289.0, 0.008198126236552482
290.0, 0.001738824705505336
291.0, 0.00744341357797114
292.0, 0.012267141903745542
293.0, 0.017704589934356557
294.0, 0.0224501676185209
295.0, 0.010858173795991136
296.0, 0.010671650073074484
297.0, 0.011062882024594626
298.0, 0.004019985896895889
299.0, 0.0028390866178882855
300.0, 0.0164563794755358
301.0, 0.01226195391914909
302.0, 0.005859324088625274
303.0, 0.012277046608614155
304.0, 0.014150210842170496
305.0, 0.027228803559165054
306.0, 0.02607894942604791
307.0, 0.024531440538396468
308.0, 0.031523266353707995
309.0, 0.045171644528378
310.0, 0.0387231693598607
311.0, 0.04089823447583742
312.0, 0.059979607712899674
313.0, 0.06578053768804805
314.0, 0.06423464837264922
315.0, 0.07214340511151349
316.0, 0.08266930563504248
317.0, 0.08515234679377326
318.0, 0.08900661922420969
319.0, 0.07963755996347333
320.0, 0.08957047906545663
321.0, 0.11327750452940656
322.0, 0.11783817595697324
323.0, 0.12880507043626183
324.0, 0.1385939149505921
325.0, 0.14644125131693495
326.0, 0.15285712701489884
327.0, 0.15665566802146846
328.0, 0.16564495170968727
329.0, 0.17507189655525604
330.0, 0.18236452567725808
331.0, 0.18783974965579542
332.0, 0.19387408518087607
333.0, 0.19568099633572233
334.0, 0.20022697656239366
335.0, 0.20809657798052925
336.0, 0.21357026584781802
337.0, 0.22089081859533338
338.0, 0.22780530279269512
339.0, 0.2298237415281435
340.0, 0.2274395793475113
341.0, 0.22865428140816063
342.0, 0.2209960816657242
343.0, 0.2263426886992373
344.0, 0.24293663756447476
345.0, 0.2548402375929302
346.0, 0.2577581176441368
347.0, 0.25842505536687377
348.0, 0.24848976278330467
349.0, 0.24544489169271
350.0, 0.2687952500340378
351.0, 0.2757370539897278
352.0, 0.29295220873748473
353.0, 0.3066657063338076
354.0, 0.3212905932792722
355.0, 0.36380095012349123
356.0, 0.38527947324531003
357.0, 0.41407656056210523
358.0, 0.4414030122936333
359.0, 0.4638382371745009
360.0, 0.5043933703360599
361.0, 0.5513130486629891
362.0, 0.5866103396020591
363.0, 0.6167132769061974
364.0, 0.6577924914687693
365.0, 0.7194798943649857
366.0, 0.7727835492573385
367.0, 0.8201783076583703
368.0, 0.8641143080431215
369.0, 0.9019341891469136
370.0, 0.9169396777635124
371.0, 0.9688625100719749
372.0, 0.9974049528296111
373.0, 0.9799551082858129
374.0, 0.955055107697328
375.0, 0.9109510478410322
376.0, 0.8458949043333626
377.0, 0.7698578706442741
378.0, 0.692399738386098
379.0, 0.6224892978383011
380.0, 0.5734843879107197
381.0, 0.5116737518735122
382.0, 0.4460248463190296
383.0, 0.3966442265076502
384.0, 0.36281746043622753
385.0, 0.3394345717299128
386.0, 0.3099030097049884
387.0, 0.28166794832546477
388.0, 0.2673538989417663
389.0, 0.26477953315012304
390.0, 0.25231928045092455
391.0, 0.24357250686384344
392.0, 0.2368057157809948
393.0, 0.2383097682194255
394.0, 0.23451568358864738
395.0, 0.23618234769175306
396.0, 0.23370869958884088
397.0, 0.22846054672854138
398.0, 0.23448520106617612
399.0, 0.23801448293134558
400.0, 0.23728527460859877
401.0, 0.23977528972512357
402.0, 0.24187080203727346
403.0, 0.23713673207732885
404.0, 0.22252000804619507
405.0, 0.22624619532589105
406.0, 0.22856940932176753
407.0, 0.22029366283530252
408.0, 0.21785755025491663
409.0, 0.21954144344589457
410.0, 0.2045657876259366
411.0, 0.19735844825790447
412.0, 0.19772617448426727
413.0, 0.16896177690587988
414.0, 0.13438710084095576
415.0, 0.12572205082207483
416.0, 0.11115933888843867
417.0, 0.08149042883853805
418.0, 0.07660011492091223
419.0, 0.06380228028805764
420.0, 0.0477267424727105
421.0, 0.04009398113977447
422.0, 0.035928996386948735
423.0, 0.007238223524744572
424.0, 0.010486838786962879
425.0, 0.005481632488626514
426.0, 0.007370277482636696
427.0, 0.0027633090615863717
428.0, 0.009174321380438359
429.0, 0.005674213037116993
430.0, 0.0022347427871019154
431.0, 0.0013064484344947867
432.0, 0.004580438656195074
433.0, 0.0038980708861012466
434.0, 0.0014448460247306278
435.0, 0.004809070687195809
436.0, 0.008676014284401169
437.0, 0.009036745751699876
438.0, 0.003621034504813372
439.0, 0.02364469777883556
440.0, 0.02096246232119427
441.0, 0.007527491639828086
442.0, 0.004082465874536759
443.0, 0.003402322772938589
444.0, 0.012169812618259515
445.0, 0.02166562527157685
446.0, 0.01647436336135688
447.0, 0.005607284071656672
448.0, 0.012442762152343993
449.0, 0.017154288474353928
450.0, 0.015670570306601204
451.0, 0.011931078031409775
452.0, 0.011842258290603674
453.0, 0.015380549803528112
454.0, 0.005214190220307281
455.0, 0.00564464057651246
456.0, 0.0013778507995988215
457.0, 0.0002788085224979099
458.0, 0.010817357513031044
459.0, 0.007413118008202158
460.0, 0.00788270874237042
461.0, 0.0017193321476239878
462.0, 0.004811345880988453
463.0, 0.003220613414617695
464.0, 0.003402030940665584
465.0, 0.0009929194649729246
466.0, 0.00116965330144355
467.0, 0.0010153991563758848
468.0, 0.0006600339446962692
469.0, 0.012792062944847915
470.0, 0.023203568027507213
471.0, 0.018973241831997542
472.0, 0.009443911598274098
473.0, 0.015382530054796888
474.0, 0.013993501294245831
475.0, 0.023160050304263186
476.0, 0.0333729001238731
477.0, 0.03530881607798951
478.0, 0.03178980851961364
479.0, 0.0323934296854336
480.0, 0.0378595974849088
481.0, 0.036468360348910114
482.0, 0.04137574050912604
483.0, 0.06312203157927651
484.0, 0.03934153718675626
485.0, 0.05284696858636574
486.0, 0.07428340898185715
487.0, 0.07218663536433449
488.0, 0.04501156343496121
489.0, 0.05919482192865955
490.0, 0.07291132484262326
491.0, 0.07448653480280817
492.0, 0.07232879158887046
493.0, 0.07134601115365202
494.0, 0.06097443878081488
495.0, 0.07236206817237728
496.0, 0.07549449421364607
497.0, 0.08024537527520047
498.0, 0.09062860014564689
499.0, 0.07717090476093261
500.0, 0.10143164239864193
501.0, 0.09506276157611888
502.0, 0.08076427813181027
503.0, 0.08400220230812087
504.0, 0.09876724984687597
505.0, 0.10796283718047332
506.0, 0.09431796216252636
507.0, 0.07525976774710429
508.0, 0.06449443304606732
509.0, 0.06295110348236851
510.0, 0.07609084611336911
511.0, 0.07559772661824887
512.0, 0.07573532381952329
513.0, 0.06997096694856432
514.0, 0.052652245491774156
515.0, 0.05560059554564513
516.0, 0.041474024876887304
517.0, 0.03605774334756313
518.0, 0.037995689226966556
519.0, 0.03307232108543629
520.0, 0.017273692433702987
521.0, 0.018458014070909273
522.0, 0.01844458697408607
523.0, 0.016285450399499156
524.0, 0.013665571709441613
525.0, 0.007867890994914811
526.0, 0.009182485921625532
527.0, 0.019239230272911526
528.0, 0.024311536198634263
529.0, 0.016450058974658278
530.0, 0.005175581534093753
531.0, 0.02690877138792141
532.0, 0.027640837201024802
533.0, 0.025770716385440397
534.0, 0.030525984410932017
535.0, 0.03507368721737338
536.0, 0.03066323971518517
537.0, 0.007554299784318809
538.0, 0.011562075321008773
539.0, 0.01999282364335011
540.0, 0.016611122978658292
541.0, 0.020012105821050168
542.0, 0.0038586275228571633
543.0, 0.01924288703995722
544.0, 0.01883068851699393
545.0, 0.011304193457476528
546.0, 0.02865030764742007
547.0, 0.009296603221611752
548.0, 0.001825936163186562
549.0, 0.007651686704998209
550.0, 0.015699819724564447
551.0, 0.013843170655412502
552.0, 0.000596907916517987
553.0, 0.028714417949641725
554.0, 0.03423648462010156
555.0, 0.02671760025676898
556.0, 0.026138204001881556
557.0, 0.03084681300884759
558.0, 0.03466317355219036
559.0, 0.029460615598670796
560.0, 0.03146666206457337
561.0, 0.044201281090833926
562.0, 0.051183947611876814
563.0, 0.026226323066379214
564.0, 0.03191736650843334
565.0, 0.02759550665318391
566.0, 0.019419273979903045
567.0, 0.023537731980750057
568.0, 0.032940421801677035
569.0, 0.02226363539890486
570.0, 0.025521374530652622
571.0, 0.02144153216743118
572.0, 0.009207577096817134
573.0, 0.005494262704934312
574.0, 0.010217392224192677
575.0, 0.014457974893928275
576.0, 0.01035764554816835
577.0, 0.008990866609828594
578.0, 0.019768528007275094
579.0, 0.03721670708023762
580.0, 0.040019696929180684
581.0, 0.02339555013494936
582.0, 0.018887777991697455
583.0, 0.019237259029258214
584.0, 0.006528731199366175
585.0, 0.004263112427984701
586.0, 0.022404291114108264
587.0, 0.03250718182682764
588.0, 0.02296711267991417
589.0, 0.010240415174830965
590.0, 0.01552087009744575
591.0, 0.004265335797081381
592.0, 0.012755683787476045
593.0, 0.016805747062776773
594.0, 0.010743767639729992
595.0, 0.006605633722375324
596.0, 0.007082847056683544
597.0, 0.013858147985323171
598.0, 0.020894523605369943
599.0, 0.011265367351768195
600.0, 0.005136179954062956
601.0, 0.0032867549405406673
602.0, 0.007246797111446778
603.0, 0.006197320215454479
604.0, 0.00712960859521579
605.0, 0.001535928712194564
606.0, 0.011220163299406642
607.0, 0.001940252086586592
608.0, 0.011807872734469657
609.0, 0.005281506211717292
610.0, 0.008456252282588433
611.0, 0.008175054392226457
612.0, 0.014296686764850715
613.0, 0.0038785801314372695
614.0, 0.0020689175945608593
615.0, 0.0007235465427898183
616.0, 0.004068496708792886
617.0, 0.010906461647440378
618.0, 0.009472420060918417
619.0, 0.0016887549594989666
620.0, 0.004284514517609911
621.0, 0.01840042309837211
622.0, 0.021421125457461415
623.0, 0.011763392087406073
624.0, 0.029501961148396996
625.0, 0.038179863333137505
626.0, 0.040825771773653284
627.0, 0.042642559245805
628.0, 0.05131547493998724
629.0, 0.04870185909784498
630.0, 0.049666289525913634
631.0, 0.053408845666073686
632.0, 0.0528805968947956
633.0, 0.05750640112620713
634.0, 0.055486523635375186
635.0, 0.06177082288319832
636.0, 0.0615237580866131
637.0, 0.05935047735367645
638.0, 0.06272820283089088
639.0, 0.05785200862408408
640.0, 0.05251956027711442
641.0, 0.05196575485050466
642.0, 0.06475307317129966
643.0, 0.050395691493563224
644.0, 0.0555118820433072
645.0, 0.05961543316349529
646.0, 0.04253335792397706
647.0, 0.04924884349919147
648.0, 0.057616361727395524
649.0, 0.045572534557467466
650.0, 0.04761642226874991
651.0, 0.05480788463733738
652.0, 0.04662122269201492
653.0, 0.05314607916104169
654.0, 0.05594490573587774
655.0, 0.04325525122352211
656.0, 0.046062056410468996
657.0, 0.05688780206890405
658.0, 0.050195537575617274
659.0, 0.05143949352140627
660.0, 0.06311738592141725
661.0, 0.050650327580987746
662.0, 0.02500019765189261
663.0, 0.014087744894564607
664.0, 0.029164458559019762
665.0, 0.03814704193069859
666.0, 0.043592538302451016
667.0, 0.02638277694210395
668.0, 0.021361507037771427
669.0, 0.028085965548414256
670.0, 0.010854810041993316
671.0, 0.01276987935580715
672.0, 0.0016585067554716545
673.0, 0.007690849576045166
674.0, 0.0017381472654438572
675.0, 0.00037185422609335153
676.0, 0.003513415548122441
677.0, 0.0012966048517630844
678.0, 0.0038919792108617576
679.0, 0.003817749443693317
680.0, 0.007920092076966362
681.0, 0.006866253859038465
682.0, 0.010485040837787655
683.0, 0.014731544239067772
684.0, 0.012839553954645703
685.0, 0.023035125726878124
686.0, 0.027152077889648796
687.0, 0.025530667308031687
688.0, 0.03215136734771818
689.0, 0.04107241036814636
690.0, 0.04540579677395999
691.0, 0.05487532619604414
692.0, 0.0647738452504051
693.0, 0.06155137821337642
694.0, 0.06062912787113322
695.0, 0.09449639082232061
696.0, 0.10801059805941096
697.0, 0.1317968095840972
698.0, 0.15061971844414043
699.0, 0.1595636009293107
700.0, 0.18686173211377738
701.0, 0.2175068965960127
702.0, 0.25142114356866674
703.0, 0.2554705182590029
704.0, 0.2639383559395543
705.0, 0.29329026795698476
706.0, 0.31666579830978925
707.0, 0.3383522471664368
708.0, 0.35868006111986594
709.0, 0.3682660960218438
710.0, 0.3849009066688472
711.0, 0.40896615521184904
712.0, 0.42003558833931237
713.0, 0.4126692871727606
714.0, 0.4239253800106802
715.0, 0.4334998454109362
716.0, 0.43799885951081824
717.0, 0.43905559011324796
718.0, 0.4340223959525159
719.0, 0.4203998145720458
720.0, 0.41464087969137536
721.0, 0.4129715115900961
722.0, 0.40505978355973027
723.0, 0.39161576957197014
724.0, 0.37482822354623946
725.0, 0.34776451259501356
726.0, 0.32971931731648635
727.0, 0.31610053589800924
728.0, 0.2920563017993225
729.0, 0.2703574619590182
730.0, 0.2557684830988295
731.0, 0.21825920743217997
732.0, 0.18761622946789147
733.0, 0.1810455014358164
734.0, 0.16441057589349806
735.0, 0.14202014742987476
736.0, 0.12697423768699284
737.0, 0.10913906319470362
738.0, 0.10018032063730353
739.0, 0.09488587294923832
740.0, 0.10027037331560848
741.0, 0.10018154588041579
742.0, 0.09086347082471852
743.0, 0.0860854175123409
744.0, 0.080068508310194
745.0, 0.08954280840562207
746.0, 0.106549604048308
747.0, 0.10784527088766553
748.0, 0.10309130561071858
749.0, 0.1124916055986705
750.0, 0.11890607703849186
751.0, 0.11698660981345038
752.0, 0.11468503098057252
753.0, 0.10757010652090757
754.0, 0.10172317342625362
755.0, 0.10289857103156094
756.0, 0.10548354457462504
757.0, 0.086051883004454
758.0, 0.07088907979885657
759.0, 0.07268907383192152
760.0, 0.06767748346007339
761.0, 0.04735940167970086
762.0, 0.035104714591067385
763.0, 0.04105399757629483
764.0, 0.03965552501154437
765.0, 0.029074254557978355
766.0, 0.03222871891079194
767.0, 0.03628988112746647
768.0, 0.01829440031564518
769.0, 0.004216685626948416
770.0, 0.008017336876184097
771.0, 0.002495372093380209
772.0, 0.004615198434454311
773.0, 0.00678117006505129
774.0, 0.0003882298137296227
775.0, 0.0013547981281054786
776.0, 0.001782997695168939
777.0, 0.010924363635616838
778.0, 0.006387197384266604
779.0, 0.0026314901714751663
780.0, 0.0013596964917222485
781.0, 0.0163445267480514
782.0, 0.00995098769303374
783.0, 0.016225627069688338
784.0, 0.006998854608296666
785.0, 0.0031321403682194006
786.0, 0.0034576444146012715
787.0, 0.003211658229667838
788.0, 0.00648966121981152
789.0, 0.009492173639096789
790.0, 0.025722180233088754
791.0, 0.010873211578536967
792.0, 0.0030253654224407407
793.0, 0.0051309887553458245
794.0, 0.0025699357788797174
795.0, 0.02147918222942727
796.0, 0.0006455942632592698
797.0, 0.00219489698560263
798.0, 0.0020182208740305496
799.0, 0.0034959630406158093
800.0, 0.007070565023807096
801.0, 0.009248601567479002
802.0, 0.0036973299241104397
803.0, 0.010662195232493307
804.0, 0.019568534099575378
805.0, 0.01928793340036753
806.0, 0.008812091976344569
807.0, 0.0009394142784563553
808.0, 0.008420955567669024
809.0, 0.014342072053136982
810.0, 0.015841807182099234
811.0, 0.02397443846852372
812.0, 0.024625985380927844
813.0, 0.013259494180499857
814.0, 0.004799138176354353
815.0, 0.014315521282236449
816.0, 0.03204389625773864
817.0, 0.030083931242961846
818.0, 0.021618881222693485
819.0, 0.026327180260098653
820.0, 0.04053362651927949
821.0, 0.0527090703433974
822.0, 0.06978663957386907
823.0, 0.06916684583041734
824.0, 0.08461759664422515
825.0, 0.11518604016088219
826.0, 0.13009894826868076
827.0, 0.1305527980508353
828.0, 0.146783294746506
829.0, 0.14999356880570006
830.0, 0.16676535711211776
831.0, 0.17436679317001516
832.0, 0.19229965214408692
833.0, 0.20915417199637837
834.0, 0.21064821803102424
835.0, 0.2095818851119638
836.0, 0.2073430739715012
837.0, 0.21621345579821505
838.0, 0.20292969461630816
839.0, 0.18435420458404836
840.0, 0.18169125663582528
841.0, 0.1791727143298928
842.0, 0.1546648589310039
843.0, 0.14424884260858928
844.0, 0.12097050523578182
845.0, 0.10611570595926992
846.0, 0.10722368120052898
847.0, 0.09657937723684748
848.0, 0.07480417726276084
849.0, 0.08297315206383185
850.0, 0.0628316370600034
851.0, 0.060371837303695886
852.0, 0.05581555645516124
853.0, 0.047909338723222665
854.0, 0.04289076617484841
855.0, 0.043403056637873166
856.0, 0.0498555274141944
857.0, 0.04888413011554078
858.0, 0.0368986432365759
859.0, 0.029259953250636513
860.0, 0.03033006789667718
861.0, 0.032593641111786004
862.0, 0.032528768327219806
863.0, 0.03868355933972412
864.0, 0.03966226787717118
865.0, 0.020443929292117996
866.0, 0.01857788773550282
867.0, 0.029114004609550808
868.0, 0.02664955212972857
869.0, 0.011291141880534237
870.0, 0.013613395037623688
871.0, 0.022072201916943795
872.0, 0.01587085766554205
873.0, 0.009746917583357328
874.0, 0.007640294225279794
875.0, 0.005971701791712251
876.0, 0.006429532245771762
877.0, 0.014659646095856342
878.0, 0.02582717931812637
879.0, 0.01564070264151511
880.0, 0.009502442773123593
881.0, 0.009914552711406923
882.0, 0.01927923286464601
883.0, 0.023780950376942184
884.0, 0.013618972093749711
885.0, 0.030579848651566852
886.0, 0.004303134893349159
887.0, 0.0015782021938588109
888.0, 0.011268584857984855
889.0, 0.019497925952179987
890.0, 0.012770979980149595
891.0, 0.0010826818475861296
892.0, 0.00981199480672526
893.0, 0.0029274265666068182
894.0, 0.005222643823400944
895.0, 0.012287084488498402
896.0, 0.005332877002008433
897.0, 0.006215171510556447
898.0, 0.005217326437763918
899.0, 0.019354149411579986
900.0, 0.01027326077596474
901.0, 0.007875738990057175
902.0, 0.0008508551865257824
903.0, 0.01279582659391642
904.0, 0.010744252590815111
905.0, 0.0004893899617286666
906.0, 0.00369538976557398
907.0, 0.018979368024084627
908.0, 0.011472003344037791
909.0, 0.008616258515121848
910.0, 0.008195455682894088
911.0, 0.0026108573241022327
912.0, 0.004947863262324474
913.0, 0.019100136009810545
914.0, 0.01349742582307427
915.0, 0.005703293710770378
916.0, 0.0036373839875662077
917.0, 0.0014459204213569754
918.0, 0.0034375551783033254
919.0, 0.011566545194335375
920.0, 0.017220536052766702
921.0, 0.008909807938968188
922.0, 0.0013905039544887914
923.0, 0.001586051704444093
924.0, 0.005441810451553131
925.0, 0.017058695014602807
926.0, 0.013112111686658313
927.0, 0.0027781960389335544
928.0, 0.01184650705264088
929.0, 0.0049603506573656685
930.0, 0.0019881831061170888
931.0, 0.002788703236573458
932.0, 0.0014395935568666208
933.0, 0.007767525449794187
934.0, 0.01445138873194736
935.0, 0.012745860546124487
936.0, 0.010282608435021047
937.0, 0.018038400599504605
938.0, 0.010008849758000286
939.0, 0.007733024861532308
940.0, 0.0015215889008958982
941.0, 0.00936350604357563
942.0, 0.024073306640495683
943.0, 0.02087274957913124
944.0, 0.01274690322984167
945.0, 0.02893011598367617
946.0, 0.016990045345873485
947.0, 0.01311342593717328
948.0, 0.017773515620494913
949.0, 0.022026535291671763
950.0, 0.02666799058516156
951.0, 0.026396742215882903
952.0, 0.012378508179857183
953.0, 0.015057120614723748
954.0, 0.016823931498560464
955.0, 0.015336166299095967
956.0, 0.01030258269639888
957.0, 0.009930935737592551
958.0, 0.014614050256754827
959.0, 0.012706133663082033
960.0, 0.021372714161496418
961.0, 0.012290273692648143
962.0, 0.003428605931041286
963.0, 0.009375314123577904
964.0, 0.014382914577874334
965.0, 0.013620946333539014
966.0, 0.014451252109550639
967.0, 0.015418198812346233
968.0, 0.020591315113353926
969.0, 0.021279147087220836
970.0, 0.014943572449723878
971.0, 0.011802644334891968
972.0, 0.010058102205302588
973.0, 0.014159215703629088
974.0, 0.013510376917608124
975.0, 0.015394762226127805
976.0, 0.0142096949368489
977.0, 0.012012687811281389
978.0, 0.012023591913937383
979.0, 0.010216131125988837
980.0, 0.012488150093786241
981.0, 0.010013403031666913
982.0, 0.013184262930473655
983.0, 0.012384281786002382
984.0, 0.007477331626220225
985.0, 0.008959031586654783
986.0, 0.00980228621811667
987.0, 0.00954409921261729
988.0, 0.005847332299848693
989.0, 0.004110127765550888
990.0, 0.004124997360658324
991.0, 0.005969386377785832
992.0, 0.004161407339969693
993.0, 0.0027225060350416883
994.0, 0.0121430549005948
995.0, 0.0032046544971644493
996.0, 0.0055752232673313435
997.0, 0.0032247418462570837
998.0, 0.0088593565075717
999.0, 0.008083364642704321
1000.0, 0.0061632782844038
1001.0, 0.005245457076227573
1002.0, 0.009420292042712101
1003.0, 0.007815420491046342
1004.0, 0.00992944646049819
1005.0, 0.005043731648099539
1006.0, 0.004284496766590016
1007.0, 0.004524766071422617
1008.0, 0.00279053054396132
1009.0, 0.0024132503146876098
1010.0, 0.017013871841497965
1011.0, 0.005731945834332127
1012.0, 0.009135630487702006
1013.0, 0.014467976804234062
1014.0, 0.012310025552378933
1015.0, 0.01717427835185583
1016.0, 0.021104533746766425
1017.0, 0.019591175563863347
1018.0, 0.028174167319345293
1019.0, 0.01515681527512727
1020.0, 0.011154620877098334
1021.0, 0.028955768237317787
1022.0, 0.031418691443548565
1023.0, 0.021292680524881865
1024.0, 0.0370658442300483
1025.0, 0.03324889578439551
1026.0, 0.03019253026129495
1027.0, 0.03388881284107893
1028.0, 0.05022758497497651
1029.0, 0.04229282763946718
1030.0, 0.04055814171533555
1031.0, 0.05723908897583459
1032.0, 0.0691650989429009
1033.0, 0.08600018647401313
1034.0, 0.0637126624538932
1035.0, 0.09368899945005552
1036.0, 0.10465196686376985
1037.0, 0.09880749511689738
1038.0, 0.10905825468647172
1039.0, 0.111901921086686
1040.0, 0.11747244656546435
1041.0, 0.1585813890223317
1042.0, 0.15524453589943962
1043.0, 0.15260150393736377
1044.0, 0.17482521361835904
1045.0, 0.1812252568402734
1046.0, 0.18897669867504008
1047.0, 0.21046723903841125
1048.0, 0.2329765766838623
1049.0, 0.2380402338300082
1050.0, 0.233231827381514
1051.0, 0.2669246823286769
1052.0, 0.2778166313501902
1053.0, 0.2872845093625071
1054.0, 0.29443706920315643
1055.0, 0.30538253533010956
1056.0, 0.3110670585203296
1057.0, 0.3116292696206583
1058.0, 0.31128785394290304
1059.0, 0.3002603643781539
1060.0, 0.2922947333326031
1061.0, 0.27929338758263766
1062.0, 0.2804573327773725
1063.0, 0.2563875535580604
1064.0, 0.24238657006613035
1065.0, 0.2299512659679233
1066.0, 0.21858874242406165
1067.0, 0.21328322915017134
1068.0, 0.1792001812893575
1069.0, 0.16825582052550495
1070.0, 0.1493623023759505
1071.0, 0.12665017428048966
1072.0, 0.11050693866158927
1073.0, 0.0972554434242451
1074.0, 0.08360829294813094
1075.0, 0.06699032581779218
1076.0, 0.0610012810675711
1077.0, 0.07696310176554781
1078.0, 0.06205966114922774
1079.0, 0.05318455612805784
1080.0, 0.04524459569913973
1081.0, 0.03953358918821977
1082.0, 0.03680489578606681
1083.0, 0.032275617260882704
1084.0, 0.034029121064030964
1085.0, 0.0474463225699527
1086.0, 0.05057320454552744
1087.0, 0.03764498927393787
1088.0, 0.030506337575727765
1089.0, 0.034276483898947156
1090.0, 0.048089599805239816
1091.0, 0.04193935956533078
1092.0, 0.04745323149370147
1093.0, 0.05695494262056398
1094.0, 0.04121703498935066
1095.0, 0.026941762742046287
1096.0, 0.03406231258476612
1097.0, 0.023498577826060123
1098.0, 0.04020308489534305
1099.0, 0.03610610890313893
1100.0, 0.03348701564976238
1101.0, 0.03334372959896475
1102.0, 0.02432477214906765
1103.0, 0.013779392392062089
1104.0, 0.013403173073317577
1105.0, 0.0175896838230082
1106.0, 0.01608548416665548
1107.0, 0.01374673964779103
1108.0, 0.01525841035342247
1109.0, 0.024295624217172625
1110.0, 0.01981159654935899
1111.0, 0.01706113712072274
1112.0, 0.02809564098895067
1113.0, 0.035823368780648665
1114.0, 0.03151513957870646
1115.0, 0.027399974708186683
1116.0, 0.015825896255859864
1117.0, 0.02139606719405777
1118.0, 0.028188936243480806
1119.0, 0.03400776908564219
1120.0, 0.027182214148191625
1121.0, 0.026276088257744606
1122.0, 0.03577886170194174
1123.0, 0.037734874103716134
1124.0, 0.04421897489272045
1125.0, 0.058127671249700426
1126.0, 0.05744561888385453
1127.0, 0.03224529611010589
1128.0, 0.03253328530166021
1129.0, 0.031078953750852144
1130.0, 0.028882433174157198
1131.0, 0.03688355662795961
1132.0, 0.033596745334346666
1133.0, 0.015597836420861159
1134.0, 0.02314422160852413
1135.0, 0.012635206479174195
1136.0, 0.0190824892911222
1137.0, 0.02329238161403726
1138.0, 0.006982103293786561
1139.0, 0.003217745102570343
1140.0, 0.003541161108599383
1141.0, 0.0068307705205058016
1142.0, 0.004108868587162208
1143.0, 0.011446153504966815
1144.0, 0.011118090784127716
1145.0, 0.0007269047676026884
1146.0, 0.002406868305033011
1147.0, 0.0009130379109630822
1148.0, 0.00734424906274957
1149.0, 0.005191560396139808
1150.0, 0.002201460696665694
1151.0, 0.007126351349632161
1152.0, 0.00533128644436209
1153.0, 0.008443568952635736
1154.0, 0.010964353596956144
1155.0, 0.008238879882459084
1156.0, 0.005955411308607315
1157.0, 0.010021800781375085
1158.0, 0.00546466507898986
1159.0, 0.0004011681958842871
1160.0, 0.0023364929357087105
1161.0, 0.006468537216775042
1162.0, 0.010699134355536896
1163.0, 0.011649928322199592
1164.0, 0.002500884371093578
1165.0, 0.00199020351303098
1166.0, 0.010873155461718105
1167.0, 0.01297203651123544
1168.0, 0.005672719498477362
1169.0, 0.005282690474406308
1170.0, 0.005609558586337427
1171.0, 0.014062497034570668
1172.0, 0.010681517888741509
1173.0, 0.008255769809764897
1174.0, 0.016958477309312426
1175.0, 0.003707690785289289
1176.0, 0.00922476149411792
1177.0, 0.0077459630583405735
1178.0, 0.017238506990290465
1179.0, 0.019500492378605284
1180.0, 0.010644332326149489
1181.0, 0.011164541898338374
1182.0, 0.02168806173169488
1183.0, 0.022465815923465478
1184.0, 0.01373934788098706
1185.0, 0.013405162987782314
1186.0, 0.007418895819108181
1187.0, 0.01948623953407491
1188.0, 0.016610384501214458
1189.0, 0.031503835343075874
1190.0, 0.01917063094469281
1191.0, 0.00789110841492034
1192.0, 0.013271123144096512
1193.0, 0.019688171684669166
1194.0, 0.01996989051960509
1195.0, 0.0182972045425622
1196.0, 0.017134830898602627
1197.0, 0.024642437042453044
1198.0, 0.017554537085305615
1199.0, 0.02649188319243926
1200.0, 0.025109546192221128
1201.0, 0.021429994353893013
1202.0, 0.020589040498553132
1203.0, 0.01381991473201328
1204.0, 0.01711635716884918
1205.0, 0.026953038448049048
1206.0, 0.02392547667333198
1207.0, 0.019907086272138455
1208.0, 0.011582165400429048
1209.0, 0.009226652465932782
1210.0, 0.0246326613750269
1211.0, 0.034339197901919166
1212.0, 0.023281892065187385
1213.0, 0.018164466008913516
1214.0, 0.025503433032649046
1215.0, 0.031205190217160228
1216.0, 0.019065657992148016
1217.0, 0.011734467757424491
1218.0, 0.031557553276580184
1219.0, 0.02746003864218854
1220.0, 0.029133592071712056
1221.0, 0.02622811268163393
1222.0, 0.01218894676021477
1223.0, 0.011408375089992004
1224.0, 0.012565741329534839
1225.0, 0.0194272709562672
1226.0, 0.024538050850585604
1227.0, 0.011727127611621688
1228.0, 0.00982471393005678
1229.0, 0.031381337579836834
1230.0, 0.02249668093793103
1231.0, 0.021048664980929017
1232.0, 0.036857384489017285
1233.0, 0.022357404769834263
1234.0, 0.021188299133269743
1235.0, 0.026896484111608564
1236.0, 0.02205767707284814
1237.0, 0.01917946670658635
1238.0, 0.022971264998054033
1239.0, 0.025925289629303145
1240.0, 0.024300378582922635
1241.0, 0.022664689685411646
1242.0, 0.022994336119994987
1243.0, 0.02052274660095132
1244.0, 0.0555841350630342
1245.0, 0.03310101907220002
1246.0, 0.014544857116704033
1247.0, 0.014070491916910174
1248.0, 0.018811694062890967
1249.0, 0.016618136417596772
1250.0, 0.02821224549981814
1251.0, 0.02731905038946204
1252.0, 0.012594221005910297
1253.0, 0.019523745545004984
1254.0, 0.021769257943130064
1255.0, 0.02831456236430633
1256.0, 0.04570082405317614
1257.0, 0.01679761268764733
1258.0, 0.014788995255000641
1259.0, 0.013877696869367254
1260.0, 0.018988220028299228
1261.0, 0.03024679183552396
1262.0, 0.02149737483098832
1263.0, 0.016261242691272413
1264.0, 0.023298930570826708
1265.0, 0.02342209192224031
1266.0, 0.022975403470198122
1267.0, 0.0087862668009331
1268.0, 0.0017052186731950948
1269.0, 0.023139835968720632
1270.0, 0.03232082144620786
1271.0, 0.03321643818093072
1272.0, 0.02620209514221358
1273.0, 0.017291542167332436
1274.0, 0.016411545645471436
1275.0, 0.018956798001617946
1276.0, 0.023528793840812714
1277.0, 0.027458234700503813
1278.0, 0.02101987289403325
1279.0, 0.012086832602154107
1280.0, 0.014624695148122377
1281.0, 0.002838245479402246
1282.0, 0.00651620313523823
1283.0, 0.01872666448248323
1284.0, 0.028295864744392066
1285.0, 0.013838360299398396
1286.0, 0.002986895266407
1287.0, 0.002851635298564056
1288.0, 0.008410472422166066
1289.0, 0.02603930779400573
1290.0, 0.03605290368832649
1291.0, 0.017880889710031753
1292.0, 0.006081778562736793
1293.0, 0.014724242865421422
1294.0, 0.0050639223028491115
1295.0, 0.0038860513534290817
1296.0, 0.007815443725325657
1297.0, 0.016974012072414744
1298.0, 0.01791716969776146
1299.0, 0.0059693498720847895
1300, 0.0
1301, 0.0
1302, 0.0
1303, 0.0
1304, 0.0
1305, 0.0
1306, 0.0
1307, 0.0
1308, 0.0
1309, 0.0
1310, 0.0
1311, 0.0
1312, 0.0
1313, 0.0
1314, 0.0
1315, 0.0
1316, 0.0
1317, 0.0
1318, 0.0
1319, 0.0
1320, 0.0
1321, 0.0
1322, 0.0
1323, 0.0
1324, 0.0
1325, 0.0
1326, 0.0
1327, 0.0
1328, 0.0
1329, 0.0
1330, 0.0
1331, 0.0
1332, 0.0
1333, 0.0
1334, 0.0
1335, 0.0
1336, 0.0
1337, 0.0
1338, 0.0
1339, 0.0
1340, 0.0
1341, 0.0
1342, 0.0
1343, 0.0
1344, 0.0
1345, 0.0
1346, 0.0
1347, 0.0
1348, 0.0
1349, 0.0
1350, 0.0
1351, 0.0
1352, 0.0
1353, 0.0
1354, 0.0
1355, 0.0
1356, 0.0
1357, 0.0
1358, 0.0
1359, 0.0
1360, 0.0
1361, 0.0
1362, 0.0
1363, 0.0
1364, 0.0
1365, 0.0
1366, 0.0
1367, 0.0
1368, 0.0
1369, 0.0
1370, 0.0
1371, 0.0
1372, 0.0
1373, 0.0
1374, 0.0
1375, 0.0
1376, 0.0
1377, 0.0
1378, 0.0
1379, 0.0
1380, 0.0
1381, 0.0
1382, 0.0
1383, 0.0
1384, 0.0
1385, 0.0
1386, 0.0
1387, 0.0
1388, 0.0
1389, 0.0
1390, 0.0
1391, 0.0
1392, 0.0
1393, 0.0
1394, 0.0
1395, 0.0
1396, 0.0
1397, 0.0
1398, 0.0
1399, 0.0
1400, 0.0
1401, 0.0
1402, 0.0
1403, 0.0
1404, 0.0
1405, 0.0
1406, 0.0
1407, 0.0
1408, 0.0
1409, 0.0
1410, 0.0
1411, 0.0
1412, 0.0
1413, 0.0
1414, 0.0
1415, 0.0
1416, 0.0
1417, 0.0
1418, 0.0
1419, 0.0
1420, 0.0
1421, 0.0
1422, 0.0
1423, 0.0
1424, 0.0
1425, 0.0
1426, 0.0
1427, 0.0
1428, 0.0
1429, 0.0
1430, 0.0
1431, 0.0
1432, 0.0
1433, 0.0
1434, 0.0
1435, 0.0
1436, 0.0
1437, 0.0
1438, 0.0
1439, 0.0
1440, 0.0
1441, 0.0
1442, 0.0
1443, 0.0
1444, 0.0
1445, 0.0
1446, 0.0
1447, 0.0
1448, 0.0
1449, 0.0
1450, 0.0
1451, 0.0
1452, 0.0
1453, 0.0
1454, 0.0
1455, 0.0
1456, 0.0
1457, 0.0
1458, 0.0
1459, 0.0
1460, 0.0
1461, 0.0
1462, 0.0
1463, 0.0
1464, 0.0
1465, 0.0
1466, 0.0
1467, 0.0
1468, 0.0
1469, 0.0
1470, 0.0
1471, 0.0
1472, 0.0
1473, 0.0
1474, 0.0
1475, 0.0
1476, 0.0
1477, 0.0
1478, 0.0
1479, 0.0
1480, 0.0
1481, 0.0
1482, 0.0
1483, 0.0
1484, 0.0
1485, 0.0
1486, 0.0
1487, 0.0
1488, 0.0
1489, 0.0
1490, 0.0
1491, 0.0
1492, 0.0
1493, 0.0
1494, 0.0
1495, 0.0
1496, 0.0
1497, 0.0
1498, 0.0
1499, 0.0
1500, 0.0
1501, 0.0
1502, 0.0
1503, 0.0
1504, 0.0
1505, 0.0
1506, 0.0
1507, 0.0
1508, 0.0
1509, 0.0
1510, 0.0
1511, 0.0
1512, 0.0
1513, 0.0
1514, 0.0
1515, 0.0
1516, 0.0
1517, 0.0
1518, 0.0
1519, 0.0
1520, 0.0
1521, 0.0
1522, 0.0
1523, 0.0
1524, 0.0
1525, 0.0
1526, 0.0
1527, 0.0
1528, 0.0
1529, 0.0
1530, 0.0
1531, 0.0
1532, 0.0
1533, 0.0
1534, 0.0
1535, 0.0
1536, 0.0
1537, 0.0
1538, 0.0
1539, 0.0
1540, 0.0
1541, 0.0
1542, 0.0
1543, 0.0
1544, 0.0
1545, 0.0
1546, 0.0
1547, 0.0
1548, 0.0
1549, 0.0
1550, 0.0
1551, 0.0
1552, 0.0
1553, 0.0
1554, 0.0
1555, 0.0
1556, 0.0
1557, 0.0
1558, 0.0
1559, 0.0
1560, 0.0
1561, 0.0
1562, 0.0
1563, 0.0
1564, 0.0
1565, 0.0
1566, 0.0
1567, 0.0
1568, 0.0
1569, 0.0
1570, 0.0
1571, 0.0
1572, 0.0
1573, 0.0
1574, 0.0
1575, 0.0
1576, 0.0
1577, 0.0
1578, 0.0
1579, 0.0
1580, 0.0
1581, 0.0
1582, 0.0
1583, 0.0
1584, 0.0
1585, 0.0
1586, 0.0
1587, 0.0
1588, 0.0
1589, 0.0
1590, 0.0
1591, 0.0
1592, 0.0
1593, 0.0
1594, 0.0
1595, 0.0
1596, 0.0
1597, 0.0
1598, 0.0
1599, 0.0
