30, 0.0
31, 0.0
32, 0.0
33, 0.0
34, 0.0
35, 0.0
36, 0.0
37, 0.0
38, 0.0
39, 0.0
40, 0.0
41, 0.0
42, 0.0
43, 0.0
44, 0.0
45, 0.0
46, 0.0
47, 0.0
48, 0.0
49, 0.0
50, 0.0
51, 0.0
52, 0.0
53, 0.0
54, 0.0
55, 0.0
56, 0.0
57, 0.0
58, 0.0
59, 0.0
60, 0.0
61, 0.0
62, 0.0
63, 0.0
64, 0.0
65, 0.0
66, 0.0
67, 0.0
68, 0.0
69, 0.0
70, 0.0
71, 0.0
72, 0.0
73, 0.0
74, 0.0
75, 0.0
76, 0.0
77, 0.0
78, 0.0
79, 0.0
80, 0.0
81, 0.0
82, 0.0
83, 0.0
84, 0.0
85, 0.0
86, 0.0
87, 0.0
88, 0.0
89, 0.0
90, 0.0
91, 0.0
92, 0.0
93, 0.0
94, 0.0
95, 0.0
96, 0.0
97, 0.0
98, 0.0
99, 0.0
100, 0.0
101, 0.0
102, 0.0
103, 0.0
104, 0.0
105, 0.0
106, 0.0
107, 0.0
108, 0.0
109, 0.0
110, 0.0
111, 0.0
112, 0.0
113, 0.0
114, 0.0
115, 0.0
116, 0.0
117, 0.0
118, 0.0
119, 0.0
120, 0.0
121, 0.0
122, 0.0
123, 0.0
124, 0.0
125, 0.0
126, 0.0
127, 0.0
128, 0.0
129, 0.0
130, 0.0
131, 0.0
132, 0.0
133, 0.0
134, 0.0
135, 0.0
136, 0.0
137, 0.0
138, 0.0
139, 0.0
140, 0.0
141, 0.0
142, 0.0
143, 0.0
144, 0.0
145, 0.0
146.0, 0.0006994701976557754
147.0, 0.0008789920322915672
148.0, 0.0029924225896130335
149.0, 0.006895726358692356
150.0, 0.013113791070278566
151.0, 0.0190868526218331
152.0, 0.02231401323996735
153.0, 0.025668545939650754
154.0, 0.029422241034213165
155.0, 0.034093420122086826
156.0, 0.03868741700729559
157.0, 0.04451888769041702
158.0, 0.054020464386576025
159.0, 0.06787836978991377
160.0, 0.08036401293107918
161.0, 0.09212390978626245
162.0, 0.10751879925083546
163.0, 0.12429578130807012
164.0, 0.13108740809221564
165.0, 0.12528371077955736
166.0, 0.11952636513912976
167.0, 0.12037818605772849
168.0, 0.12756387060869936
169.0, 0.1308401690471486
170.0, 0.12396165160946962
171.0, 0.10889017774723733
172.0, 0.09156669114074338
173.0, 0.0786660433021969
174.0, 0.06948589461514944
175.0, 0.06139303197136453
176.0, 0.05455401316759401
177.0, 0.0499022214392229
178.0, 0.04818461007847463
179.0, 0.049548028584719864
180.0, 0.050902223301864516
181.0, 0.05155425605535617
182.0, 0.049644252100477744
183.0, 0.04874462624620429
184.0, 0.04939241476069139
185.0, 0.051160818401285335
186.0, 0.055519785729981376
187.0, 0.05813211873864479
188.0, 0.061955017092065585
189.0, 0.06831464995090644
190.0, 0.07441017726705533
191.0, 0.08517925472085253
192.0, 0.09820368930329916
193.0, 0.11435405005818422
194.0, 0.13579371858247363
195.0, 0.15864840135416106
196.0, 0.17896035202685692
197.0, 0.18606602245135132
198.0, 0.16934260165198742
199.0, 0.12570342816611177
200.0, 0.08063256186544351
201.0, 0.04556031750833536
202.0, 0.022723002882593296
203.0, 0.009610324769683182
204.0, 0.0024874309377934944
205.0, 0.0006498112414460146
206.0, 0.0026939739736184685
207.0, 0.005241591408130709
208.0, 0.0047417152851841485
209.0, 0.00549138838339727
210.0, 0.006184481023484343
211.0, 0.006190411584513557
212.0, 0.00665112592766669
213.0, 0.003425575722411313
214.0, 0.0004390986103710106
215.0, 0.0007498987597275652
216.0, 0.0014610829106818102
217.0, 0.005108959714941364
218.0, 0.010298963073441464
219.0, 0.015356190531478395
220.0, 0.02056442648099019
221.0, 0.028271230639586187
222.0, 0.03223415042973473
223.0, 0.032890731800348204
224.0, 0.031159374377987662
225.0, 0.028132175604268127
226.0, 0.02529815234262933
227.0, 0.026341529211214198
228.0, 0.03185664137251023
229.0, 0.04077352012099701
230.0, 0.05165111156400907
231.0, 0.06142416716505268
232.0, 0.07162150999736276
233.0, 0.08137483050814565
234.0, 0.0891155892645407
235.0, 0.09998529953528645
236.0, 0.11167487941594177
237.0, 0.1251178219185181
238.0, 0.1408743403467485
239.0, 0.15786341689506025
240.0, 0.17760340395454066
241.0, 0.1992076804166355
242.0, 0.22338525283472088
243.0, 0.25000493001075264
244.0, 0.2728703278854686
245.0, 0.2937237069114715
246.0, 0.30806049030213045
247.0, 0.3112298685352688
248.0, 0.2997865261779539
249.0, 0.26963013841135003
250.0, 0.23804701626277644
251.0, 0.2112495432146188
252.0, 0.18953565655454024
253.0, 0.174101111764243
254.0, 0.16727890508487803
255.0, 0.16484205528227325
256.0, 0.16240345958784197
257.0, 0.1577000281304022
258.0, 0.14402422284769056
259.0, 0.12592994523988757
260.0, 0.10469527920196553
261.0, 0.08184495687855199
262.0, 0.06618876934489193
263.0, 0.0522530576147661
264.0, 0.04217794616127398
265.0, 0.035574174086318626
266.0, 0.02950477672074576
267.0, 0.025289585868013456
268.0, 0.02130644916393009
269.0, 0.01865437906589456
270.0, 0.017478814498947563
271.0, 0.016036691693844436
272.0, 0.015188616372340839
273.0, 0.015251655423989503
274.0, 0.015473538938963772
275.0, 0.015241112071578833
276.0, 0.015577805077522067
277.0, 0.01591191020577068
278.0, 0.014329297771157812
279.0, 0.01364869936256032
280.0, 0.013022513091654503
281.0, 0.01259962587600425
282.0, 0.012021979136739127
283.0, 0.011096743693625646
284.0, 0.011088689740761166
285.0, 0.012530013680334946
286.0, 0.011902681375120077
287.0, 0.01188414681155332
288.0, 0.013614564423575242
289.0, 0.01644409131931887
290.0, 0.019694167670646436
291.0, 0.022563077158533933
292.0, 0.024573642858846577
293.0, 0.02618490330173416
294.0, 0.028491101640268142
295.0, 0.03129265688603878
296.0, 0.03408161027855347
297.0, 0.03703044597074137
298.0, 0.040277986186339015
299.0, 0.043462252303195135
300.0, 0.04781955252207127
301.0, 0.05278120714911574
302.0, 0.05866360222376637
303.0, 0.06594521488029226
304.0, 0.07285657686215956
305.0, 0.07825167087183889
306.0, 0.08105927878204344
307.0, 0.07910355951494046
308.0, 0.07065565853101008
309.0, 0.05904253535332691
310.0, 0.045651327102157746
311.0, 0.03333739908893014
312.0, 0.024132788371983387
313.0, 0.018019970450145282
314.0, 0.012661668892782087
315.0, 0.009566079349466225
316.0, 0.007883311356748754
317.0, 0.0061495804050924465
318.0, 0.004928291406356037
319.0, 0.004675051268435694
320.0, 0.0030477613935333634
321.0, 0.0010787225984844628
322.0, 0.0013382392332456272
323.0, 0.000815800923963407
324.0, 0.0004899543991172313
325.0, 0.0005741596297358119
326.0, 0.0022486679108078096
327.0, 0.0034110671222067246
328.0, 0.0026337348408520082
329.0, 0.0020766008875302234
330.0, 0.0020571903820014253
331.0, 0.002233907210125485
332.0, 0.002070936636450194
333.0, 0.0017294164557871844
334.0, 0.001234172188700695
335.0, 0.0002993393344677908
336.0, 0.0013749793609472848
337.0, 0.0022129418900814594
338.0, 0.003942964732587517
339.0, 0.006042013070466978
340.0, 0.008002819677707761
341.0, 0.009683624042543986
342.0, 0.010962441432725343
343.0, 0.01392367360743872
344.0, 0.017246678334047135
345.0, 0.01997953324786915
346.0, 0.02201762421401049
347.0, 0.023723590397026775
348.0, 0.026265996864863698
349.0, 0.029931999667414905
350.0, 0.033785250148377445
351.0, 0.03668095132560332
352.0, 0.040735667095022465
353.0, 0.04495148110487138
354.0, 0.04833801867821454
355.0, 0.05053440482829833
356.0, 0.051636296894526215
357.0, 0.05043165458390543
358.0, 0.04922625611353918
359.0, 0.04580102075039726
360.0, 0.03897536223298486
361.0, 0.03334422575341131
362.0, 0.027521985364948834
363.0, 0.021932168834600616
364.0, 0.0162265871567027
365.0, 0.010599648840709852
366.0, 0.007860855960212774
367.0, 0.006198719196266011
368.0, 0.005232659282223794
369.0, 0.004385880747575385
370.0, 0.003143211181189567
371.0, 0.002508685164664506
372.0, 0.0020822883985001806
373.0, 0.0022357002748793404
374.0, 0.0034544028456197848
375.0, 0.005949329813768453
376.0, 0.009135083746490545
377.0, 0.010848391362123483
378.0, 0.012905920869083811
379.0, 0.014577186048255154
380.0, 0.013696912724217443
381.0, 0.015224717735023631
382.0, 0.016161254721464027
383.0, 0.016710255012717955
384.0, 0.017646550675745203
385.0, 0.019394408380769897
386.0, 0.021584224642035178
387.0, 0.024916454824426042
388.0, 0.029032898589664673
389.0, 0.033019061871212924
390.0, 0.03636775086416413
391.0, 0.040068926829174956
392.0, 0.041549007353243635
393.0, 0.041543035528004764
394.0, 0.03839698263847205
395.0, 0.0281697013766317
396.0, 0.017672676370305552
397.0, 0.010157288670497745
398.0, 0.005477496349455086
399.0, 0.0023578149108501277
400.0, 0.00028223128501193894
401.0, 0.00041196821774527724
402.0, 0.0005598727329387288
403.0, 0.0007644153839921267
404.0, 0.00046656510364642554
405.0, 0.0007077449784862323
406.0, 0.0015011782152260721
407.0, 0.0028862191059537247
408.0, 0.005387362503440119
409.0, 0.008462496982784186
410.0, 0.01069781985554277
411.0, 0.01455105787750232
412.0, 0.01754656041947925
413.0, 0.019794280696683823
414.0, 0.021633854842989887
415.0, 0.02278047469096649
416.0, 0.024394146371245474
417.0, 0.025788616726242726
418.0, 0.027319738603488478
419.0, 0.029881281799626423
420.0, 0.03407916422854631
421.0, 0.03922187758315421
422.0, 0.04393661853859312
423.0, 0.0500981831327553
424.0, 0.05812868309320022
425.0, 0.0667109069973188
426.0, 0.07338881239054078
427.0, 0.08118480823250362
428.0, 0.0857631482679839
429.0, 0.0833819804382267
430.0, 0.07396233250130185
431.0, 0.06156295801155584
432.0, 0.0457442793043593
433.0, 0.030972365587509137
434.0, 0.020501352887345652
435.0, 0.013983588477470981
436.0, 0.007108462135056116
437.0, 0.0035500707224588764
438.0, 0.0009723944704584496
439.0, 0.0018749254968687356
440.0, 0.0037029212488408924
441.0, 0.004685466755183554
442.0, 0.005228664662567723
443.0, 0.005419459785370929
444.0, 0.0047518647726291765
445.0, 0.002983494758448699
446.0, 0.0006862820780990779
447.0, 0.0017208168023109156
448.0, 0.005006767980092831
449.0, 0.008354322079821532
450.0, 0.01124810691190618
451.0, 0.014736125741557695
452.0, 0.018263074222803734
453.0, 0.02344894504684518
454.0, 0.02895509952016796
455.0, 0.03427422811430979
456.0, 0.04129059189733292
457.0, 0.049220900224029314
458.0, 0.05829045851563314
459.0, 0.0668300499917502
460.0, 0.07414574194372543
461.0, 0.08123230053681832
462.0, 0.08843233802335469
463.0, 0.09396215503087352
464.0, 0.09504443099479194
465.0, 0.09255494754802529
466.0, 0.08897099659141751
467.0, 0.08312805897164904
468.0, 0.07968678986589589
469.0, 0.07871635549944175
470.0, 0.07989605304058403
471.0, 0.0820817181499238
472.0, 0.08230313690069567
473.0, 0.0753854853337923
474.0, 0.06411698268278405
475.0, 0.052369764706448205
476.0, 0.04239251830239445
477.0, 0.03485667904133361
478.0, 0.03118818686579968
479.0, 0.028682163247192895
480.0, 0.027422421201332474
481.0, 0.028359418059004205
482.0, 0.0313052964681365
483.0, 0.034497956697617044
484.0, 0.039123382871840535
485.0, 0.04575489002472097
486.0, 0.05487643217405111
487.0, 0.06687324598682215
488.0, 0.08141554403649695
489.0, 0.10245463494318906
490.0, 0.1293548685925355
491.0, 0.1632759891985404
492.0, 0.20466409862191012
493.0, 0.24996118530072206
494.0, 0.29912502852816714
495.0, 0.34493577912670875
496.0, 0.38418327947104447
497.0, 0.4191621163520843
498.0, 0.45451163082607743
499.0, 0.4922761779360189
500.0, 0.5378826607153195
501.0, 0.5882528236173026
502.0, 0.6456590046384444
503.0, 0.7147754874908355
504.0, 0.7873011595746986
505.0, 0.8609668155589992
506.0, 0.9280777272294783
507.0, 0.9792849061407768
508.0, 0.9982671069330681
509.0, 0.9612709437161929
510.0, 0.8550913075815831
511.0, 0.7100187022882426
512.0, 0.5581704255241133
513.0, 0.42345104063348116
514.0, 0.3190815551754046
515.0, 0.24591507682698463
516.0, 0.19280812627096183
517.0, 0.1530479291124112
518.0, 0.12369377871171064
519.0, 0.1026985435228732
520.0, 0.08516207436814169
521.0, 0.07115188373236135
522.0, 0.061557134151954046
523.0, 0.05480388173694864
524.0, 0.04843343398547799
525.0, 0.04161559586139655
526.0, 0.03653094452437428
527.0, 0.03285919215568375
528.0, 0.029950300430130566
529.0, 0.026295863181519354
530.0, 0.02153678757332405
531.0, 0.01931172416719092
532.0, 0.015985886635799588
533.0, 0.013089192440841365
534.0, 0.011472189955922125
535.0, 0.010743134324041372
536.0, 0.009876600761954976
537.0, 0.009491183472400704
538.0, 0.009971479372614679
539.0, 0.010926243369965784
540.0, 0.012722659242751073
541.0, 0.01548339449886373
542.0, 0.01684957209274359
543.0, 0.01851996370539238
544.0, 0.022828724386930885
545.0, 0.02633704516010931
546.0, 0.027523972720784974
547.0, 0.029969562541531148
548.0, 0.03350207218574642
549.0, 0.037558163888562424
550.0, 0.04259425308405585
551.0, 0.047530917874111046
552.0, 0.05073432883872721
553.0, 0.05277317993444429
554.0, 0.05319579975960541
555.0, 0.0509560871941886
556.0, 0.04585624641176334
557.0, 0.03825009684659151
558.0, 0.029292748571470333
559.0, 0.021877065416337476
560.0, 0.01551320034898668
561.0, 0.010252885933014485
562.0, 0.0064111558377595345
563.0, 0.0037659423336068084
564.0, 0.0012714959633708777
565.0, 0.0002002183901792183
566.0, 0.000878769747744011
567.0, 0.0015278394384259464
568.0, 0.001980686817655464
569.0, 0.0030166720362386334
570.0, 0.0029728215218310255
571.0, 0.002682586034564735
572.0, 0.00303607466585372
573.0, 0.002685618284394261
574.0, 0.0015630896038776841
575.0, 0.0017550651800923528
576.0, 0.0006710161986184395
577.0, 0.0011977629466660064
578.0, 0.0023085169710197364
579.0, 0.0035375624554357045
580.0, 0.005938071531338311
581.0, 0.008257240480853469
582.0, 0.009668615656879527
583.0, 0.011369640749210262
584.0, 0.013459148500279091
585.0, 0.01594390490096717
586.0, 0.018872420811729858
587.0, 0.022050524333522042
588.0, 0.02397591677178951
589.0, 0.02615847706485341
590.0, 0.029000151757260433
591.0, 0.031962585315585115
592.0, 0.03436717471563289
593.0, 0.03673934651182487
594.0, 0.036496497698680304
595.0, 0.034439989072502133
596.0, 0.03186972669436542
597.0, 0.029003187238586827
598.0, 0.025123089168433685
599.0, 0.020693001321596093
600.0, 0.018032018214151988
601.0, 0.017221419882426953
602.0, 0.016909087564802472
603.0, 0.016334760868113123
604.0, 0.017003290809741552
605.0, 0.018138289396462212
606.0, 0.017882596694255997
607.0, 0.018016408906552265
608.0, 0.019124096640265317
609.0, 0.020114810568566757
610.0, 0.02160269609264684
611.0, 0.023012825664139182
612.0, 0.024229720244157198
613.0, 0.026432232164481966
614.0, 0.028974371497360533
615.0, 0.029844737995390853
616.0, 0.031214769630215067
617.0, 0.030016520464300714
618.0, 0.02752778728880557
619.0, 0.024389112712903626
620.0, 0.020823358828241066
621.0, 0.017526200355360958
622.0, 0.01423629552503125
623.0, 0.010852806394076195
624.0, 0.008877908892918724
625.0, 0.008010716171956783
626.0, 0.007107071244232678
627.0, 0.005290728906630867
628.0, 0.00412626344117146
629.0, 0.0033809529916327373
630.0, 0.0022752342839480067
631.0, 0.0011911310613140873
632.0, 0.0005744860545829495
633.0, 0.00021466791247509162
634.0, 0.0006783676636300969
635.0, 0.00036871832713667195
636.0, 0.0013658187129157002
637.0, 0.0018279588205674072
638.0, 0.00045049334579026643
639.0, 0.0005760316458679478
640.0, 0.0005717351082420326
641.0, 0.00011122536639834171
642.0, 0.00018664675544122499
643.0, 0.000591013763205321
644.0, 0.00031738140770075054
645.0, 0.00048450982323581886
646.0, 0.0007843988090256089
647.0, 0.00017420511333693297
648.0, 0.0005303358184594928
649.0, 0.0004740546323654361
650.0, 0.00019055452653226408
651.0, 0.00012813217801950123
652.0, 0.0008900724968075326
653.0, 0.0016000674398388803
654.0, 0.001519527594337751
655.0, 0.0010625062681772377
656.0, 0.0014386782148380483
657.0, 0.003225118504315306
658.0, 0.002863779196662305
659.0, 0.0035313259637916043
660.0, 0.004221438241864953
661.0, 0.004621970534561081
662.0, 0.005273106984911408
663.0, 0.0062044600085402095
664.0, 0.007762473701543463
665.0, 0.009427565361881014
666.0, 0.010872640846771659
667.0, 0.012735736944084917
668.0, 0.015245463916517642
669.0, 0.017854625338529575
670.0, 0.02171094734420673
671.0, 0.024892165032741862
672.0, 0.027823864136468562
673.0, 0.030697688257839695
674.0, 0.0340304014287703
675.0, 0.03821190683053549
676.0, 0.04051557179296179
677.0, 0.04521353011728582
678.0, 0.049558794773572376
679.0, 0.05396047687558841
680.0, 0.058230921174091364
681.0, 0.06078577634050828
682.0, 0.06263942634362046
683.0, 0.0632189474222307
684.0, 0.06072048562793456
685.0, 0.05504454347351309
686.0, 0.0475467531387711
687.0, 0.039894608280508115
688.0, 0.03293504308109074
689.0, 0.027601401103894606
690.0, 0.022737172968371532
691.0, 0.01923640860749478
692.0, 0.017213014028951343
693.0, 0.015560133320932127
694.0, 0.013312572523893427
695.0, 0.013186668653484442
696.0, 0.012407148155555036
697.0, 0.011167932254067021
698.0, 0.010348114514588606
699.0, 0.01021295431194371
700.0, 0.010392930873383879
701.0, 0.01080719443479923
702.0, 0.010754451869440587
703.0, 0.011417047200736722
704.0, 0.011716578999884576
705.0, 0.011829611306524645
706.0, 0.013192147673956373
707.0, 0.014693559938178922
708.0, 0.016527109634933073
709.0, 0.01895312546562813
710.0, 0.02098492355899706
711.0, 0.023316842754083283
712.0, 0.026248704720539286
713.0, 0.02719535608870913
714.0, 0.0263696317262513
715.0, 0.026221327497470037
716.0, 0.025925704874052075
717.0, 0.024974433088711598
718.0, 0.023268541771472674
719.0, 0.021336467676057354
720.0, 0.022006436337572554
721.0, 0.02138461356782337
722.0, 0.021668209322471144
723.0, 0.022287700351040697
724.0, 0.022381368454890624
725.0, 0.022392473012039792
726.0, 0.022358327611898536
727.0, 0.02160407836568097
728.0, 0.02125307872263554
729.0, 0.01948697787506113
730.0, 0.017149260682857933
731.0, 0.015575758712157203
732.0, 0.01399529861172661
733.0, 0.013912419721049738
734.0, 0.015842263790520256
735.0, 0.01757142174972524
736.0, 0.019461158622098438
737.0, 0.02297637951199724
738.0, 0.027815209085924532
739.0, 0.031361102191299714
740.0, 0.03363658370408965
741.0, 0.03860292916544477
742.0, 0.04345779159099022
743.0, 0.04744623347933837
744.0, 0.05239197090926231
745.0, 0.05905570883061315
746.0, 0.06486947386215915
747.0, 0.07125350846304164
748.0, 0.07766058647652811
749.0, 0.08352983922425057
750.0, 0.08722365176796515
751.0, 0.08787366015761365
752.0, 0.08722683617604887
753.0, 0.07907074369331496
754.0, 0.06797708858242542
755.0, 0.05710933297633257
756.0, 0.04699902716709385
757.0, 0.03907773207441492
758.0, 0.03429702124586033
759.0, 0.026187340866373903
760.0, 0.02112486833891548
761.0, 0.017870382663690433
762.0, 0.01566917445703612
763.0, 0.013623172355045019
764.0, 0.011410497916712913
765.0, 0.010296922368562045
766.0, 0.01137270015934382
767.0, 0.009392150348088863
768.0, 0.007055867171918529
769.0, 0.005903128546747819
770.0, 0.005243997428519669
771.0, 0.0044846371140974915
772.0, 0.004443643515693983
773.0, 0.003805340519294017
774.0, 0.0031080461928923806
775.0, 0.003756703332043421
776.0, 0.003956271527180834
777.0, 0.003074022843333884
778.0, 0.0028182783205739827
779.0, 0.002196292141934067
780.0, 0.0017131881540750214
781.0, 0.0010004515413851208
782.0, 0.0022080211554281718
783.0, 0.003021636685845131
784.0, 0.0022464747315842698
785.0, 0.0023276977615549533
786.0, 0.0005525220860406643
787.0, 0.0003566962535912185
788.0, 0.0004180111258690999
789.0, 0.00026612234751420164
790.0, 0.00011788614447609568
791.0, 0.0002756300104478717
792.0, 3.54205467753567e-05
793.0, 0.00038800437575918154
794.0, 0.0006801121184035798
795.0, 0.0012612455008796123
796.0, 0.000967673713609213
797.0, 0.00030393230042608476
798.0, 0.0004081619275112699
799.0, 0.000726150739434351
800.0, 0.0001308087974014506
801.0, 0.0004880750663216965
802.0, 0.0006189133748112733
803.0, 0.00030506417043707956
804.0, 0.00010229436606921271
805.0, 8.921257738316797e-05
806.0, 0.00018438605421560142
807.0, 0.0002551096235502839
808.0, 0.00016142374265948402
809.0, 0.00045088959838289656
810.0, 0.0008911737197404171
811.0, 0.0008007073739829731
812.0, 5.312544881340642e-05
813.0, 0.00043885732977174606
814.0, 0.0002938652727484289
815.0, 0.00028333785386118666
816.0, 0.0009565765604448731
817.0, 0.0012931398969617718
818.0, 0.0010141457269784208
819.0, 0.0007223605291247064
820.0, 0.0017890145033041122
821.0, 0.002276894987936209
822.0, 0.0018066941174516655
823.0, 0.0007489954650366931
824.0, 0.0002927008856783131
825.0, 0.0007018865095538903
826.0, 0.0013914541576205714
827.0, 0.0015657958781705918
828.0, 0.0009040276635400629
829.0, 0.0010336924862432298
830.0, 0.0013007448107967446
831.0, 0.0013205259367418927
832.0, 0.0011021082063386823
833.0, 0.0010276954119358838
834.0, 0.0011435633067663716
835.0, 0.0010058620313380148
836.0, 0.0016605967150555047
837.0, 0.0020048159266624153
838.0, 0.0022535461887790427
839.0, 0.0024035690058289813
840.0, 0.0024684989609305235
841.0, 0.002740978807430275
842.0, 0.002691712543893019
843.0, 0.0022348314003510774
844.0, 0.002874646141991385
845.0, 0.0033092285171059574
846.0, 0.0031761359339329293
847.0, 0.0031438430069051396
848.0, 0.003504152236807569
849.0, 0.003984060658788415
850.0, 0.003606420433742039
851.0, 0.0029388002758158407
852.0, 0.002480636031902711
853.0, 0.002747132154270814
854.0, 0.003132855415493525
855.0, 0.0031247850438959382
856.0, 0.00338807245075887
857.0, 0.0025368292157828534
858.0, 0.002207828257014832
859.0, 0.002437654870608749
860.0, 0.0027996132067295747
861.0, 0.0028949027703014567
862.0, 0.002887244068611645
863.0, 0.0029779184863511603
864.0, 0.0022904772900542484
865.0, 0.0013777443653666937
866.0, 0.0018743736418855865
867.0, 0.0021915679130792057
868.0, 0.002144760992867666
869.0, 0.0021000330912778753
870.0, 0.0019421319392909247
871.0, 0.0016084502590035159
872.0, 0.001524493446062476
873.0, 0.001746352850661822
874.0, 0.0014298999335692175
875.0, 0.0014648805559819749
876.0, 0.001474269291108085
877.0, 0.0013627464273406379
878.0, 0.0017451281246525347
879.0, 0.0008603245470974051
880.0, 0.0016373718397244463
881.0, 0.0005032106528202051
882.0, 0.0013651291888417964
883.0, 0.0015370283512170441
884.0, 0.0003179325302553726
885.0, 0.0005413920694616523
886.0, 0.0015031814025163962
887.0, 0.000951720242191038
888.0, 0.0002570326671647326
889.0, 0.000715365969195306
890.0, 0.00020522399709556612
891.0, 5.2531975219228996e-05
892.0, 0.0001808685229029211
893.0, 0.0005142878670264412
894.0, 2.5593783129394334e-05
895.0, 0.0001013437212867154
896.0, 0.0006786473748730325
897.0, 0.0007398801624176387
898.0, 0.0004682247614512199
899.0, 0.0006248758699894815
900.0, 0.00039374308510958746
901.0, 0.0007470467484252455
902.0, 0.0006499787390837351
903.0, 0.0011357096464518464
904.0, 0.0007670614626735376
905.0, 0.00045220777022701817
906.0, 0.00020144181771024545
907.0, 5.441762329613728e-05
908.0, 0.00012759461642725654
909.0, 0.0004762980170782575
910.0, 0.0013505441162280063
911.0, 0.0007674304824102344
912.0, 0.0004965433654799421
913.0, 0.0004286770121850555
914.0, 0.00015269024595096148
915.0, 0.00020659774395806924
916.0, 0.0006353392206262281
917.0, 0.00032874485363750585
918.0, 0.0005022749578849088
919.0, 0.0007835746769519583
920.0, 0.0006904043682258454
921.0, 0.0005192099625697064
922.0, 0.0003394529707039089
923.0, 0.0007846844140198878
924.0, 0.002104621360752065
925.0, 0.0026983957114952257
926.0, 0.0025391494902906957
927.0, 0.0029914634391160003
928.0, 0.003637789624868642
929.0, 0.004492997828108102
930.0, 0.005277955292628056
931.0, 0.0060673303598329205
932.0, 0.007159172980271725
933.0, 0.008401898766348859
934.0, 0.010208924092126422
935.0, 0.01085554630064098
936.0, 0.012073271625049776
937.0, 0.014250014350101755
938.0, 0.01578880641146094
939.0, 0.016965285781747337
940.0, 0.018879137884584406
941.0, 0.019898215517885006
942.0, 0.020740638653260427
943.0, 0.02241361387200312
944.0, 0.023024013911035788
945.0, 0.022799841218076572
946.0, 0.023229513339851585
947.0, 0.023740339576061687
948.0, 0.023153002688567976
949.0, 0.022508097823249716
950.0, 0.02302772410769256
951.0, 0.022088394156085996
952.0, 0.02116413374201763
953.0, 0.02104641101486815
954.0, 0.02029954277217685
955.0, 0.01978552940389413
956.0, 0.020825934091264386
957.0, 0.02263628642441048
958.0, 0.02515189249618769
959.0, 0.027864954942213794
960.0, 0.032573606603561574
961.0, 0.035319170360776746
962.0, 0.039328294072210376
963.0, 0.043980749513552894
964.0, 0.048099787324609476
965.0, 0.052992648302365275
966.0, 0.05814005133129978
967.0, 0.06425352985858557
968.0, 0.07097736643475215
969.0, 0.0774641896512768
970.0, 0.08279216229569347
971.0, 0.0866867661079311
972.0, 0.08737764523909565
973.0, 0.08452415615373594
974.0, 0.08091708950175243
975.0, 0.07649545487804885
976.0, 0.07396427230807019
977.0, 0.07528327708942732
978.0, 0.07668883989037532
979.0, 0.07995249043727544
980.0, 0.08550331264195188
981.0, 0.09243861660775789
982.0, 0.10153218238014436
983.0, 0.11211770670698548
984.0, 0.12076210511414658
985.0, 0.12620124377897088
986.0, 0.12331152143264537
987.0, 0.11250867243371541
988.0, 0.09735247533746003
989.0, 0.08298585908525946
990.0, 0.07223543469425678
991.0, 0.0642100411473065
992.0, 0.05975104928451527
993.0, 0.056872889191602626
994.0, 0.05540346425893327
995.0, 0.053724556917646736
996.0, 0.05424855610036102
997.0, 0.05249802493859879
998.0, 0.04829336413728726
999.0, 0.04515218228390812
1000.0, 0.04145345458716645
1001.0, 0.0387309896715792
1002.0, 0.038972471027325456
1003.0, 0.03876116571738486
1004.0, 0.03836024666492095
1005.0, 0.04008900339381613
1006.0, 0.04312810104800432
1007.0, 0.04582782422122841
1008.0, 0.04849494827509475
1009.0, 0.05160709672945422
1010.0, 0.055075947503210994
1011.0, 0.05791485998826305
1012.0, 0.06064675546410616
1013.0, 0.06259829483247764
1014.0, 0.061640389124469945
1015.0, 0.059174046838596644
1016.0, 0.055809426259794986
1017.0, 0.050152535943504876
1018.0, 0.043067243360823175
1019.0, 0.03678106323013877
1020.0, 0.029674502079863756
1021.0, 0.023860230787781357
1022.0, 0.019347162328743884
1023.0, 0.01592548386462396
1024.0, 0.013169777833898645
1025.0, 0.010553227851441997
1026.0, 0.00827835089306339
1027.0, 0.00700085259204139
1028.0, 0.005742709128527192
1029.0, 0.0053416841649855705
1030.0, 0.0041555535812058475
1031.0, 0.0035780052578793103
1032.0, 0.002146943286319334
1033.0, 0.0010701408842552394
1034.0, 0.0012075795373273095
1035.0, 0.0011410838145293207
1036.0, 0.0002435578580161941
1037.0, 0.0010963618455984072
1038.0, 0.0005702602629560674
1039.0, 0.0010437342825117143
1040.0, 0.0014408068919619468
1041.0, 0.001139769920169263
1042.0, 0.0003170409669529768
1043.0, 0.0008686322874981382
1044.0, 0.0018910654181618063
1045.0, 0.00294506108972657
1046.0, 0.005342834195674028
1047.0, 0.0077477773085090915
1048.0, 0.009755939894573294
1049.0, 0.01163330017833329
1050.0, 0.013745628994513294
1051.0, 0.01589080612101026
1052.0, 0.018017425233059707
1053.0, 0.019719705600159104
1054.0, 0.020969691016788878
1055.0, 0.022214319045088523
1056.0, 0.02116166494681564
1057.0, 0.019750862447460188
1058.0, 0.017932596429817222
1059.0, 0.016035115719920598
1060.0, 0.014014554844959812
1061.0, 0.011970940694640504
1062.0, 0.009605828649025176
1063.0, 0.007233068885464024
1064.0, 0.005866106670779205
1065.0, 0.00504578887337518
1066.0, 0.003332828064241293
1067.0, 0.002437058605688998
1068.0, 0.0018086840707992285
1069.0, 0.0014347417853398264
1070.0, 0.0007338241736176002
1071.0, 0.00030991796259246195
1072.0, 0.00023129210828431738
1073.0, 0.0002850710838373453
1074.0, 0.000801102949897996
1075.0, 0.0004826437217505329
1076.0, 0.000994761335649038
1077.0, 0.00047464915144240083
1078.0, 0.0005462162458120463
1079.0, 0.00019968294987730332
1080.0, 7.720142191865406e-05
1081.0, 6.139440712133625e-05
1082.0, 0.0010428809907996883
1083.0, 0.0017095657281489905
1084.0, 0.001184112795898709
1085.0, 0.002527554587240828
1086.0, 0.004212714289115049
1087.0, 0.004438753452035842
1088.0, 0.00523837706774666
1089.0, 0.006360757981264121
1090.0, 0.00685586199101814
1091.0, 0.007910627331243479
1092.0, 0.00946881518446842
1093.0, 0.010139557282421609
1094.0, 0.010504737328562656
1095.0, 0.011638893071502121
1096.0, 0.010497074894117614
1097.0, 0.011630491435763335
1098.0, 0.011481633896347281
1099.0, 0.010629882536078113
1100.0, 0.00942861263402158
1101.0, 0.008398989096110459
1102.0, 0.006933108187077188
1103.0, 0.0055552025784308965
1104.0, 0.005758873546967451
1105.0, 0.004964223039654607
1106.0, 0.003151716151108208
1107.0, 0.0021151841799933405
1108.0, 0.0019554938525247678
1109.0, 0.002100311162953901
1110.0, 0.0015573788933406086
1111.0, 0.001248868030334245
1112.0, 0.0011890590279754205
1113.0, 0.001176852938032267
1114.0, 0.0011550638035374404
1115.0, 0.0003389627197726082
1116.0, 0.0005333602568494512
1117.0, 0.00093102785812667
1118.0, 0.0016832411803732465
1119.0, 0.0008338832067682351
1120.0, 0.00016700336276573863
1121.0, 0.0006376677754555773
1122.0, 0.0003634717487313036
1123.0, 0.000622907998497141
1124.0, 0.0006065798964777361
1125.0, 9.142346643450895e-05
1126.0, 0.00039245573807481014
1127.0, 0.00028657265136844835
1128.0, 0.0002945375436388557
1129.0, 0.0010279436072150256
1130.0, 0.0007795765792527267
1131.0, 0.00010306817551110541
1132.0, 0.00033643559460100624
1133.0, 0.00040170877972700293
1134.0, 0.0001248692764930352
1135.0, 0.0002436148292896903
1136.0, 0.00024262423654662657
1137.0, 5.855391394259004e-05
1138.0, 0.00012375858260822085
1139.0, 0.00011302757205208828
1140.0, 0.0002125513838675876
1141.0, 0.0008333963540539943
1142.0, 0.0005974561344857449
1143.0, 0.000741746849671146
1144.0, 0.0007102524299579354
1145.0, 0.0003394529362875463
1146.0, 0.0010023299257168523
1147.0, 0.0015903686353008653
1148.0, 0.000525796602871753
1149.0, 0.000977194575690188
1150.0, 0.0010212650788837643
1151.0, 0.00034538983966573823
1152.0, 0.0005302658851608925
1153.0, 0.0006835994572378125
1154.0, 0.0008608431711877909
1155.0, 0.0007784171112921158
1156.0, 0.0002589405952788324
1157.0, 6.699492531451588e-05
1158.0, 0.0005139081559245248
1159.0, 0.0011482037159130922
1160.0, 0.0015631867716724463
1161.0, 0.0002506253626436528
1162.0, 0.0009262747200541612
1163.0, 0.0014863818069095628
1164.0, 0.0013796352480777412
1165.0, 0.0011048247811718285
1166.0, 0.0005139799662377574
1167.0, 0.0007332813658892589
1168.0, 0.0015652092501415422
1169.0, 0.0008305013843333411
1170.0, 0.0002756307188494264
1171.0, 0.0017935522274052898
1172.0, 0.0017181945229043777
1173.0, 0.0015088912312442163
1174.0, 0.00170820329776673
1175.0, 0.0014393886535378486
1176.0, 0.0009964435787113838
1177.0, 0.00128618506700179
1178.0, 0.0018902296637544511
1179.0, 0.0021616607280920837
1180.0, 0.0017586352967233622
1181.0, 0.0010119535112387134
1182.0, 0.0016348974206375469
1183.0, 0.0030008537719592014
1184.0, 0.003107600744797256
1185.0, 0.0014051835155134186
1186.0, 0.0009595017269235516
1187.0, 0.0013537787654127182
1188.0, 0.0015341472723715997
1189.0, 0.0005095849421788757
1190.0, 0.0003777833898624901
1191.0, 0.0010954558550315865
1192.0, 0.000992286819386667
1193.0, 0.0007487224864386872
1194.0, 0.00021011226814360816
1195.0, 0.0008615497738783196
1196.0, 0.0008490780743327514
1197.0, 0.0009313236607674347
1198.0, 0.0011930942164362522
1199.0, 0.00031808669623784665
1200.0, 0.0006334400586233233
1201.0, 0.0013943967483950083
1202.0, 0.0012455049044215187
1203.0, 0.0007522547043479306
1204.0, 0.0006737407492892108
1205.0, 0.0009448123485641986
1206.0, 0.001318495706237749
1207.0, 0.000717146302561973
1208.0, 0.000937444732753804
1209.0, 0.0012654256263655735
1210.0, 0.0008510857334482868
1211.0, 0.0009500673319057243
1212.0, 0.001270964268155966
1213.0, 0.000962493141469049
1214.0, 0.0013194408887058527
1215.0, 0.001580981304512958
1216.0, 0.0012062289061230604
1217.0, 0.0008139969011632387
1218.0, 0.000472116108051541
1219.0, 0.0010978656984440113
1220.0, 0.0016028710091091723
1221.0, 0.002102222317213755
1222.0, 0.0039508898381132125
1223.0, 0.0018725210392799916
1224.0, 0.0009303275306908
1225.0, 0.0009784412871868223
1226.0, 0.0007842031238841488
1227.0, 0.0006926863064329317
1228.0, 0.000515955832296564
1229.0, 0.0004452142037262516
1230.0, 0.0009519963381147344
1231.0, 0.001381580893197756
1232.0, 0.0012838545549946102
1233.0, 0.0023890069625500643
1234.0, 0.0015140452943532628
1235.0, 0.0012796882988379457
1236.0, 0.00022312625371379832
1237.0, 0.00012432180300588473
1238.0, 0.0007618436257011218
1239.0, 0.0009692848435418569
1240.0, 0.0009907013753216718
1241.0, 0.0006942470602968934
1242.0, 0.00036291497243236823
1243.0, 0.00021690318360461833
1244.0, 0.0012703411981427031
1245.0, 0.0006262619603816426
1246.0, 0.00037067244343384954
1247.0, 0.0007880484366606793
1248.0, 0.0004240527857962766
1249.0, 0.0009677292316354818
1250.0, 0.00044990980252942173
1251.0, 0.00041409873013934217
1252.0, 0.00031681813430154283
1253.0, 0.0003940100458615333
1254.0, 0.0004751388090489371
1255.0, 0.001173049514111959
1256.0, 0.0009692473904667745
1257.0, 9.534337075601631e-05
1258.0, 0.000515584594413604
1259.0, 0.000296198930000921
1260.0, 0.001046477049046275
1261.0, 0.0009294091152050812
1262.0, 0.000680848594811035
1263.0, 0.00019195442826255095
1264.0, 0.0006302622770963959
1265.0, 0.0017073270379740933
1266.0, 0.0017280191602089886
1267.0, 0.0008004761113222396
1268.0, 0.0010648876997709222
1269.0, 0.0018981105700579823
1270.0, 0.00200434199606902
1271.0, 0.0015852035327153244
1272.0, 0.0010992960569010174
1273.0, 0.0007967399748082167
1274.0, 0.0005885069630674453
1275.0, 0.001341802893696662
1276.0, 6.397045439047953e-05
1277.0, 0.0007477558102964033
1278.0, 0.0010333106547612309
1279.0, 0.0006181046731989791
1280.0, 0.00032803994326921764
1281.0, 0.0007432255127824598
1282.0, 0.0008964633350894065
1283.0, 0.00020073927025186024
1284.0, 0.00014444318126536062
1285.0, 0.00038422108347503355
1286.0, 0.0009482866848346911
1287.0, 0.0014446569078494086
1288.0, 0.0006360688513086377
1289.0, 0.0004743634892032363
1290.0, 0.00026295135944127084
1291.0, 0.0006638871046369482
1292.0, 0.0005768366776412866
1293.0, 0.0004021120487202532
1294.0, 0.0010852835663325542
1295.0, 0.0007046765400256465
1296.0, 0.000649173310259388
1297.0, 0.0005230026216945268
1298.0, 0.0010315579613917865
1299.0, 0.0015470149922011591
1300.0, 0.001109132120777999
1301.0, 0.0002524956689191752
1302.0, 3.1113060431838817e-06
1303, 0.0
1304, 0.0
1305, 0.0
1306, 0.0
1307, 0.0
1308, 0.0
1309, 0.0
1310, 0.0
1311, 0.0
1312, 0.0
1313, 0.0
1314, 0.0
1315, 0.0
1316, 0.0
1317, 0.0
1318, 0.0
1319, 0.0
1320, 0.0
1321, 0.0
1322, 0.0
1323, 0.0
1324, 0.0
1325, 0.0
1326, 0.0
1327, 0.0
1328, 0.0
1329, 0.0
1330, 0.0
1331, 0.0
1332, 0.0
1333, 0.0
1334, 0.0
1335, 0.0
1336, 0.0
1337, 0.0
1338, 0.0
1339, 0.0
1340, 0.0
1341, 0.0
1342, 0.0
1343, 0.0
1344, 0.0
1345, 0.0
1346, 0.0
1347, 0.0
1348, 0.0
1349, 0.0
1350, 0.0
1351, 0.0
1352, 0.0
1353, 0.0
1354, 0.0
1355, 0.0
1356, 0.0
1357, 0.0
1358, 0.0
1359, 0.0
1360, 0.0
1361, 0.0
1362, 0.0
1363, 0.0
1364, 0.0
1365, 0.0
1366, 0.0
1367, 0.0
1368, 0.0
1369, 0.0
1370, 0.0
1371, 0.0
1372, 0.0
1373, 0.0
1374, 0.0
1375, 0.0
1376, 0.0
1377, 0.0
1378, 0.0
1379, 0.0
1380, 0.0
1381, 0.0
1382, 0.0
1383, 0.0
1384, 0.0
1385, 0.0
1386, 0.0
1387, 0.0
1388, 0.0
1389, 0.0
1390, 0.0
1391, 0.0
1392, 0.0
1393, 0.0
1394, 0.0
1395, 0.0
1396, 0.0
1397, 0.0
1398, 0.0
1399, 0.0
1400, 0.0
1401, 0.0
1402, 0.0
1403, 0.0
1404, 0.0
1405, 0.0
1406, 0.0
1407, 0.0
1408, 0.0
1409, 0.0
1410, 0.0
1411, 0.0
1412, 0.0
1413, 0.0
1414, 0.0
1415, 0.0
1416, 0.0
1417, 0.0
1418, 0.0
1419, 0.0
1420, 0.0
1421, 0.0
1422, 0.0
1423, 0.0
1424, 0.0
1425, 0.0
1426, 0.0
1427, 0.0
1428, 0.0
1429, 0.0
1430, 0.0
1431, 0.0
1432, 0.0
1433, 0.0
1434, 0.0
1435, 0.0
1436, 0.0
1437, 0.0
1438, 0.0
1439, 0.0
1440, 0.0
1441, 0.0
1442, 0.0
1443, 0.0
1444, 0.0
1445, 0.0
1446, 0.0
1447, 0.0
1448, 0.0
1449, 0.0
1450, 0.0
1451, 0.0
1452, 0.0
1453, 0.0
1454, 0.0
1455, 0.0
1456, 0.0
1457, 0.0
1458, 0.0
1459, 0.0
1460, 0.0
1461, 0.0
1462, 0.0
1463, 0.0
1464, 0.0
1465, 0.0
1466, 0.0
1467, 0.0
1468, 0.0
1469, 0.0
1470, 0.0
1471, 0.0
1472, 0.0
1473, 0.0
1474, 0.0
1475, 0.0
1476, 0.0
1477, 0.0
1478, 0.0
1479, 0.0
1480, 0.0
1481, 0.0
1482, 0.0
1483, 0.0
1484, 0.0
1485, 0.0
1486, 0.0
1487, 0.0
1488, 0.0
1489, 0.0
1490, 0.0
1491, 0.0
1492, 0.0
1493, 0.0
1494, 0.0
1495, 0.0
1496, 0.0
1497, 0.0
1498, 0.0
1499, 0.0
1500, 0.0
1501, 0.0
1502, 0.0
1503, 0.0
1504, 0.0
1505, 0.0
1506, 0.0
1507, 0.0
1508, 0.0
1509, 0.0
1510, 0.0
1511, 0.0
1512, 0.0
1513, 0.0
1514, 0.0
1515, 0.0
1516, 0.0
1517, 0.0
1518, 0.0
1519, 0.0
1520, 0.0
1521, 0.0
1522, 0.0
1523, 0.0
1524, 0.0
1525, 0.0
1526, 0.0
1527, 0.0
1528, 0.0
1529, 0.0
1530, 0.0
1531, 0.0
1532, 0.0
1533, 0.0
1534, 0.0
1535, 0.0
1536, 0.0
1537, 0.0
1538, 0.0
1539, 0.0
1540, 0.0
1541, 0.0
1542, 0.0
1543, 0.0
1544, 0.0
1545, 0.0
1546, 0.0
1547, 0.0
1548, 0.0
1549, 0.0
1550, 0.0
1551, 0.0
1552, 0.0
1553, 0.0
1554, 0.0
1555, 0.0
1556, 0.0
1557, 0.0
1558, 0.0
1559, 0.0
1560, 0.0
1561, 0.0
1562, 0.0
1563, 0.0
1564, 0.0
1565, 0.0
1566, 0.0
1567, 0.0
1568, 0.0
1569, 0.0
1570, 0.0
1571, 0.0
1572, 0.0
1573, 0.0
1574, 0.0
1575, 0.0
1576, 0.0
1577, 0.0
1578, 0.0
1579, 0.0
1580, 0.0
1581, 0.0
1582, 0.0
1583, 0.0
1584, 0.0
1585, 0.0
1586, 0.0
1587, 0.0
1588, 0.0
1589, 0.0
1590, 0.0
1591, 0.0
1592, 0.0
1593, 0.0
1594, 0.0
1595, 0.0
1596, 0.0
1597, 0.0
1598, 0.0
1599, 0.0
