30, 0.0
31, 0.0
32, 0.0
33, 0.0
34, 0.0
35, 0.0
36, 0.0
37, 0.0
38, 0.0
39, 0.0
40, 0.0
41, 0.0
42, 0.0
43, 0.0
44, 0.0
45, 0.0
46, 0.0
47, 0.0
48, 0.0
49, 0.0
50, 0.0
51, 0.0
52, 0.0
53, 0.0
54, 0.0
55, 0.0
56, 0.0
57, 0.0
58, 0.0
59, 0.0
60, 0.0
61, 0.0
62, 0.0
63, 0.0
64, 0.0
65, 0.0
66, 0.0
67, 0.0
68, 0.0
69, 0.0
70, 0.0
71, 0.0
72, 0.0
73, 0.0
74, 0.0
75, 0.0
76, 0.0
77, 0.0
78, 0.0
79, 0.0
80, 0.0
81, 0.0
82, 0.0
83, 0.0
84, 0.0
85, 0.0
86, 0.0
87, 0.0
88, 0.0
89, 0.0
90, 0.0
91, 0.0
92, 0.0
93, 0.0
94, 0.0
95, 0.0
96, 0.0
97, 0.0
98, 0.0
99, 0.0
100, 0.0
101, 0.0
102, 0.0
103, 0.0
104, 0.0
105, 0.0
106, 0.0
107, 0.0
108, 0.0
109, 0.0
110, 0.0
111, 0.0
112, 0.0
113, 0.0
114, 0.0
115, 0.0
116, 0.0
117, 0.0
118, 0.0
119, 0.0
120, 0.0
121, 0.0
122, 0.0
123, 0.0
124, 0.0
125, 0.0
126, 0.0
127, 0.0
128, 0.0
129, 0.0
130.0, 0.0001990104505676089
131.0, 0.0014713492208570716
132.0, 0.0127353040885676
133.0, 0.008717664337628174
134.0, 0.004963726867205764
135.0, 0.01745886008499263
136.0, 0.02358301588755965
137.0, 0.038353946144921706
138.0, 0.06014597589621476
139.0, 0.07499710465927514
140.0, 0.09520183793785461
141.0, 0.11429770166832937
142.0, 0.12857934749931688
143.0, 0.14567672319655783
144.0, 0.16538462771663806
145.0, 0.18987757766317914
146.0, 0.2257065772572035
147.0, 0.254224482351044
148.0, 0.2827102682000595
149.0, 0.3122828839314132
150.0, 0.3291492260249221
151.0, 0.3517410169076486
152.0, 0.37911073402331963
153.0, 0.41139107890752175
154.0, 0.4144909192763322
155.0, 0.42088210961228634
156.0, 0.42878340427748485
157.0, 0.40904029456908164
158.0, 0.3987837850960365
159.0, 0.39409133671770696
160.0, 0.3935743489477471
161.0, 0.3762254697380865
162.0, 0.35693515158736194
163.0, 0.33581352793717756
164.0, 0.3122111159081875
165.0, 0.2988477794923439
166.0, 0.28141531624284627
167.0, 0.2573062983548617
168.0, 0.23972743627303028
169.0, 0.221047872393106
170.0, 0.20506962946729557
171.0, 0.196161343351732
172.0, 0.18158849999666019
173.0, 0.17018307870445495
174.0, 0.16124279528158614
175.0, 0.14981308754854175
176.0, 0.13498273479142642
177.0, 0.12419897318272297
178.0, 0.12030780991514706
179.0, 0.10239305118153064
180.0, 0.09496016282892185
181.0, 0.09075739062422616
182.0, 0.07961799001127698
183.0, 0.06657056993695863
184.0, 0.05850584632383125
185.0, 0.055189035393100674
186.0, 0.0495837914523744
187.0, 0.04468696313366669
188.0, 0.040431312093795205
189.0, 0.036863174351851186
190.0, 0.03194597447320133
191.0, 0.027908636542565885
192.0, 0.024638815016396545
193.0, 0.022036894715619506
194.0, 0.01873174935465075
195.0, 0.01705032440590196
196.0, 0.017037753441668017
197.0, 0.015112127198174029
198.0, 0.01626121507265454
199.0, 0.018885535461284377
200.0, 0.022088715017910775
201.0, 0.027003251242352855
202.0, 0.02895600101864082
203.0, 0.02920799089820991
204.0, 0.030715615361751627
205.0, 0.03185668429950581
206.0, 0.03490329733247524
207.0, 0.04029562728267612
208.0, 0.046519941222485775
209.0, 0.04190637611126726
210.0, 0.03614952601636412
211.0, 0.03655922822790919
212.0, 0.020619029584550176
213.0, 0.007938161128712023
214.0, 0.000689155860580243
215.0, 0.003439123528843707
216.0, 0.0036452064395294252
217.0, 0.0027000122030410786
218.0, 0.001682107738591297
219.0, 0.007416519744140702
220.0, 0.004306476697160622
221.0, 0.0002533245201681212
222.0, 0.0009510966723031058
223.0, 0.0010615894327422634
224.0, 0.0023574183849560597
225.0, 0.0038492067219807477
226.0, 0.0032803571646094496
227.0, 0.007015522441941902
228.0, 0.006156059782772413
229.0, 0.0008228916068572043
230.0, 0.005747356717925457
231.0, 0.006196389110019493
232.0, 0.006381921750789454
233.0, 0.008877514506865884
234.0, 0.01244153217123555
235.0, 0.011385330659493868
236.0, 0.008932770591086155
237.0, 0.010645879171665509
238.0, 0.011161849916228551
239.0, 0.010476152537222236
240.0, 0.010385576537866845
241.0, 0.02008858583338384
242.0, 0.015450114180673834
243.0, 0.012305345615209297
244.0, 0.017623711537607684
245.0, 0.014023554012385735
246.0, 0.016953686987680364
247.0, 0.020072815311968643
248.0, 0.015456062430141733
249.0, 0.010795136533464755
250.0, 0.012443996705243264
251.0, 0.01568768542460058
252.0, 0.0032799957772083515
253.0, 0.010774886566858127
254.0, 0.013278954841857829
255.0, 0.004521341568485109
256.0, 0.0016130941797825116
257.0, 0.004928186924518628
258.0, 0.006850758312596373
259.0, 0.001260695727548985
260.0, 0.0013207537350544633
261.0, 0.002101373975364303
262.0, 0.002732729403300649
263.0, 0.0017269020197050265
264.0, 0.0033854357448271873
265.0, 0.003097548816724495
266.0, 0.001152991140651129
267.0, 0.002816143446564017
268.0, 0.00433154762310348
269.0, 0.004896729134894946
270.0, 0.004503352658321699
271.0, 0.011659393699188532
272.0, 0.008500605803460518
273.0, 0.004642227881346824
274.0, 0.009951430654968865
275.0, 0.010646018909237451
276.0, 0.013438466471916747
277.0, 0.0159835366644151
278.0, 0.011674175649517372
279.0, 0.008904092505762063
280.0, 0.010570801381994043
281.0, 0.014579164505137897
282.0, 0.004698314580947018
283.0, 0.007487418869249799
284.0, 0.009104897928044949
285.0, 0.0032838712267589526
286.0, 0.004268874716246587
287.0, 0.004830503119501616
288.0, 0.004077710629122901
289.0, 0.0008571450012757787
290.0, 0.000471502595204255
291.0, 0.0009643495856934967
292.0, 0.0036332007618770316
293.0, 0.012130915312272006
294.0, 0.011678897121469821
295.0, 0.01681642716947722
296.0, 0.026614879997754935
297.0, 0.021029526698678982
298.0, 0.022744073210575283
299.0, 0.026962779178616246
300.0, 0.031472173102459304
301.0, 0.03144260762849717
302.0, 0.034991405756805545
303.0, 0.03874178543218597
304.0, 0.03969320382299659
305.0, 0.045523216385095176
306.0, 0.05140058341290941
307.0, 0.05776342753052936
308.0, 0.06576181564363126
309.0, 0.06799133664510665
310.0, 0.07416939675399578
311.0, 0.08254384141230689
312.0, 0.08187583822582872
313.0, 0.0844754057830283
314.0, 0.08676371189165893
315.0, 0.08804124364158634
316.0, 0.09170555359866642
317.0, 0.09620659833008684
318.0, 0.09757158275310701
319.0, 0.09359955853944037
320.0, 0.10138066834514527
321.0, 0.1055821732256073
322.0, 0.10653762117307342
323.0, 0.1042545004703743
324.0, 0.09897020090399536
325.0, 0.09925549261831473
326.0, 0.10053339238733239
327.0, 0.0921851493658199
328.0, 0.09752007513786341
329.0, 0.09734265459844478
330.0, 0.09195306123523354
331.0, 0.09440275907417822
332.0, 0.09361772726864195
333.0, 0.09337527923889355
334.0, 0.09420354971653869
335.0, 0.0904818910366969
336.0, 0.09398431628921337
337.0, 0.09545909991357163
338.0, 0.09001516759617814
339.0, 0.09104395607783007
340.0, 0.0909752617498942
341.0, 0.09038969918706338
342.0, 0.08981326494083978
343.0, 0.09037186208297249
344.0, 0.08922098366974525
345.0, 0.08982271081235967
346.0, 0.09848122752689652
347.0, 0.09223298128973687
348.0, 0.0914031870860767
349.0, 0.09458571464539478
350.0, 0.09148622365423867
351.0, 0.0941494364933841
352.0, 0.09692444573896564
353.0, 0.09889581525230434
354.0, 0.10173905490840994
355.0, 0.1050988926032774
356.0, 0.10765137670720673
357.0, 0.10905814128060433
358.0, 0.11123281572665493
359.0, 0.11350364681300609
360.0, 0.11690571262451695
361.0, 0.12196746717500655
362.0, 0.12347332296088182
363.0, 0.1292780796538576
364.0, 0.13567511397725898
365.0, 0.13912181182556693
366.0, 0.14611437355785553
367.0, 0.15603628924324428
368.0, 0.16588830088556467
369.0, 0.17113317181938903
370.0, 0.18515167157566295
371.0, 0.19618487719138666
372.0, 0.20444788556659643
373.0, 0.21245494360484116
374.0, 0.22109010117775177
375.0, 0.23163942121692693
376.0, 0.24494671560023687
377.0, 0.263443230115591
378.0, 0.26887328936447585
379.0, 0.28149309833254554
380.0, 0.30098256315615446
381.0, 0.2964768670768601
382.0, 0.3020138299600482
383.0, 0.3142526084677592
384.0, 0.33064126584547215
385.0, 0.3375187063057735
386.0, 0.3470989867151332
387.0, 0.35887219535643783
388.0, 0.37274733408172317
389.0, 0.3902437234125262
390.0, 0.4005674536131405
391.0, 0.41359030224048193
392.0, 0.4370348215336362
393.0, 0.44971926133998397
394.0, 0.4683363690978096
395.0, 0.49390464584681576
396.0, 0.5279724570353158
397.0, 0.5547398219866773
398.0, 0.5919848506290482
399.0, 0.6303788319118242
400.0, 0.6549944492171499
401.0, 0.6943773613738603
402.0, 0.7299701987432393
403.0, 0.7653778844349006
404.0, 0.810796418614692
405.0, 0.8587841379199677
406.0, 0.8936112305697269
407.0, 0.9170387386816056
408.0, 0.9383136988899163
409.0, 0.9600061179960384
410.0, 0.9759640211945764
411.0, 0.9867426690226926
412.0, 0.9981223522650163
413.0, 0.983332044628204
414.0, 0.9558695491928625
415.0, 0.9241918581538464
416.0, 0.9126732001907214
417.0, 0.8825757212194298
418.0, 0.8465990944614659
419.0, 0.8099682687719844
420.0, 0.78056652581262
421.0, 0.7613452886442428
422.0, 0.7353473406837897
423.0, 0.697919703163801
424.0, 0.6694367837094347
425.0, 0.6366073581158922
426.0, 0.6048696450633058
427.0, 0.5766543524729766
428.0, 0.5481940290944836
429.0, 0.5265050058468015
430.0, 0.5017489094409867
431.0, 0.4683956431006024
432.0, 0.43581010630121775
433.0, 0.41552364445502876
434.0, 0.39855736615427045
435.0, 0.37860147635514374
436.0, 0.35417650707292175
437.0, 0.3382592169469582
438.0, 0.32216003691674805
439.0, 0.29895600805951433
440.0, 0.29349026517117077
441.0, 0.2779572542273601
442.0, 0.25956650642257323
443.0, 0.2451689239629601
444.0, 0.24256712007440678
445.0, 0.23911631185291116
446.0, 0.23407826325538594
447.0, 0.22664424227914756
448.0, 0.22374759110807946
449.0, 0.223142277841053
450.0, 0.22210815368017436
451.0, 0.2173626211142417
452.0, 0.2130257948494672
453.0, 0.21645077874065458
454.0, 0.22425960639955583
455.0, 0.23180928401501824
456.0, 0.223741730501247
457.0, 0.22308805666389844
458.0, 0.22773693764907887
459.0, 0.23340962636950346
460.0, 0.22881271937627484
461.0, 0.22486727989590438
462.0, 0.2218119863468864
463.0, 0.21914708642716962
464.0, 0.215389466362311
465.0, 0.2092435110011928
466.0, 0.20172165959050867
467.0, 0.19450685630877126
468.0, 0.1917842345667844
469.0, 0.1897044070007073
470.0, 0.188874105899637
471.0, 0.190802612370145
472.0, 0.1948969494002704
473.0, 0.1851443744732709
474.0, 0.1748086656766648
475.0, 0.18803174547285056
476.0, 0.18282114950180506
477.0, 0.18413016948121355
478.0, 0.1941122677998018
479.0, 0.21364774674424353
480.0, 0.2377849392324333
481.0, 0.2574141921265457
482.0, 0.2700223946289415
483.0, 0.27228476661930046
484.0, 0.2896780554903238
485.0, 0.3153209243454828
486.0, 0.3493585787887913
487.0, 0.3931018564489488
488.0, 0.43819304515088037
489.0, 0.48866433153491284
490.0, 0.545138474633721
491.0, 0.6083740070618641
492.0, 0.6638999468192507
493.0, 0.7280965592726276
494.0, 0.7939100296153245
495.0, 0.8498376159328158
496.0, 0.8832593601209383
497.0, 0.9024443221310672
498.0, 0.9034689603675833
499.0, 0.8801312310125666
500.0, 0.8409527313290437
501.0, 0.7851892492449309
502.0, 0.7155159847574575
503.0, 0.6351162997184434
504.0, 0.5707027544918547
505.0, 0.49794381742398097
506.0, 0.4304074303281498
507.0, 0.3836561677193976
508.0, 0.33076203508732527
509.0, 0.28723596015306063
510.0, 0.251309274626935
511.0, 0.22105876185580942
512.0, 0.19662382225135522
513.0, 0.1748185074977064
514.0, 0.15634984234333388
515.0, 0.14182623158010418
516.0, 0.13104998627082784
517.0, 0.11402931841546055
518.0, 0.09992409632441868
519.0, 0.09518289516986617
520.0, 0.08970941761053361
521.0, 0.08114793013734523
522.0, 0.07244137962404738
523.0, 0.06550870999001929
524.0, 0.06056905375958619
525.0, 0.05183683540472452
526.0, 0.04287953832421431
527.0, 0.036065907946796934
528.0, 0.035305765264856764
529.0, 0.03177831733048098
530.0, 0.03019463144880618
531.0, 0.031210638945637265
532.0, 0.024868719464190184
533.0, 0.02385314395100996
534.0, 0.022702002224133707
535.0, 0.019800559993194532
536.0, 0.017006372287961945
537.0, 0.015321739165411744
538.0, 0.012228767556786988
539.0, 0.00824519936679971
540.0, 0.008163353560470217
541.0, 0.00992947429266049
542.0, 0.008813625928922174
543.0, 0.0061217115565300444
544.0, 0.008767604826342834
545.0, 0.008356787354536419
546.0, 0.006157779427127689
547.0, 0.003351755533921425
548.0, 0.002133211615049417
549.0, 0.0028770581015073416
550.0, 0.0028221403103465287
551.0, 0.002169805001504901
552.0, 0.0017612163276690908
553.0, 0.0020018919570264212
554.0, 0.0023169029643500716
555.0, 0.0022547506460863474
556.0, 0.0012768948574794748
557.0, 0.0022502287853354255
558.0, 0.001392504959744652
559.0, 0.0008136536661941905
560.0, 0.0025572273071739647
561.0, 0.002620419992739873
562.0, 0.0035089821348981824
563.0, 0.0048283376407677586
564.0, 0.006179742988209212
565.0, 0.006047620618148606
566.0, 0.00539540659187093
567.0, 0.005581629954977219
568.0, 0.0070641951104609205
569.0, 0.007804711304230315
570.0, 0.009682598467103374
571.0, 0.010423179764018117
572.0, 0.009709451002749354
573.0, 0.010121776713809278
574.0, 0.009289005559842786
575.0, 0.00835048735866241
576.0, 0.007464895609477981
577.0, 0.006210452123569258
578.0, 0.00339062124342455
579.0, 0.002972925580641563
580.0, 0.00409380524031916
581.0, 0.003581796958566213
582.0, 0.013563706780253204
583.0, 0.013413292302206316
584.0, 0.01135810763770009
585.0, 0.02178222252675409
586.0, 0.011740199104399291
587.0, 0.010848286264940575
588.0, 0.014582661170937266
589.0, 0.017675098495517592
590.0, 0.023009833722000158
591.0, 0.02408120982765322
592.0, 0.027242298160405132
593.0, 0.034923963737733564
594.0, 0.028356418622268016
595.0, 0.025188536150246642
596.0, 0.026823650737070614
597.0, 0.03256651900735052
598.0, 0.03539124776666548
599.0, 0.034325498017377894
600.0, 0.03646303408235108
601.0, 0.041924496240159474
602.0, 0.045019653577397324
603.0, 0.04611403787469947
604.0, 0.04619874423165645
605.0, 0.047350065078769224
606.0, 0.053285756481070895
607.0, 0.057012344962268376
608.0, 0.061163214284780026
609.0, 0.06493960483058234
610.0, 0.06717603420084145
611.0, 0.0691912033019645
612.0, 0.07102393949135552
613.0, 0.07285555731972755
614.0, 0.07479988455213005
615.0, 0.0764778365020598
616.0, 0.07807975807317141
617.0, 0.07967385032049806
618.0, 0.08120032210912471
619.0, 0.08214288302806327
620.0, 0.08639564933899764
621.0, 0.08771352186279117
622.0, 0.08513102463945023
623.0, 0.08099016442432436
624.0, 0.08708038025875861
625.0, 0.0882812205659853
626.0, 0.08674683322667563
627.0, 0.08996466646686303
628.0, 0.07741380241072206
629.0, 0.07881647431453362
630.0, 0.08169869485506605
631.0, 0.07235499581345674
632.0, 0.07138257339496318
633.0, 0.07558622091993727
634.0, 0.07639761662129042
635.0, 0.07029902130241472
636.0, 0.07100615261462073
637.0, 0.06582175992717866
638.0, 0.06367413298482055
639.0, 0.0639942163419443
640.0, 0.053620716619932854
641.0, 0.054850908634601084
642.0, 0.05455301440484406
643.0, 0.05314424019956871
644.0, 0.05583087419264782
645.0, 0.042273145190583415
646.0, 0.04231704191058506
647.0, 0.0456014987843391
648.0, 0.03974937937294992
649.0, 0.04963057794168018
650.0, 0.04714348016447629
651.0, 0.03883338099840338
652.0, 0.029293869449939527
653.0, 0.021855064838986058
654.0, 0.02755469469108385
655.0, 0.03010872762887879
656.0, 0.026184067476249948
657.0, 0.021928235080278552
658.0, 0.01494030730522972
659.0, 0.013717879246691756
660.0, 0.016520336979271723
661.0, 0.0183723761087791
662.0, 0.013357928217956642
663.0, 0.00945974454563919
664.0, 0.012328480383155002
665.0, 0.025222001866417765
666.0, 0.02763420572240243
667.0, 0.01363072943241456
668.0, 0.0060690054208190295
669.0, 0.010650491878244569
670.0, 0.0036216794298929043
671.0, 0.004902638233762043
672.0, 0.005352391464358158
673.0, 0.004050658773670522
674.0, 0.003449247500578463
675.0, 0.004522990543527681
676.0, 0.002971161030608469
677.0, 0.001173306584785654
678.0, 0.00198109302354279
679.0, 0.0011647738461624494
680.0, 0.0011430202777854958
681.0, 0.0025486870565494444
682.0, 0.004957225243044231
683.0, 0.0038277905033016427
684.0, 0.0026297222001485402
685.0, 0.0015268952677424728
686.0, 0.0012683911789208885
687.0, 0.00360423383229423
688.0, 0.00154287550694071
689.0, 0.0012979252492921179
690.0, 0.0028039854810690537
691.0, 0.005078103326642772
692.0, 0.0017876574506480458
693.0, 0.0015948276510452323
694.0, 0.006497187874315313
695.0, 0.01486086125277449
696.0, 0.009948845958208252
697.0, 0.005726122382445756
698.0, 0.005270980146216101
699.0, 0.006920435705022616
700.0, 0.004559610374549684
701.0, 0.005172145519108897
702.0, 0.003947954281205853
703.0, 0.0027357489745899514
704.0, 0.004066207874549676
705.0, 0.0069737653383772314
706.0, 0.0076778844029795545
707.0, 0.007956355933849574
708.0, 0.007773726348820254
709.0, 0.001851845613358908
710.0, 0.005068942668791257
711.0, 0.009581742186738807
712.0, 0.010711231787598216
713.0, 0.0026554795187123522
714.0, 0.01163597253351295
715.0, 0.008003094636903883
716.0, 0.004544284170438112
717.0, 0.012927083475222808
718.0, 0.006539819050544544
719.0, 0.008032348980210996
720.0, 0.012332889790317783
721.0, 0.01614096681366874
722.0, 0.015443730425725147
723.0, 0.0175341795365467
724.0, 0.019389780758296876
725.0, 0.0191427963724755
726.0, 0.01483463499962852
727.0, 0.016177902386833476
728.0, 0.017403503119080177
729.0, 0.016221288701577265
730.0, 0.012998078502147816
731.0, 0.02023727405956137
732.0, 0.022921824580178923
733.0, 0.022589436993730654
734.0, 0.020956076446444948
735.0, 0.02098655318634921
736.0, 0.02480855621932307
737.0, 0.02921540012990218
738.0, 0.03194080873180014
739.0, 0.03120125098629202
740.0, 0.029459609413850243
741.0, 0.03551277940638229
742.0, 0.037010480732703535
743.0, 0.032557751080794076
744.0, 0.03496280619342323
745.0, 0.03985073861388726
746.0, 0.04166178624150141
747.0, 0.04120093216450366
748.0, 0.04064999489017063
749.0, 0.04136672008235902
750.0, 0.04418303541689946
751.0, 0.04600402292723867
752.0, 0.046166919310440695
753.0, 0.04993034765965935
754.0, 0.04982652325709221
755.0, 0.05251318904801767
756.0, 0.056689084249102795
757.0, 0.057903627105115825
758.0, 0.06647432942716636
759.0, 0.0682752807543092
760.0, 0.06631299821822635
761.0, 0.06472911192143084
762.0, 0.07430579462938203
763.0, 0.07582139622995196
764.0, 0.08091863124935883
765.0, 0.08803480836855736
766.0, 0.08796594100083473
767.0, 0.08091102039713048
768.0, 0.08961326633771395
769.0, 0.0994389312917299
770.0, 0.10000072185490869
771.0, 0.11123737332230821
772.0, 0.11721678975564408
773.0, 0.11843822004638893
774.0, 0.12017778828703987
775.0, 0.13394051163748427
776.0, 0.1324938502426654
777.0, 0.14653142773327554
778.0, 0.15888394463496175
779.0, 0.15588151941255035
780.0, 0.16479605106213963
781.0, 0.17572561797961406
782.0, 0.1888551036458771
783.0, 0.20010161099802046
784.0, 0.1998515595081782
785.0, 0.20343384371489134
786.0, 0.21522577133068418
787.0, 0.2264667783600888
788.0, 0.22919651283657427
789.0, 0.22421410533521666
790.0, 0.2354318269134109
791.0, 0.2368402419011664
792.0, 0.22898475794338702
793.0, 0.2320147925940134
794.0, 0.23330072226563528
795.0, 0.22846174568180624
796.0, 0.22682893455375738
797.0, 0.2332645446961167
798.0, 0.22270852266409677
799.0, 0.22318499842068013
800.0, 0.21753239271703845
801.0, 0.2071847794932725
802.0, 0.20535806183795155
803.0, 0.2009138444719784
804.0, 0.18997493490133355
805.0, 0.1853167395495955
806.0, 0.190130736371784
807.0, 0.16361114714298178
808.0, 0.15835755128748355
809.0, 0.15020245169771962
810.0, 0.13696955423475224
811.0, 0.12524488185607552
812.0, 0.1121379416296426
813.0, 0.10226749903134828
814.0, 0.09469162577759696
815.0, 0.08774712678829988
816.0, 0.07703078650915288
817.0, 0.06815589616454085
818.0, 0.05905397080368203
819.0, 0.05115385598780124
820.0, 0.046751429689869756
821.0, 0.041609281353905514
822.0, 0.04136505288525761
823.0, 0.037919309064270754
824.0, 0.03137070042142934
825.0, 0.035449453588475996
826.0, 0.030030860931215365
827.0, 0.028837916797841423
828.0, 0.028598095618809532
829.0, 0.024495915647177978
830.0, 0.02105273577691813
831.0, 0.019120637086974028
832.0, 0.016314384464346708
833.0, 0.013148726969982347
834.0, 0.012710035126121452
835.0, 0.012270682773908546
836.0, 0.013100677170682574
837.0, 0.013379864703554581
838.0, 0.011791595864192414
839.0, 0.009086849672647904
840.0, 0.00767701749128024
841.0, 0.008579861869685358
842.0, 0.01072843254090812
843.0, 0.011969176302428448
844.0, 0.004793438157895202
845.0, 0.0012999447660259854
846.0, 0.005439519568974975
847.0, 0.0132571505375292
848.0, 0.005298255834506636
849.0, 0.005245793161156502
850.0, 0.003269736637603642
851.0, 0.0020063477007276386
852.0, 0.004611103484984913
853.0, 0.006119096316837747
854.0, 0.0030599542303232645
855.0, 0.0027316329728392314
856.0, 0.004924184632883669
857.0, 0.004952118826311852
858.0, 0.0072531810264028235
859.0, 0.004477531903721715
860.0, 0.001940977805511226
861.0, 0.00204275371461938
862.0, 0.0005191682430728242
863.0, 0.00041666818731837015
864.0, 0.004031818891770026
865.0, 0.0074026483270825645
866.0, 0.00597032846525934
867.0, 0.0026197066123910782
868.0, 0.00470062551851893
869.0, 0.004582900801150331
870.0, 0.0016963179685077793
871.0, 0.0002109763852673344
872.0, 0.005430168686045636
873.0, 0.005749923367134515
874.0, 0.003919685745352955
875.0, 0.0020772852249109812
876.0, 0.0006535185855296075
877.0, 0.0024905232844365747
878.0, 0.002246262609774407
879.0, 0.0017380784802763646
880.0, 0.003258576482437664
881.0, 0.001379356225540411
882.0, 0.0021491287028979032
883.0, 0.0017368943959240118
884.0, 0.0004784301340787067
885.0, 0.001184557153328204
886.0, 0.00181272883885815
887.0, 0.003390939515797423
888.0, 0.003216780419306405
889.0, 0.0023695379387733994
890.0, 0.00954514202181287
891.0, 0.003546058265927731
892.0, 0.004029169703132199
893.0, 0.005373291258261795
894.0, 0.001745864566604026
895.0, 0.0017479862091731655
896.0, 0.0041329587859461996
897.0, 0.005848996933661268
898.0, 0.00538781220433375
899.0, 0.0021191005051153762
900.0, 0.005619560308840835
901.0, 0.005293217929617034
902.0, 0.004522769568114375
903.0, 0.004212175216257464
904.0, 0.0030812160240467554
905.0, 0.001046303929412685
906.0, 0.003751688714395322
907.0, 0.004646168017682152
908.0, 0.002234527357964433
909.0, 0.008814351502261645
910.0, 0.008487701377503215
911.0, 0.004394359350518756
912.0, 0.0012669232239940016
913.0, 0.0030099962190488633
914.0, 0.006457019211594034
915.0, 0.004581823546291365
916.0, 0.004656405354669298
917.0, 0.005975615007202748
918.0, 0.004853529539019263
919.0, 0.002724868640299324
920.0, 0.005171731721556893
921.0, 0.006661547461907517
922.0, 0.0070990334446433614
923.0, 0.011199738373251989
924.0, 0.002787251947748608
925.0, 0.004928672104605964
926.0, 0.0070449928306427325
927.0, 0.004213320351332488
928.0, 0.002925462376208992
929.0, 0.0043531103363985075
930.0, 0.007769604856911476
931.0, 0.010071543452667454
932.0, 0.009514428081576232
933.0, 0.01046847040798738
934.0, 0.004846075147675169
935.0, 0.003369682743020178
936.0, 0.0071384629328687926
937.0, 0.013247989173769719
938.0, 0.0046555802334298305
939.0, 0.010120942692436465
940.0, 0.00975073946136236
941.0, 0.004480947138964052
942.0, 0.004613972201514182
943.0, 0.012275496849746263
944.0, 0.014557381374188362
945.0, 0.014972286910721768
946.0, 0.015139979487819552
947.0, 0.015412362849295555
948.0, 0.013815050064631284
949.0, 0.011513794653900195
950.0, 0.010017279229940636
951.0, 0.009584567913541705
952.0, 0.008659140489442661
953.0, 0.012931201363937193
954.0, 0.011617552939906652
955.0, 0.009948466023739768
956.0, 0.011110853883071039
957.0, 0.011264358897600588
958.0, 0.01050073708265258
959.0, 0.011827083863148402
960.0, 0.013307785534720586
961.0, 0.012703343858995863
962.0, 0.008694643210866885
963.0, 0.010478213526716148
964.0, 0.011786144333103479
965.0, 0.01336548798698606
966.0, 0.016417165470032923
967.0, 0.015479404057733397
968.0, 0.01684063843141655
969.0, 0.016984142873979334
970.0, 0.017478742699394333
971.0, 0.02094688224257969
972.0, 0.023004816797046305
973.0, 0.021127271827042975
974.0, 0.026005213448665868
975.0, 0.03211110559081987
976.0, 0.02736870462983404
977.0, 0.030479617132135168
978.0, 0.03119145024872394
979.0, 0.02839818808956931
980.0, 0.025656481290034658
981.0, 0.029663661659090866
982.0, 0.03550635573908847
983.0, 0.03734363563185349
984.0, 0.04353884386417057
985.0, 0.047666117017821204
986.0, 0.030084480031736614
987.0, 0.0436769971608932
988.0, 0.047606183367092506
989.0, 0.043220994596147505
990.0, 0.03996203045705204
991.0, 0.05709670294546554
992.0, 0.05081839877013241
993.0, 0.04792835769068888
994.0, 0.047934463037873604
995.0, 0.05040370516385101
996.0, 0.05576561834994893
997.0, 0.05578521012110868
998.0, 0.05374195536537722
999.0, 0.05885517401197111
1000.0, 0.0668597879942531
1001.0, 0.050953213831462674
1002.0, 0.06495498306554887
1003.0, 0.06250935965145127
1004.0, 0.062186395877079054
1005.0, 0.07019623085612343
1006.0, 0.06489998329190437
1007.0, 0.06869553195171083
1008.0, 0.06939890721678996
1009.0, 0.06772064740037131
1010.0, 0.06702334046942782
1011.0, 0.07466855194675098
1012.0, 0.07867280112960497
1013.0, 0.08058558088080559
1014.0, 0.08105830174494032
1015.0, 0.08002736029675903
1016.0, 0.07585566400780155
1017.0, 0.07691527917298013
1018.0, 0.08167504424411438
1019.0, 0.08678295494435857
1020.0, 0.08791300706216927
1021.0, 0.0784016961700034
1022.0, 0.08539865405261124
1023.0, 0.09146118691945275
1024.0, 0.09097189915746232
1025.0, 0.08688788200178248
1026.0, 0.09766517828647513
1027.0, 0.09010094511531172
1028.0, 0.08890085814584671
1029.0, 0.08887949028819545
1030.0, 0.08811642255293477
1031.0, 0.09478367236439653
1032.0, 0.09815685678774795
1033.0, 0.09273732650910503
1034.0, 0.08912289689828684
1035.0, 0.09211237956632028
1036.0, 0.09540131557064115
1037.0, 0.09179777353539131
1038.0, 0.09284032389166799
1039.0, 0.09421705329910132
1040.0, 0.09375065980951383
1041.0, 0.09346067962877877
1042.0, 0.10353368326721916
1043.0, 0.09705515911214684
1044.0, 0.09230695503701901
1045.0, 0.09589544040493528
1046.0, 0.09810028767807374
1047.0, 0.09149146474800031
1048.0, 0.08834446174949546
1049.0, 0.08915914437298846
1050.0, 0.09532377414054337
1051.0, 0.10901643247005442
1052.0, 0.10013550279886606
1053.0, 0.09991307178035876
1054.0, 0.09578165472374453
1055.0, 0.0885732502067342
1056.0, 0.0895451249211078
1057.0, 0.08787642910519104
1058.0, 0.09510065559905387
1059.0, 0.09403869095399676
1060.0, 0.08559599853014732
1061.0, 0.08165791728720787
1062.0, 0.08511453277069586
1063.0, 0.09595861382210955
1064.0, 0.09496186235238102
1065.0, 0.08465507011965027
1066.0, 0.07784647841866417
1067.0, 0.08573552165222013
1068.0, 0.07845121120844023
1069.0, 0.08550372576053407
1070.0, 0.0913205803122877
1071.0, 0.07602528791666457
1072.0, 0.08059588296319367
1073.0, 0.08883723370774997
1074.0, 0.08800552940263179
1075.0, 0.08558745797869155
1076.0, 0.08886670966594004
1077.0, 0.08732477830285902
1078.0, 0.08838184502951799
1079.0, 0.09162827938963734
1080.0, 0.09467232891485174
1081.0, 0.09687292102430267
1082.0, 0.10251550623010085
1083.0, 0.10548182548927283
1084.0, 0.10689372563042074
1085.0, 0.11064044092016773
1086.0, 0.11601992056969933
1087.0, 0.11509476971102613
1088.0, 0.11917868472742812
1089.0, 0.12127826995466963
1090.0, 0.12316312496612945
1091.0, 0.12612109081047146
1092.0, 0.13070598984730947
1093.0, 0.1365496740971796
1094.0, 0.1342377703424266
1095.0, 0.13256842152735476
1096.0, 0.13617817442633187
1097.0, 0.1454930306081348
1098.0, 0.14432711700415268
1099.0, 0.14996470714356766
1100.0, 0.15295969585528063
1101.0, 0.15429055951638493
1102.0, 0.15677631153089708
1103.0, 0.15403685497190617
1104.0, 0.1598952443003147
1105.0, 0.1656310059368495
1106.0, 0.16796431377290266
1107.0, 0.1666657087742591
1108.0, 0.16671624506434768
1109.0, 0.174799042589002
1110.0, 0.16762584650495319
1111.0, 0.16769986359058833
1112.0, 0.17966115414802428
1113.0, 0.17725446234566222
1114.0, 0.17619664250389283
1115.0, 0.17951543139092063
1116.0, 0.18504315793872222
1117.0, 0.18847569652293492
1118.0, 0.18477222026326637
1119.0, 0.17933945100059936
1120.0, 0.1896196985551235
1121.0, 0.19205920112078645
1122.0, 0.18582420225424526
1123.0, 0.18026381724361984
1124.0, 0.18745104578244207
1125.0, 0.1915055665000934
1126.0, 0.19303147932782957
1127.0, 0.18796212207268806
1128.0, 0.17812523961602045
1129.0, 0.18205576638021614
1130.0, 0.17053664704648616
1131.0, 0.17328811921794182
1132.0, 0.17131195667811763
1133.0, 0.16113131312848353
1134.0, 0.16179540417042731
1135.0, 0.15075786232856486
1136.0, 0.15039384488442514
1137.0, 0.1581445147861748
1138.0, 0.1601945110150533
1139.0, 0.14345462207027304
1140.0, 0.15279493330100125
1141.0, 0.1434161064162336
1142.0, 0.14134614014470645
1143.0, 0.14171016685754334
1144.0, 0.13601317225897344
1145.0, 0.13059456269349914
1146.0, 0.13486323174591097
1147.0, 0.13013074487353515
1148.0, 0.1255757256261494
1149.0, 0.1260642657166872
1150.0, 0.1266668997342865
1151.0, 0.11230734423727677
1152.0, 0.11127118566093212
1153.0, 0.11382871233196663
1154.0, 0.11359392325721172
1155.0, 0.10826608330620928
1156.0, 0.10833638470722591
1157.0, 0.10884928859333093
1158.0, 0.10300621461329901
1159.0, 0.09610247531540067
1160.0, 0.09207528137870666
1161.0, 0.08261078729948702
1162.0, 0.08155623964494199
1163.0, 0.08263856529302631
1164.0, 0.08182791756650858
1165.0, 0.07877554675019716
1166.0, 0.07712125544331974
1167.0, 0.08057887482025478
1168.0, 0.07687495083195894
1169.0, 0.07064372845295191
1170.0, 0.06625432159842065
1171.0, 0.0659185353870267
1172.0, 0.06243503187999423
1173.0, 0.05834989178045686
1174.0, 0.055258484922068606
1175.0, 0.05221786462630423
1176.0, 0.05049927894571887
1177.0, 0.05569550634131858
1178.0, 0.05013986546477987
1179.0, 0.03791448666858498
1180.0, 0.038783139395797576
1181.0, 0.046004890742616496
1182.0, 0.03985751767722799
1183.0, 0.04397560644307261
1184.0, 0.045309276101840386
1185.0, 0.041420373303789774
1186.0, 0.03700210959438269
1187.0, 0.03550823822602627
1188.0, 0.03324849031359573
1189.0, 0.03039496963968461
1190.0, 0.035072683263457784
1191.0, 0.03453803520061737
1192.0, 0.028455534288052396
1193.0, 0.027262452077502795
1194.0, 0.03224924013055554
1195.0, 0.022376665815193406
1196.0, 0.022269441894864846
1197.0, 0.02587611062933753
1198.0, 0.024002808245130867
1199.0, 0.023941758351120418
1200.0, 0.019713910879303322
1201.0, 0.021518356770035114
1202.0, 0.019874908707987075
1203.0, 0.016215149447379725
1204.0, 0.020278698533048006
1205.0, 0.0064719685660939025
1206.0, 0.01685611328843021
1207.0, 0.020303674990081358
1208.0, 0.018656972804782807
1209.0, 0.018243083887383882
1210.0, 0.009774454167314813
1211.0, 0.011689388187915154
1212.0, 0.011891143726096365
1213.0, 0.01237550014543461
1214.0, 0.011867132608724788
1215.0, 0.007312328912630088
1216.0, 0.012866905422119865
1217.0, 0.013735862909028049
1218.0, 0.009602805941592463
1219.0, 0.007319424516678923
1220.0, 0.009734290948588437
1221.0, 0.0063488533445837485
1222.0, 0.007943108525400809
1223.0, 0.006130896968434119
1224.0, 0.004624494278010367
1225.0, 0.0051743709487475295
1226.0, 0.007607331534235276
1227.0, 0.011745872233520614
1228.0, 0.011027460564233225
1229.0, 0.010862411411845192
1230.0, 0.01286985343521822
1231.0, 0.014626628976198298
1232.0, 0.008778284789049583
1233.0, 0.004837963843766511
1234.0, 0.004658187694953509
1235.0, 0.008436055205706786
1236.0, 0.011926868370865096
1237.0, 0.009900849835053058
1238.0, 0.0018140224712583876
1239.0, 0.01016884943016137
1240.0, 0.007413605170130923
1241.0, 0.005058362100130914
1242.0, 0.007956924993935934
1243.0, 0.008507077867937302
1244.0, 0.004820696368386068
1245.0, 0.0018893523182336059
1246.0, 0.0036709956513574387
1247.0, 0.008392046437056376
1248.0, 0.011730552408112943
1249.0, 0.008148388238965024
1250.0, 0.0022582180890012107
1251.0, 0.008609352050838964
1252.0, 0.011332009750868406
1253.0, 0.00817123113299431
1254.0, 0.006692590765302523
1255.0, 0.01208506161519397
1256.0, 0.005956102925808152
1257.0, 0.0029637698749099225
1258.0, 0.0019230255815506836
1259.0, 0.0014838790089165782
1260.0, 0.0030486234154146015
1261.0, 0.006943804616664021
1262.0, 0.0024725899828063136
1263.0, 0.00036570569742615266
1264.0, 0.0034205957862516335
1265.0, 0.008617208198510227
1266.0, 0.006405324791348195
1267.0, 0.00486789047374871
1268.0, 0.003061023990312198
1269.0, 0.001568537664825002
1270.0, 0.0025621518864595008
1271.0, 0.006340056557614377
1272.0, 0.0008934106055853291
1273.0, 0.008717455780316278
1274.0, 0.009339682416432647
1275.0, 0.006327288818989098
1276.0, 0.0032383922420219273
1277.0, 0.0007969003752582864
1278.0, 0.004480675797234562
1279.0, 0.0023665331430436027
1280.0, 0.0025863709989611457
1281.0, 0.005474747266083218
1282.0, 0.0081811138040094
1283.0, 0.006398896680631075
1284.0, 0.005730478274152235
1285.0, 0.004645745484214849
1286.0, 0.002720130372238182
1287.0, 0.0023637531503543706
1288.0, 0.004339682215748794
1289.0, 0.002216967769619352
1290.0, 0.005928819360079688
1291.0, 0.0027779998696687235
1292.0, 0.0002472306988755888
1293.0, 0.0011845721602038572
1294.0, 0.003818625640641766
1295.0, 0.0030130640465733964
1296.0, 0.0028595973595696277
1297.0, 0.0011711536415307264
1298.0, 0.002822412672779679
1299.0, 0.005467824996900329
1300.0, 0.00222697119255458
1301.0, 0.0049208362150900305
1302.0, 0.005440258952965355
1303.0, 0.002731606806836761
1304.0, 0.0010045473446173056
1305.0, 0.002626642460281473
1306.0, 0.005850569420295904
1307.0, 0.003665666781782876
1308.0, 0.004292409239610735
1309.0, 0.005024344842520043
1310.0, 0.006091843265008645
1311.0, 0.0069347254320428825
1312.0, 0.004755764382727386
1313.0, 0.00316831254930259
1314.0, 0.002952497765895602
1315.0, 0.00503856676135182
1316.0, 0.006197812129991974
1317.0, 0.003978157637801313
1318.0, 0.0007946880726934478
1319.0, 0.004351452796723472
1320.0, 0.0021568481605962657
1321.0, 0.004975964413883703
1322.0, 0.008370152141243817
1323.0, 0.006120188921053275
1324.0, 0.006687081659068625
1325.0, 0.007477653162671302
1326.0, 0.003544847051039351
1327.0, 0.0017786122736713494
1328.0, 0.003360392318924777
1329.0, 0.00574207414416109
1330.0, 0.006391716673732564
1331.0, 0.006472399305413313
1332.0, 0.003129702550394672
1333.0, 0.005565818496200136
1334.0, 0.008429733214695128
1335.0, 0.0030795651623386623
1336.0, 0.005289285671317636
1337.0, 0.00661284168716111
1338.0, 0.002712730847751583
1339.0, 0.000694543845211575
1340.0, 0.0024140473469258118
1341.0, 0.005415288785303139
1342.0, 0.008832811893587384
1343.0, 0.004315107787247329
1344.0, 0.0034463334921783126
1345.0, 0.0031165388839609247
1346.0, 0.0034386262092635355
1347.0, 0.006561277406495386
1348.0, 0.008338645857855301
1349.0, 0.009238788489779107
1350.0, 0.01091400440369645
1351.0, 0.008408124728530579
1352.0, 0.006550908213657797
1353.0, 0.01210567181973737
1354.0, 0.004962543459044745
1355.0, 0.012045126562739433
1356.0, 0.018003682273389145
1357.0, 0.0190746892338858
1358.0, 0.01645941372509737
1359.0, 0.014284923365791126
1360.0, 0.01610215197060992
1361.0, 0.007633584552273878
1362.0, 0.01197772706031907
1363.0, 0.01415825378699216
1364.0, 0.011975849911370118
1365.0, 0.013477797069159032
1366.0, 0.017999776139276013
1367.0, 0.021227159502452044
1368.0, 0.019290430780420236
1369.0, 0.018090957479539087
1370.0, 0.019560066895528205
1371.0, 0.020644578602286804
1372.0, 0.013115609596520025
1373.0, 0.020427204292539976
1374.0, 0.01865121642393996
1375.0, 0.01564675048320138
1376.0, 0.0153949501101672
1377.0, 0.015825863199345393
1378.0, 0.008519969853593774
1379.0, 0.006826818285704008
1380.0, 0.009281299743955156
1381.0, 0.012628922427486517
1382.0, 0.016456950386668407
1383.0, 0.019855099101613576
1384.0, 0.017084657137290883
1385.0, 0.025386332973953683
1386.0, 0.019632515089462562
1387.0, 0.016609775504450634
1388.0, 0.015062138975091463
1389.0, 0.014318824655251078
1390.0, 0.029072369654154075
1391.0, 0.018970078810579456
1392.0, 0.023252048475219386
1393.0, 0.019720712839830134
1394.0, 0.01647250148286021
1395.0, 0.020691554112143122
1396.0, 0.022155106930248563
1397.0, 0.015201779601601531
1398.0, 0.020191273780709278
1399.0, 0.01943145509962132
1400.0, 0.01742864716340118
1401.0, 0.01809939184829765
1402.0, 0.01851030476413716
1403.0, 0.021747255949373743
1404.0, 0.01544958177542127
1405.0, 0.013621042520766206
1406.0, 0.009982891382612206
1407.0, 0.0053616178734050245
1408.0, 0.006991897196950407
1409.0, 0.008126385292933927
1410.0, 0.010059171659986998
1411.0, 0.012562834325726257
1412.0, 0.013016246907639084
1413.0, 0.013185414241043693
1414.0, 0.016031315647889316
1415.0, 0.019016816643506827
1416.0, 0.017021183598597892
1417.0, 0.015776686506647233
1418.0, 0.013732564992065361
1419.0, 0.010417972118037622
1420.0, 0.007419668919317852
1421.0, 0.008535111714091704
1422.0, 0.009939666194834154
1423.0, 0.011849002685118319
1424.0, 0.01100652511308755
1425.0, 0.01271625861451191
1426.0, 0.015134835737255495
1427.0, 0.0073204053828950025
1428.0, 0.003836326492114292
1429.0, 0.012994083408783275
1430.0, 0.013360797987027377
1431.0, 0.008074710555286503
1432.0, 0.004434015282836382
1433.0, 0.006195601014850573
1434.0, 0.004670422308840908
1435.0, 0.01120673235779079
1436.0, 0.010465439156839207
1437.0, 0.011674271287468542
1438.0, 0.01591066814975056
1439.0, 0.019501852769989513
1440.0, 0.02090318108638936
1441.0, 0.016674620378278028
1442.0, 0.01585764398159437
1443.0, 0.01691012945553054
1444.0, 0.013777319579958133
1445.0, 0.008910297705268685
1446.0, 0.014049727175721288
1447.0, 0.012198546058939578
1448.0, 0.017590634221446803
1449.0, 0.015390790962920975
1450.0, 0.01289764181525967
1451.0, 0.010983058617139517
1452.0, 0.008287189062707093
1453.0, 0.02353665025743499
1454.0, 0.015813961879251492
1455.0, 0.010306191881496484
1456.0, 0.018982942228527706
1457.0, 0.022729901714051738
1458.0, 0.012334388794650361
1459.0, 0.017671724248533676
1460.0, 0.014546109110241923
1461.0, 0.009611365322645494
1462.0, 0.013206643016634583
1463.0, 0.015837900804435662
1464.0, 0.013415221458622
1465.0, 0.01247487011902398
1466.0, 0.020734571605150468
1467.0, 0.004978494891158695
1468.0, 0.014684351314919998
1469.0, 0.014158849201121688
1470.0, 0.009278607826716374
1471.0, 0.01754792408450841
1472.0, 0.025017848145928237
1473.0, 0.0167535193900006
1474.0, 0.004430544784775359
1475.0, 0.012993014576555858
1476.0, 0.018581454387844972
1477.0, 0.011257621048830527
1478.0, 0.007879243074250985
1479.0, 0.013112601480086063
1480.0, 0.01439660646842962
1481.0, 0.00924960444167745
1482.0, 0.014079975127880406
1483.0, 0.017282985723631662
1484.0, 0.008049628322659493
1485.0, 0.007845149758057892
1486.0, 0.01180889926900538
1487.0, 0.003819326851994038
1488.0, 0.005191467437666334
1489.0, 0.013439308624578651
1490.0, 0.01571037940417152
1491.0, 0.004882615943817663
1492.0, 0.011231244434589031
1493.0, 0.002493947812345564
1494.0, 0.006751011380985841
1495.0, 0.00841376345628397
1496.0, 0.004465028789991462
1497, 0.0
1498, 0.0
1499, 0.0
1500, 0.0
1501, 0.0
1502, 0.0
1503, 0.0
1504, 0.0
1505, 0.0
1506, 0.0
1507, 0.0
1508, 0.0
1509, 0.0
1510, 0.0
1511, 0.0
1512, 0.0
1513, 0.0
1514, 0.0
1515, 0.0
1516, 0.0
1517, 0.0
1518, 0.0
1519, 0.0
1520, 0.0
1521, 0.0
1522, 0.0
1523, 0.0
1524, 0.0
1525, 0.0
1526, 0.0
1527, 0.0
1528, 0.0
1529, 0.0
1530, 0.0
1531, 0.0
1532, 0.0
1533, 0.0
1534, 0.0
1535, 0.0
1536, 0.0
1537, 0.0
1538, 0.0
1539, 0.0
1540, 0.0
1541, 0.0
1542, 0.0
1543, 0.0
1544, 0.0
1545, 0.0
1546, 0.0
1547, 0.0
1548, 0.0
1549, 0.0
1550, 0.0
1551, 0.0
1552, 0.0
1553, 0.0
1554, 0.0
1555, 0.0
1556, 0.0
1557, 0.0
1558, 0.0
1559, 0.0
1560, 0.0
1561, 0.0
1562, 0.0
1563, 0.0
1564, 0.0
1565, 0.0
1566, 0.0
1567, 0.0
1568, 0.0
1569, 0.0
1570, 0.0
1571, 0.0
1572, 0.0
1573, 0.0
1574, 0.0
1575, 0.0
1576, 0.0
1577, 0.0
1578, 0.0
1579, 0.0
1580, 0.0
1581, 0.0
1582, 0.0
1583, 0.0
1584, 0.0
1585, 0.0
1586, 0.0
1587, 0.0
1588, 0.0
1589, 0.0
1590, 0.0
1591, 0.0
1592, 0.0
1593, 0.0
1594, 0.0
1595, 0.0
1596, 0.0
1597, 0.0
1598, 0.0
1599, 0.0
