30, 0.0
31, 0.0
32, 0.0
33, 0.0
34, 0.0
35, 0.0
36, 0.0
37, 0.0
38, 0.0
39, 0.0
40, 0.0
41, 0.0
42, 0.0
43, 0.0
44, 0.0
45, 0.0
46, 0.0
47, 0.0
48, 0.0
49, 0.0
50, 0.0
51, 0.0
52, 0.0
53, 0.0
54, 0.0
55, 0.0
56, 0.0
57, 0.0
58, 0.0
59, 0.0
60, 0.0
61, 0.0
62, 0.0
63, 0.0
64, 0.0
65, 0.0
66, 0.0
67, 0.0
68, 0.0
69, 0.0
70, 0.0
71, 0.0
72, 0.0
73, 0.0
74, 0.0
75, 0.0
76, 0.0
77, 0.0
78, 0.0
79, 0.0
80, 0.0
81, 0.0
82, 0.0
83, 0.0
84, 0.0
85, 0.0
86, 0.0
87, 0.0
88, 0.0
89, 0.0
90, 0.0
91, 0.0
92, 0.0
93, 0.0
94, 0.0
95, 0.0
96, 0.0
97, 0.0
98, 0.0
99, 0.0
100, 0.0
101, 0.0
102, 0.0
103, 0.0
104, 0.0
105, 0.0
106, 0.0
107, 0.0
108, 0.0
109, 0.0
110, 0.0
111, 0.0
112, 0.0
113, 0.0
114, 0.0
115, 0.0
116, 0.0
117, 0.0
118, 0.0
119, 0.0
120, 0.0
121, 0.0
122, 0.0
123, 0.0
124, 0.0
125, 0.0
126, 0.0
127, 0.0
128, 0.0
129, 0.0
130, 0.0
131, 0.0
132, 0.0
133, 0.0
134, 0.0
135, 0.0
136, 0.0
137, 0.0
138, 0.0
139, 0.0
140, 0.0
141, 0.0
142, 0.0
143, 0.0
144, 0.0
145, 0.0
146, 0.0
147, 0.0
148, 0.0
149, 0.0
150, 0.0
151, 0.0
152, 0.0
153, 0.0
154, 0.0
155, 0.0
156.0, 0.0002330569955006191
157.0, 0.000467864335040637
158.0, 0.0006202683250244997
159.0, 0.0004660772392342623
160.0, 0.0006298844294590214
161.0, 0.0008153974880799854
162.0, 0.0009132320332854052
163.0, 0.000579430648472022
164.0, 0.00120546205845709
165.0, 0.0016987940957535698
166.0, 0.0008105896293460963
167.0, 0.0020297204366352714
168.0, 0.0022377754350000065
169.0, 0.0016237724717160496
170.0, 0.0020871979201193187
171.0, 0.003108814192973991
172.0, 0.003955453545216635
173.0, 0.004332668022386025
174.0, 0.006071073020234137
175.0, 0.0075039619993027655
176.0, 0.009200482753097481
177.0, 0.012104872369067056
178.0, 0.013635814382078703
179.0, 0.015765926828423742
180.0, 0.01857937193288556
181.0, 0.02093694168977081
182.0, 0.022249474618536828
183.0, 0.02324832463567271
184.0, 0.024295693608293256
185.0, 0.02059913031608111
186.0, 0.017665343325623337
187.0, 0.014979741042872781
188.0, 0.011602757183326418
189.0, 0.009446467418462026
190.0, 0.0077501650687774384
191.0, 0.006193645400766768
192.0, 0.0035436235299823376
193.0, 0.0034202507687142174
194.0, 0.003149917529659235
195.0, 0.0010716982792618242
196.0, 0.0011723013484586393
197.0, 0.001047821741991193
198.0, 0.0007407651871727442
199.0, 0.00035142941367701604
200.0, 0.0007165406291898453
201.0, 0.0006872577694182863
202.0, 0.00019738953002209215
203.0, 0.0002732219302942113
204.0, 0.0008053171654382098
205.0, 0.0009112958719160334
206.0, 1.1582231509423392e-05
207.0, 0.00048785982753858545
208.0, 0.00044185812149553715
209.0, 0.0003107004878619444
210.0, 0.0009071277646279473
211.0, 0.0007277911575432205
212.0, 0.0005107873493561951
213.0, 0.0005230738166971916
214.0, 0.0015935036321205074
215.0, 0.001845460570845252
216.0, 0.0017785798161420847
217.0, 0.0016233412119230882
218.0, 0.0015640598355177037
219.0, 0.0018168218443128166
220.0, 0.002093464775570625
221.0, 0.0019642153267261536
222.0, 0.0023217158980492008
223.0, 0.0023438704037079317
224.0, 0.0020287958772883703
225.0, 0.001775120959318384
226.0, 0.0016268207164404072
227.0, 0.0016339078218153406
228.0, 0.0018046414562724413
229.0, 0.0016970759910555277
230.0, 0.0017238449972326552
231.0, 0.001800596771384715
232.0, 0.001845500199766805
233.0, 0.001736544417205465
234.0, 0.0016927942569189137
235.0, 0.0016011927240854556
236.0, 0.0010898074487394262
237.0, 0.0005890569549572165
238.0, 0.00045702159072431105
239.0, 0.0007570123397347315
240.0, 0.0011233987587819442
241.0, 0.0006407811890865811
242.0, 0.00011184537061542714
243.0, 7.44605180372877e-05
244.0, 0.000580468306557593
245.0, 0.000939691802743137
246.0, 0.0013413165180015505
247.0, 0.002132995031811355
248.0, 0.0024585036385193076
249.0, 0.0025029282774543865
250.0, 0.0025221842717937735
251.0, 0.0035094593417561663
252.0, 0.004092999931755522
253.0, 0.004149501707559888
254.0, 0.003729500257371422
255.0, 0.004830964355806666
256.0, 0.004326761514727912
257.0, 0.003929876792410405
258.0, 0.005224710578194328
259.0, 0.005660656620778982
260.0, 0.006105519318322761
261.0, 0.006483625090189546
262.0, 0.006542519848922722
263.0, 0.006940393412093747
264.0, 0.007728289338858939
265.0, 0.008682008329801856
266.0, 0.008594059681555301
267.0, 0.009443657126917882
268.0, 0.00944995669038878
269.0, 0.007904618714746183
270.0, 0.0072906176807184505
271.0, 0.007958284065838433
272.0, 0.008805792794418699
273.0, 0.00879098329688429
274.0, 0.011755011176813405
275.0, 0.014621604863710577
276.0, 0.01749904612739761
277.0, 0.020910790961500177
278.0, 0.0238209043997714
279.0, 0.02547771343442575
280.0, 0.025992100416201643
281.0, 0.026454600589936185
282.0, 0.023362787154849587
283.0, 0.020603765129948118
284.0, 0.019407385838082564
285.0, 0.015445557152294176
286.0, 0.013046320097098676
287.0, 0.011433936530870301
288.0, 0.01007028346325183
289.0, 0.009466006903596207
290.0, 0.008600115404639244
291.0, 0.007843394884209137
292.0, 0.007864503193547258
293.0, 0.00847210796519191
294.0, 0.009156268608619754
295.0, 0.010014314392083525
296.0, 0.011592911755054064
297.0, 0.013070260984282222
298.0, 0.013680202447177476
299.0, 0.013373269724886021
300.0, 0.013504468368027763
301.0, 0.01115341488828861
302.0, 0.008780721721111684
303.0, 0.007647179301909179
304.0, 0.0058465089170774715
305.0, 0.003747057588402632
306.0, 0.0021872420746554947
307.0, 0.0020932832746508134
308.0, 0.001079231157083608
309.0, 0.00044144378843700744
310.0, 0.00020953578048794771
311.0, 0.00038502033042842683
312.0, 0.0004836029645093665
313.0, 0.0004742818816969607
314.0, 0.00036589642342907717
315.0, 0.0001977626552807252
316.0, 0.0008141879197657145
317.0, 0.0009961425171365634
318.0, 0.000585542061090325
319.0, 0.0010174066375164144
320.0, 0.0008092803876759286
321.0, 0.0006769058782366624
322.0, 0.000985582399454167
323.0, 0.001564446981026361
324.0, 0.0015496787989323073
325.0, 0.0017699982094276246
326.0, 0.0029888912335451277
327.0, 0.0026978670410339953
328.0, 0.002439232142633186
329.0, 0.002368415729599824
330.0, 0.0027001203798462034
331.0, 0.0030884434763594464
332.0, 0.0029445890058262016
333.0, 0.002425505932778654
334.0, 0.0020418879994246074
335.0, 0.0020393225799043443
336.0, 0.0019611707774709317
337.0, 0.001794697855773866
338.0, 0.001878162781939911
339.0, 0.0017933115489662341
340.0, 0.0015003360966140016
341.0, 0.0010637494621776606
342.0, 0.0011791702359984111
343.0, 0.0008774660872313112
344.0, 0.0006805573674976635
345.0, 0.0008367143572484391
346.0, 0.00045025837192674747
347.0, 0.0003102924974942197
348.0, 0.0003272406213969322
349.0, 0.000435998068340415
350.0, 0.00012957719847806238
351.0, 0.00014624923049429535
352.0, 0.0003266012179213851
353.0, 0.0004597255970956183
354.0, 0.00046156158255130785
355.0, 0.0003187755444612359
356.0, 0.0002518760419171228
357.0, 0.0007183175923200335
358.0, 0.00045480891960279876
359.0, 0.0003074146518426579
360.0, 0.0003125580804053954
361.0, 0.0002364006384149636
362.0, 0.0006040096065922529
363.0, 0.0005788121887760365
364.0, 0.00022220184443565838
365.0, 0.00071025741114492
366.0, 0.00039677752768944906
367.0, 0.0003879138662393774
368.0, 0.000903254490239566
369.0, 0.0007095037257407715
370.0, 0.0012119628734677448
371.0, 0.0017786307223111393
372.0, 0.002019896214787302
373.0, 0.0008150089161957079
374.0, 0.0013779289321977776
375.0, 0.0019832924304041175
376.0, 0.001509153421206273
377.0, 0.002037326419060575
378.0, 0.0022287403703509187
379.0, 0.002228034430750071
380.0, 0.0021613982697818875
381.0, 0.003452774659378726
382.0, 0.003958678042668712
383.0, 0.004304499907350761
384.0, 0.005331777013825277
385.0, 0.00575598990089681
386.0, 0.0064631131284411955
387.0, 0.007322212940278605
388.0, 0.008037996085554309
389.0, 0.007207528246148522
390.0, 0.007098661145727532
391.0, 0.0072660592781540675
392.0, 0.006222267250850263
393.0, 0.005724504645051311
394.0, 0.005364573773182089
395.0, 0.00510362942370824
396.0, 0.0050111406822087165
397.0, 0.004822891949869124
398.0, 0.004701277694456975
399.0, 0.0046579618217696675
400.0, 0.004615545771153761
401.0, 0.004757933186476541
402.0, 0.0048658247767308154
403.0, 0.004951245858671319
404.0, 0.005355210611301406
405.0, 0.005669392371844101
406.0, 0.006059043059370137
407.0, 0.006565663773795945
408.0, 0.007094128077181133
409.0, 0.007516052592326959
410.0, 0.007994838168609797
411.0, 0.008500942310334847
412.0, 0.008221138303799204
413.0, 0.00824262019607158
414.0, 0.007800595407103458
415.0, 0.006663450877668818
416.0, 0.006582534852839337
417.0, 0.00605237988719542
418.0, 0.00554453730806602
419.0, 0.005306872898431716
420.0, 0.004952136050455213
421.0, 0.004176587043788213
422.0, 0.003666467802020334
423.0, 0.0038223314320225206
424.0, 0.003118614294632218
425.0, 0.0026156340846545086
426.0, 0.0025334034176477433
427.0, 0.0030037529365738117
428.0, 0.0022121443933508502
429.0, 0.0021747200355871662
430.0, 0.0021084796041216532
431.0, 0.0013814171780067116
432.0, 0.002769721963255625
433.0, 0.0036958412018365536
434.0, 0.003906391331517783
435.0, 0.003152851297552557
436.0, 0.003956661450551326
437.0, 0.003922686859902064
438.0, 0.0038143769726254884
439.0, 0.004418441668758186
440.0, 0.004415996814309239
441.0, 0.0044331813613671
442.0, 0.00423546945097713
443.0, 0.0035537785378302166
444.0, 0.002626071344761144
445.0, 0.002911468943869808
446.0, 0.003421037879796571
447.0, 0.0029888724602436002
448.0, 0.0033636438513664152
449.0, 0.004230611538590453
450.0, 0.004634847372071939
451.0, 0.0034273682060586915
452.0, 0.00471979077063106
453.0, 0.005102977662240937
454.0, 0.005260412693595556
455.0, 0.006126803391694552
456.0, 0.006092452413223551
457.0, 0.006001939678692652
458.0, 0.006085979612562201
459.0, 0.006602610248201761
460.0, 0.00536293211747068
461.0, 0.005210470335466421
462.0, 0.005411061825017743
463.0, 0.004989248012469337
464.0, 0.005031934461580116
465.0, 0.004899849725563192
466.0, 0.004512775636668492
467.0, 0.0037903688019524603
468.0, 0.0036570218711086985
469.0, 0.00309585344828859
470.0, 0.0025329174486912443
471.0, 0.0024734199084516756
472.0, 0.002883529540537875
473.0, 0.0024700405959393774
474.0, 0.00207329385633279
475.0, 0.0026150521122239295
476.0, 0.00207185298590899
477.0, 0.001973196661933973
478.0, 0.002038219683915215
479.0, 0.0019725862627516617
480.0, 0.0007970681002685209
481.0, 0.0012886670752255802
482.0, 0.0016108702942412047
483.0, 0.00013084942206312647
484.0, 0.0006850054806402873
485.0, 0.0008853248187631187
486.0, 0.0006865240292801838
487.0, 8.698356896076075e-05
488.0, 0.00030839117808781607
489.0, 0.0002218149288397124
490.0, 8.83711319533402e-05
491.0, 9.653321552132344e-05
492.0, 0.00013002048882920233
493.0, 0.00010449826980457212
494.0, 9.874089037219488e-05
495.0, 0.00015116386027087033
496.0, 7.415291933591229e-05
497.0, 0.00037372088227973106
498.0, 0.000575820914535261
499.0, 0.0004622394760471339
500.0, 0.0005734160929473598
501.0, 0.0002948534443751932
502.0, 0.0005846784589762048
503.0, 0.001562805105980804
504.0, 0.0005431459133315194
505.0, 0.00048207904268636904
506.0, 0.00042176287846751537
507.0, 0.00016653788129437745
508.0, 0.0008448570594328485
509.0, 0.0015030687492482305
510.0, 0.0016510658895670018
511.0, 0.001327737265689271
512.0, 0.0014655027586530896
513.0, 0.0017489871836471706
514.0, 0.001670204454647195
515.0, 0.0013703954825483415
516.0, 0.001835761602205453
517.0, 0.0018378596839225176
518.0, 0.0018018758454626657
519.0, 0.0018309050929563974
520.0, 0.001971332291185121
521.0, 0.001917133395543829
522.0, 0.0018445650821978193
523.0, 0.0018162382998483126
524.0, 0.0019115362836453756
525.0, 0.0015132551672812614
526.0, 0.0013821618981822432
527.0, 0.0014419328326591599
528.0, 0.0014382637831648216
529.0, 0.0009091706064395045
530.0, 0.0006105974698910077
531.0, 0.000668537760531767
532.0, 0.001185924172903503
533.0, 0.0005825368508258287
534.0, 0.0006782600046576773
535.0, 0.0008874049978144476
536.0, 0.0006106400271227196
537.0, 0.0002119891838108724
538.0, 5.693417557500198e-05
539.0, 0.00036726286649193927
540.0, 0.0011923574746586288
541.0, 0.0008421331750306884
542.0, 0.0017526787240501785
543.0, 0.0025912624575888986
544.0, 0.0028221155013226024
545.0, 0.0039730641776658075
546.0, 0.005718905085216946
547.0, 0.006766871689568816
548.0, 0.007121536373115139
549.0, 0.009348983969727147
550.0, 0.010064660376756138
551.0, 0.01016344254672881
552.0, 0.009757197707634566
553.0, 0.008418723385773721
554.0, 0.007222798931474063
555.0, 0.006228821564607924
556.0, 0.005280919915587684
557.0, 0.004003913369531319
558.0, 0.003735626126566181
559.0, 0.0035349556581736083
560.0, 0.003200036691989027
561.0, 0.0025649949130326036
562.0, 0.0030419541685240063
563.0, 0.003156365002311696
564.0, 0.0032473823437168484
565.0, 0.0037271143515358674
566.0, 0.0042316479193895565
567.0, 0.004220829427266047
568.0, 0.004706798454884272
569.0, 0.006215158100617949
570.0, 0.006073192113571906
571.0, 0.007335507125822354
572.0, 0.00867217840823001
573.0, 0.009620486357649848
574.0, 0.011290095094053081
575.0, 0.013289064164704044
576.0, 0.014863424226984693
577.0, 0.01623121634136555
578.0, 0.01899278026318272
579.0, 0.02178722338788637
580.0, 0.024174436333952082
581.0, 0.026423690397774185
582.0, 0.029299179930899512
583.0, 0.029452288127808895
584.0, 0.029431239317580595
585.0, 0.02866915026293335
586.0, 0.026100475871419403
587.0, 0.02325636237510428
588.0, 0.02069752199936741
589.0, 0.017885700290281786
590.0, 0.014473585420192406
591.0, 0.012969815117589658
592.0, 0.01078204478590233
593.0, 0.00907859332398829
594.0, 0.008261699681005827
595.0, 0.006654839810323479
596.0, 0.005751933489452406
597.0, 0.005564518021829355
598.0, 0.005779308651263396
599.0, 0.0052529022577938065
600.0, 0.005609640468212473
601.0, 0.006583428285757083
602.0, 0.007551500166539219
603.0, 0.007342732855456208
604.0, 0.009089003173448545
605.0, 0.010049406913017835
606.0, 0.010909064827379697
607.0, 0.012721493959318174
608.0, 0.014345745478907199
609.0, 0.014394500096202502
610.0, 0.014777875076980957
611.0, 0.016482751846378357
612.0, 0.015203518161491349
613.0, 0.014317430306433681
614.0, 0.013499943481115195
615.0, 0.012473274770126552
616.0, 0.01060662593439095
617.0, 0.010779920028155867
618.0, 0.010105907464210515
619.0, 0.008774694501195666
620.0, 0.008717343720200063
621.0, 0.007705439500591405
622.0, 0.006646940052262758
623.0, 0.006029717551946328
624.0, 0.006350476899239655
625.0, 0.005170570982643684
626.0, 0.005251028172673484
627.0, 0.005504825000289348
628.0, 0.005125954518755469
629.0, 0.00430230172869095
630.0, 0.004728101415322649
631.0, 0.0042614301248345855
632.0, 0.0026800495516257246
633.0, 0.0025577428236922377
634.0, 0.0026004084716177715
635.0, 0.0020813446054299945
636.0, 0.0012850455730159273
637.0, 0.001072827742534089
638.0, 0.0004362388005530202
639.0, 0.00035081693154855525
640.0, 0.0003997183662045207
641.0, 9.268510673629898e-05
642.0, 0.00026903192598972265
643.0, 0.0008325860485608122
644.0, 0.0009705153517189911
645.0, 0.00042639451674756994
646.0, 0.0005556251881488651
647.0, 0.0003829992748448384
648.0, 0.0003277873253923295
649.0, 0.0006438686235057983
650.0, 0.00169415237571839
651.0, 0.00102672470606109
652.0, 0.001312153584318233
653.0, 0.0015560667623344825
654.0, 2.0644364262600583e-05
655.0, 2.961863299400561e-05
656.0, 5.124294989912042e-05
657.0, 8.324867090145607e-05
658.0, 0.00019957237598121585
659.0, 0.0010396125437457837
660.0, 0.0007001425710376603
661.0, 0.0006037421611829307
662.0, 0.0008699863115053043
663.0, 0.0003088747891324608
664.0, 0.0011532090051626664
665.0, 0.001206138775933881
666.0, 0.0009251019582387811
667.0, 0.001451705725132136
668.0, 0.0012164213648678218
669.0, 0.0009919906119874062
670.0, 0.0011457152032154367
671.0, 0.0016847598440873175
672.0, 0.00033580579350936347
673.0, 0.0007288477252207823
674.0, 0.0015118142905266505
675.0, 0.0018160029349129398
676.0, 0.00041768548356676703
677.0, 0.0010173101746567194
678.0, 0.001004680977443263
679.0, 0.0007699146521356634
680.0, 0.001344188721708083
681.0, 0.0013156034381935214
682.0, 0.001169616520379204
683.0, 0.0009480596671425243
684.0, 0.0007148642062410114
685.0, 0.0006993653600577551
686.0, 0.0014135161695736768
687.0, 0.0017759089829944314
688.0, 0.0015528299840098082
689.0, 0.000997437695755339
690.0, 0.0012947160228110612
691.0, 0.0009029541919653301
692.0, 0.0005370823357904902
693.0, 0.0011417232567718302
694.0, 0.0010368002480049647
695.0, 0.0007710126467295846
696.0, 0.0007249471565415147
697.0, 0.0009554593844661452
698.0, 0.000734845376011275
699.0, 0.0004377018610937336
700.0, 0.00019852454818473691
701.0, 6.880891715746922e-05
702.0, 8.75366524142858e-05
703.0, 0.00025344184909121436
704.0, 0.0002482404806108685
705.0, 0.00019054391359696918
706.0, 0.0001805126330295741
707.0, 7.601999293956585e-05
708.0, 0.00038588753204977475
709.0, 0.0004199860368669752
710.0, 0.0003916741361079465
711.0, 0.0016686253292685312
712.0, 0.000551415282549164
713.0, 0.00039131115845140383
714.0, 0.0008550602210020207
715.0, 0.0010343441053549038
716.0, 0.0003275322315682792
717.0, 0.0013611305251834814
718.0, 0.0016781241415843148
719.0, 0.000552068232294809
720.0, 0.0006047566621095511
721.0, 0.0019929789072540794
722.0, 0.001973093863152339
723.0, 0.0014501400930647642
724.0, 0.0027670412100505824
725.0, 0.0022225261076891994
726.0, 0.0021684150075846485
727.0, 0.0024686334404145993
728.0, 0.002870283074130371
729.0, 0.00258689565672448
730.0, 0.0030505897785486867
731.0, 0.003131443625095787
732.0, 0.003037073857818517
733.0, 0.003839001328476087
734.0, 0.004085198236446219
735.0, 0.004210883547776023
736.0, 0.004425692865454588
737.0, 0.0047659624138453515
738.0, 0.0040684012947016955
739.0, 0.00433169883226755
740.0, 0.005094309052678013
741.0, 0.005728049182318002
742.0, 0.005042823020615734
743.0, 0.00585572215146885
744.0, 0.006165584938419299
745.0, 0.005899400421815556
746.0, 0.005348840890997278
747.0, 0.006760045205623564
748.0, 0.0068149455140191825
749.0, 0.0068956257255691055
750.0, 0.007391033609380029
751.0, 0.007896678410906351
752.0, 0.0079132690310271
753.0, 0.008578160633192757
754.0, 0.009259530364583834
755.0, 0.009239738234501691
756.0, 0.009443594736751323
757.0, 0.009640520143847227
758.0, 0.009956018975831597
759.0, 0.010360440885061285
760.0, 0.010620147951158449
761.0, 0.010451335878084144
762.0, 0.010400262473890119
763.0, 0.010469517936662521
764.0, 0.010629687985880537
765.0, 0.01130957416550922
766.0, 0.01134975606255153
767.0, 0.011290761423666338
768.0, 0.011516001133690187
769.0, 0.012489288799506084
770.0, 0.011817608985634234
771.0, 0.01138798500250525
772.0, 0.011599922013411087
773.0, 0.012461051837184395
774.0, 0.011746925063692404
775.0, 0.011916570446610831
776.0, 0.012431931086024294
777.0, 0.012757605594800055
778.0, 0.012055613052250518
779.0, 0.014281115862914754
780.0, 0.015236353553970777
781.0, 0.015316751686589438
782.0, 0.01529451982962872
783.0, 0.016283112899186214
784.0, 0.016159117831702808
785.0, 0.016833152301163265
786.0, 0.017759806204322805
787.0, 0.016667308559942005
788.0, 0.018134355634337945
789.0, 0.01870752054015347
790.0, 0.018550936045375853
791.0, 0.018224110286364184
792.0, 0.019603990203154727
793.0, 0.019266107245980504
794.0, 0.018888155618468308
795.0, 0.019188607907296356
796.0, 0.02064683574400418
797.0, 0.01978751832786835
798.0, 0.02069747904629512
799.0, 0.021552172798847285
800.0, 0.02169703041440402
801.0, 0.022762812947013333
802.0, 0.02331023138441395
803.0, 0.022812625810172068
804.0, 0.02284769913733437
805.0, 0.025096993430705195
806.0, 0.024909963835472282
807.0, 0.025844387091519073
808.0, 0.027462593130154377
809.0, 0.028913281090453026
810.0, 0.028464227466752208
811.0, 0.030634296222627724
812.0, 0.03217215214844112
813.0, 0.03315196685811579
814.0, 0.034128639627770324
815.0, 0.037080984557354264
816.0, 0.0378887652576395
817.0, 0.0394603478904757
818.0, 0.04200588389572818
819.0, 0.044586771009201207
820.0, 0.046242199845625345
821.0, 0.05075291584521042
822.0, 0.05468412270251571
823.0, 0.0566675746133678
824.0, 0.05901949529597234
825.0, 0.0643999023667399
826.0, 0.06897698139337748
827.0, 0.07477575568537641
828.0, 0.08395451802905478
829.0, 0.09063109195765513
830.0, 0.10175024577449543
831.0, 0.1141961503879599
832.0, 0.12699899953450985
833.0, 0.14030269333955075
834.0, 0.1622911373924129
835.0, 0.18440030305333352
836.0, 0.21006458081990115
837.0, 0.2427397271908203
838.0, 0.2874464461734563
839.0, 0.3326463244232831
840.0, 0.39861174621448636
841.0, 0.47794295792434716
842.0, 0.5583666963840115
843.0, 0.6544365227180731
844.0, 0.7794486520825344
845.0, 0.8722418139110595
846.0, 0.9307976839679105
847.0, 0.9982463350713147
848.0, 0.9850300601710493
849.0, 0.9181895668536308
850.0, 0.8375493839313641
851.0, 0.7592704421025028
852.0, 0.637270136921807
853.0, 0.5519533024945185
854.0, 0.4791924443156112
855.0, 0.4119257914122758
856.0, 0.34816655765505816
857.0, 0.31390139328156114
858.0, 0.2770788344214699
859.0, 0.2461670030173381
860.0, 0.22360591010351388
861.0, 0.208463988560453
862.0, 0.1882358354051913
863.0, 0.1811354325580013
864.0, 0.17635610747943717
865.0, 0.17038940189680876
866.0, 0.17284861731644782
867.0, 0.17615283208437887
868.0, 0.1749211785967209
869.0, 0.17591381766759198
870.0, 0.18312743688785524
871.0, 0.17914755810252314
872.0, 0.17161321595998766
873.0, 0.16464049005738088
874.0, 0.15494237477982015
875.0, 0.13736980331878407
876.0, 0.12470420264856656
877.0, 0.1133522013297784
878.0, 0.09997592772444863
879.0, 0.08636745433881335
880.0, 0.07943792917890706
881.0, 0.06971796328997287
882.0, 0.06362395053409448
883.0, 0.05821479109471605
884.0, 0.05180152283771623
885.0, 0.04580155675262862
886.0, 0.044428165948227724
887.0, 0.040683495862670505
888.0, 0.03686464824775496
889.0, 0.035568531650479275
890.0, 0.03441304099250587
891.0, 0.030403860620348225
892.0, 0.028424565669458755
893.0, 0.02789657602409283
894.0, 0.026531737776594965
895.0, 0.025190952773715004
896.0, 0.02459744603385132
897.0, 0.023455229667666177
898.0, 0.0219712728597437
899.0, 0.021474258425581698
900.0, 0.021502529055860035
901.0, 0.019816304227944035
902.0, 0.019578877521797135
903.0, 0.020648968425571325
904.0, 0.0175919337331958
905.0, 0.017900445677119077
906.0, 0.018536721872572114
907.0, 0.01837179030556226
908.0, 0.01739208898469978
909.0, 0.018559453086875
910.0, 0.01660830055280348
911.0, 0.01656032659548781
912.0, 0.01733643187916863
913.0, 0.017104151766396444
914.0, 0.01597274109075546
915.0, 0.0173391581413774
916.0, 0.01727565257593749
917.0, 0.01602332802526442
918.0, 0.015296730129658376
919.0, 0.017180899400010483
920.0, 0.015944397729256047
921.0, 0.01598758389215753
922.0, 0.017017480123137987
923.0, 0.016060534403632597
924.0, 0.015934225518550754
925.0, 0.017093174294307872
926.0, 0.017782220917930778
927.0, 0.018091446764987914
928.0, 0.01998938724914084
929.0, 0.02157748069854691
930.0, 0.022634302019932932
931.0, 0.025274070465014464
932.0, 0.029378564642835663
933.0, 0.031067829455619343
934.0, 0.036096397740021824
935.0, 0.04319462824956532
936.0, 0.051236335516087236
937.0, 0.06134693992068717
938.0, 0.0810033637698085
939.0, 0.09702188810593763
940.0, 0.11936386743874598
941.0, 0.14273429466600696
942.0, 0.1586327269954952
943.0, 0.15183740639786053
944.0, 0.14445669750425888
945.0, 0.13234249554940264
946.0, 0.1157632768940006
947.0, 0.09747076190546904
948.0, 0.08822851910588635
949.0, 0.0758814570663251
950.0, 0.06714788238703367
951.0, 0.06204911570263518
952.0, 0.05856985054563506
953.0, 0.05434438959911048
954.0, 0.0542810643686584
955.0, 0.05293917275162807
956.0, 0.05109374239611298
957.0, 0.051575643705822564
958.0, 0.054505935758263804
959.0, 0.05430045522022413
960.0, 0.058503450764244465
961.0, 0.06534065921552627
962.0, 0.06917342303250226
963.0, 0.07614723079468322
964.0, 0.08996400889759014
965.0, 0.10368038159073759
966.0, 0.11929558525754941
967.0, 0.14314574541742106
968.0, 0.1618718070462608
969.0, 0.16891706500975104
970.0, 0.173874385186695
971.0, 0.17335437829201397
972.0, 0.15589228977884875
973.0, 0.13377928510450268
974.0, 0.11452393167060015
975.0, 0.09391594918736643
976.0, 0.07444081961446762
977.0, 0.06350761076693245
978.0, 0.05184553717594884
979.0, 0.043668189643092846
980.0, 0.03789479879072543
981.0, 0.032911319356806225
982.0, 0.026653795343856868
983.0, 0.02545135735538705
984.0, 0.021934577612902226
985.0, 0.018605063097587745
986.0, 0.016701067206364904
987.0, 0.01633969852328618
988.0, 0.01350974980506393
989.0, 0.012828332557144863
990.0, 0.012342591611630635
991.0, 0.011104800760327957
992.0, 0.009083810103540651
993.0, 0.0103889174944294
994.0, 0.009141629744000412
995.0, 0.008137780721203126
996.0, 0.008209929892321383
997.0, 0.008500240980748537
998.0, 0.006988565210225721
999.0, 0.007146316506283877
1000.0, 0.007195785662877045
1001.0, 0.006802578871771142
1002.0, 0.00681812043749263
1003.0, 0.009382356225518754
1004.0, 0.009046782097978991
1005.0, 0.008608521027236188
1006.0, 0.00846319940638555
1007.0, 0.007334259903984998
1008.0, 0.00530059022747084
1009.0, 0.005452264579846381
1010.0, 0.0049813768969046
1011.0, 0.004101607375664612
1012.0, 0.004722150550047087
1013.0, 0.004653591014967095
1014.0, 0.003825233977051689
1015.0, 0.0038817102050999704
1016.0, 0.004296599014218606
1017.0, 0.0035760182705974006
1018.0, 0.0029051749707921636
1019.0, 0.004465773415390302
1020.0, 0.0041905155663647
1021.0, 0.0033542429005865974
1022.0, 0.004773560718030819
1023.0, 0.004102985182529892
1024.0, 0.003106769944191098
1025.0, 0.0035878980088282146
1026.0, 0.00439955724590434
1027.0, 0.0038285778302506283
1028.0, 0.0030797491777024054
1029.0, 0.00440420311153539
1030.0, 0.003353745470458244
1031.0, 0.002774565831808555
1032.0, 0.005279208730190041
1033.0, 0.004178964988359036
1034.0, 0.0017108946677338822
1035.0, 0.003078313442408036
1036.0, 0.00432081653778507
1037.0, 0.0026506394552717823
1038.0, 0.004074420404093287
1039.0, 0.0035304418834774696
1040.0, 0.0030860339032147696
1041.0, 0.003295743693179418
1042.0, 0.0035994509558613386
1043.0, 0.0013965588250659437
1044.0, 0.001578861130625835
1045.0, 0.0032772361665255436
1046.0, 0.003483643765074572
1047.0, 0.00209190050188233
1048.0, 0.00335458342690611
1049.0, 0.0035204963600081697
1050.0, 0.0026892189118669224
1051.0, 0.0028087797804276895
1052.0, 0.0034954162528307237
1053.0, 0.0022625658115322275
1054.0, 0.003459365200064825
1055.0, 0.0037108188772061604
1056.0, 0.002661693692146097
1057.0, 0.002060260168426949
1058.0, 0.004212030318257569
1059.0, 0.0024368870249136297
1060.0, 0.0020063555223226136
1061.0, 0.0025795251583184205
1062.0, 0.0029516055568324932
1063.0, 0.0021543383829306386
1064.0, 0.0026413012949300144
1065.0, 0.003507928123772305
1066.0, 0.002662555203758554
1067.0, 0.0024089649723456636
1068.0, 0.0039659541928633935
1069.0, 0.0019467014720684693
1070.0, 0.002516961169461632
1071.0, 0.0033258839454092205
1072.0, 0.0029693436271468715
1073.0, 0.001832497149796199
1074.0, 0.0032890422109995467
1075.0, 0.0036880573769780493
1076.0, 0.00218318636113387
1077.0, 0.002491408747298367
1078.0, 0.00406403813974954
1079.0, 0.0022027557063673507
1080.0, 0.003310026258507045
1081.0, 0.0036715587853157934
1082.0, 0.0028255554463513387
1083.0, 0.0023805930370779634
1084.0, 0.00419046459970577
1085.0, 0.0022890335249567584
1086.0, 0.002333309786677035
1087.0, 0.003239925005988567
1088.0, 0.0031967273520988335
1089.0, 0.0016901038332931043
1090.0, 0.0038935784435614887
1091.0, 0.002939735976141778
1092.0, 0.002028023844366767
1093.0, 0.002950002411067705
1094.0, 0.004869739672708694
1095.0, 0.002561838122951221
1096.0, 0.0023325441422144618
1097.0, 0.003570634722531398
1098.0, 0.0034315015764779045
1099.0, 0.002355164763888866
1100.0, 0.0035393993538096074
1101.0, 0.0029892634205940954
1102.0, 0.002514031424823814
1103.0, 0.0033187411574791465
1104.0, 0.003595870293167643
1105.0, 0.0016193280596967967
1106.0, 0.00379975370878654
1107.0, 0.0038490264767817176
1108.0, 0.002335297170456251
1109.0, 0.0022478020027713215
1110.0, 0.004249480052074761
1111.0, 0.0024387611638454383
1112.0, 0.001995945016378634
1113.0, 0.0032648826357416167
1114.0, 0.003081004704121569
1115.0, 0.0015955082330793178
1116.0, 0.0024825753974942162
1117.0, 0.0034877162269367065
1118.0, 0.0019279510413429055
1119.0, 0.0022154264681279335
1120.0, 0.0030334259086845098
1121.0, 0.0015289010650402373
1122.0, 0.00182966334369911
1123.0, 0.003398589742371196
1124.0, 0.002470730694841113
1125.0, 0.0017254435043259526
1126.0, 0.0028742049070478097
1127.0, 0.0028766074266292213
1128.0, 0.001567499975802355
1129.0, 0.0028273635257113463
1130.0, 0.0027891322451859446
1131.0, 0.0011234249701935956
1132.0, 0.000920622455697372
1133.0, 0.003542748615118027
1134.0, 0.0013302750107862448
1135.0, 0.0017975567848548188
1136.0, 0.003227715392998937
1137.0, 0.0019991340473527264
1138.0, 0.0003170321408674535
1139.0, 0.002932653249469114
1140.0, 0.0019910761130309076
1141.0, 0.0009499517747748546
1142.0, 0.0018786668761369418
1143.0, 0.002865333715835184
1144.0, 0.0006664604015918308
1145.0, 0.002138009322629016
1146.0, 0.0022740342990345296
1147.0, 0.0008347768456840815
1148.0, 0.00021965247930605825
1149.0, 0.0019214942006023413
1150.0, 0.0007922669626073281
1151.0, 0.0002855225795327393
1152.0, 0.0008422855532357108
1153.0, 0.001548169987216453
1154.0, 0.00010140269906167238
1155.0, 0.0008392172748860015
1156.0, 0.001100215192195795
1157.0, 0.0007562546217432874
1158.0, 0.0006931607039865155
1159.0, 0.0018874485323704003
1160.0, 0.0007158039806855733
1161.0, 0.0008914033312160851
1162.0, 0.0018433646704993833
1163.0, 0.0018115459636668476
1164.0, 0.0004511634451063208
1165.0, 0.001175683734123988
1166.0, 0.0006702964297787326
1167.0, 0.0008251511689299828
1168.0, 0.0014824464002458147
1169.0, 0.0017486106257100218
1170.0, 0.0006171624106839757
1171.0, 0.0001461389241538367
1172.0, 0.0005200470032007143
1173.0, 0.0011453136176756363
1174.0, 0.00165844259147224
1175.0, 0.0016415585991187507
1176.0, 0.00045541799441609966
1177.0, 0.0007985512378616713
1178.0, 0.0017143817457748204
1179.0, 0.001323661040362894
1180.0, 0.00043786631827195927
1181.0, 0.0012413376020449203
1182.0, 0.0008197831656070019
1183.0, 0.0015181359933462623
1184.0, 0.0018883968167734482
1185.0, 0.0014659723732776322
1186.0, 0.0005778552705042549
1187.0, 0.0005612552553803435
1188.0, 0.002940574975036148
1189.0, 0.0016779596758056425
1190.0, 0.0005964157320761404
1191.0, 0.0008042351595393408
1192.0, 0.0013823061455636265
1193.0, 0.0008113577999732898
1194.0, 0.0014863293772318115
1195.0, 0.0009525478655683668
1196.0, 0.0008135334631209068
1197.0, 0.001822015858067636
1198.0, 0.002514958607732985
1199.0, 0.00046944822512129945
1200.0, 0.00014361747739209132
1201.0, 0.0012297783150317088
1202.0, 0.002072539869083915
1203.0, 0.001569695969783237
1204.0, 0.002486385525451633
1205.0, 0.0006209944582371383
1206.0, 0.0003520285804480666
1207.0, 0.0016357088178603676
1208.0, 0.002809496501784582
1209.0, 0.0017481235717545327
1210.0, 0.002594150874931963
1211.0, 0.0031044812102760974
1212.0, 0.002015537902229438
1213.0, 0.001270907901722134
1214.0, 0.0018430957566138724
1215.0, 0.001116639032918378
1216.0, 0.00044397090204913056
1217.0, 0.0019270445312406454
1218.0, 0.0017517739619505447
1219.0, 0.0006355666781455796
1220.0, 0.0012884780201765397
1221.0, 0.0032928101301423875
1222.0, 0.0009624341982812219
1223.0, 0.0021018482815760423
1224.0, 0.0030502911073497702
1225.0, 0.00198916962952412
1226.0, 0.0007894461862791148
1227.0, 0.0029917953930462156
1228.0, 0.0010845841479998693
1229.0, 0.0005127215052004598
1230.0, 0.0022702292340286024
1231.0, 0.004131671174339918
1232.0, 0.0005138195261505524
1233.0, 0.003175635234351445
1234.0, 0.0024834486574725916
1235.0, 0.0013072694826108252
1236.0, 0.0020557921051677446
1237.0, 0.0045791681575612754
1238.0, 0.0010405275567248336
1239.0, 0.0015680720160841815
1240.0, 0.0033272315452639156
1241.0, 0.002641890824953522
1242.0, 0.0009302702699236316
1243.0, 0.0026795332033932146
1244.0, 0.001851365263206165
1245.0, 0.0004997072222648312
1246.0, 0.0025673207538136544
1247.0, 0.0030606648258752287
1248.0, 0.0009235578881565604
1249.0, 0.0024342913780378934
1250.0, 0.0032214221703379653
1251.0, 0.0012153817391075226
1252.0, 0.0017814852470039188
1253.0, 0.002954652551996327
1254.0, 0.002053033030869394
1255.0, 0.00042382460953464254
1256.0, 0.0026114478811429
1257.0, 0.001329803163428324
1258.0, 0.0004506379794799693
1259.0, 0.0013553381837758823
1260.0, 0.0030211510942622305
1261.0, 0.0016171894221527166
1262.0, 0.0025320800681743923
1263.0, 0.0019402231493046416
1264.0, 0.0007979318055794794
1265.0, 0.0008493828063671608
1266.0, 0.002902718205103951
1267.0, 0.0017394291073705161
1268.0, 0.0007395500962311407
1269.0, 0.0024423601852235684
1270.0, 0.0024308785520720834
1271.0, 0.0008106295223750837
1272.0, 0.0023140039430454094
1273.0, 0.00398894976267289
1274.0, 0.0013600331196995858
1275.0, 0.002316951293182591
1276.0, 0.003402389298437733
1277.0, 0.002130577811933474
1278.0, 0.0007352441195740899
1279.0, 0.003372378153490284
1280.0, 0.0013471057553161242
1281.0, 0.0004865794362760624
1282.0, 0.0014483267842042063
1283.0, 0.002579169007385225
1284.0, 0.0013265030414698331
1285.0, 0.0020724107169348516
1286.0, 0.0014435579409981729
1287.0, 0.001026267262488771
1288.0, 0.001313976280787705
1289.0, 0.0017345186101221984
1290.0, 0.0005753761442719652
1291.0, 0.00026458935523521556
1292.0, 0.0014516224561491229
1293.0, 0.001812803660304319
1294.0, 0.0017225367957797045
1295.0, 0.0021483278323846883
1296.0, 0.002505900184200221
1297.0, 0.0010869825317104142
1298.0, 0.002172227388106164
1299.0, 0.0016593308264503314
1300.0, 0.0006613091773143158
1301.0, 0.0012983954633201955
1302.0, 0.0009770378661827308
1303.0, 0.0018597734090401463
1304.0, 0.0008576860096051293
1305.0, 0.00039025553440339415
1306.0, 0.0011020998787023735
1307.0, 0.0019259415080958469
1308.0, 0.00024321759344835437
1309.0, 0.0011955864512625861
1310.0, 0.001770600505376316
1311.0, 0.0020965292874189703
1312.0, 0.002293301241238523
1313.0, 0.002068140124632535
1314.0, 0.00011994595461329487
1315.0, 0.002063146168568262
1316.0, 0.0017260713790029707
1317.0, 0.0016702574273235796
1318.0, 0.0019131455559063277
1319.0, 0.0012896423236204951
1320.0, 0.0004404334155740267
1321.0, 0.0028600269660209827
1322.0, 0.0014466026783453239
1323.0, 0.0003082167628628593
1324.0, 0.001287786953825748
1325.0, 0.003226428982558287
1326.0, 0.001496916040155807
1327.0, 0.002084045717680637
1328.0, 0.002383486218567182
1329.0, 0.001819950893169107
1330.0, 0.001779476881518714
1331.0, 0.0028371170592668355
1332.0, 0.0009773741088929366
1333.0, 0.0013494700722325953
1334.0, 0.0020617431228205792
1335.0, 0.001953196130536018
1336.0, 0.001112942989594799
1337.0, 0.0005000821854485799
1338.0, 0.001482612776819992
1339.0, 0.002331040416696872
1340.0, 0.0013500725728406836
1341.0, 0.0010979200168867624
1342.0, 0.0016038621927356594
1343.0, 0.0019172868532463748
1344.0, 0.001553627996945996
1345.0, 0.0024215387665018346
1346.0, 0.001284660813314198
1347.0, 0.0015707415004023644
1348.0, 0.002136320144454457
1349.0, 0.0016540104387634373
1350.0, 0.0012245997365715451
1351.0, 0.0017011883802270785
1352.0, 0.0027362128264645648
1353.0, 0.0022756098568423914
1354.0, 0.0010370553699020854
1355.0, 0.00038914724397017165
1356.0, 0.0012341419885685515
1357.0, 0.0028108149168363083
1358.0, 0.0017589003456105336
1359.0, 0.0008741864427000768
1360.0, 0.0015559267141520038
1361.0, 0.0025206400754287837
1362.0, 0.0012105050840002583
1363.0, 0.001956695687915259
1364.0, 0.0019961449675560054
1365.0, 0.0023952799068571143
1366.0, 0.0029624686514337544
1367.0, 0.002709064452528938
1368.0, 0.0011075984918801159
1369.0, 0.0011090108250363896
1370.0, 0.0031471972836379274
1371.0, 0.0017219934094595693
1372.0, 0.001031990330547014
1373.0, 0.001793878999847891
1374.0, 0.0023583932815766217
1375.0, 0.0017271800767897434
1376.0, 0.0037462795504799723
1377.0, 0.0026207189369156503
1378.0, 0.0014428195433113988
1379.0, 0.002092940585207073
1380.0, 0.0034082351534321393
1381.0, 0.0009086062151678959
1382.0, 0.0016667978455197428
1383.0, 0.0037263270768731777
1384.0, 0.002149076320124932
1385.0, 0.001409117397458655
1386.0, 0.0034090603471974607
1387.0, 0.00419365931932108
1388.0, 0.0019525472531614987
1389.0, 0.004396148984951555
1390.0, 0.009633210166016242
1391.0, 0.007048566255701075
1392.0, 0.0013833008350609508
1393.0, 0.0037381808773023027
1394.0, 0.00024556285827011704
1395.0, 0.0003871326358467698
1396.0, 0.0027376277323855457
1397.0, 0.0026267868241482703
1398.0, 0.0014008945467322588
1399.0, 0.001981224799898151
1400.0, 0.0034740059589656127
1401.0, 0.0018716558621166039
1402.0, 0.0029996381804508906
1403.0, 0.0020020243455396705
1404.0, 0.000657883781562489
1405.0, 0.0012931548119169782
1406.0, 0.0033771159315770845
1407.0, 0.0006608525119764055
1408.0, 0.0009057706573794023
1409.0, 0.002535962455566212
1410.0, 0.002437766446349214
1411.0, 0.0015999073055293189
1412.0, 0.0027322556200377853
1413.0, 0.003191955736984772
1414.0, 0.0020235235765840697
1415.0, 0.0034247074332527955
1416.0, 0.003362363329328596
1417.0, 0.0016531535734277466
1418.0, 0.0007313287308762297
1419.0, 0.0031780332700021285
1420.0, 0.0006756600974706715
1421.0, 0.0012881933674163367
1422.0, 0.0028038307435090445
1423.0, 0.0024135546535113453
1424.0, 0.00150602091934164
1425.0, 0.0036137395156664595
1426.0, 0.00353604791779694
1427.0, 0.0014073014050242456
1428.0, 0.0028420475572093224
1429.0, 0.003251708561453133
1430.0, 0.0022634017761865317
1431.0, 0.0022846332855405447
1432.0, 0.005085583202663337
1433.0, 0.001531097523244364
1434.0, 0.0014554060537779704
1435.0, 0.00437427576079819
1436.0, 0.0040982625210785216
1437.0, 0.0014003118760171893
1438.0, 0.00346787955754553
1439.0, 0.006451256427000213
1440.0, 0.001989770794770703
1441.0, 0.00513232275491953
1442.0, 0.006409476646340326
1443.0, 0.004200676125014317
1444.0, 0.003090129758263849
1445.0, 0.007568166172426673
1446.0, 0.0034684214063389947
1447.0, 0.004006813145145174
1448.0, 0.007010436404568268
1449.0, 0.006101855157213727
1450.0, 0.0033901904878555927
1451.0, 0.006393679574870654
1452.0, 0.007781759678740017
1453.0, 0.0040112851603775045
1454.0, 0.006449929045925233
1455.0, 0.007336082307908253
1456.0, 0.005620515521558529
1457.0, 0.0054411747598915716
1458.0, 0.010993401174661126
1459.0, 0.006349921693736035
1460.0, 0.004136946441298669
1461.0, 0.007490152220259201
1462.0, 0.0069365210654561615
1463.0, 0.004114371861254183
1464.0, 0.006424608174403119
1465.0, 0.007731028795482167
1466.0, 0.0033013887806976417
1467.0, 0.0066236545500932805
1468.0, 0.006953206738424044
1469.0, 0.0041823521143876125
1470.0, 0.0032987497184645506
1471.0, 0.007459254791101783
1472.0, 0.0036482882300737647
1473.0, 0.0018675421407701822
1474.0, 0.005900581501153544
1475.0, 0.004941965763540281
1476.0, 0.002416689970576659
1477.0, 0.004626356767316809
1478.0, 0.0071932928668971005
1479.0, 0.0015974545360982369
1480.0, 0.005285474955883377
1481.0, 0.0055787609384926225
1482.0, 0.0031702513868276895
1483.0, 0.0030965506302618687
1484.0, 0.006770514198837474
1485.0, 0.003228885639639619
1486.0, 0.002222993222151883
1487.0, 0.005726320950464982
1488.0, 0.00453900386381894
1489.0, 0.0031456342985307665
1490.0, 0.004754484369003521
1491.0, 0.005941785718862993
1492.0, 0.0008269110599699947
1493.0, 0.0036846252053267777
1494.0, 0.005247631908552596
1495.0, 0.0028900280366190587
1496.0, 0.002556747448241838
1497.0, 0.0052561867932381205
1498.0, 0.002662921883661084
1499.0, 0.0005068956896858289
1500.0, 0.0038176719053271873
1501.0, 0.0023637380318519063
1502.0, 0.0005920555952384157
1503.0, 0.001984145888703282
1504.0, 0.004477404325325317
1505.0, 0.0010185676715287852
1506.0, 0.002154746951151566
1507.0, 0.004231546907852931
1508.0, 0.0021627972980517024
1509.0, 0.0024087005425309856
1510.0, 0.004315888874994579
1511.0, 0.003507409942227779
1512.0, 0.0010792806452273804
1513.0, 0.004904448211714261
1514.0, 0.0026216039930838765
1515.0, 0.0012362291082703286
1516.0, 0.0031971425231819236
1517.0, 0.004024960983504584
1518.0, 0.0001665515868100613
1519.0, 0.0009494958021719914
1520.0, 0.003520482012431562
1521.0, 0.002250107608315502
1522.0, 0.0006805397404437259
1523, 0.0
1524, 0.0
1525, 0.0
1526, 0.0
1527, 0.0
1528, 0.0
1529, 0.0
1530, 0.0
1531, 0.0
1532, 0.0
1533, 0.0
1534, 0.0
1535, 0.0
1536, 0.0
1537, 0.0
1538, 0.0
1539, 0.0
1540, 0.0
1541, 0.0
1542, 0.0
1543, 0.0
1544, 0.0
1545, 0.0
1546, 0.0
1547, 0.0
1548, 0.0
1549, 0.0
1550, 0.0
1551, 0.0
1552, 0.0
1553, 0.0
1554, 0.0
1555, 0.0
1556, 0.0
1557, 0.0
1558, 0.0
1559, 0.0
1560, 0.0
1561, 0.0
1562, 0.0
1563, 0.0
1564, 0.0
1565, 0.0
1566, 0.0
1567, 0.0
1568, 0.0
1569, 0.0
1570, 0.0
1571, 0.0
1572, 0.0
1573, 0.0
1574, 0.0
1575, 0.0
1576, 0.0
1577, 0.0
1578, 0.0
1579, 0.0
1580, 0.0
1581, 0.0
1582, 0.0
1583, 0.0
1584, 0.0
1585, 0.0
1586, 0.0
1587, 0.0
1588, 0.0
1589, 0.0
1590, 0.0
1591, 0.0
1592, 0.0
1593, 0.0
1594, 0.0
1595, 0.0
1596, 0.0
1597, 0.0
1598, 0.0
1599, 0.0
