30, 0.0
31, 0.0
32, 0.0
33, 0.0
34, 0.0
35, 0.0
36, 0.0
37, 0.0
38, 0.0
39, 0.0
40, 0.0
41, 0.0
42, 0.0
43, 0.0
44, 0.0
45, 0.0
46, 0.0
47, 0.0
48, 0.0
49, 0.0
50, 0.0
51, 0.0
52, 0.0
53, 0.0
54, 0.0
55, 0.0
56, 0.0
57, 0.0
58, 0.0
59, 0.0
60, 0.0
61, 0.0
62, 0.0
63, 0.0
64, 0.0
65, 0.0
66, 0.0
67, 0.0
68, 0.0
69, 0.0
70, 0.0
71, 0.0
72, 0.0
73, 0.0
74, 0.0
75, 0.0
76, 0.0
77, 0.0
78, 0.0
79, 0.0
80, 0.0
81, 0.0
82, 0.0
83, 0.0
84, 0.0
85, 0.0
86, 0.0
87, 0.0
88, 0.0
89, 0.0
90, 0.0
91, 0.0
92, 0.0
93, 0.0
94, 0.0
95, 0.0
96, 0.0
97, 0.0
98, 0.0
99, 0.0
100, 0.0
101, 0.0
102, 0.0
103, 0.0
104, 0.0
105, 0.0
106, 0.0
107, 0.0
108, 0.0
109, 0.0
110, 0.0
111, 0.0
112, 0.0
113, 0.0
114, 0.0
115, 0.0
116, 0.0
117, 0.0
118, 0.0
119, 0.0
120, 0.0
121, 0.0
122, 0.0
123, 0.0
124, 0.0
125, 0.0
126, 0.0
127, 0.0
128, 0.0
129, 0.0
130, 0.0
131, 0.0
132, 0.0
133, 0.0
134, 0.0
135, 0.0
136, 0.0
137, 0.0
138, 0.0
139, 0.0
140, 0.0
141, 0.0
142, 0.0
143, 0.0
144.0, 0.0007475517807886418
145.0, 0.0003604044736228841
146.0, 0.0036091024517175743
147.0, 0.010524379616263638
148.0, 0.026925973193224557
149.0, 0.04664950152353558
150.0, 0.06590933622952741
151.0, 0.09005170356165111
152.0, 0.09441939029383792
153.0, 0.09928052260392503
154.0, 0.104892502900549
155.0, 0.10701345191598424
156.0, 0.10669728284911227
157.0, 0.10378745741189596
158.0, 0.10097515625769024
159.0, 0.10118415493189954
160.0, 0.10459606485792201
161.0, 0.10276781547677871
162.0, 0.10175272100342482
163.0, 0.10469406156749768
164.0, 0.10477829997522897
165.0, 0.10473742892350073
166.0, 0.10595093670181727
167.0, 0.10858553258099722
168.0, 0.11241131641098859
169.0, 0.11785714111020379
170.0, 0.12148845762664157
171.0, 0.12514399760737446
172.0, 0.13117536773080163
173.0, 0.13461273459441245
174.0, 0.1404557256393384
175.0, 0.14733991218884657
176.0, 0.15420562561471032
177.0, 0.1629503839654816
178.0, 0.16083817436687822
179.0, 0.1540674496416534
180.0, 0.14404403128069615
181.0, 0.12632595888107104
182.0, 0.10682066441529622
183.0, 0.088021716807071
184.0, 0.07230477264150069
185.0, 0.06173494578255939
186.0, 0.0538981361995031
187.0, 0.04832200567443482
188.0, 0.04514025589778531
189.0, 0.040519123944855545
190.0, 0.034753114498080356
191.0, 0.032040340412032554
192.0, 0.030598049499358036
193.0, 0.02896477902639392
194.0, 0.02699100407307445
195.0, 0.026501114994376986
196.0, 0.026834188512332387
197.0, 0.029318724553121154
198.0, 0.03278804156184657
199.0, 0.031242385175765868
200.0, 0.02896490998842306
201.0, 0.029015932416757026
202.0, 0.03135340328900153
203.0, 0.03406501444224522
204.0, 0.03629464842972169
205.0, 0.03788940938155574
206.0, 0.039461311054562756
207.0, 0.04210445390944126
208.0, 0.047287452284301076
209.0, 0.04813119085455064
210.0, 0.04632228807766297
211.0, 0.04490111095348995
212.0, 0.045306069146966194
213.0, 0.04266893701569913
214.0, 0.038697549568280545
215.0, 0.03632922712755289
216.0, 0.03511623515294673
217.0, 0.025076209923516675
218.0, 0.01754413850439758
219.0, 0.011888877329356269
220.0, 0.00653581850313549
221.0, 0.0034423437699328055
222.0, 0.0035689493498155854
223.0, 0.006540467139313819
224.0, 0.004881835532310472
225.0, 0.0036126824080877067
226.0, 0.006737869443398649
227.0, 0.007116357797128125
228.0, 0.005535145091741106
229.0, 0.003992610830405716
230.0, 0.0025052976368308165
231.0, 0.002949359672399599
232.0, 9.344311036853584e-05
233.0, 0.003920723146460802
234.0, 0.004478122653182715
235.0, 0.0075350708322922495
236.0, 0.010774504501832033
237.0, 0.013890519631038356
238.0, 0.01645153519397254
239.0, 0.017390454327281295
240.0, 0.02047637029322539
241.0, 0.022690666303859866
242.0, 0.024204750790337924
243.0, 0.026838752288961078
244.0, 0.029464829177015355
245.0, 0.034755597758425884
246.0, 0.0383553603003108
247.0, 0.039365384111569375
248.0, 0.04245544544127818
249.0, 0.04317900753193115
250.0, 0.041274167109170055
251.0, 0.035300055605489745
252.0, 0.025572106128644728
253.0, 0.01899896201765227
254.0, 0.013846173813576543
255.0, 0.009599599754361133
256.0, 0.0060332381317969455
257.0, 0.002998910578826637
258.0, 0.006536282738110185
259.0, 0.0029498012204353203
260.0, 0.0022569044974607945
261.0, 0.0013997282770894085
262.0, 0.0009431605263410328
263.0, 0.000692895932665482
264.0, 0.0028383873389917114
265.0, 0.005387538032206361
266.0, 0.007017317966670882
267.0, 0.008881067526801217
268.0, 0.010110619241250179
269.0, 0.011681090988757756
270.0, 0.013866777869279388
271.0, 0.015004975428095401
272.0, 0.016381653714156365
273.0, 0.017206053984654423
274.0, 0.016137202615863662
275.0, 0.013357182512559447
276.0, 0.014485792311894287
277.0, 0.013611402544566087
278.0, 0.012567554856779121
279.0, 0.011773058104202141
280.0, 0.009049221682959583
281.0, 0.00987284299035062
282.0, 0.009321925560276691
283.0, 0.008942970091303433
284.0, 0.00979469660551487
285.0, 0.011683762739627805
286.0, 0.010609420963382356
287.0, 0.011188518413047079
288.0, 0.012059824137511067
289.0, 0.009203473149722181
290.0, 0.008579037703759453
291.0, 0.009702487373823931
292.0, 0.010909901262142172
293.0, 0.011052923009816596
294.0, 0.009866874900933438
295.0, 0.009845927856278972
296.0, 0.011681451584273554
297.0, 0.014098725095659907
298.0, 0.01624943094963114
299.0, 0.018972353523108686
300.0, 0.01880091030685695
301.0, 0.019291810491275478
302.0, 0.021651834822774507
303.0, 0.024208738307486096
304.0, 0.025132791671051473
305.0, 0.025037631483387238
306.0, 0.024270780959388647
307.0, 0.02330744084893755
308.0, 0.022415131137939834
309.0, 0.01970452365921815
310.0, 0.017114438620768304
311.0, 0.016553855804328436
312.0, 0.016904382833474597
313.0, 0.013765915962030775
314.0, 0.013143340983323636
315.0, 0.012794437051980377
316.0, 0.012003029584973797
317.0, 0.01068473576744612
318.0, 0.008365546118398867
319.0, 0.006078176394237558
320.0, 0.0035677577899480574
321.0, 0.0030873240131566895
322.0, 0.006153483176610805
323.0, 0.005356892001390671
324.0, 0.00435966631985443
325.0, 0.003793253900005185
326.0, 0.0034435792392437698
327.0, 0.0033734237300032115
328.0, 0.0031434640031134217
329.0, 0.004375099236681643
330.0, 0.004421471805377247
331.0, 0.001892981147200009
332.0, 0.001373244929306528
333.0, 0.0020471371378244503
334.0, 0.0008240529159111825
335.0, 0.0008996497180765898
336.0, 0.0034179192184995346
337.0, 0.0010539036300816673
338.0, 0.0013228730614479373
339.0, 0.0002498823916416428
340.0, 0.0010094151570070942
341.0, 9.566697118876534e-05
342.0, 0.0007584819410033384
343.0, 0.0009394229966900029
344.0, 0.0006007092115090348
345.0, 0.00017473730986532993
346.0, 0.0005695951739177131
347.0, 0.0024953315602119427
348.0, 0.003088141437991096
349.0, 0.004609687285005838
350.0, 0.007586162626083902
351.0, 0.008547071258805525
352.0, 0.006534010753880354
353.0, 0.004495849168417096
354.0, 0.00423891031085766
355.0, 0.004761970174324849
356.0, 0.0028901611196085293
357.0, 0.001123494796635265
358.0, 0.0029797417552821113
359.0, 0.0038423172631306345
360.0, 0.002101316695925468
361.0, 0.006257939341429395
362.0, 0.004225246844757711
363.0, 0.0026350576277248184
364.0, 0.0034785204555710797
365.0, 0.004559799016624425
366.0, 0.004525772180824241
367.0, 0.007154579507214578
368.0, 0.00908419009749858
369.0, 0.008492649111032997
370.0, 0.005376181571789093
371.0, 0.004938009682820382
372.0, 0.006823965149531428
373.0, 0.008026887653980956
374.0, 0.006703609338832929
375.0, 0.004051578719102443
376.0, 0.0049657088987143565
377.0, 0.006664361391240716
378.0, 0.005938656594943085
379.0, 0.003623534473837138
380.0, 0.0027227654036130083
381.0, 0.0019253988830337696
382.0, 0.00030688454433781674
383.0, 0.0008024642540946348
384.0, 0.00040294193000865177
385.0, 0.0005264502717779934
386.0, 0.001570602972416546
387.0, 0.0031822511452231283
388.0, 0.002943891624128568
389.0, 0.001567654689605479
390.0, 0.0021009895284416773
391.0, 0.0006772154926500253
392.0, 0.0023809144623748108
393.0, 0.0033171945377715455
394.0, 0.002181008536510473
395.0, 0.0017659574595101967
396.0, 0.003891811742754704
397.0, 0.0032588132838610364
398.0, 0.0017204417745612752
399.0, 0.0009811379854207172
400.0, 0.00024804196957566
401.0, 0.0012789604262358845
402.0, 0.0010579079173590204
403.0, 0.003141735952028298
404.0, 0.0042078501325269555
405.0, 0.0059200587483998505
406.0, 0.003165972816168251
407.0, 0.002079849943540022
408.0, 0.0027826621377978616
409.0, 0.004103998042898374
410.0, 0.005249225918490541
411.0, 0.0014189997094741637
412.0, 0.003134993735846076
413.0, 0.005796060275523389
414.0, 0.004798149435217662
415.0, 0.003464358383866246
416.0, 0.005945342268998927
417.0, 0.005928333588847204
418.0, 0.004821972379436382
419.0, 0.0043307120021477035
420.0, 0.003768405224352859
421.0, 0.006434189299981451
422.0, 0.004670817335317083
423.0, 0.0027808215700811448
424.0, 0.002781382385910909
425.0, 0.0027983936346387345
426.0, 0.0019221309726719345
427.0, 0.003016363695353466
428.0, 0.004951933750341127
429.0, 0.005396692574547434
430.0, 0.0035976312933308206
431.0, 0.0035173460124769715
432.0, 0.001064203320825704
433.0, 0.000491920552631787
434.0, 0.00016256980235565674
435.0, 0.0009512000311827171
436.0, 0.0006066654295956653
437.0, 0.0007223645913019834
438.0, 0.0009257946679955193
439.0, 0.0015804413370201747
440.0, 7.775866132155783e-05
441.0, 0.000446368447376958
442.0, 0.0021506977118948955
443.0, 0.0010242076696492558
444.0, 0.0009366236151785987
445.0, 0.0006201121575905292
446.0, 0.00126099282824905
447.0, 0.0009072707780653888
448.0, 0.0040423624627688925
449.0, 0.006526723781775956
450.0, 0.0008528906081513342
451.0, 0.0014305653128609717
452.0, 0.0032297009557767237
453.0, 0.0017035073365287998
454.0, 8.730588326091098e-05
455.0, 0.0013865880578736913
456.0, 0.004051268022382524
457.0, 0.005081010704675638
458.0, 0.005445802623301718
459.0, 0.0037507629930033227
460.0, 0.0013309078045731534
461.0, 0.0012306240291487455
462.0, 0.0009142108157838323
463.0, 0.00015132254511029437
464.0, 0.001329090620317542
465.0, 0.0028842685902509555
466.0, 0.0015144216104453904
467.0, 0.0006197632456012437
468.0, 0.000508468314852621
469.0, 0.000381071728559598
470.0, 0.0003510535243688923
471.0, 0.0002623946189692052
472.0, 9.034312450738926e-05
473.0, 0.0005493852132942409
474.0, 0.0006044958484437622
475.0, 7.340804136586647e-05
476.0, 0.0001230336806335784
477.0, 0.0018685827739519793
478.0, 0.0004034545883488213
479.0, 0.0013743514178192028
480.0, 0.0027648514565311185
481.0, 0.004801270001235068
482.0, 0.0030772538972895563
483.0, 0.00023651585585342683
484.0, 0.001715768857699142
485.0, 0.0035692414756856687
486.0, 0.002482765100517085
487.0, 0.00018569575527597999
488.0, 0.0008471031634288421
489.0, 0.0010274127629533113
490.0, 0.00029300579885127446
491.0, 0.001592035748311178
492.0, 0.0011205719857883632
493.0, 0.0023875180176154928
494.0, 0.002531810346009886
495.0, 0.002450606997150824
496.0, 0.0031982096917381017
497.0, 0.004573297130741992
498.0, 0.005477624108424664
499.0, 0.005804354570668912
500.0, 0.007219209325604277
501.0, 0.008115573676616522
502.0, 0.007618482256866671
503.0, 0.006206597532044622
504.0, 0.003848056450014749
505.0, 0.0058956872386898024
506.0, 0.004069594233860473
507.0, 0.0008543037927138137
508.0, 0.0013214449374752307
509.0, 0.0022555978992502925
510.0, 0.0032529342248193574
511.0, 0.0017973190043401538
512.0, 0.002056930556549798
513.0, 0.004077440524447936
514.0, 0.0033881058112987792
515.0, 0.0038442774590504566
516.0, 0.0015488647486464014
517.0, 0.003033606380188488
518.0, 0.005248939667239533
519.0, 0.002775955044682503
520.0, 0.0018813372290149323
521.0, 0.0032600914550945724
522.0, 0.0032941335987900053
523.0, 0.0013172687320639846
524.0, 0.0004518350124668414
525.0, 0.00016354371481087105
526.0, 0.00024798722616759195
527.0, 4.7684247612857416e-05
528.0, 0.0012102868941871695
529.0, 0.0017878015617658455
530.0, 0.0011181544506228868
531.0, 0.001855390336772009
532.0, 0.003453118138760857
533.0, 0.0028050506481205684
534.0, 0.0018006252203038658
535.0, 0.0012241154815395986
536.0, 0.0004303152202349184
537.0, 1.984196446576706e-05
538.0, 0.0006654840226608713
539.0, 0.001729351016103648
540.0, 0.0019075477911653473
541.0, 0.0010504600938065214
542.0, 0.0020240271456099432
543.0, 0.0020730500556487242
544.0, 0.0013550859867620488
545.0, 0.001965699783476155
546.0, 0.0044049089148602725
547.0, 0.006426526384465946
548.0, 0.005997446101564454
549.0, 0.00500509709894234
550.0, 0.004701295732202247
551.0, 0.0049527025850212725
552.0, 0.005099003896070106
553.0, 0.004871062102503294
554.0, 0.00433819769432064
555.0, 0.0031523124787809415
556.0, 0.0023195945600134158
557.0, 0.0021227721189843274
558.0, 0.0022118807338625604
559.0, 0.005278267165000392
560.0, 0.004289439927745501
561.0, 0.0033166781942384487
562.0, 0.0036132162733861664
563.0, 0.003661933736654177
564.0, 0.004253228061679886
565.0, 0.004395924938083167
566.0, 0.003339301770695437
567.0, 0.005453706404858143
568.0, 0.007649307885348706
569.0, 0.004118653490153548
570.0, 0.005207418414271988
571.0, 0.005310993266871049
572.0, 0.0038146838236023995
573.0, 0.004164027079672348
574.0, 0.005706043913110122
575.0, 0.003330138243260052
576.0, 0.0050739524679139945
577.0, 0.00541965541655476
578.0, 0.004223534191083021
579.0, 0.004313117546289995
580.0, 0.006748330536042712
581.0, 0.008042955004030931
582.0, 0.006468033121634728
583.0, 0.006431352307705009
584.0, 0.005708038623656236
585.0, 0.005655517649942287
586.0, 0.009777858416657405
587.0, 0.01063143004499267
588.0, 0.0063743619220137035
589.0, 0.0037823978663025755
590.0, 0.004356495372933375
591.0, 0.004864065861267434
592.0, 0.0029266233961996488
593.0, 0.005835835823899318
594.0, 0.007858878213542001
595.0, 0.006880951684907311
596.0, 0.0037954728548817928
597.0, 0.0018647340650974323
598.0, 0.004237028661464969
599.0, 0.004909284304841678
600.0, 0.004698761165275272
601.0, 0.0033650610577728238
602.0, 0.0029398522240353083
603.0, 0.004496138605037436
604.0, 0.0037133624949242027
605.0, 0.0046484978872421805
606.0, 0.0060580257509442355
607.0, 0.006623516393742294
608.0, 0.005574100118951403
609.0, 0.0032790791229026332
610.0, 0.0022404733831522896
611.0, 0.0005044254644908857
612.0, 0.0007299831645275342
613.0, 0.001498919253211337
614.0, 0.0003192045190841847
615.0, 0.00019385229873047227
616.0, 0.0002834391783414501
617.0, 0.0013346589527897627
618.0, 0.0004966105907051651
619.0, 0.0005866254414630252
620.0, 0.0003235575364767533
621.0, 0.0023523214574321717
622.0, 0.0034218394155048643
623.0, 0.003011433589320338
624.0, 0.00303196042704447
625.0, 0.0035922073990170386
626.0, 0.00436861446242201
627.0, 0.005059741705414358
628.0, 0.0030781531991562142
629.0, 0.003226023653459797
630.0, 0.00468277882050392
631.0, 0.005051817448482544
632.0, 0.004966124710497555
633.0, 0.00649445052918048
634.0, 0.003337998289820463
635.0, 0.004872926355365438
636.0, 0.005044100913783344
637.0, 0.0027918487713195807
638.0, 0.00063535370847891
639.0, 0.0003850503273703843
640.0, 0.00044221509955974194
641.0, 0.0002119943569382374
642.0, 0.00023599942404388963
643.0, 0.0005926279925957947
644.0, 0.001504006587331395
645.0, 0.004090977142048961
646.0, 0.0008083244948563697
647.0, 0.00040651443483797364
648.0, 0.0015469672864575168
649.0, 0.0015214940182515636
650.0, 5.1668905749454e-05
651.0, 0.0008186212163249938
652.0, 0.0005487945901450967
653.0, 0.00026312620765464004
654.0, 0.0018895202747348841
655.0, 0.0025158784807187288
656.0, 0.001685320203881601
657.0, 0.002655978316753113
658.0, 0.0039744025293278465
659.0, 0.004661543548844496
660.0, 0.004000282370186316
661.0, 0.0031401166557916793
662.0, 0.003162929200922033
663.0, 0.0036068536702837705
664.0, 0.004439087162652885
665.0, 0.0050790145893377025
666.0, 0.00428204937011612
667.0, 0.0029473423503325468
668.0, 0.001935503896622927
669.0, 0.0014399448056503625
670.0, 0.004173640904531353
671.0, 0.0010292834354285688
672.0, 0.0004672040310475342
673.0, 0.0027895572042308057
674.0, 0.004861232348910696
675.0, 0.0048031559415137
676.0, 0.002825347693167903
677.0, 6.250956812434605e-05
678.0, 0.0006138881934588474
679.0, 0.0002773404134417381
680.0, 0.0010719202260667257
681.0, 0.002069361503159757
682.0, 0.0012983765324267034
683.0, 0.0018010760279139916
684.0, 0.0014600854232079208
685.0, 0.00043630344298421585
686.0, 0.0019684264217320617
687.0, 0.006784027814409242
688.0, 0.009170359415329439
689.0, 0.009596328340490116
690.0, 0.005220460600748885
691.0, 0.0029464396599881634
692.0, 0.00394503450932432
693.0, 0.00426257152373824
694.0, 0.0028586983740677236
695.0, 0.004273013807003308
696.0, 0.009453632597649768
697.0, 0.013079708269764517
698.0, 0.012171978655950298
699.0, 0.011272496599392244
700.0, 0.01677948602797824
701.0, 0.01766888318464571
702.0, 0.01865295490399819
703.0, 0.020176380363271514
704.0, 0.021781249177485935
705.0, 0.023004828127564287
706.0, 0.023971182476039077
707.0, 0.02741428495235382
708.0, 0.02827985259396232
709.0, 0.027052425777154512
710.0, 0.028556144586495462
711.0, 0.03280731026364393
712.0, 0.03634469529799013
713.0, 0.03923040083362584
714.0, 0.040789169520122986
715.0, 0.0375515489132801
716.0, 0.038154050296027996
717.0, 0.03669289120186593
718.0, 0.029301238663271542
719.0, 0.024384587667713228
720.0, 0.01889707034061474
721.0, 0.015975012033071296
722.0, 0.01213848246716277
723.0, 0.00913805448416654
724.0, 0.007656302199029734
725.0, 0.00586502061293957
726.0, 0.004800103612946689
727.0, 0.004969841839733771
728.0, 0.007053521339269607
729.0, 0.006433719235658253
730.0, 0.0033970985754916963
731.0, 0.0017203605243296723
732.0, 0.0030136715219833635
733.0, 0.0014399766389417597
734.0, 0.004084514279041315
735.0, 0.005042050995027194
736.0, 0.0038253240051438595
737.0, 0.0039822777343674785
738.0, 0.00518622114733639
739.0, 0.0029568411206704203
740.0, 0.00851757963867336
741.0, 0.008586496903568922
742.0, 0.007346730910812904
743.0, 0.00559352942612879
744.0, 0.003593906337001822
745.0, 0.006059527507795291
746.0, 0.00594636176216393
747.0, 0.003789742215401186
748.0, 0.0013451323454043672
749.0, 0.00015920593275532477
750.0, 0.00020758796618993553
751.0, 0.0005014764714553372
752.0, 0.00018721296491438025
753.0, 0.0007098450653089723
754.0, 0.0002720535612203207
755.0, 0.0007699477105935681
756.0, 0.002084059659213923
757.0, 0.0023339553737822057
758.0, 0.0029584805774714278
759.0, 0.002446848532516701
760.0, 0.004705585401038315
761.0, 0.0050666795333362945
762.0, 0.00403875406707918
763.0, 0.004251725068729562
764.0, 0.004558513020888843
765.0, 0.0019123245667874952
766.0, 0.0030676971857389844
767.0, 0.0005854775960482729
768.0, 0.00030506738451170515
769.0, 0.00012217940234626854
770.0, 0.00010234131291545088
771.0, 0.001408220363835839
772.0, 0.0029479543849165128
773.0, 0.0005279079629810105
774.0, 0.001806288491467245
775.0, 0.0014450549805543303
776.0, 0.00043242872530223266
777.0, 0.0005388272714393646
778.0, 0.00040730521105555845
779.0, 0.0018734103957084654
780.0, 0.0047128927310684824
781.0, 0.002099432725411
782.0, 0.0036403831124271085
783.0, 0.005651837540926068
784.0, 0.004729006235345475
785.0, 0.0076607278698633645
786.0, 0.007911940506574577
787.0, 0.005224756323419376
788.0, 0.004655616958275774
789.0, 0.005149634346219145
790.0, 0.004088159575198829
791.0, 0.0029013094545495333
792.0, 0.00493024095502873
793.0, 0.002405832274371755
794.0, 0.0032676508869798815
795.0, 0.002088330391321731
796.0, 0.0001918200436413358
797.0, 0.0005012500313305506
798.0, 0.0004498830653991541
799.0, 0.0002218691327642685
800.0, 0.00011706866739362502
801.0, 0.001783610994920329
802.0, 0.002666099518961258
803.0, 0.002608239819506924
804.0, 0.003515788022613612
805.0, 0.005469993096774305
806.0, 0.005297670614848484
807.0, 0.0025913882430680848
808.0, 0.003438718573396181
809.0, 0.005333664882879201
810.0, 0.007070235995934758
811.0, 0.004424770348619007
812.0, 0.0006166764007950935
813.0, 0.004366471980161853
814.0, 0.0026137535302136507
815.0, 0.0008485436273212895
816.0, 0.0010303521820064511
817.0, 0.0002491508900348404
818.0, 0.0021966120146430426
819.0, 0.00121976426087693
820.0, 0.0015559336846034625
821.0, 0.0022471931573621877
822.0, 0.0018759088859532048
823.0, 0.0007447680699863185
824.0, 0.0032069340025371955
825.0, 0.003944943913100653
826.0, 1.64800636728125e-05
827.0, 0.0009242734186609475
828.0, 0.004398367509754964
829.0, 0.007668003310607715
830.0, 0.0049691402668108195
831.0, 0.004945032589714764
832.0, 0.006685367191194582
833.0, 0.004195231743252659
834.0, 0.0014990577887960877
835.0, 0.004887406613390479
836.0, 0.004292030111399577
837.0, 0.0007511452387930516
838.0, 0.0008320530646682726
839.0, 0.004638292405562689
840.0, 0.006043773484414542
841.0, 0.007077982274768003
842.0, 0.005754957036931904
843.0, 0.006381923946620411
844.0, 0.004922401393814639
845.0, 0.0031528019521715987
846.0, 0.002727596819304683
847.0, 0.002696633469431198
848.0, 0.0023496909445111496
849.0, 0.002862291376436827
850.0, 0.0024302788815726145
851.0, 0.0007602894227728402
852.0, 0.0034485777772694467
853.0, 0.003944067765726079
854.0, 0.0026555862950714427
855.0, 0.0038879059466611888
856.0, 0.004241927294237171
857.0, 0.0060435940951636775
858.0, 0.003192663477033489
859.0, 0.00047544832805967893
860.0, 0.0011013986615634774
861.0, 0.002424180911977203
862.0, 0.0013197900121052
863.0, 0.0003075049197846519
864.0, 0.00039893662353189605
865.0, 0.0001015425840952975
866.0, 0.0023226812542714533
867.0, 0.0013422462215697396
868.0, 0.000924817001599139
869.0, 0.0028607063740932115
870.0, 0.003960947933075278
871.0, 0.003264962947166726
872.0, 0.00358054963381534
873.0, 0.004737579359705107
874.0, 0.002240042510554654
875.0, 0.0014049209492960559
876.0, 0.0004652867094195159
877.0, 0.0003636872405384195
878.0, 0.0003883122338713663
879.0, 0.0007416531419512848
880.0, 0.0012945792579636128
881.0, 0.003686481105150665
882.0, 0.000568634225304359
883.0, 0.0009868344442057293
884.0, 0.0041290465724334
885.0, 0.00267250913386488
886.0, 0.002819092105681588
887.0, 0.0025140749829078136
888.0, 0.003130438380480522
889.0, 0.005153970157191904
890.0, 0.0032591842795939257
891.0, 0.003820738095384482
892.0, 0.006538378445502889
893.0, 0.003968239773003823
894.0, 0.0036697378336533466
895.0, 0.0037569449200912106
896.0, 0.00532039083943428
897.0, 0.005418369213311295
898.0, 0.004775956270763899
899.0, 0.005123834198924826
900.0, 0.0064949197503031235
901.0, 0.007627239954954638
902.0, 0.008184516884625546
903.0, 0.008098436190954234
904.0, 0.006577048933279511
905.0, 0.00622076508404098
906.0, 0.005667865769053202
907.0, 0.0038144615347442557
908.0, 0.002758594623848992
909.0, 0.004849998736138974
910.0, 0.004787667340223162
911.0, 0.0037208155562669896
912.0, 0.005956110057772329
913.0, 0.007237252326007345
914.0, 0.006587434843408158
915.0, 0.007833164860905071
916.0, 0.01045707154291141
917.0, 0.008738842840853977
918.0, 0.007238544050181161
919.0, 0.008850103790289596
920.0, 0.004976370043852967
921.0, 0.005384474646865365
922.0, 0.005447988406455254
923.0, 0.003335054011579186
924.0, 0.0036002106326060404
925.0, 0.003869905840952862
926.0, 0.005076918226184928
927.0, 0.0021581072967533526
928.0, 0.0009951247670974073
929.0, 0.0002588000638178739
930.0, 0.000386020993607697
931.0, 0.001209475711682448
932.0, 0.0015243004760366829
933.0, 0.00040318848750045685
934.0, 0.0034435329549009973
935.0, 0.00229593059144923
936.0, 0.0024652295606458676
937.0, 0.00562751880925337
938.0, 0.006482398262959778
939.0, 0.005687608121066985
940.0, 0.006004104462261962
941.0, 0.0033735076229652774
942.0, 0.004612873851925014
943.0, 0.003343520883226786
944.0, 0.0024455862352481426
945.0, 0.003349206481496192
946.0, 0.004676202463787926
947.0, 0.004342003264726637
948.0, 0.0021944252270653455
949.0, 0.0010354563873387116
950.0, 0.0011688217893120157
951.0, 0.0006589754379169572
952.0, 0.0019448496213608454
953.0, 0.0014485764970238386
954.0, 0.00021971646266202955
955.0, 0.00038113911024216843
956.0, 9.177933935573514e-05
957.0, 0.0003777179686064159
958.0, 0.00043013285467373056
959.0, 2.0977562868874562e-05
960.0, 0.004385872101696549
961.0, 0.0026414669379306865
962.0, 0.0012609461514919821
963.0, 0.0014851485251605621
964.0, 0.0022042774100715433
965.0, 0.0044780378545922934
966.0, 0.002251994138097484
967.0, 0.00038088421755573244
968.0, 0.003728944358247862
969.0, 0.003136620380110763
970.0, 0.001114788328814471
971.0, 0.0022766309962692966
972.0, 0.00651944641405279
973.0, 0.009639196460970497
974.0, 0.008489550434150893
975.0, 0.009305877202241096
976.0, 0.010922714437500041
977.0, 0.011084632248494949
978.0, 0.012626494219265845
979.0, 0.010711583997866415
980.0, 0.010859657630726468
981.0, 0.013001403641206624
982.0, 0.009494575998945345
983.0, 0.007680867798607962
984.0, 0.006897970117403717
985.0, 0.007452999654712308
986.0, 0.006946296535680838
987.0, 0.00766632258709394
988.0, 0.006694328984971809
989.0, 0.006157394354416519
990.0, 0.006336109013521192
991.0, 0.003974906328111823
992.0, 0.006072896770601362
993.0, 0.004604803226919493
994.0, 0.00493773252716473
995.0, 0.0024071607576401505
996.0, 0.0036678847804429812
997.0, 0.006155917173888127
998.0, 0.005400670347987149
999.0, 0.004715658426661066
1000.0, 0.007992805024532621
1001.0, 0.011254093252691503
1002.0, 0.0051334404086013875
1003.0, 0.005309882509338955
1004.0, 0.003621884158691404
1005.0, 0.002828008193258962
1006.0, 0.002699288053693709
1007.0, 0.00197286385482768
1008.0, 0.002257769869665155
1009.0, 0.0022381530435541712
1010.0, 0.0016627404282271495
1011.0, 0.005183449490258397
1012.0, 0.003653959256619967
1013.0, 0.00032151576456707244
1014.0, 0.0003987962735774167
1015.0, 0.0009964316554156565
1016.0, 0.00016390289628678023
1017.0, 0.0004147173166116646
1018.0, 0.0001841539750446959
1019.0, 0.0017277606125575896
1020.0, 0.001823641283876292
1021.0, 0.005572590825009987
1022.0, 0.003983449974435319
1023.0, 0.002142460066796233
1024.0, 0.0010759158269380137
1025.0, 0.0005895406765788289
1026.0, 0.000292755678099355
1027.0, 0.000415898733005801
1028.0, 0.0005309422310944111
1029.0, 0.0002587214379337002
1030.0, 0.00017143207567279608
1031.0, 0.0020302109972900394
1032.0, 0.0033118400443714283
1033.0, 0.001969422619348175
1034.0, 0.00031323265299323694
1035.0, 0.00035372776109512
1036.0, 0.0011603132203930138
1037.0, 0.003555158514886679
1038.0, 0.0017060077342169035
1039.0, 0.00022064014573337426
1040.0, 0.0006777653110544308
1041.0, 0.0008232733030989545
1042.0, 0.001072472839138643
1043.0, 0.000502050228541807
1044.0, 0.003720664600467611
1045.0, 0.003410600242623881
1046.0, 0.008906545349779492
1047.0, 0.003635416667600762
1048.0, 0.0038221573588464197
1049.0, 0.00563845581904004
1050.0, 0.004870208700467294
1051.0, 0.004963412539074626
1052.0, 0.0037269419332264927
1053.0, 0.002414743794891908
1054.0, 0.003951842908800616
1055.0, 0.0025642108362658547
1056.0, 0.0011692248860631998
1057.0, 0.00022158478534295626
1058.0, 0.0021088722569645216
1059.0, 0.0006645942142896606
1060.0, 0.001407943071972912
1061.0, 0.0019372109942450508
1062.0, 0.0016996007781805327
1063.0, 0.004383068533332974
1064.0, 0.005705902121691439
1065.0, 0.0032258999059946105
1066.0, 0.007584944310650479
1067.0, 0.008841106659458007
1068.0, 0.007582899411862323
1069.0, 0.00914577846830139
1070.0, 0.010273696447794982
1071.0, 0.012279714540909504
1072.0, 0.012220018386190587
1073.0, 0.007399122583930028
1074.0, 0.004892491871137455
1075.0, 0.00492032350290987
1076.0, 0.00687456860962315
1077.0, 0.007057748087347954
1078.0, 0.002837757934705005
1079.0, 0.0024679598643886085
1080.0, 0.0019143399328044597
1081.0, 0.0008251514568452473
1082.0, 0.0014858147363297101
1083.0, 0.0024807550462784475
1084.0, 0.003950491952859452
1085.0, 0.008726322891640076
1086.0, 0.007822682596341536
1087.0, 0.0113297537649974
1088.0, 0.016600463806337833
1089.0, 0.017148364701969142
1090.0, 0.01895642890707841
1091.0, 0.019918972875096946
1092.0, 0.021479832969162744
1093.0, 0.02832869692107681
1094.0, 0.035274078537538216
1095.0, 0.04173020524866752
1096.0, 0.05001236491029897
1097.0, 0.057878803305706016
1098.0, 0.06774810557956903
1099.0, 0.07816782352620827
1100.0, 0.09244608808860202
1101.0, 0.11459399005266858
1102.0, 0.1423391657285582
1103.0, 0.1822839183342731
1104.0, 0.2461085954054462
1105.0, 0.31729260239936863
1106.0, 0.36522101790909367
1107.0, 0.39283116351214553
1108.0, 0.40412574137629764
1109.0, 0.42810867010043835
1110.0, 0.4644542750730947
1111.0, 0.5246912021321444
1112.0, 0.6102629192044297
1113.0, 0.7158749956547004
1114.0, 0.8498392182578441
1115.0, 0.9822540442510941
1116.0, 0.9540400042893303
1117.0, 0.6782299854765609
1118.0, 0.3867559008990221
1119.0, 0.20579694796535866
1120.0, 0.1161359004487725
1121.0, 0.07226974288261614
1122.0, 0.050283222582204426
1123.0, 0.03635317599522144
1124.0, 0.025086607672514045
1125.0, 0.020180341385467603
1126.0, 0.016558808043176252
1127.0, 0.01598643357751956
1128.0, 0.016651165523667483
1129.0, 0.012512669606735026
1130.0, 0.01107130190441425
1131.0, 0.008286536399923924
1132.0, 0.008001417690459502
1133.0, 0.011750026551413
1134.0, 0.01179232068765394
1135.0, 0.007702115776573334
1136.0, 0.006363521003601496
1137.0, 0.001325014754611286
1138.0, 0.004593984426585883
1139.0, 0.0009569795477366534
1140.0, 0.0035318155507786846
1141.0, 0.003633647845694074
1142.0, 0.0011116803401645763
1143.0, 0.0026757764841891093
1144.0, 0.004777098407821369
1145.0, 0.006804305793451268
1146.0, 0.010283623502329841
1147.0, 0.009179915070304613
1148.0, 0.0067583059878958615
1149.0, 0.009942034742498027
1150.0, 0.008905742887610927
1151.0, 0.0055767286602130435
1152.0, 0.0056872461258626935
1153.0, 0.003991424082331403
1154.0, 0.002730826088066762
1155.0, 0.001080168779690359
1156.0, 0.0009064972735704222
1157.0, 0.0003531980400114543
1158.0, 0.0008807959417271357
1159.0, 0.00016430870367219058
1160.0, 0.000672194489594232
1161.0, 0.0022584950886886273
1162.0, 7.8233549733969e-05
1163.0, 0.0010880703347610793
1164.0, 0.0005646282572005023
1165.0, 0.0020831269957353265
1166.0, 0.005039775483486788
1167.0, 0.004889450413290472
1168.0, 0.002094031811196243
1169.0, 0.001088264473112818
1170.0, 0.0012656339983453716
1171.0, 0.0020805443202610422
1172.0, 0.0020838909345145297
1173.0, 0.0004798521928396496
1174.0, 0.005523502629616816
1175.0, 0.002982119089154375
1176.0, 0.0073643673549545745
1177.0, 0.005491429587482066
1178.0, 0.0005644039821767659
1179.0, 0.0005401651848496253
1180.0, 3.6786746187066844e-05
1181.0, 0.00037805478250147156
1182.0, 0.0001320687506503459
1183.0, 0.0004381607422432746
1184.0, 0.00038796866728669984
1185.0, 0.003359017379891188
1186.0, 0.0006543391489090219
1187.0, 0.003917746466185242
1188.0, 0.0054210292840278
1189.0, 0.002255654083993275
1190.0, 0.002796506955519234
1191.0, 0.005990852866458263
1192.0, 0.00649473644429409
1193.0, 0.0066119615912002055
1194.0, 0.0046638551782577494
1195.0, 0.003865959701516687
1196.0, 0.004475025341316727
1197.0, 0.005731337613358975
1198.0, 0.00920989386653496
1199.0, 0.006516942830869065
1200.0, 0.006118349750254857
1201.0, 0.009959596888964478
1202.0, 0.009380338749967802
1203.0, 0.005095817391995338
1204.0, 0.005052652769294333
1205.0, 0.007898681318418772
1206.0, 0.00706113204506922
1207.0, 0.008563948392906504
1208.0, 0.0063937166659349615
1209.0, 0.004406764086252753
1210.0, 0.005523722588049643
1211.0, 0.007413844579114319
1212.0, 0.007380753426059505
1213.0, 0.00971516136798312
1214.0, 0.007510518627950367
1215.0, 0.005616034628009397
1216.0, 0.005956579660692287
1217.0, 0.005636196685794923
1218.0, 0.008022081143137282
1219.0, 0.0076686489948425045
1220.0, 0.00770074881182137
1221.0, 0.005941914801606962
1222.0, 0.005599515891973442
1223.0, 0.00800287058394204
1224.0, 0.010237590729211153
1225.0, 0.012138611019388153
1226.0, 0.009501140413959086
1227.0, 0.006239777941916784
1228.0, 0.005378274596822899
1229.0, 0.004043428648861541
1230.0, 0.003884623947012397
1231.0, 0.007464829022694713
1232.0, 0.00689781436974598
1233.0, 0.006925977916290968
1234.0, 0.004806797961590371
1235.0, 0.0038374972899798783
1236.0, 0.0038876036417553484
1237.0, 0.0042679992462595785
1238.0, 0.0006764755381966936
1239.0, 0.00024514053909365863
1240.0, 0.00022866086078533748
1241.0, 0.0003254606591919632
1242.0, 0.00021448828836089835
1243.0, 0.001044038649561535
1244.0, 0.00128103306821415
1245.0, 0.0025049700303711475
1246.0, 0.0009801682247992352
1247.0, 0.005988680266589269
1248.0, 0.0020727127646854074
1249.0, 0.0032005521800278613
1250.0, 0.003923040775300707
1251.0, 0.005132273546882739
1252.0, 0.0012931187215158876
1253.0, 6.142360061406301e-05
1254.0, 0.005567099056599717
1255.0, 0.007554583562881571
1256.0, 0.005346500529464122
1257.0, 0.0036761533705280823
1258.0, 0.0015117970553595666
1259.0, 0.002883171219375615
1260.0, 0.00587403067819485
1261.0, 0.003262273523780212
1262.0, 0.005904948505806025
1263.0, 0.007528384571234612
1264.0, 0.007222068691590937
1265.0, 0.006549452403923851
1266.0, 0.007389520943721436
1267.0, 0.009629061401706265
1268.0, 0.012356083484406663
1269.0, 0.014055741337898511
1270.0, 0.015292716088806104
1271.0, 0.014137255676494116
1272.0, 0.010917606293862962
1273.0, 0.010130873342735942
1274.0, 0.008557513890383187
1275.0, 0.009717401089235892
1276.0, 0.005484518229451271
1277.0, 0.004623826614439602
1278.0, 0.005190833032481026
1279.0, 0.002967320807891889
1280.0, 0.003605598720138666
1281.0, 0.003703263958882103
1282.0, 0.0004439032633813023
1283.0, 3.698771140370639e-05
1284.0, 0.005264696711797395
1285.0, 0.007574807219624105
1286.0, 0.006171382104332786
1287.0, 0.007251772708217538
1288.0, 0.002026936091086437
1289.0, 0.0028276210267993303
1290.0, 0.0036809595356964947
1291.0, 0.001714405190546065
1292.0, 0.00019635988528888702
1293.0, 0.00021340334861441726
1294.0, 0.0055250523008941975
1295.0, 0.0051073342271243435
1296.0, 0.0037494035606295342
1297.0, 0.003270673462148533
1298.0, 0.003481278141601767
1299.0, 0.0013823863299254665
1300.0, 0.0009571505828807902
1301.0, 0.002497711895608479
1302.0, 0.00048670213314338097
1303, 0.0
1304, 0.0
1305, 0.0
1306, 0.0
1307, 0.0
1308, 0.0
1309, 0.0
1310, 0.0
1311, 0.0
1312, 0.0
1313, 0.0
1314, 0.0
1315, 0.0
1316, 0.0
1317, 0.0
1318, 0.0
1319, 0.0
1320, 0.0
1321, 0.0
1322, 0.0
1323, 0.0
1324, 0.0
1325, 0.0
1326, 0.0
1327, 0.0
1328, 0.0
1329, 0.0
1330, 0.0
1331, 0.0
1332, 0.0
1333, 0.0
1334, 0.0
1335, 0.0
1336, 0.0
1337, 0.0
1338, 0.0
1339, 0.0
1340, 0.0
1341, 0.0
1342, 0.0
1343, 0.0
1344, 0.0
1345, 0.0
1346, 0.0
1347, 0.0
1348, 0.0
1349, 0.0
1350, 0.0
1351, 0.0
1352, 0.0
1353, 0.0
1354, 0.0
1355, 0.0
1356, 0.0
1357, 0.0
1358, 0.0
1359, 0.0
1360, 0.0
1361, 0.0
1362, 0.0
1363, 0.0
1364, 0.0
1365, 0.0
1366, 0.0
1367, 0.0
1368, 0.0
1369, 0.0
1370, 0.0
1371, 0.0
1372, 0.0
1373, 0.0
1374, 0.0
1375, 0.0
1376, 0.0
1377, 0.0
1378, 0.0
1379, 0.0
1380, 0.0
1381, 0.0
1382, 0.0
1383, 0.0
1384, 0.0
1385, 0.0
1386, 0.0
1387, 0.0
1388, 0.0
1389, 0.0
1390, 0.0
1391, 0.0
1392, 0.0
1393, 0.0
1394, 0.0
1395, 0.0
1396, 0.0
1397, 0.0
1398, 0.0
1399, 0.0
1400, 0.0
1401, 0.0
1402, 0.0
1403, 0.0
1404, 0.0
1405, 0.0
1406, 0.0
1407, 0.0
1408, 0.0
1409, 0.0
1410, 0.0
1411, 0.0
1412, 0.0
1413, 0.0
1414, 0.0
1415, 0.0
1416, 0.0
1417, 0.0
1418, 0.0
1419, 0.0
1420, 0.0
1421, 0.0
1422, 0.0
1423, 0.0
1424, 0.0
1425, 0.0
1426, 0.0
1427, 0.0
1428, 0.0
1429, 0.0
1430, 0.0
1431, 0.0
1432, 0.0
1433, 0.0
1434, 0.0
1435, 0.0
1436, 0.0
1437, 0.0
1438, 0.0
1439, 0.0
1440, 0.0
1441, 0.0
1442, 0.0
1443, 0.0
1444, 0.0
1445, 0.0
1446, 0.0
1447, 0.0
1448, 0.0
1449, 0.0
1450, 0.0
1451, 0.0
1452, 0.0
1453, 0.0
1454, 0.0
1455, 0.0
1456, 0.0
1457, 0.0
1458, 0.0
1459, 0.0
1460, 0.0
1461, 0.0
1462, 0.0
1463, 0.0
1464, 0.0
1465, 0.0
1466, 0.0
1467, 0.0
1468, 0.0
1469, 0.0
1470, 0.0
1471, 0.0
1472, 0.0
1473, 0.0
1474, 0.0
1475, 0.0
1476, 0.0
1477, 0.0
1478, 0.0
1479, 0.0
1480, 0.0
1481, 0.0
1482, 0.0
1483, 0.0
1484, 0.0
1485, 0.0
1486, 0.0
1487, 0.0
1488, 0.0
1489, 0.0
1490, 0.0
1491, 0.0
1492, 0.0
1493, 0.0
1494, 0.0
1495, 0.0
1496, 0.0
1497, 0.0
1498, 0.0
1499, 0.0
1500, 0.0
1501, 0.0
1502, 0.0
1503, 0.0
1504, 0.0
1505, 0.0
1506, 0.0
1507, 0.0
1508, 0.0
1509, 0.0
1510, 0.0
1511, 0.0
1512, 0.0
1513, 0.0
1514, 0.0
1515, 0.0
1516, 0.0
1517, 0.0
1518, 0.0
1519, 0.0
1520, 0.0
1521, 0.0
1522, 0.0
1523, 0.0
1524, 0.0
1525, 0.0
1526, 0.0
1527, 0.0
1528, 0.0
1529, 0.0
1530, 0.0
1531, 0.0
1532, 0.0
1533, 0.0
1534, 0.0
1535, 0.0
1536, 0.0
1537, 0.0
1538, 0.0
1539, 0.0
1540, 0.0
1541, 0.0
1542, 0.0
1543, 0.0
1544, 0.0
1545, 0.0
1546, 0.0
1547, 0.0
1548, 0.0
1549, 0.0
1550, 0.0
1551, 0.0
1552, 0.0
1553, 0.0
1554, 0.0
1555, 0.0
1556, 0.0
1557, 0.0
1558, 0.0
1559, 0.0
1560, 0.0
1561, 0.0
1562, 0.0
1563, 0.0
1564, 0.0
1565, 0.0
1566, 0.0
1567, 0.0
1568, 0.0
1569, 0.0
1570, 0.0
1571, 0.0
1572, 0.0
1573, 0.0
1574, 0.0
1575, 0.0
1576, 0.0
1577, 0.0
1578, 0.0
1579, 0.0
1580, 0.0
1581, 0.0
1582, 0.0
1583, 0.0
1584, 0.0
1585, 0.0
1586, 0.0
1587, 0.0
1588, 0.0
1589, 0.0
1590, 0.0
1591, 0.0
1592, 0.0
1593, 0.0
1594, 0.0
1595, 0.0
1596, 0.0
1597, 0.0
1598, 0.0
1599, 0.0
