30, 0.0
31, 0.0
32, 0.0
33, 0.0
34, 0.0
35, 0.0
36, 0.0
37, 0.0
38, 0.0
39, 0.0
40, 0.0
41, 0.0
42, 0.0
43, 0.0
44, 0.0
45, 0.0
46, 0.0
47, 0.0
48, 0.0
49, 0.0
50, 0.0
51, 0.0
52, 0.0
53, 0.0
54, 0.0
55, 0.0
56, 0.0
57, 0.0
58, 0.0
59, 0.0
60, 0.0
61, 0.0
62, 0.0
63, 0.0
64, 0.0
65, 0.0
66, 0.0
67, 0.0
68, 0.0
69, 0.0
70, 0.0
71, 0.0
72, 0.0
73, 0.0
74, 0.0
75, 0.0
76, 0.0
77, 0.0
78, 0.0
79, 0.0
80, 0.0
81, 0.0
82, 0.0
83, 0.0
84, 0.0
85, 0.0
86, 0.0
87, 0.0
88, 0.0
89, 0.0
90, 0.0
91, 0.0
92, 0.0
93, 0.0
94, 0.0
95, 0.0
96, 0.0
97, 0.0
98, 0.0
99, 0.0
100, 0.0
101, 0.0
102, 0.0
103, 0.0
104, 0.0
105, 0.0
106, 0.0
107, 0.0
108, 0.0
109, 0.0
110, 0.0
111, 0.0
112, 0.0
113, 0.0
114, 0.0
115, 0.0
116, 0.0
117, 0.0
118, 0.0
119, 0.0
120, 0.0
121, 0.0
122, 0.0
123, 0.0
124, 0.0
125, 0.0
126, 0.0
127, 0.0
128, 0.0
129.0, 0.0007532447233606677
130.0, 0.0025681913351344645
131.0, 0.007898466122606966
132.0, 0.009186269945031168
133.0, 0.0009011224143914162
134.0, 0.0012937949227529474
135.0, 0.0015448261712459593
136.0, 0.004761420188912351
137.0, 0.0014135261068247474
138.0, 0.0021243942404663226
139.0, 0.006451297893469372
140.0, 0.010414681154415418
141.0, 0.009900787651969258
142.0, 0.005628216831259349
143.0, 0.00548516556720098
144.0, 0.013613443232736777
145.0, 0.026285009384035007
146.0, 0.03102883680696402
147.0, 0.03081421086215287
148.0, 0.03547155816627728
149.0, 0.047570469742641106
150.0, 0.05060068583399163
151.0, 0.06258969219203257
152.0, 0.07513482897644126
153.0, 0.08118409627520728
154.0, 0.08957976360215013
155.0, 0.10023878510837698
156.0, 0.10874356165978649
157.0, 0.11724201212427433
158.0, 0.1309425718356075
159.0, 0.14195919776262325
160.0, 0.14244400062981558
161.0, 0.13908112207732584
162.0, 0.13901836512880347
163.0, 0.13474899939313284
164.0, 0.1234656120919115
165.0, 0.11471592036608083
166.0, 0.11180467034347052
167.0, 0.10551987722993388
168.0, 0.09436064854846159
169.0, 0.08229948940282626
170.0, 0.0755389022512331
171.0, 0.08125529762016476
172.0, 0.061760380329074424
173.0, 0.04947033327032498
174.0, 0.04757031048228928
175.0, 0.03900468580431485
176.0, 0.022650498122349233
177.0, 0.02912875940890727
178.0, 0.03643530160081658
179.0, 0.02583310147234867
180.0, 0.022763522740606095
181.0, 0.02932837624765844
182.0, 0.02788342408858009
183.0, 0.024124903793022047
184.0, 0.04250817650613915
185.0, 0.040323929510203325
186.0, 0.04238646610033166
187.0, 0.048832129052355504
188.0, 0.04773351834611574
189.0, 0.04929587769126603
190.0, 0.05469705736196617
191.0, 0.06325301602201279
192.0, 0.07189808885730352
193.0, 0.07583865881549015
194.0, 0.0870371110524904
195.0, 0.09797335520301576
196.0, 0.10610864653091974
197.0, 0.11678420090700585
198.0, 0.12332147025605243
199.0, 0.13592317454354116
200.0, 0.15164045725027497
201.0, 0.16555343292787814
202.0, 0.1824609793643433
203.0, 0.1970739006193578
204.0, 0.2062835154525386
205.0, 0.21467773518868896
206.0, 0.23026402605250101
207.0, 0.23629296528258698
208.0, 0.24389224261642087
209.0, 0.252521577340904
210.0, 0.25370865512441926
211.0, 0.24642632974985818
212.0, 0.234269875108185
213.0, 0.21553485263487893
214.0, 0.19241411996696778
215.0, 0.1723213699771274
216.0, 0.14820192023060355
217.0, 0.12616654856749418
218.0, 0.10805431344648027
219.0, 0.0909559362171219
220.0, 0.06649603064495457
221.0, 0.09554504588064984
222.0, 0.10143032494608739
223.0, 0.05482687159867881
224.0, 0.027082922191871413
225.0, 0.0231605017882942
226.0, 0.019358681623226362
227.0, 0.012650558166108852
228.0, 0.013098475108014124
229.0, 0.009739940180518368
230.0, 0.008063202014477347
231.0, 0.005149889862085502
232.0, 0.0009411843251976184
233.0, 0.007010943168686911
234.0, 0.006065014179260057
235.0, 0.008702266640383791
236.0, 0.012448634531754932
237.0, 0.007344716259764605
238.0, 0.010976643379261405
239.0, 0.005047715871211633
240.0, 0.0020033284856645107
241.0, 0.009985564103162654
242.0, 0.016460977929000968
243.0, 0.010948843597352145
244.0, 0.010117083935584055
245.0, 0.011077770200466125
246.0, 0.006340953832250799
247.0, 0.0118943048715471
248.0, 0.019990060909682666
249.0, 0.02301734080733725
250.0, 0.023402022394707452
251.0, 0.03088445860890667
252.0, 0.034802808649991544
253.0, 0.03261642132942736
254.0, 0.03014175653996183
255.0, 0.033199989781750365
256.0, 0.03905708253603426
257.0, 0.05093657491441691
258.0, 0.061453050127621874
259.0, 0.0680730656116388
260.0, 0.0743213190041575
261.0, 0.0818400793748582
262.0, 0.08958069728010358
263.0, 0.09575061694383186
264.0, 0.09959547041867772
265.0, 0.10138727073418502
266.0, 0.11220414416074538
267.0, 0.11473693073715216
268.0, 0.11045052947629513
269.0, 0.11112080964731608
270.0, 0.10312806749270934
271.0, 0.09323832204507547
272.0, 0.08911920714785614
273.0, 0.09091860241884066
274.0, 0.08817645491621397
275.0, 0.08345091567520378
276.0, 0.07573868683054903
277.0, 0.06520746854880212
278.0, 0.0571485248713603
279.0, 0.059673752864696214
280.0, 0.05930466704131464
281.0, 0.054364149309281545
282.0, 0.053739692462268195
283.0, 0.06024119037319526
284.0, 0.05015700571390497
285.0, 0.047840097809961894
286.0, 0.05276858636363565
287.0, 0.055647074976434494
288.0, 0.05186828561288426
289.0, 0.06635841027594473
290.0, 0.06465662849214182
291.0, 0.056388088145597766
292.0, 0.05796762937985199
293.0, 0.06084387127629373
294.0, 0.05681415205570131
295.0, 0.054906048921471044
296.0, 0.05447414580423254
297.0, 0.04847409429738346
298.0, 0.04867873581963232
299.0, 0.04656603325767125
300.0, 0.0410540849739182
301.0, 0.034973220759901266
302.0, 0.031453826408916884
303.0, 0.02709557621448815
304.0, 0.022859240767530174
305.0, 0.019323708321781024
306.0, 0.016398986271766676
307.0, 0.013899106388448526
308.0, 0.010606939027976353
309.0, 0.007884206293563789
310.0, 0.004364935545597743
311.0, 0.0009882343911829018
312.0, 0.0034253106605861626
313.0, 0.0010100386937548082
314.0, 0.0013126716738026672
315.0, 0.00021180294850956115
316.0, 0.0004364559279215426
317.0, 0.0035307966374765014
318.0, 0.0072723216191520924
319.0, 0.007044294849148107
320.0, 0.0035484997086042656
321.0, 0.001683199438225758
322.0, 0.008591150292483538
323.0, 0.006814340138197363
324.0, 0.008238507521926765
325.0, 0.022456764303809853
326.0, 0.0020733688356225194
327.0, 0.005848116543855865
328.0, 0.006560263319172785
329.0, 0.005982257840407794
330.0, 0.0009849816801859633
331.0, 0.0017995390903361892
332.0, 0.002171279524195293
333.0, 0.0009585479504384475
334.0, 0.0022891478808309933
335.0, 0.005243689481905588
336.0, 0.0013919844023851037
337.0, 0.0028603981836665144
338.0, 0.0011253778580048285
339.0, 0.001223492936824566
340.0, 0.0044484842999767075
341.0, 0.006259063181779975
342.0, 0.00964367601540339
343.0, 0.013872197022001381
344.0, 0.01441277641720951
345.0, 0.009732554821140077
346.0, 0.011878046328486302
347.0, 0.016412426678145634
348.0, 0.021911702100242188
349.0, 0.025439128582826057
350.0, 0.023797817394701302
351.0, 0.031488436782478375
352.0, 0.03811455779870446
353.0, 0.04024745491889178
354.0, 0.04451783356345553
355.0, 0.05759765915132372
356.0, 0.05577205599500655
357.0, 0.061039651049286346
358.0, 0.06884318456433143
359.0, 0.0754901090430294
360.0, 0.08610478340329134
361.0, 0.0907972939496251
362.0, 0.09708512179118083
363.0, 0.10260452564570198
364.0, 0.10786081483177341
365.0, 0.11813505957610974
366.0, 0.133089935652812
367.0, 0.13978394233427652
368.0, 0.14411756407107898
369.0, 0.15244648423397067
370.0, 0.16194589770973633
371.0, 0.16270646569376973
372.0, 0.16452480306946995
373.0, 0.16194410677340715
374.0, 0.15550909671178506
375.0, 0.15560860194764828
376.0, 0.15325249237235303
377.0, 0.13668988917633762
378.0, 0.12158883400696367
379.0, 0.11116335098601952
380.0, 0.09593388128980562
381.0, 0.09388390753830264
382.0, 0.08672431167900123
383.0, 0.07087487950986708
384.0, 0.053167746029170765
385.0, 0.042166892721716545
386.0, 0.04167266376012009
387.0, 0.042260678305879346
388.0, 0.03574026256859008
389.0, 0.02549095214429579
390.0, 0.02712150972561104
391.0, 0.02339545217884107
392.0, 0.02683020989546168
393.0, 0.0247596571109623
394.0, 0.0180851055838282
395.0, 0.023509628287537384
396.0, 0.02798041702436668
397.0, 0.03466031421349887
398.0, 0.03133187939939168
399.0, 0.024878836683219694
400.0, 0.031593806553157536
401.0, 0.04054370470704812
402.0, 0.04681976789630664
403.0, 0.05326217278769196
404.0, 0.06135216334852833
405.0, 0.07072953142747065
406.0, 0.08125854663074288
407.0, 0.08639851840599513
408.0, 0.09663401074752594
409.0, 0.11292189139644705
410.0, 0.1263689530605753
411.0, 0.12628216106541698
412.0, 0.13288919767172547
413.0, 0.14957246605068375
414.0, 0.16918891368938824
415.0, 0.1864609904607807
416.0, 0.20131419176688922
417.0, 0.21301877687958096
418.0, 0.22456339124336216
419.0, 0.23858585257651366
420.0, 0.2517197004791294
421.0, 0.2580003466120123
422.0, 0.26930392928991836
423.0, 0.28018344796998285
424.0, 0.2825911385596846
425.0, 0.2787217333638547
426.0, 0.2752984957429654
427.0, 0.2623324564338764
428.0, 0.25203962581644834
429.0, 0.24954207627448077
430.0, 0.2463701075387491
431.0, 0.22965925707737223
432.0, 0.21860663907584632
433.0, 0.21431187333011875
434.0, 0.21307756057074206
435.0, 0.2103820128011559
436.0, 0.2057040593704166
437.0, 0.2033642875672656
438.0, 0.19169214497943762
439.0, 0.17720356148249444
440.0, 0.16703604059755053
441.0, 0.15670543371587908
442.0, 0.13949425412390232
443.0, 0.14018108907098625
444.0, 0.13129101860105682
445.0, 0.12525255777036606
446.0, 0.12508266293038586
447.0, 0.11936483864341499
448.0, 0.12583252722276733
449.0, 0.12955918737737376
450.0, 0.12970372371362726
451.0, 0.1316288224591275
452.0, 0.13413504490420183
453.0, 0.1312418277132646
454.0, 0.14018159709704966
455.0, 0.14367552328791672
456.0, 0.14689595713500503
457.0, 0.1526669514526168
458.0, 0.15098164084116697
459.0, 0.148468177810714
460.0, 0.14855933402293414
461.0, 0.14888559693588305
462.0, 0.14746714496608407
463.0, 0.14415641216790556
464.0, 0.13849183505201665
465.0, 0.13095580822450323
466.0, 0.12676429121419133
467.0, 0.11883665419000292
468.0, 0.10446305629002091
469.0, 0.09516444733268663
470.0, 0.09021222940174438
471.0, 0.08530797958610037
472.0, 0.07816932888966796
473.0, 0.07003797548487656
474.0, 0.06511088266187953
475.0, 0.059438850875927415
476.0, 0.05460264570821844
477.0, 0.04640220041081637
478.0, 0.03731142819300012
479.0, 0.031712955708556576
480.0, 0.028985290355595834
481.0, 0.02476091624624899
482.0, 0.01843826045120328
483.0, 0.01560713358863869
484.0, 0.017258247532602092
485.0, 0.01605241346182858
486.0, 0.01082572814288211
487.0, 0.010894946192125318
488.0, 0.010155625408691549
489.0, 0.008906712370359187
490.0, 0.010771736865279187
491.0, 0.008523209437637003
492.0, 0.0017110809069581867
493.0, 0.004972630529215072
494.0, 0.007816773855133831
495.0, 0.0007482397879243487
496.0, 0.002545750152566657
497.0, 0.002383817833736901
498.0, 0.00034490168442224945
499.0, 0.003280345912515373
500.0, 0.0032029237726527403
501.0, 0.004271547516855194
502.0, 0.0021201720984746425
503.0, 0.005216150461118017
504.0, 0.0024079353069915315
505.0, 0.0018510324910891312
506.0, 0.0036918296264706533
507.0, 0.0002999734221473153
508.0, 0.0021026125972236167
509.0, 0.001537817358007752
510.0, 0.0007345560305136838
511.0, 0.0001837317112335816
512.0, 0.0036804402474812305
513.0, 0.003982342130631531
514.0, 0.001012462231994351
515.0, 0.0010496485799115934
516.0, 0.0018616258963190066
517.0, 0.0002982632104255658
518.0, 0.0009837423795368333
519.0, 0.0011092054694576998
520.0, 0.001593013509471013
521.0, 0.0008057753046340963
522.0, 0.0019135167966306218
523.0, 0.002660093262175179
524.0, 0.002510154597186903
525.0, 0.005433658602696832
526.0, 0.0007592975056345511
527.0, 0.006456748614059427
528.0, 0.003065918974594674
529.0, 0.002327367864159484
530.0, 0.0009134001134040997
531.0, 0.0013860702509915373
532.0, 0.008849690040269562
533.0, 0.011228836659170703
534.0, 0.00600611965396124
535.0, 0.006019015220658344
536.0, 0.005675977866936177
537.0, 0.006161078073289398
538.0, 0.00494275492085453
539.0, 0.0014422527950296651
540.0, 0.0019334955984174344
541.0, 0.007400086699027498
542.0, 0.00617709722804931
543.0, 0.004239758318400937
544.0, 0.007416189030949324
545.0, 0.009234986073090942
546.0, 0.011139687979451814
547.0, 0.01848683823304445
548.0, 0.020057226495108823
549.0, 0.013916188916753192
550.0, 0.014679385089257105
551.0, 0.016917981772511543
552.0, 0.01752251930103583
553.0, 0.020192678472860874
554.0, 0.018263471000863014
555.0, 0.01711085663988756
556.0, 0.02452898130792062
557.0, 0.03126143059354318
558.0, 0.030737169933141243
559.0, 0.027441661489498073
560.0, 0.028831997104474327
561.0, 0.03357231322075284
562.0, 0.03259438116516904
563.0, 0.03483542107616515
564.0, 0.04183184132274595
565.0, 0.042207790627885655
566.0, 0.043055968388382014
567.0, 0.05327999246174717
568.0, 0.05200055523068287
569.0, 0.054748847532200454
570.0, 0.06597748655820537
571.0, 0.06458624728376454
572.0, 0.06803671121227534
573.0, 0.07517014698796162
574.0, 0.07912777881714649
575.0, 0.0805245785130249
576.0, 0.08549521365375425
577.0, 0.09809148996746574
578.0, 0.10465145081214755
579.0, 0.10434709606538922
580.0, 0.1117120950248578
581.0, 0.12413046796021202
582.0, 0.13373903713658825
583.0, 0.13732205893745858
584.0, 0.14173633509497233
585.0, 0.15511784993536712
586.0, 0.1615924792072267
587.0, 0.17193475184795592
588.0, 0.1877666562354554
589.0, 0.18912339703741698
590.0, 0.20111911845314306
591.0, 0.22126752428623725
592.0, 0.23266817516416036
593.0, 0.23666382293875984
594.0, 0.2406261996993637
595.0, 0.2461567054221322
596.0, 0.24731769746303753
597.0, 0.2606710614146654
598.0, 0.2684256834176532
599.0, 0.2646539793479562
600.0, 0.2634578882049296
601.0, 0.27132271442699146
602.0, 0.25899025504145107
603.0, 0.2603710352930327
604.0, 0.2590149916136537
605.0, 0.2602453315926152
606.0, 0.2585649986234078
607.0, 0.24608196205706495
608.0, 0.24121688649842074
609.0, 0.22807276456136757
610.0, 0.22003809600556973
611.0, 0.2128877417032171
612.0, 0.20161887114086394
613.0, 0.1872886936536617
614.0, 0.17222467608289202
615.0, 0.1635180433928419
616.0, 0.1567017033174184
617.0, 0.14783391985169808
618.0, 0.13661019142455919
619.0, 0.12718267111818582
620.0, 0.12259107210795911
621.0, 0.11427743853847024
622.0, 0.10128364868976489
623.0, 0.09113418949242884
624.0, 0.08686406968425453
625.0, 0.08277003367355044
626.0, 0.07403966583621703
627.0, 0.07096583451370861
628.0, 0.06293405572074527
629.0, 0.05292713824877325
630.0, 0.050893093782390715
631.0, 0.04860774400347612
632.0, 0.040343684109232246
633.0, 0.04173294909054541
634.0, 0.039438652267767486
635.0, 0.03940560795161992
636.0, 0.03544626163416732
637.0, 0.03113015549502063
638.0, 0.03239446368035342
639.0, 0.03201765054914873
640.0, 0.029555126874553014
641.0, 0.03148459532740932
642.0, 0.026335288474906644
643.0, 0.019079041344775907
644.0, 0.017340957209958124
645.0, 0.017468454914828232
646.0, 0.012562405391115508
647.0, 0.009029626467246291
648.0, 0.011832129051627609
649.0, 0.013183486257899953
650.0, 0.01113759399679531
651.0, 0.010756829478044289
652.0, 0.009220660656391398
653.0, 0.006229839603047313
654.0, 0.00880002328228029
655.0, 0.01194480727805861
656.0, 0.010195284981324612
657.0, 0.0058499718482499675
658.0, 0.004542200279283359
659.0, 0.007184602059412545
660.0, 0.006035396350674994
661.0, 0.0028859302682036616
662.0, 0.00227852241141188
663.0, 0.006104260683346871
664.0, 0.010191079642109808
665.0, 0.0075272489254809005
666.0, 0.0039859205892315295
667.0, 0.005079700499844166
668.0, 0.0060702930005988994
669.0, 0.007196591288677299
670.0, 0.004395682356126484
671.0, 0.0021351824792439768
672.0, 0.010915146600504834
673.0, 0.001288596139080206
674.0, 0.002216568654569065
675.0, 0.0008460993994820105
676.0, 0.002720058817226884
677.0, 0.0038929511199282027
678.0, 0.0009154133889446554
679.0, 0.0007042207660587891
680.0, 0.004217598456954701
681.0, 0.0034480116107429696
682.0, 0.0020262750857437117
683.0, 0.002799083114460291
684.0, 0.002986254420707295
685.0, 0.0054956607625365065
686.0, 0.0017394936161954297
687.0, 0.003097760429779604
688.0, 0.0021950093866828927
689.0, 0.004296609071651326
690.0, 0.005631164054257651
691.0, 0.000492063736176756
692.0, 0.00045711653864975694
693.0, 0.002472966099188643
694.0, 0.002007256916977378
695.0, 0.0006320518723263041
696.0, 0.0011681532321216623
697.0, 0.001509139496982204
698.0, 0.0008703858000083621
699.0, 0.002446664858525651
700.0, 0.00046305285751167407
701.0, 0.0016439070339280054
702.0, 0.0013880055079981595
703.0, 0.0006712246229116342
704.0, 0.0023120993383730693
705.0, 0.0025340975519459233
706.0, 0.0014654684838607697
707.0, 0.0016123018419241055
708.0, 0.0015057411533843626
709.0, 0.0009159373876493097
710.0, 0.00020773102170071507
711.0, 0.00019773649260171463
712.0, 0.002271954516457
713.0, 0.004128220488120772
714.0, 0.0019009326964349882
715.0, 0.004852939854578954
716.0, 0.0022184994338600335
717.0, 0.0011796414791085702
718.0, 0.003961721033429704
719.0, 0.007765805000288856
720.0, 0.008520475811432535
721.0, 0.004665652540085627
722.0, 0.001514954359449351
723.0, 0.001234633259068062
724.0, 0.002876556045248783
725.0, 0.00037223332392219747
726.0, 0.0009721386416873946
727.0, 0.01105925508655695
728.0, 0.0067595909286784555
729.0, 0.0026284318314068796
730.0, 0.002927407306993966
731.0, 0.0024322238901087413
732.0, 0.00252148215060605
733.0, 0.0066778957774990206
734.0, 0.007436428762721877
735.0, 0.0009450732062274616
736.0, 0.005271003551888436
737.0, 0.0049411610070535
738.0, 0.003257606858186165
739.0, 0.005276459881207816
740.0, 0.00829739705976352
741.0, 0.007497052489180338
742.0, 0.005147431303940149
743.0, 0.0005146060899090487
744.0, 0.0056459701845493725
745.0, 0.00659983886553723
746.0, 0.0028120586410824576
747.0, 0.0029280212082170715
748.0, 0.008234517583104109
749.0, 0.012286600603643184
750.0, 0.008799491630442014
751.0, 0.005968104594275541
752.0, 0.0040590428473904535
753.0, 0.009443238326765618
754.0, 0.013779843314849409
755.0, 0.007801364008515371
756.0, 0.005705528624273822
757.0, 0.0038995531445664214
758.0, 0.0021027546899875893
759.0, 0.008055852497969768
760.0, 0.009845194624642306
761.0, 0.007495993427237594
762.0, 0.008485146277293788
763.0, 0.005324436787533777
764.0, 0.008409574295514718
765.0, 0.0052357310611523475
766.0, 0.0036870830198974342
767.0, 0.00480927439864125
768.0, 0.006516039102385488
769.0, 0.0070639797292158905
770.0, 0.005920035266921296
771.0, 0.0045002738990766785
772.0, 0.014388434405495656
773.0, 0.013669812580694172
774.0, 0.010053825954142994
775.0, 0.006759868954059861
776.0, 0.004287308596165386
777.0, 0.0036976164480803475
778.0, 0.005563496988754897
779.0, 0.009441483444904853
780.0, 0.013064289367127176
781.0, 0.00625790344569104
782.0, 0.004305707429970207
783.0, 0.006401339975751171
784.0, 0.008387218160293112
785.0, 0.009615654790339807
786.0, 0.007010431828938487
787.0, 0.0035215765126017378
788.0, 0.003212718986907181
789.0, 0.005539329205267087
790.0, 0.007622012167423743
791.0, 0.00934674370114868
792.0, 0.010358451305417944
793.0, 0.008728342813115854
794.0, 0.004941597499292562
795.0, 0.003328946821124293
796.0, 0.00909567696706778
797.0, 0.005103110417879945
798.0, 0.005234367598358309
799.0, 0.008612884189756118
800.0, 0.004408755840023419
801.0, 0.004820314542605055
802.0, 0.010849613022017847
803.0, 0.0057340003206352045
804.0, 0.008060169272227784
805.0, 0.011680070363435413
806.0, 0.0037598579962470667
807.0, 0.001658307803082772
808.0, 0.007977591955098461
809.0, 0.012369414249060805
810.0, 0.005673473563028862
811.0, 0.0017960031752228423
812.0, 0.0025800340799791116
813.0, 0.0048625805975193725
814.0, 0.0021151576365007986
815.0, 0.001509944749494987
816.0, 0.00658899573967096
817.0, 0.006764797247703038
818.0, 0.0019555442489846684
819.0, 0.006815971283510966
820.0, 0.003847757709044917
821.0, 0.0023404709812432445
822.0, 0.0007138901212705467
823.0, 0.0006984620078642874
824.0, 0.003314647934252992
825.0, 0.000454888655889475
826.0, 0.0037307228547952295
827.0, 0.00728459520826317
828.0, 0.006208007103631792
829.0, 0.005569355338763177
830.0, 0.004048111691524673
831.0, 0.005980477424317159
832.0, 0.010756597878491904
833.0, 0.010174832243205839
834.0, 0.007447774434433323
835.0, 0.009408357081476016
836.0, 0.0024358730578901934
837.0, 0.002921937117978976
838.0, 0.006703047300952043
839.0, 0.004371618898011142
840.0, 0.004317320937786014
841.0, 0.006718101644308951
842.0, 0.007443291591461944
843.0, 0.005206368045854111
844.0, 0.007383274590103623
845.0, 0.009157210934930578
846.0, 0.006429368730191131
847.0, 0.008187920838213052
848.0, 0.0102961654667217
849.0, 0.008211953891843097
850.0, 0.008124113731788092
851.0, 0.010814227423797115
852.0, 0.009781312678846453
853.0, 0.010700560613881877
854.0, 0.009756248163029184
855.0, 0.009769174590105156
856.0, 0.009179673097606884
857.0, 0.010082319685222538
858.0, 0.014848280625938548
859.0, 0.012399845114689261
860.0, 0.008057151634849087
861.0, 0.010279598839073464
862.0, 0.012747586725838861
863.0, 0.010315984378101072
864.0, 0.011035594120579917
865.0, 0.011160096734964589
866.0, 0.009623752258371875
867.0, 0.01335941923328555
868.0, 0.014263753710951763
869.0, 0.013870927873882298
870.0, 0.012997867950225592
871.0, 0.007432429315535156
872.0, 0.00875317727718354
873.0, 0.010733661348131855
874.0, 0.010695957650070633
875.0, 0.012980244110492195
876.0, 0.012959662429155295
877.0, 0.01280459840842314
878.0, 0.011328994899536865
879.0, 0.010726958909959006
880.0, 0.00823349515182846
881.0, 0.01252788883567439
882.0, 0.008539499722182362
883.0, 0.0005726668681140408
884.0, 0.003047160289221155
885.0, 0.003509031977723829
886.0, 0.006826475485653994
887.0, 0.000559483481718386
888.0, 0.0033418131881639964
889.0, 0.006227723781785332
890.0, 0.005546110830996882
891.0, 0.0033584808092885893
892.0, 0.004954036896021268
893.0, 0.009798924502232086
894.0, 0.009900930729112457
895.0, 0.009043157458087689
896.0, 0.009084523065903658
897.0, 0.008366631556713341
898.0, 0.006994616018887452
899.0, 0.0023031746616510476
900.0, 0.003028137309303889
901.0, 0.005908426996166005
902.0, 0.0027076017781383203
903.0, 0.0014521634489292042
904.0, 0.005792317975808504
905.0, 0.000957307835743164
906.0, 0.001260066931358205
907.0, 0.004535894336258266
908.0, 0.0019140490254137153
909.0, 0.002099981152121744
910.0, 0.002686848195585784
911.0, 0.0011004256179161578
912.0, 0.0022697581764660212
913.0, 0.0036762478700249797
914.0, 0.008019081305408668
915.0, 0.006276439707741574
916.0, 0.0014979034333192013
917.0, 0.001434219467594073
918.0, 0.0036137888298976724
919.0, 0.0028410577057711803
920.0, 0.0002888352559884548
921.0, 0.0006572499731995359
922.0, 0.001545351418163786
923.0, 0.0007169753056368158
924.0, 0.00012237459556150345
925.0, 0.0005047556835614984
926.0, 0.0010589710509672015
927.0, 0.001472382865335623
928.0, 0.0031600343552142156
929.0, 0.006164916806063559
930.0, 0.002743524442611387
931.0, 0.004637050101245918
932.0, 0.004288646725476383
933.0, 0.0011992459246552476
934.0, 0.002940030147897108
935.0, 0.0061774073621317
936.0, 0.005554972304903662
937.0, 0.008213556010240933
938.0, 0.008905311804598746
939.0, 0.008249908814177651
940.0, 0.009971465763511553
941.0, 0.009570097245897547
942.0, 0.016131469629615723
943.0, 0.008669919751216223
944.0, 0.008220400782083939
945.0, 0.014525352560789623
946.0, 0.011880143343236413
947.0, 0.007153283835535026
948.0, 0.006204398523456677
949.0, 0.008845328076499862
950.0, 0.014193662753758418
951.0, 0.019223909208665933
952.0, 0.019761235340709782
953.0, 0.016855830504974058
954.0, 0.02069398133455075
955.0, 0.02282093749589924
956.0, 0.023815426581245316
957.0, 0.029578520273375073
958.0, 0.03795357147393983
959.0, 0.04303545716269962
960.0, 0.042621253641400375
961.0, 0.042611726799119884
962.0, 0.050154182539527414
963.0, 0.06103465435744168
964.0, 0.06923255177724284
965.0, 0.07177471974517878
966.0, 0.0919964183396471
967.0, 0.11145057802212359
968.0, 0.12499581530926296
969.0, 0.15114444969824484
970.0, 0.19352417455965712
971.0, 0.24953173155409625
972.0, 0.34052795850796913
973.0, 0.45124680650569876
974.0, 0.42712189867331435
975.0, 0.31943433837586105
976.0, 0.29352333695551514
977.0, 0.31205920807129106
978.0, 0.3457118504887223
979.0, 0.37133421394566246
980.0, 0.4040794898031758
981.0, 0.4539709005546579
982.0, 0.5228423675514304
983.0, 0.6115560237036525
984.0, 0.710555837321891
985.0, 0.8290928603739457
986.0, 0.9530322445558951
987.0, 0.9931939102395209
988.0, 0.8753579745484419
989.0, 0.6847355601765072
990.0, 0.5903967201868829
991.0, 0.597430377085019
992.0, 0.5380548182423911
993.0, 0.38766386555712073
994.0, 0.2903919787142843
995.0, 0.21656771811482145
996.0, 0.1731599116878218
997.0, 0.1350346620117101
998.0, 0.10626396807345312
999.0, 0.08693579139699908
1000.0, 0.0758201479162844
1001.0, 0.06290831118455904
1002.0, 0.04945634277574354
1003.0, 0.04246134525632739
1004.0, 0.03749055162281623
1005.0, 0.031133540275006685
1006.0, 0.0255282628379685
1007.0, 0.020985594477099613
1008.0, 0.020183426693908615
1009.0, 0.020113582563200894
1010.0, 0.013910488215976383
1011.0, 0.01025348588575658
1012.0, 0.008599078273892478
1013.0, 0.008025816442880225
1014.0, 0.011776912173420691
1015.0, 0.010677604905269714
1016.0, 0.00217938141990815
1017.0, 0.007020302042979344
1018.0, 0.003263182290950465
1019.0, 0.005039005757859141
1020.0, 0.005297488355589715
1021.0, 0.0036207862078506776
1022.0, 0.0003225270844218833
1023.0, 0.000983534736218972
1024.0, 0.0015939992819030678
1025.0, 0.0022521626166769567
1026.0, 0.00044822538021932273
1027.0, 0.0014717530596249375
1028.0, 0.002426539594240509
1029.0, 0.0033946803783093875
1030.0, 0.0011533592163728472
1031.0, 0.0008552720388027752
1032.0, 0.0013607794490808494
1033.0, 0.0010885045037808125
1034.0, 0.0019262440791776344
1035.0, 0.003610833208458773
1036.0, 0.002212853721919021
1037.0, 0.002213220432910068
1038.0, 0.005279030162063015
1039.0, 0.001877285338592414
1040.0, 0.0032934503045612207
1041.0, 0.004294956728347321
1042.0, 0.003960231523981093
1043.0, 0.00271539609136498
1044.0, 0.005174264780009217
1045.0, 0.00419900231384206
1046.0, 0.005149309900384279
1047.0, 0.011033862838580476
1048.0, 0.009786540435708948
1049.0, 0.005242864793145066
1050.0, 0.006761354266320027
1051.0, 0.00950645002084523
1052.0, 0.009827919260024494
1053.0, 0.007408193679667319
1054.0, 0.00829480051462105
1055.0, 0.01496336347727895
1056.0, 0.009209638628419364
1057.0, 0.014046988506667225
1058.0, 0.01785236508835622
1059.0, 0.015887275366861974
1060.0, 0.018328610019801083
1061.0, 0.026733395694009867
1062.0, 0.034031240894801626
1063.0, 0.032650821609801775
1064.0, 0.02800600325020734
1065.0, 0.0357926978619073
1066.0, 0.04749585314040708
1067.0, 0.05074064171053343
1068.0, 0.05532600707452951
1069.0, 0.05771744229256461
1070.0, 0.06670098541578824
1071.0, 0.07636536921089337
1072.0, 0.08178227554211766
1073.0, 0.08917156508707057
1074.0, 0.09447974818950729
1075.0, 0.10019377847169017
1076.0, 0.11498210991437585
1077.0, 0.12690253989702974
1078.0, 0.13076724963864766
1079.0, 0.15158445006258883
1080.0, 0.1514477646798503
1081.0, 0.16239431607678526
1082.0, 0.16648483418197332
1083.0, 0.17811412275575808
1084.0, 0.18904964920660877
1085.0, 0.19482850621467834
1086.0, 0.19083244094898943
1087.0, 0.18606354102134431
1088.0, 0.18363597341531723
1089.0, 0.17892645679054525
1090.0, 0.1663244875967558
1091.0, 0.15146406344354651
1092.0, 0.1505143624528654
1093.0, 0.13990405896237484
1094.0, 0.12473283645907089
1095.0, 0.109781322272624
1096.0, 0.09678574880269539
1097.0, 0.09231496068670979
1098.0, 0.08462400556404354
1099.0, 0.06881260308099314
1100.0, 0.06531654868503661
1101.0, 0.059895474235021715
1102.0, 0.05556661979006734
1103.0, 0.05454429274267808
1104.0, 0.04612874223546183
1105.0, 0.038162736517938896
1106.0, 0.035353249726048926
1107.0, 0.030770821726584612
1108.0, 0.031061159923333113
1109.0, 0.03212378357026102
1110.0, 0.026333961818719127
1111.0, 0.02818241120700461
1112.0, 0.031641836873069866
1113.0, 0.028255135589971454
1114.0, 0.028948681104589535
1115.0, 0.03544498103546573
1116.0, 0.034341091548650914
1117.0, 0.025926301318684612
1118.0, 0.02744794102672917
1119.0, 0.038205173933641236
1120.0, 0.03847989242644994
1121.0, 0.03877393125793766
1122.0, 0.04497143534382723
1123.0, 0.04467421357613855
1124.0, 0.0468212220808325
1125.0, 0.04577646221709785
1126.0, 0.05092544753894993
1127.0, 0.04516402235075046
1128.0, 0.04766159243934195
1129.0, 0.04771536065484605
1130.0, 0.050514175071566386
1131.0, 0.047872004381604036
1132.0, 0.04543341155470074
1133.0, 0.044921143597354
1134.0, 0.0379262814476112
1135.0, 0.03647108188218805
1136.0, 0.02867886519719724
1137.0, 0.028633827932170154
1138.0, 0.024382568705238035
1139.0, 0.017958719076529493
1140.0, 0.02120451643426653
1141.0, 0.016707281014564125
1142.0, 0.019797592003337396
1143.0, 0.017823670340000913
1144.0, 0.011477976157344076
1145.0, 0.014243344985110075
1146.0, 0.014925885103057828
1147.0, 0.005386561152775639
1148.0, 0.005623133331844092
1149.0, 0.011962981316450894
1150.0, 0.005756039252523725
1151.0, 0.002169215765558968
1152.0, 0.009334596544839353
1153.0, 0.006845199702122727
1154.0, 0.0022145425425576654
1155.0, 0.00906110757170966
1156.0, 0.006913382386484033
1157.0, 0.0023054767237720205
1158.0, 0.0010596366730794516
1159.0, 0.0033524297640733607
1160.0, 0.002900063199105119
1161.0, 0.004424815724267522
1162.0, 0.0011702556747552302
1163.0, 0.006836916334416689
1164.0, 0.004247631162319176
1165.0, 0.007257072623140779
1166.0, 0.0040115334825803345
1167.0, 0.003532007796967578
1168.0, 0.004735710371610977
1169.0, 0.004507657514282257
1170.0, 0.002879890675788589
1171.0, 0.006524591025805035
1172.0, 0.0034947982717551487
1173.0, 0.002541100935258759
1174.0, 0.0022042840401640886
1175.0, 0.0016829425977229681
1176.0, 0.0006180240424463522
1177.0, 0.003967876111802434
1178.0, 0.005485745866467012
1179.0, 0.0014751475906983889
1180.0, 0.00046078041320653137
1181.0, 0.0029630314376897374
1182.0, 0.006646456888878247
1183.0, 0.0027811831463654562
1184.0, 0.003992489162001232
1185.0, 0.00509723493183937
1186.0, 0.00028423483186319325
1187.0, 0.004428682023713337
1188.0, 0.008046584929215046
1189.0, 0.004304441708795901
1190.0, 0.0054902765855037484
1191.0, 0.00358854213667199
1192.0, 0.009523635422819986
1193.0, 0.007213232805844473
1194.0, 0.004681852560865668
1195.0, 0.0042449266043215455
1196.0, 0.008058328919912719
1197.0, 0.0016182104966022274
1198.0, 0.0024563848627152667
1199.0, 0.008320797394007701
1200.0, 0.008469212223228812
1201.0, 0.005497159627337868
1202.0, 0.0033823923719251405
1203.0, 0.005497577105347591
1204.0, 0.004864818247739442
1205.0, 0.003684424199356866
1206.0, 0.004390252284082737
1207.0, 0.002472368306512898
1208.0, 0.004147390100457264
1209.0, 0.004095382350786938
1210.0, 0.00460245215610023
1211.0, 0.004591518958925661
1212.0, 0.003431501472061829
1213.0, 0.004741951296124291
1214.0, 0.00426634241763416
1215.0, 0.005380128746245811
1216.0, 0.005476468290841115
1217.0, 0.007035121454109542
1218.0, 0.003087793856316069
1219.0, 0.0032108916946618263
1220.0, 0.006454710970173472
1221.0, 0.009221173364572897
1222.0, 0.01165616509768904
1223.0, 0.011064451571652617
1224.0, 0.006679547271499999
1225.0, 0.0007426226689235121
1226.0, 0.00490039844594048
1227.0, 0.007176947384186829
1228.0, 0.0006381737454015812
1229.0, 0.004759555010987676
1230.0, 0.010929053842392443
1231.0, 0.002063970077273258
1232.0, 0.002482448218902296
1233.0, 0.001110604397225819
1234.0, 0.0015568035541407644
1235.0, 0.010609177556978853
1236.0, 0.005940163163951162
1237.0, 0.006501068407181713
1238.0, 0.012485192921102933
1239.0, 0.009882240201109255
1240.0, 0.006311731372474946
1241.0, 0.006647337999199462
1242.0, 0.006736106045036533
1243.0, 0.006990700719392266
1244.0, 0.005730294477635182
1245.0, 0.008417573098564857
1246.0, 0.008245444267827999
1247.0, 0.007672877803882796
1248.0, 0.010686969670176327
1249.0, 0.0064952829082092
1250.0, 0.004358458427637206
1251.0, 0.009366050471186969
1252.0, 0.007267858389744094
1253.0, 0.004692775216372801
1254.0, 0.009913962343374619
1255.0, 0.007130315326572769
1256.0, 0.00906629652544274
1257.0, 0.011304488493446474
1258.0, 0.008995898828011138
1259.0, 0.005436815197072269
1260.0, 0.006417262438393215
1261.0, 0.00954815944755591
1262.0, 0.0059985370269676295
1263.0, 0.006923106075030048
1264.0, 0.004299553449935181
1265.0, 0.0063705660333778025
1266.0, 0.005778711453173571
1267.0, 0.00527802209349192
1268.0, 0.0030570154216527433
1269.0, 0.0008386572633014202
1270.0, 0.004138078024366262
1271.0, 0.006249722470463199
1272.0, 0.001568131749114187
1273.0, 0.005008678813208842
1274.0, 0.003892428399169612
1275.0, 0.0001931715191986561
1276.0, 0.0064176030196987
1277.0, 0.006612645023071932
1278.0, 0.006972535406251949
1279.0, 0.012593977105588712
1280.0, 0.0068700520573318664
1281.0, 0.0017935909978520656
1282.0, 0.0013596652720130123
1283.0, 0.0043398512433539425
1284.0, 0.007216592654539118
1285.0, 0.00031422744756567705
1286, 0.0
1287, 0.0
1288, 0.0
1289, 0.0
1290, 0.0
1291, 0.0
1292, 0.0
1293, 0.0
1294, 0.0
1295, 0.0
1296, 0.0
1297, 0.0
1298, 0.0
1299, 0.0
1300, 0.0
1301, 0.0
1302, 0.0
1303, 0.0
1304, 0.0
1305, 0.0
1306, 0.0
1307, 0.0
1308, 0.0
1309, 0.0
1310, 0.0
1311, 0.0
1312, 0.0
1313, 0.0
1314, 0.0
1315, 0.0
1316, 0.0
1317, 0.0
1318, 0.0
1319, 0.0
1320, 0.0
1321, 0.0
1322, 0.0
1323, 0.0
1324, 0.0
1325, 0.0
1326, 0.0
1327, 0.0
1328, 0.0
1329, 0.0
1330, 0.0
1331, 0.0
1332, 0.0
1333, 0.0
1334, 0.0
1335, 0.0
1336, 0.0
1337, 0.0
1338, 0.0
1339, 0.0
1340, 0.0
1341, 0.0
1342, 0.0
1343, 0.0
1344, 0.0
1345, 0.0
1346, 0.0
1347, 0.0
1348, 0.0
1349, 0.0
1350, 0.0
1351, 0.0
1352, 0.0
1353, 0.0
1354, 0.0
1355, 0.0
1356, 0.0
1357, 0.0
1358, 0.0
1359, 0.0
1360, 0.0
1361, 0.0
1362, 0.0
1363, 0.0
1364, 0.0
1365, 0.0
1366, 0.0
1367, 0.0
1368, 0.0
1369, 0.0
1370, 0.0
1371, 0.0
1372, 0.0
1373, 0.0
1374, 0.0
1375, 0.0
1376, 0.0
1377, 0.0
1378, 0.0
1379, 0.0
1380, 0.0
1381, 0.0
1382, 0.0
1383, 0.0
1384, 0.0
1385, 0.0
1386, 0.0
1387, 0.0
1388, 0.0
1389, 0.0
1390, 0.0
1391, 0.0
1392, 0.0
1393, 0.0
1394, 0.0
1395, 0.0
1396, 0.0
1397, 0.0
1398, 0.0
1399, 0.0
1400, 0.0
1401, 0.0
1402, 0.0
1403, 0.0
1404, 0.0
1405, 0.0
1406, 0.0
1407, 0.0
1408, 0.0
1409, 0.0
1410, 0.0
1411, 0.0
1412, 0.0
1413, 0.0
1414, 0.0
1415, 0.0
1416, 0.0
1417, 0.0
1418, 0.0
1419, 0.0
1420, 0.0
1421, 0.0
1422, 0.0
1423, 0.0
1424, 0.0
1425, 0.0
1426, 0.0
1427, 0.0
1428, 0.0
1429, 0.0
1430, 0.0
1431, 0.0
1432, 0.0
1433, 0.0
1434, 0.0
1435, 0.0
1436, 0.0
1437, 0.0
1438, 0.0
1439, 0.0
1440, 0.0
1441, 0.0
1442, 0.0
1443, 0.0
1444, 0.0
1445, 0.0
1446, 0.0
1447, 0.0
1448, 0.0
1449, 0.0
1450, 0.0
1451, 0.0
1452, 0.0
1453, 0.0
1454, 0.0
1455, 0.0
1456, 0.0
1457, 0.0
1458, 0.0
1459, 0.0
1460, 0.0
1461, 0.0
1462, 0.0
1463, 0.0
1464, 0.0
1465, 0.0
1466, 0.0
1467, 0.0
1468, 0.0
1469, 0.0
1470, 0.0
1471, 0.0
1472, 0.0
1473, 0.0
1474, 0.0
1475, 0.0
1476, 0.0
1477, 0.0
1478, 0.0
1479, 0.0
1480, 0.0
1481, 0.0
1482, 0.0
1483, 0.0
1484, 0.0
1485, 0.0
1486, 0.0
1487, 0.0
1488, 0.0
1489, 0.0
1490, 0.0
1491, 0.0
1492, 0.0
1493, 0.0
1494, 0.0
1495, 0.0
1496, 0.0
1497, 0.0
1498, 0.0
1499, 0.0
1500, 0.0
1501, 0.0
1502, 0.0
1503, 0.0
1504, 0.0
1505, 0.0
1506, 0.0
1507, 0.0
1508, 0.0
1509, 0.0
1510, 0.0
1511, 0.0
1512, 0.0
1513, 0.0
1514, 0.0
1515, 0.0
1516, 0.0
1517, 0.0
1518, 0.0
1519, 0.0
1520, 0.0
1521, 0.0
1522, 0.0
1523, 0.0
1524, 0.0
1525, 0.0
1526, 0.0
1527, 0.0
1528, 0.0
1529, 0.0
1530, 0.0
1531, 0.0
1532, 0.0
1533, 0.0
1534, 0.0
1535, 0.0
1536, 0.0
1537, 0.0
1538, 0.0
1539, 0.0
1540, 0.0
1541, 0.0
1542, 0.0
1543, 0.0
1544, 0.0
1545, 0.0
1546, 0.0
1547, 0.0
1548, 0.0
1549, 0.0
1550, 0.0
1551, 0.0
1552, 0.0
1553, 0.0
1554, 0.0
1555, 0.0
1556, 0.0
1557, 0.0
1558, 0.0
1559, 0.0
1560, 0.0
1561, 0.0
1562, 0.0
1563, 0.0
1564, 0.0
1565, 0.0
1566, 0.0
1567, 0.0
1568, 0.0
1569, 0.0
1570, 0.0
1571, 0.0
1572, 0.0
1573, 0.0
1574, 0.0
1575, 0.0
1576, 0.0
1577, 0.0
1578, 0.0
1579, 0.0
1580, 0.0
1581, 0.0
1582, 0.0
1583, 0.0
1584, 0.0
1585, 0.0
1586, 0.0
1587, 0.0
1588, 0.0
1589, 0.0
1590, 0.0
1591, 0.0
1592, 0.0
1593, 0.0
1594, 0.0
1595, 0.0
1596, 0.0
1597, 0.0
1598, 0.0
1599, 0.0
