30, 0.0
31, 0.0
32, 0.0
33, 0.0
34, 0.0
35, 0.0
36, 0.0
37, 0.0
38, 0.0
39, 0.0
40, 0.0
41, 0.0
42, 0.0
43, 0.0
44, 0.0
45, 0.0
46, 0.0
47, 0.0
48, 0.0
49, 0.0
50, 0.0
51, 0.0
52, 0.0
53, 0.0
54, 0.0
55, 0.0
56, 0.0
57, 0.0
58, 0.0
59, 0.0
60, 0.0
61, 0.0
62, 0.0
63, 0.0
64, 0.0
65, 0.0
66, 0.0
67, 0.0
68, 0.0
69, 0.0
70, 0.0
71, 0.0
72, 0.0
73, 0.0
74, 0.0
75, 0.0
76, 0.0
77, 0.0
78, 0.0
79, 0.0
80, 0.0
81, 0.0
82, 0.0
83, 0.0
84, 0.0
85, 0.0
86, 0.0
87, 0.0
88, 0.0
89, 0.0
90, 0.0
91, 0.0
92, 0.0
93, 0.0
94, 0.0
95, 0.0
96, 0.0
97, 0.0
98, 0.0
99, 0.0
100, 0.0
101, 0.0
102, 0.0
103, 0.0
104, 0.0
105, 0.0
106, 0.0
107, 0.0
108, 0.0
109, 0.0
110, 0.0
111, 0.0
112, 0.0
113, 0.0
114, 0.0
115, 0.0
116, 0.0
117, 0.0
118, 0.0
119, 0.0
120, 0.0
121, 0.0
122, 0.0
123, 0.0
124, 0.0
125, 0.0
126, 0.0
127, 0.0
128, 0.0
129, 0.0
130, 0.0
131, 0.0
132, 0.0
133, 0.0
134, 0.0
135, 0.0
136, 0.0
137, 0.0
138, 0.0
139, 0.0
140, 0.0
141, 0.0
142, 0.0
143, 0.0
144, 0.0
145, 0.0
146, 0.0
147, 0.0
148, 0.0
149, 0.0
150, 0.0
151, 0.0
152, 0.0
153, 0.0
154, 0.0
155, 0.0
156, 0.0
157, 0.0
158, 0.0
159, 0.0
160, 0.0
161, 0.0
162, 0.0
163, 0.0
164, 0.0
165, 0.0
166, 0.0
167, 0.0
168, 0.0
169, 0.0
170, 0.0
171, 0.0
172, 0.0
173, 0.0
174, 0.0
175, 0.0
176, 0.0
177, 0.0
178, 0.0
179, 0.0
180, 0.0
181, 0.0
182, 0.0
183, 0.0
184, 0.0
185, 0.0
186, 0.0
187, 0.0
188, 0.0
189, 0.0
190, 0.0
191, 0.0
192, 0.0
193, 0.0
194, 0.0
195, 0.0
196, 0.0
197, 0.0
198, 0.0
199, 0.0
200, 0.0
201, 0.0
202, 0.0
203, 0.0
204, 0.0
205, 0.0
206, 0.0
207, 0.0
208, 0.0
209, 0.0
210, 0.0
211, 0.0
212, 0.0
213.0, 0.00038609511293419355
214.0, 0.0002228096305489107
215.0, 0.0018000169441289896
216.0, 0.0035449445163139534
217.0, 0.003616166459482303
218.0, 0.0065601298689217345
219.0, 0.010341775886932716
220.0, 0.012577462916509477
221.0, 0.012730244964735064
222.0, 0.015550113791009682
223.0, 0.018224372984401722
224.0, 0.020120599938097932
225.0, 0.021756760488160626
226.0, 0.02429003854910089
227.0, 0.026545808977432864
228.0, 0.030345085566518687
229.0, 0.03396238631509211
230.0, 0.03587835456333427
231.0, 0.039627558713508565
232.0, 0.04173044573763274
233.0, 0.04371259593806394
234.0, 0.04690903069400378
235.0, 0.05155148255950977
236.0, 0.05451825414448225
237.0, 0.056900588391567815
238.0, 0.06009656165346286
239.0, 0.06445626871529489
240.0, 0.0667200660881846
241.0, 0.0703118133263468
242.0, 0.07301612620887311
243.0, 0.07402438456309791
244.0, 0.07515601221080939
245.0, 0.07575571967321694
246.0, 0.07806962412391227
247.0, 0.07858813089345797
248.0, 0.07464905254907095
249.0, 0.07426674186094875
250.0, 0.07217072661703036
251.0, 0.07020878250614658
252.0, 0.06858674480462892
253.0, 0.06429304294175762
254.0, 0.06153190946467215
255.0, 0.05780919331742333
256.0, 0.053346337309507545
257.0, 0.04974443833176222
258.0, 0.045470219117969744
259.0, 0.04289609034152399
260.0, 0.04023128859917186
261.0, 0.03669558999618219
262.0, 0.03218859468291741
263.0, 0.029297977489237938
264.0, 0.026625230786420394
265.0, 0.024436715430087446
266.0, 0.0223563423168317
267.0, 0.01821565899476647
268.0, 0.016406937638234278
269.0, 0.014369146576381237
270.0, 0.012243503154843918
271.0, 0.011333859445001211
272.0, 0.008340672471853904
273.0, 0.006623953498157221
274.0, 0.0058189645026221004
275.0, 0.005136900561716196
276.0, 0.004379582584004891
277.0, 0.002641964160469541
278.0, 0.0015290060995946412
279.0, 0.0013988780367886475
280.0, 0.0014402601516139777
281.0, 0.0004245302836594408
282.0, 0.00032789335029663875
283.0, 0.00028767902267187907
284.0, 0.00046752644384985125
285.0, 0.0005939998632729202
286.0, 0.001411279713086757
287.0, 0.0006856886586557594
288.0, 0.00010213710757295312
289.0, 0.0013135777750886775
290.0, 0.0007114408409495557
291.0, 0.0013760721047479606
292.0, 0.0013931854200187382
293.0, 0.0010918673084939108
294.0, 0.00044932550723623184
295.0, 5.4990694564630644e-05
296.0, 0.0007475394298133098
297.0, 0.0005977330548319453
298.0, 0.0005533734193141959
299.0, 0.0009769255334009404
300.0, 0.0007279019858457456
301.0, 0.0009361299843376014
302.0, 0.00032244948071935315
303.0, 0.0005837808460467989
304.0, 0.002388511094617
305.0, 0.0007348151834104584
306.0, 0.000188662061819316
307.0, 9.078155481077149e-05
308.0, 0.0002935447718548641
309.0, 6.717482015462378e-05
310.0, 4.09334600467906e-05
311.0, 0.0003216048524387982
312.0, 0.0009249222593647299
313.0, 0.0016156202645821128
314.0, 0.0009404772999020074
315.0, 0.0011107288336540963
316.0, 0.0011031036277270108
317.0, 0.0010332110530984905
318.0, 0.002703655299993619
319.0, 0.00111803635241013
320.0, 0.0007211163374539269
321.0, 0.0014805267371150294
322.0, 0.002473863605378647
323.0, 0.0017816020807446531
324.0, 0.002893265213883293
325.0, 0.0035026564345375095
326.0, 0.0028630259590404126
327.0, 0.0025399710650560402
328.0, 0.004095474006999932
329.0, 0.003955125366137578
330.0, 0.003455910916590551
331.0, 0.0037425900351654912
332.0, 0.0049520483371708396
333.0, 0.004118585556504235
334.0, 0.004529407900491616
335.0, 0.005919278391142771
336.0, 0.00650000192787684
337.0, 0.004840404599064568
338.0, 0.004251115311447874
339.0, 0.004877623128161087
340.0, 0.005913752729195065
341.0, 0.005370120159756969
342.0, 0.0051496689396369685
343.0, 0.005196283301565345
344.0, 0.0058148361499631785
345.0, 0.00625987799543456
346.0, 0.007444743204099949
347.0, 0.0062160978007514715
348.0, 0.0062068894271545315
349.0, 0.005622418775811535
350.0, 0.004741510702514367
351.0, 0.00515154542736434
352.0, 0.005614808145863055
353.0, 0.005753286603940267
354.0, 0.005203661214811311
355.0, 0.005229980753837127
356.0, 0.007208893609757617
357.0, 0.0074455830408133436
358.0, 0.007026366482621525
359.0, 0.006733231720174836
360.0, 0.006299665704771938
361.0, 0.005034788967402723
362.0, 0.005079566154151866
363.0, 0.005909693662432263
364.0, 0.0067428359112890225
365.0, 0.007361184183425423
366.0, 0.008132831502735551
367.0, 0.007447259984104426
368.0, 0.008449808261536712
369.0, 0.008475144888290757
370.0, 0.00639309224798964
371.0, 0.0066811963040368325
372.0, 0.008799096584462186
373.0, 0.009480119443069384
374.0, 0.009717739229315047
375.0, 0.010849053194750847
376.0, 0.010992818145335093
377.0, 0.010878350809762913
378.0, 0.011024004091827536
379.0, 0.01141936807963583
380.0, 0.012228624357779725
381.0, 0.014319483981658505
382.0, 0.014081418679061736
383.0, 0.015112811815114549
384.0, 0.016154248148791753
385.0, 0.015051555039158384
386.0, 0.015632392176761073
387.0, 0.016299391601241116
388.0, 0.01737601655765256
389.0, 0.017990924911015536
390.0, 0.017307279028557106
391.0, 0.016987030514066942
392.0, 0.016100209310200172
393.0, 0.01604356578056104
394.0, 0.015784214027499202
395.0, 0.01411230859405808
396.0, 0.013497323729082656
397.0, 0.0134917521032683
398.0, 0.012553003929213321
399.0, 0.010754636025062499
400.0, 0.008906012882354816
401.0, 0.008254214507568927
402.0, 0.0055382400927651565
403.0, 0.004430207725409206
404.0, 0.004709097607690463
405.0, 0.0035451924909528612
406.0, 0.003368982781301108
407.0, 0.0036215039757556194
408.0, 0.0029240212455176042
409.0, 0.0014208684223749313
410.0, 0.00014973328726340185
411.0, 0.00015448808396206564
412.0, 4.0678484028972386e-05
413.0, 0.0005181658362806012
414.0, 0.0006577087749059231
415.0, 0.0002620500696053514
416.0, 0.00041912825930310053
417.0, 0.0007148837792245715
418.0, 0.0008981928370041929
419.0, 0.0004434960130705758
420.0, 0.0004077224703535139
421.0, 0.0006554326131046653
422.0, 0.0010503763386038613
423.0, 0.0019466231696268037
424.0, 0.0024580880368281098
425.0, 0.002241311545846928
426.0, 0.0049724014254830156
427.0, 0.005690700607821043
428.0, 0.00671714009872005
429.0, 0.008379056140197209
430.0, 0.009545847112664945
431.0, 0.010368349444653577
432.0, 0.010817863314663898
433.0, 0.01163206110971304
434.0, 0.012730106853329905
435.0, 0.014111985739937924
436.0, 0.016644799659862604
437.0, 0.01776396682708454
438.0, 0.018203913155460705
439.0, 0.01890579707092017
440.0, 0.020013789715279673
441.0, 0.020794736460240076
442.0, 0.02141583955649755
443.0, 0.021641431531774526
444.0, 0.02187077685262102
445.0, 0.022531800707154367
446.0, 0.0235871296163451
447.0, 0.02412204956823105
448.0, 0.025063361587270863
449.0, 0.025613364560352733
450.0, 0.026050243990615517
451.0, 0.028010243003818474
452.0, 0.02841735277545
453.0, 0.030399600943893136
454.0, 0.03277175462685251
455.0, 0.03476729752551321
456.0, 0.03743360683490407
457.0, 0.04075802116398126
458.0, 0.04330841585738811
459.0, 0.04637567511024492
460.0, 0.050268060290016174
461.0, 0.054013547657299564
462.0, 0.05723229525176445
463.0, 0.06169606389563352
464.0, 0.06679772778182266
465.0, 0.07123177575008172
466.0, 0.07449765404433051
467.0, 0.07842317716676224
468.0, 0.08166591964241121
469.0, 0.08292235482864199
470.0, 0.08418329811529923
471.0, 0.08562592601369502
472.0, 0.0832071075988595
473.0, 0.07995940402918472
474.0, 0.07578376706541057
475.0, 0.0706471064941628
476.0, 0.06524099631958542
477.0, 0.060428538284758374
478.0, 0.05431141488431592
479.0, 0.04913959887779717
480.0, 0.04463744338499861
481.0, 0.04054814459560615
482.0, 0.03688614417504416
483.0, 0.03399185032155358
484.0, 0.030547832934558584
485.0, 0.026519539965299925
486.0, 0.023379394341380037
487.0, 0.021791033660391108
488.0, 0.018996128315953327
489.0, 0.016522587817317563
490.0, 0.016575559549831906
491.0, 0.015828816496801904
492.0, 0.01324862814995793
493.0, 0.013773362868530757
494.0, 0.012282362376332016
495.0, 0.010992535240301308
496.0, 0.01027271888158339
497.0, 0.009556705744074015
498.0, 0.008461175989647225
499.0, 0.006583582542122464
500.0, 0.006532679368390911
501.0, 0.006129751212740783
502.0, 0.005030505018757815
503.0, 0.00415371544778355
504.0, 0.0028048049491143138
505.0, 0.0027881817439486863
506.0, 0.002882818208993409
507.0, 0.002396171997655242
508.0, 0.0017946826273192704
509.0, 0.002341444358222606
510.0, 0.0022899405553073963
511.0, 0.002561687554077041
512.0, 0.0015126356311231037
513.0, 0.00017082742168774684
514.0, 0.00023572549689925278
515.0, 0.0014278012152027261
516.0, 0.0007146014408210737
517.0, 3.720692854623059e-05
518.0, 7.832004885075392e-05
519.0, 0.0004213468798831951
520.0, 0.0005134380019552768
521.0, 0.00039244084214041174
522.0, 0.00042088329403482344
523.0, 0.00030566421642766424
524.0, 0.00032603221376365047
525.0, 0.00021161161716105748
526.0, 0.00032118565682711004
527.0, 0.00019829289440138122
528.0, 0.00035177321053985193
529.0, 0.00037584152220050644
530.0, 0.0015677902786375075
531.0, 0.0004139978126632566
532.0, 0.00039544962641777375
533.0, 0.0003049631791401655
534.0, 0.0005595522465964077
535.0, 0.00014132495410503298
536.0, 0.0001776701479266432
537.0, 0.0008231276101385776
538.0, 0.00014984755537939576
539.0, 0.00016838267463351186
540.0, 0.0010142250613494183
541.0, 0.00020498470008580607
542.0, 0.0002345907718512533
543.0, 0.00010786188375956435
544.0, 0.0003396808933538226
545.0, 0.00012335062596327358
546.0, 0.0008356090463483826
547.0, 0.00035434515121451915
548.0, 0.0026228623176214132
549.0, 0.0016393590737943356
550.0, 0.001905405689933194
551.0, 0.0028390040889758814
552.0, 0.0013773981595599973
553.0, 0.001119108682479204
554.0, 0.0021396150910485924
555.0, 0.002519751794263084
556.0, 0.002279100287964226
557.0, 0.002399264131591851
558.0, 0.00315453530455913
559.0, 0.002390009561101645
560.0, 0.0029996549515154
561.0, 0.00394096775529804
562.0, 0.004780042117712117
563.0, 0.005283442943329409
564.0, 0.004569725906816924
565.0, 0.00665424053767562
566.0, 0.006058350158326453
567.0, 0.005415487899322531
568.0, 0.005865584361808401
569.0, 0.005645456236283775
570.0, 0.0068354230566250295
571.0, 0.006689749180383465
572.0, 0.007937729691112486
573.0, 0.008855415167507933
574.0, 0.008298466168852702
575.0, 0.008384508313010974
576.0, 0.009302860890645234
577.0, 0.009941579107942604
578.0, 0.010790397758014
579.0, 0.011605597455834405
580.0, 0.011717890501699685
581.0, 0.011770602387046827
582.0, 0.012954284909884909
583.0, 0.014981706318643236
584.0, 0.0160909438689083
585.0, 0.016145116364143716
586.0, 0.016565124549779826
587.0, 0.01823447874782014
588.0, 0.020336162813530984
589.0, 0.021689743861416578
590.0, 0.022772939797561304
591.0, 0.024237802305031267
592.0, 0.025887994849317402
593.0, 0.02747228124845699
594.0, 0.0297871594649684
595.0, 0.031354480728016436
596.0, 0.032230204288697537
597.0, 0.03369212793288439
598.0, 0.03613703055073607
599.0, 0.0382313359264455
600.0, 0.040930827928122145
601.0, 0.04233723014053819
602.0, 0.04205567849842201
603.0, 0.042225024209354124
604.0, 0.04516939998573019
605.0, 0.044488655985708433
606.0, 0.0443416484074945
607.0, 0.04489817903563805
608.0, 0.044778949604273
609.0, 0.04386805022877805
610.0, 0.0427017970781481
611.0, 0.040947307880657195
612.0, 0.03945248933999212
613.0, 0.03778624219416835
614.0, 0.03602586320324754
615.0, 0.03478633037082105
616.0, 0.0321321916901415
617.0, 0.03141173479179578
618.0, 0.03085048705501476
619.0, 0.0296200703708708
620.0, 0.02807431921864668
621.0, 0.026327898693523002
622.0, 0.024439764656419463
623.0, 0.022771420579187608
624.0, 0.02176760361834092
625.0, 0.020382409572658404
626.0, 0.018069562869665115
627.0, 0.01590272076681961
628.0, 0.014880318395676762
629.0, 0.014551565338123833
630.0, 0.013422846874085148
631.0, 0.012196486609614006
632.0, 0.011389885073353218
633.0, 0.009584231687990467
634.0, 0.009020786846825559
635.0, 0.00800571147129697
636.0, 0.007514597320351897
637.0, 0.00731951025330543
638.0, 0.006422169182706566
639.0, 0.0047710002694310635
640.0, 0.005285643954611306
641.0, 0.004177126833600958
642.0, 0.0035499623724816673
643.0, 0.003345976038799889
644.0, 0.002537665217457215
645.0, 0.0028466660636535467
646.0, 0.003507571501614228
647.0, 0.001633964504705859
648.0, 0.0019444609005087937
649.0, 0.0028282647776747757
650.0, 0.0013149867222895446
651.0, 0.0010415400321066868
652.0, 0.000284110473091406
653.0, 0.0006249071204607465
654.0, 0.00027000235103089357
655.0, 0.00028062747972292125
656.0, 0.0010320552796400603
657.0, 0.0003939085316300287
658.0, 0.00022411904744303992
659.0, 0.0002974418005413248
660.0, 0.00021319914727020215
661.0, 3.765077653896035e-05
662.0, 0.00029344896530139386
663.0, 0.0003108241980948722
664.0, 0.00023262721359255037
665.0, 0.00041015756674995293
666.0, 0.00012131951335947
667.0, 0.0007169633655210762
668.0, 0.000827365598907002
669.0, 0.00011863062064697333
670.0, 0.00030522884972273797
671.0, 9.878315313753228e-05
672.0, 0.0002087238625112387
673.0, 0.00014431504930934093
674.0, 0.00045473637343373485
675.0, 0.00062500667078759
676.0, 0.0010343524575694733
677.0, 0.0004086737141320751
678.0, 0.0007489273370533099
679.0, 0.0005894893139465243
680.0, 0.00019908386940654151
681.0, 7.020407276980454e-05
682.0, 0.0006397660129842647
683.0, 0.0001882198962112641
684.0, 0.00028666828059067625
685.0, 0.001688083773172191
686.0, 0.0016225419963148955
687.0, 0.00011705155010196808
688.0, 0.0009432328486145017
689.0, 0.00018356748171163508
690.0, 0.00032731002096569303
691.0, 0.000962162465610262
692.0, 0.0011590162976274133
693.0, 0.0011040789282426664
694.0, 0.0008285566455716691
695.0, 6.132120460868368e-05
696.0, 0.001064845059271912
697.0, 0.0013321836168691005
698.0, 0.0008749824452248105
699.0, 0.0009097168298931788
700.0, 0.0006412325389930704
701.0, 0.0020637653914962763
702.0, 0.0021881855663699735
703.0, 0.0007914355152595957
704.0, 0.0013702917219559096
705.0, 0.002829204135373589
706.0, 0.0005067201289461464
707.0, 0.0013332966265053726
708.0, 0.0010214560870318446
709.0, 0.001401860486216138
710.0, 0.0012434193780635158
711.0, 0.0003473706411778609
712.0, 0.00032875435135869887
713.0, 0.0009369722825594779
714.0, 0.001143809946245001
715.0, 0.0010527034076092238
716.0, 0.001030116124966374
717.0, 0.0005727596855329821
718.0, 0.00029509694507128583
719.0, 0.0007001694161383622
720.0, 0.0011411936466839386
721.0, 0.00022780733630524007
722.0, 0.00022927323965700051
723.0, 0.00016731281460020722
724.0, 0.00015234797402195323
725.0, 0.00040718531403903817
726.0, 0.0008470177247369203
727.0, 0.0010061076080161789
728.0, 0.0010764323745014368
729.0, 0.0007324918267463929
730.0, 0.0003134657205399088
731.0, 0.00018035175613443684
732.0, 0.00011818374761114372
733.0, 3.6230381233027525e-05
734.0, 0.00027967577036318997
735.0, 6.482844979431178e-05
736.0, 4.7293382593233044e-05
737.0, 0.0005479846014124173
738.0, 0.0006957973487196076
739.0, 0.0005294280372563223
740.0, 0.00018783873437758282
741.0, 0.0001491345245847883
742.0, 0.00015250245195772051
743.0, 0.00017344034773003394
744.0, 0.0012263570242904479
745.0, 0.0004249546000113745
746.0, 0.0007545946752188937
747.0, 0.0012305123077054078
748.0, 0.0021830691394654073
749.0, 0.00277760591940868
750.0, 0.0025049077408425
751.0, 0.0017225081936674172
752.0, 0.0004022819394089726
753.0, 0.0012290468974860364
754.0, 0.0006851754128112947
755.0, 0.000256667696516939
756.0, 0.0009524412406269238
757.0, 0.0015433881684497172
758.0, 0.0010560676366907758
759.0, 3.334857211533164e-05
760.0, 0.0012906229200163573
761.0, 0.0008267948728497046
762.0, 0.001049716660999462
763.0, 0.001987293384825278
764.0, 0.001193305393584952
765.0, 0.0010845954944040427
766.0, 0.001785566824108732
767.0, 0.0016246127135644873
768.0, 0.0020916943132283697
769.0, 0.002317775589001698
770.0, 0.0016039287932141679
771.0, 0.001460413432637258
772.0, 0.002679985055728328
773.0, 0.0024124364432296054
774.0, 0.002314587399061716
775.0, 0.0025055961989752813
776.0, 0.0020795967360608255
777.0, 0.0010817431499800685
778.0, 0.0008703195907092078
779.0, 0.0008240460325673079
780.0, 0.00019494967428526934
781.0, 0.0011283895925411696
782.0, 0.0014736833685311671
783.0, 0.0009522359433923319
784.0, 0.0007978224143654099
785.0, 0.00038847864601548556
786.0, 0.0009182660283291266
787.0, 0.0013940998581401024
788.0, 0.0010715893147463628
789.0, 0.0007651170296939388
790.0, 0.0012392756081033057
791.0, 0.0018089607729292667
792.0, 0.000235505309530395
793.0, 0.00045610932918984835
794.0, 0.00022432774232760048
795.0, 0.0008543455986280914
796.0, 0.0005278747788054834
797.0, 6.227405205591776e-05
798.0, 0.0008381981964373376
799.0, 0.0003296737502802769
800.0, 0.00017964621525710088
801.0, 0.000560417417584994
802.0, 0.0008872933565622418
803.0, 0.0005484470012599096
804.0, 0.0009313436924602157
805.0, 0.0022794152725343544
806.0, 0.0015263013468496747
807.0, 0.0016416004300907293
808.0, 0.0009179228482888661
809.0, 0.0007747637394916403
810.0, 0.0007950316701222436
811.0, 0.0006598041478909699
812.0, 0.000783966608906556
813.0, 0.00011887457525854608
814.0, 0.00023989068948194615
815.0, 0.00015560822196406822
816.0, 7.485593560264889e-05
817.0, 0.0008225967484091657
818.0, 0.0007652175208631468
819.0, 0.00048660956880784484
820.0, 0.002772409533154632
821.0, 0.001324467202008207
822.0, 0.0014567350115596723
823.0, 0.0014480316986552268
824.0, 0.0011912454961403131
825.0, 0.0015315802284065136
826.0, 0.0017663625286062504
827.0, 0.0006277801904150193
828.0, 3.8030212507291644e-05
829.0, 9.068258531035565e-05
830.0, 6.802030683778264e-05
831.0, 0.00021870968966253236
832.0, 0.0007932289621412013
833.0, 0.0010069750254577206
834.0, 0.00041842012465019866
835.0, 0.0010839382564183854
836.0, 0.001525368817290841
837.0, 0.0012289327587908234
838.0, 0.0008850771536868388
839.0, 0.001631109321025089
840.0, 0.0023821834258450423
841.0, 0.0008508908980532038
842.0, 0.0023296395539548916
843.0, 0.0016362330870956145
844.0, 0.0014259935912319514
845.0, 0.00168880190549582
846.0, 0.0015352487553630953
847.0, 0.0014969007652771427
848.0, 0.0019595251216609094
849.0, 0.0014023264191593441
850.0, 0.0018519406030715379
851.0, 0.0013085738362197217
852.0, 0.0018110527597795833
853.0, 0.0017880548862691638
854.0, 0.0010525415539238017
855.0, 0.0016898359901468738
856.0, 0.00160990746897578
857.0, 0.0016850883361067897
858.0, 0.0016154567386291107
859.0, 0.0013379553302181795
860.0, 0.00170132079304176
861.0, 0.0024473007154168884
862.0, 0.002114620277155127
863.0, 0.0005661262727500521
864.0, 0.0018124767151393548
865.0, 0.0022742430145774716
866.0, 0.002744387656435847
867.0, 0.0022932563795263674
868.0, 0.002512820885245526
869.0, 0.003505803798948422
870.0, 0.0027256775963907386
871.0, 0.0024466483428964157
872.0, 0.0009629228751145942
873.0, 0.0017340801634117115
874.0, 0.001294186246446271
875.0, 0.0010859259881764467
876.0, 0.002267251086090387
877.0, 0.002563694440663355
878.0, 0.0011856442911297805
879.0, 0.0005642516508889464
880.0, 0.0008967837909138382
881.0, 0.0006119354901390623
882.0, 0.0004844584296924969
883.0, 0.00105669820433426
884.0, 0.0010395370349649607
885.0, 0.00011520880473469561
886.0, 0.00017837330751536992
887.0, 0.0011827025528222043
888.0, 0.0016993412522681283
889.0, 0.0019593990379275206
890.0, 0.001574278315579236
891.0, 0.0009309824422928859
892.0, 0.000424116753114621
893.0, 0.00016241341130793357
894.0, 0.0004044170736820764
895.0, 0.00016267821993404635
896.0, 0.0010470785024954605
897.0, 0.0010259101024082595
898.0, 0.00024670317372020795
899.0, 0.00032838166403737065
900.0, 0.001280974259593475
901.0, 0.0002709374592069303
902.0, 3.455808337152684e-05
903.0, 0.00031041063017673914
904.0, 0.00013971216875770094
905.0, 0.00020130351974757842
906.0, 0.0004601838170314532
907.0, 0.00014065441136297947
908.0, 0.0008953668618160915
909.0, 0.00013668214569916546
910.0, 0.00035909827654199685
911.0, 0.0002449296450719583
912.0, 0.00013618177245556146
913.0, 4.427368152039279e-05
914.0, 2.7174075397528398e-05
915.0, 0.00034299583504616223
916.0, 7.528162060279772e-05
917.0, 0.0001811534271034545
918.0, 0.00023499176447333347
919.0, 7.447551350598622e-05
920.0, 0.0003189812707344648
921.0, 0.0006183360244938818
922.0, 0.0014071847826418258
923.0, 0.0005998209851284858
924.0, 0.00036088276493032197
925.0, 6.757955470898018e-05
926.0, 0.0005496669788460078
927.0, 0.0011200929635213927
928.0, 0.0013302494336676941
929.0, 0.0012037390083303179
930.0, 0.00032430004748173563
931.0, 7.682861272557368e-05
932.0, 0.0009840499728612957
933.0, 0.00026378559612817134
934.0, 0.00045705561391524193
935.0, 0.0006578277868575468
936.0, 0.0018873590514626168
937.0, 0.0015483090938259616
938.0, 0.0019121639892071796
939.0, 0.0037766275019550464
940.0, 0.0029290184966479535
941.0, 0.0023535608521054823
942.0, 0.0015107412345740474
943.0, 0.0004101816622297849
944.0, 0.0011504925897541317
945.0, 0.0027470322445407006
946.0, 0.002955859971087707
947.0, 0.0032440308831316106
948.0, 0.005203779296072726
949.0, 0.004206091182235861
950.0, 0.0044607206693012495
951.0, 0.004668542936194159
952.0, 0.0050904336308443
953.0, 0.005850809150798933
954.0, 0.006577384187820778
955.0, 0.006914596670460035
956.0, 0.00720322949293181
957.0, 0.008303930503226375
958.0, 0.010615829905243412
959.0, 0.011923185459676062
960.0, 0.01460493056702572
961.0, 0.016025447791962452
962.0, 0.017119461136797822
963.0, 0.020087624124882943
964.0, 0.024653185898464502
965.0, 0.029449434806413363
966.0, 0.03545174994826872
967.0, 0.041473319368318315
968.0, 0.048670938806288616
969.0, 0.06059772977073762
970.0, 0.07823077768797491
971.0, 0.10118746069070236
972.0, 0.13090435467387362
973.0, 0.16420527271173335
974.0, 0.19178668432853982
975.0, 0.2207081848087368
976.0, 0.25312766804950604
977.0, 0.29342480357304923
978.0, 0.347511256781846
979.0, 0.42289847748554055
980.0, 0.5243823864339353
981.0, 0.6505133274656407
982.0, 0.7894294133233535
983.0, 0.91856772672272
984.0, 0.9943764355806626
985.0, 0.9438055723995095
986.0, 0.7679938791901824
987.0, 0.5519856956898138
988.0, 0.37014473262542336
989.0, 0.24738081518716767
990.0, 0.17216875515451552
991.0, 0.1236860456525561
992.0, 0.09505725757025757
993.0, 0.07512439057309879
994.0, 0.059994740461386344
995.0, 0.04884735658233735
996.0, 0.04107279159981411
997.0, 0.03505841951738878
998.0, 0.030372006708701507
999.0, 0.02679890032305118
1000.0, 0.022708318775884258
1001.0, 0.02184672394011413
1002.0, 0.018999735748779046
1003.0, 0.0173047567764902
1004.0, 0.015611434290162407
1005.0, 0.015213342118056857
1006.0, 0.015059707774096065
1007.0, 0.013863279424247352
1008.0, 0.013340904082994333
1009.0, 0.01168256633997338
1010.0, 0.01001769281311448
1011.0, 0.008447774933618365
1012.0, 0.00843723888614237
1013.0, 0.007325218984664077
1014.0, 0.005394756917841931
1015.0, 0.00489985457576743
1016.0, 0.005145563810768151
1017.0, 0.0035715112690443457
1018.0, 0.0027354708177865566
1019.0, 0.0033727811425414904
1020.0, 0.0031773130630136683
1021.0, 0.001964296482072695
1022.0, 0.0012611350107802185
1023.0, 0.0020302955199927404
1024.0, 0.0019475225341282671
1025.0, 0.0004118652351944994
1026.0, 0.00021111622778916697
1027.0, 0.0004421540159864946
1028.0, 0.00010231073151940336
1029.0, 0.00036517519878519146
1030.0, 0.0004440681747398349
1031.0, 5.4307481368041504e-05
1032.0, 0.00016146161333472798
1033.0, 0.00032107553053005856
1034.0, 0.00017111554427239232
1035.0, 0.00019631079688635223
1036.0, 0.0002998070621803125
1037.0, 0.0003908269703646135
1038.0, 0.0006489060315433753
1039.0, 0.0004337290637132625
1040.0, 0.0007340328368276141
1041.0, 0.0001986228387784872
1042.0, 0.0005269494023540098
1043.0, 7.13343391421113e-05
1044.0, 0.0006147434409659566
1045.0, 0.0020316942347282474
1046.0, 0.0008098404423566454
1047.0, 0.0009647964870886248
1048.0, 0.001138044505751567
1049.0, 0.0008112167681917602
1050.0, 0.0002811647426638557
1051.0, 0.0004279955630578837
1052.0, 0.0008332136302894946
1053.0, 0.0007223665099994921
1054.0, 0.0008114600848394371
1055.0, 0.0017143098997093604
1056.0, 0.0029154927047016187
1057.0, 0.00344002069698821
1058.0, 0.0017983308028821933
1059.0, 0.0016960305680048218
1060.0, 0.0016444032772365206
1061.0, 0.0004892702808603046
1062.0, 0.00036444763626749074
1063.0, 0.0020448676668131304
1064.0, 0.0028966619888217407
1065.0, 0.0030299700088528775
1066.0, 0.0035172944295448713
1067.0, 0.0030822179758610386
1068.0, 0.003937419444070123
1069.0, 0.0037900115857375806
1070.0, 0.003957355477561123
1071.0, 0.004618115235823208
1072.0, 0.004683822141216456
1073.0, 0.004900157516647459
1074.0, 0.005490936278592146
1075.0, 0.0060340567674238505
1076.0, 0.006127306821603406
1077.0, 0.006275398365049363
1078.0, 0.00643893483555209
1079.0, 0.006796512309841381
1080.0, 0.007885377504672426
1081.0, 0.008511142204817333
1082.0, 0.008318738242671774
1083.0, 0.008370074392721916
1084.0, 0.007625788525750895
1085.0, 0.0087556065073813
1086.0, 0.007160516758756894
1087.0, 0.006758233590403907
1088.0, 0.0077203253214304405
1089.0, 0.007313524275577209
1090.0, 0.006815570749778166
1091.0, 0.007078380707710654
1092.0, 0.007260505578758819
1093.0, 0.00735738249421106
1094.0, 0.006359289959983697
1095.0, 0.0047184928117713736
1096.0, 0.006116352934176034
1097.0, 0.006520464544355569
1098.0, 0.006963400085378398
1099.0, 0.005869876346237344
1100.0, 0.006057295081182214
1101.0, 0.005842785342176134
1102.0, 0.004360994072923397
1103.0, 0.0047170923046956845
1104.0, 0.003699981332601893
1105.0, 0.003990358985402618
1106.0, 0.0024966027919341416
1107.0, 0.0017217231879334675
1108.0, 0.0011282886929192156
1109.0, 0.001354630544298949
1110.0, 0.0007413476219186423
1111.0, 0.0004344461450924369
1112.0, 0.0010780415015819269
1113.0, 0.0010299659556613342
1114.0, 0.0002466884524435245
1115.0, 0.00010642237998757119
1116.0, 0.0003660312855405924
1117.0, 0.0010224270430593519
1118.0, 0.0012549633088191831
1119.0, 0.0003575185301542215
1120.0, 0.0002795405709213108
1121.0, 0.00011150165211304831
1122.0, 0.0003286609511566862
1123.0, 0.0009672897484676636
1124.0, 0.002591962335428236
1125.0, 0.0015552748875500568
1126.0, 0.0014501265701146872
1127.0, 0.0012302164445971893
1128.0, 0.0015432623675371213
1129.0, 0.0016859138265442023
1130.0, 0.001438098230753135
1131.0, 0.0022765469768045807
1132.0, 0.001716347995724523
1133.0, 0.0016157371133119316
1134.0, 0.003223826785871738
1135.0, 0.0034348541435442
1136.0, 0.005362362578110842
1137.0, 0.00505964494942518
1138.0, 0.0046768959719933525
1139.0, 0.007349343314185635
1140.0, 0.006248258970169642
1141.0, 0.006498249980250484
1142.0, 0.008261284786644339
1143.0, 0.009539089312636551
1144.0, 0.009932155052613108
1145.0, 0.00992352409252249
1146.0, 0.010277387009483116
1147.0, 0.010124549403660164
1148.0, 0.009445424390000753
1149.0, 0.009839874975921394
1150.0, 0.00978969012212183
1151.0, 0.009236815098001802
1152.0, 0.009943231201318662
1153.0, 0.008701421235735668
1154.0, 0.007398447724658364
1155.0, 0.00747303465219599
1156.0, 0.007149459282030819
1157.0, 0.006284517101376831
1158.0, 0.005545842203155179
1159.0, 0.0050819774773669035
1160.0, 0.00381542632684734
1161.0, 0.004028950975486341
1162.0, 0.004298957074576092
1163.0, 0.003036173874149035
1164.0, 0.002726759597657956
1165.0, 0.0014638386275232325
1166.0, 0.0011348341249246905
1167.0, 0.001791587958235778
1168.0, 0.0007215925402807692
1169.0, 0.0013780092178784968
1170.0, 0.0030883054614569824
1171.0, 0.0029290926392526615
1172.0, 0.0012956735346342772
1173.0, 0.0006674453517272845
1174.0, 0.00048797011176388873
1175.0, 0.00024672870098476073
1176.0, 0.0004134902192754984
1177.0, 0.0007564540820566498
1178.0, 0.0014095377865506742
1179.0, 0.0014769544992823678
1180.0, 0.0002523422626054104
1181.0, 0.0001219673764424184
1182.0, 6.961600524457845e-05
1183.0, 0.00012062679961945686
1184.0, 0.0008722863634269268
1185.0, 0.000283201336797156
1186.0, 0.0005052123776030583
1187.0, 0.0006046195915430833
1188.0, 0.0001895895444083286
1189.0, 0.0002480160167128787
1190.0, 0.0001913230701432944
1191.0, 0.00016023442056295047
1192.0, 7.183871845708598e-05
1193.0, 0.00010148426163090839
1194.0, 0.0005544776263849256
1195.0, 0.0009652460463247967
1196.0, 0.0010213979414137324
1197.0, 0.0005113351125522162
1198.0, 0.00012746419775484764
1199.0, 0.00013043019678326745
1200.0, 0.0014087625699870374
1201.0, 0.0008944548981633588
1202.0, 0.0003151392979153227
1203.0, 0.000903860385274478
1204.0, 7.472381621974893e-05
1205.0, 0.0007176544481650056
1206.0, 0.00022722300728054355
1207.0, 0.0009290916771982666
1208.0, 0.0015197998412557114
1209.0, 0.0016234680070161983
1210.0, 0.0014060153118665415
1211.0, 0.0015121086387906867
1212.0, 0.0012822925004604656
1213.0, 0.001802058256085308
1214.0, 0.0015804503689819179
1215.0, 0.0010354170117895139
1216.0, 0.00034939560753498495
1217.0, 0.0002930016062733402
1218.0, 0.0015263233802652733
1219.0, 0.002001666836990926
1220.0, 0.0012319976527156592
1221.0, 0.001245458024500567
1222.0, 7.115587410416492e-05
1223.0, 0.0009991722794455073
1224.0, 0.0011562957409326983
1225.0, 0.00155282730885999
1226.0, 0.0012496376409239119
1227.0, 0.00022257079484259957
1228.0, 0.00023299546817480936
1229.0, 0.0004311174509348956
1230.0, 0.00020340317282689733
1231.0, 0.0008349408698465496
1232.0, 0.0004161070026011226
1233.0, 9.537796020447086e-05
1234.0, 0.0004196669959911257
1235.0, 0.0009135101950109823
1236.0, 0.0007345919430008286
1237.0, 0.0010378052965615396
1238.0, 0.0012015320880675547
1239.0, 0.002049583185809398
1240.0, 0.0006614086925104696
1241.0, 0.0006296980056030035
1242.0, 0.001997630884056267
1243.0, 0.001329169646302025
1244.0, 0.0013707242035781988
1245.0, 0.0012797955730838664
1246.0, 0.0013842704305739118
1247.0, 0.00019481024588382885
1248.0, 0.00047747159007830044
1249.0, 0.002688720196934542
1250.0, 0.002296255386759174
1251.0, 0.0017537832007622576
1252.0, 0.0017717048697229085
1253.0, 0.00247798654754044
1254.0, 0.0035360132301546906
1255.0, 0.002386844670501427
1256.0, 0.001013637577771185
1257.0, 0.0017136458885140572
1258.0, 0.0013065162753333798
1259.0, 0.003172807193482989
1260.0, 0.0034596005827053447
1261.0, 0.0039006250099242567
1262.0, 0.002558210621396948
1263.0, 0.0012016213225123315
1264.0, 0.0007147367122996288
1265.0, 0.0011679804327518716
1266.0, 0.0022790590062405857
1267.0, 0.001882376446959105
1268.0, 0.0019956094929333523
1269.0, 0.0017189926913803106
1270.0, 0.0010795483022116995
1271.0, 0.0024645682685888147
1272.0, 0.002402262487724866
1273.0, 0.001680282544608264
1274.0, 0.0019606774704773434
1275.0, 0.00045840755586798383
1276.0, 0.0008402892218232792
1277.0, 0.001475813199046615
1278.0, 0.0015018649458177524
1279.0, 0.0005888192974671695
1280.0, 0.0007958493820789688
1281.0, 0.0019170051427533352
1282.0, 0.0010513893067452455
1283.0, 0.0010982746169969659
1284.0, 0.0015646509321120522
1285.0, 0.0008874819328527771
1286.0, 0.000999447874743012
1287.0, 0.000593410115666247
1288.0, 0.0015674392983409786
1289.0, 4.111972245308578e-05
1290.0, 0.000340691008010433
1291.0, 0.0013176273582192401
1292.0, 0.0004928826016045127
1293.0, 0.0011325282807080816
1294.0, 0.0008427994943413909
1295.0, 0.0020801225339397763
1296.0, 0.002325023704617268
1297.0, 0.0005305392350170772
1298.0, 0.0006942882147001611
1299.0, 0.0012827440422090216
1300.0, 0.00016119594840354102
1301.0, 1.75123052062899e-05
1302, 0.0
1303, 0.0
1304, 0.0
1305, 0.0
1306, 0.0
1307, 0.0
1308, 0.0
1309, 0.0
1310, 0.0
1311, 0.0
1312, 0.0
1313, 0.0
1314, 0.0
1315, 0.0
1316, 0.0
1317, 0.0
1318, 0.0
1319, 0.0
1320, 0.0
1321, 0.0
1322, 0.0
1323, 0.0
1324, 0.0
1325, 0.0
1326, 0.0
1327, 0.0
1328, 0.0
1329, 0.0
1330, 0.0
1331, 0.0
1332, 0.0
1333, 0.0
1334, 0.0
1335, 0.0
1336, 0.0
1337, 0.0
1338, 0.0
1339, 0.0
1340, 0.0
1341, 0.0
1342, 0.0
1343, 0.0
1344, 0.0
1345, 0.0
1346, 0.0
1347, 0.0
1348, 0.0
1349, 0.0
1350, 0.0
1351, 0.0
1352, 0.0
1353, 0.0
1354, 0.0
1355, 0.0
1356, 0.0
1357, 0.0
1358, 0.0
1359, 0.0
1360, 0.0
1361, 0.0
1362, 0.0
1363, 0.0
1364, 0.0
1365, 0.0
1366, 0.0
1367, 0.0
1368, 0.0
1369, 0.0
1370, 0.0
1371, 0.0
1372, 0.0
1373, 0.0
1374, 0.0
1375, 0.0
1376, 0.0
1377, 0.0
1378, 0.0
1379, 0.0
1380, 0.0
1381, 0.0
1382, 0.0
1383, 0.0
1384, 0.0
1385, 0.0
1386, 0.0
1387, 0.0
1388, 0.0
1389, 0.0
1390, 0.0
1391, 0.0
1392, 0.0
1393, 0.0
1394, 0.0
1395, 0.0
1396, 0.0
1397, 0.0
1398, 0.0
1399, 0.0
1400, 0.0
1401, 0.0
1402, 0.0
1403, 0.0
1404, 0.0
1405, 0.0
1406, 0.0
1407, 0.0
1408, 0.0
1409, 0.0
1410, 0.0
1411, 0.0
1412, 0.0
1413, 0.0
1414, 0.0
1415, 0.0
1416, 0.0
1417, 0.0
1418, 0.0
1419, 0.0
1420, 0.0
1421, 0.0
1422, 0.0
1423, 0.0
1424, 0.0
1425, 0.0
1426, 0.0
1427, 0.0
1428, 0.0
1429, 0.0
1430, 0.0
1431, 0.0
1432, 0.0
1433, 0.0
1434, 0.0
1435, 0.0
1436, 0.0
1437, 0.0
1438, 0.0
1439, 0.0
1440, 0.0
1441, 0.0
1442, 0.0
1443, 0.0
1444, 0.0
1445, 0.0
1446, 0.0
1447, 0.0
1448, 0.0
1449, 0.0
1450, 0.0
1451, 0.0
1452, 0.0
1453, 0.0
1454, 0.0
1455, 0.0
1456, 0.0
1457, 0.0
1458, 0.0
1459, 0.0
1460, 0.0
1461, 0.0
1462, 0.0
1463, 0.0
1464, 0.0
1465, 0.0
1466, 0.0
1467, 0.0
1468, 0.0
1469, 0.0
1470, 0.0
1471, 0.0
1472, 0.0
1473, 0.0
1474, 0.0
1475, 0.0
1476, 0.0
1477, 0.0
1478, 0.0
1479, 0.0
1480, 0.0
1481, 0.0
1482, 0.0
1483, 0.0
1484, 0.0
1485, 0.0
1486, 0.0
1487, 0.0
1488, 0.0
1489, 0.0
1490, 0.0
1491, 0.0
1492, 0.0
1493, 0.0
1494, 0.0
1495, 0.0
1496, 0.0
1497, 0.0
1498, 0.0
1499, 0.0
1500, 0.0
1501, 0.0
1502, 0.0
1503, 0.0
1504, 0.0
1505, 0.0
1506, 0.0
1507, 0.0
1508, 0.0
1509, 0.0
1510, 0.0
1511, 0.0
1512, 0.0
1513, 0.0
1514, 0.0
1515, 0.0
1516, 0.0
1517, 0.0
1518, 0.0
1519, 0.0
1520, 0.0
1521, 0.0
1522, 0.0
1523, 0.0
1524, 0.0
1525, 0.0
1526, 0.0
1527, 0.0
1528, 0.0
1529, 0.0
1530, 0.0
1531, 0.0
1532, 0.0
1533, 0.0
1534, 0.0
1535, 0.0
1536, 0.0
1537, 0.0
1538, 0.0
1539, 0.0
1540, 0.0
1541, 0.0
1542, 0.0
1543, 0.0
1544, 0.0
1545, 0.0
1546, 0.0
1547, 0.0
1548, 0.0
1549, 0.0
1550, 0.0
1551, 0.0
1552, 0.0
1553, 0.0
1554, 0.0
1555, 0.0
1556, 0.0
1557, 0.0
1558, 0.0
1559, 0.0
1560, 0.0
1561, 0.0
1562, 0.0
1563, 0.0
1564, 0.0
1565, 0.0
1566, 0.0
1567, 0.0
1568, 0.0
1569, 0.0
1570, 0.0
1571, 0.0
1572, 0.0
1573, 0.0
1574, 0.0
1575, 0.0
1576, 0.0
1577, 0.0
1578, 0.0
1579, 0.0
1580, 0.0
1581, 0.0
1582, 0.0
1583, 0.0
1584, 0.0
1585, 0.0
1586, 0.0
1587, 0.0
1588, 0.0
1589, 0.0
1590, 0.0
1591, 0.0
1592, 0.0
1593, 0.0
1594, 0.0
1595, 0.0
1596, 0.0
1597, 0.0
1598, 0.0
1599, 0.0
