30, 0.0
31, 0.0
32, 0.0
33, 0.0
34, 0.0
35, 0.0
36, 0.0
37, 0.0
38, 0.0
39, 0.0
40, 0.0
41, 0.0
42, 0.0
43, 0.0
44, 0.0
45, 0.0
46, 0.0
47, 0.0
48, 0.0
49, 0.0
50, 0.0
51, 0.0
52, 0.0
53, 0.0
54, 0.0
55, 0.0
56, 0.0
57, 0.0
58, 0.0
59, 0.0
60, 0.0
61, 0.0
62, 0.0
63, 0.0
64, 0.0
65, 0.0
66, 0.0
67, 0.0
68, 0.0
69, 0.0
70, 0.0
71, 0.0
72, 0.0
73, 0.0
74, 0.0
75, 0.0
76, 0.0
77, 0.0
78, 0.0
79, 0.0
80, 0.0
81, 0.0
82, 0.0
83, 0.0
84, 0.0
85, 0.0
86, 0.0
87, 0.0
88, 0.0
89, 0.0
90, 0.0
91, 0.0
92, 0.0
93, 0.0
94, 0.0
95.0, 0.0017868648633477262
96.0, 0.009488868584674154
97.0, 0.019679543309203882
98.0, 0.02983181972381101
99.0, 0.03889760703274609
100.0, 0.0400017063752323
101.0, 0.04162775396446256
102.0, 0.04182646353841072
103.0, 0.037392212791278204
104.0, 0.0346702687207965
105.0, 0.03042178744678178
106.0, 0.024642451827140262
107.0, 0.022366984167247323
108.0, 0.019831815715007486
109.0, 0.017275831340544896
110.0, 0.014922192378353998
111.0, 0.01611763726854073
112.0, 0.015679060847840532
113.0, 0.01361675084307648
114.0, 0.012363750176721401
115.0, 0.011767178898571932
116.0, 0.011246809551753003
117.0, 0.010459974647249709
118.0, 0.009496445649072264
119.0, 0.00828043609320069
120.0, 0.006536908214903859
121.0, 0.003288058717659994
122.0, 0.002901647140898421
123.0, 0.0023971152581202097
124.0, 0.0007061951232180757
125.0, 0.0012292055987264796
126.0, 0.0008105232663006722
127.0, 0.00028168704762983793
128.0, 0.0011327081869607677
129.0, 0.0013340045144991188
130.0, 0.0014196242162958653
131.0, 0.0014667053137557562
132.0, 0.0011205430664935582
133.0, 0.0005655544516034467
134.0, 0.00048677612827593335
135.0, 0.0017120656447994946
136.0, 0.002086524933684128
137.0, 0.0035136585034205546
138.0, 0.005458450548589002
139.0, 0.004501801771542082
140.0, 0.006032759949059298
141.0, 0.007618331119589198
142.0, 0.007937229912752801
143.0, 0.010542209923995903
144.0, 0.011030941133296624
145.0, 0.01049551669260148
146.0, 0.011502501272454517
147.0, 0.012831075233441963
148.0, 0.014381307951563059
149.0, 0.01603838217687964
150.0, 0.016268431633520104
151.0, 0.01657624922929164
152.0, 0.017308190283658455
153.0, 0.018990600950742544
154.0, 0.018796705063092063
155.0, 0.019861241115847295
156.0, 0.021854893829278164
157.0, 0.021225282284757823
158.0, 0.021013058116501473
159.0, 0.0217272057109403
160.0, 0.023785568699243354
161.0, 0.02511684438567612
162.0, 0.026659063404539062
163.0, 0.028331868747905314
164.0, 0.029955350386718312
165.0, 0.03187524404982232
166.0, 0.03382234730178334
167.0, 0.035721217257152466
168.0, 0.03745945131452935
169.0, 0.03904814136809874
170.0, 0.04075972600615895
171.0, 0.04289103489419688
172.0, 0.04346929038238065
173.0, 0.04508313648794903
174.0, 0.04752730248261489
175.0, 0.04937155051324964
176.0, 0.050277558853846264
177.0, 0.05102937214950227
178.0, 0.05189410979903298
179.0, 0.05152271874526687
180.0, 0.05094715425502149
181.0, 0.050131303992929296
182.0, 0.048961143495025373
183.0, 0.04812797792637695
184.0, 0.04699865857889109
185.0, 0.04558413604587422
186.0, 0.0444757397836077
187.0, 0.043463212155564875
188.0, 0.04239137570696023
189.0, 0.04116385145736579
190.0, 0.037603236987770856
191.0, 0.03557643631331687
192.0, 0.03441986586327637
193.0, 0.03290528300471596
194.0, 0.031198538593013622
195.0, 0.02978210529706617
196.0, 0.02858573029142639
197.0, 0.02625204938195348
198.0, 0.024501681524755802
199.0, 0.023226496633749854
200.0, 0.022427058702101287
201.0, 0.022115877705387574
202.0, 0.02079102789453862
203.0, 0.018985806834878324
204.0, 0.017968076981229965
205.0, 0.0171940591885932
206.0, 0.016371029026338763
207.0, 0.015495690106809713
208.0, 0.015182344842274459
209.0, 0.014362719113047049
210.0, 0.012963242509433754
211.0, 0.010829910405145415
212.0, 0.01092581863235577
213.0, 0.01010314789767405
214.0, 0.008858741021447507
215.0, 0.008604441089684757
216.0, 0.007977136114569289
217.0, 0.007561977788835371
218.0, 0.007417598097908484
219.0, 0.006767665635537292
220.0, 0.005998147279854732
221.0, 0.005277638442304184
222.0, 0.00473810642560528
223.0, 0.0036434018679389855
224.0, 0.0031924563555717025
225.0, 0.0030944822543953147
226.0, 0.0027020472800008072
227.0, 0.0021999495952825594
228.0, 0.002044223153482102
229.0, 0.002145523515427273
230.0, 0.0011403268593390178
231.0, 0.0008238084818251944
232.0, 0.0007337573546168474
233.0, 0.0006102929692476495
234.0, 0.00048451854123190936
235.0, 0.00027837520632011223
236.0, 0.00015063770777713428
237.0, 0.0003999621185234359
238.0, 0.0002472136645687207
239.0, 0.00015298631437047404
240.0, 0.0001596958261759869
241.0, 0.00012052425370278678
242.0, 0.00023975843551393602
243.0, 0.0004432329762134881
244.0, 0.0006928833812470397
245.0, 0.0006502705611565053
246.0, 0.0007314528871369298
247.0, 0.0008584085560122973
248.0, 0.0009415087638983572
249.0, 0.0010233887724717292
250.0, 0.0010365708673501666
251.0, 0.0010414019751073405
252.0, 0.0012560821021758474
253.0, 0.0011532068957376292
254.0, 0.0011387084819856393
255.0, 0.001327144304578107
256.0, 0.0015671495565818508
257.0, 0.0015282368369331036
258.0, 0.001599826121464302
259.0, 0.0021002347576175627
260.0, 0.0013731955010759663
261.0, 0.0006559169212777715
262.0, 0.0002948375368116282
263.0, 0.0009691292048488161
264.0, 0.001168489754709951
265.0, 0.0013136812605816857
266.0, 0.0016041012989298263
267.0, 0.002691984513831946
268.0, 0.0030502122403976155
269.0, 0.0033689167031593316
270.0, 0.0039098021573637865
271.0, 0.0039284822814126315
272.0, 0.004237650399873104
273.0, 0.004765031243048048
274.0, 0.005469941992503677
275.0, 0.00570424194105612
276.0, 0.006180297111557771
277.0, 0.006885257036573514
278.0, 0.0077268293145550835
279.0, 0.007816876263033139
280.0, 0.007952311480784364
281.0, 0.00838590784814402
282.0, 0.009632430121838353
283.0, 0.009858325060106981
284.0, 0.010334500625984722
285.0, 0.011622081374714186
286.0, 0.011755404721320441
287.0, 0.012137503529744615
288.0, 0.013037000353272033
289.0, 0.014819078343570845
290.0, 0.015191218821660966
291.0, 0.01613740474134585
292.0, 0.01772298574170148
293.0, 0.019919321097443942
294.0, 0.021703537874619056
295.0, 0.02369094774905511
296.0, 0.026105249419445337
297.0, 0.0294924020867855
298.0, 0.03306148123280446
299.0, 0.037035147041520104
300.0, 0.0415176425234679
301.0, 0.04619516062424252
302.0, 0.051783339019337675
303.0, 0.057217329039422365
304.0, 0.0615255556311976
305.0, 0.06729113288032808
306.0, 0.07399792501098515
307.0, 0.08074445606882243
308.0, 0.0859041063653714
309.0, 0.09193166585723994
310.0, 0.09820339180391212
311.0, 0.1043261558445561
312.0, 0.10915194791907411
313.0, 0.11055004356295327
314.0, 0.11023327021212703
315.0, 0.10880428705119916
316.0, 0.10740980423569794
317.0, 0.10313930830203227
318.0, 0.09768069400454903
319.0, 0.0919839200688304
320.0, 0.0878194327923684
321.0, 0.08304560402337909
322.0, 0.07893268961535535
323.0, 0.07700770451190658
324.0, 0.07409082952877558
325.0, 0.07246190180457192
326.0, 0.07162762938370933
327.0, 0.07037107302687771
328.0, 0.0719243835433558
329.0, 0.07326124741076433
330.0, 0.0741493825500475
331.0, 0.07555834615710447
332.0, 0.07724509531317676
333.0, 0.0796170137402418
334.0, 0.08251598612534071
335.0, 0.08340297874270419
336.0, 0.08535337932975352
337.0, 0.08682839919434936
338.0, 0.08695302851874685
339.0, 0.08648041340962366
340.0, 0.08598755621741604
341.0, 0.08533033855549096
342.0, 0.08434877507083456
343.0, 0.08263404475199294
344.0, 0.07938012429303212
345.0, 0.07559225966254132
346.0, 0.07297923654407376
347.0, 0.06896437444313913
348.0, 0.06487604096733424
349.0, 0.061060809234938215
350.0, 0.05810632199595759
351.0, 0.054461522924276466
352.0, 0.05146187556635188
353.0, 0.049179501218003824
354.0, 0.04648548371286048
355.0, 0.044685062989952055
356.0, 0.043092656107304984
357.0, 0.04143046032840541
358.0, 0.039426468414525205
359.0, 0.03859871872140762
360.0, 0.038057751172624575
361.0, 0.03732082861145495
362.0, 0.037622974857848865
363.0, 0.03866368957821389
364.0, 0.039973458113950186
365.0, 0.04111910412665607
366.0, 0.04331011913499208
367.0, 0.04574935330977607
368.0, 0.04808554189047397
369.0, 0.04980386300790451
370.0, 0.051172996058974636
371.0, 0.051556211994425935
372.0, 0.05101348531728035
373.0, 0.049710278294211555
374.0, 0.047246718621631136
375.0, 0.04467674904350091
376.0, 0.04225061389716429
377.0, 0.04026030468112935
378.0, 0.037831618251026496
379.0, 0.035725780486841587
380.0, 0.034040300102927676
381.0, 0.03220995417270536
382.0, 0.031446836952360495
383.0, 0.030938407314404368
384.0, 0.030341648304256882
385.0, 0.02934171518182016
386.0, 0.029109526878351756
387.0, 0.028843769586217215
388.0, 0.028207783292577074
389.0, 0.029358030310541006
390.0, 0.029401265873511963
391.0, 0.02920119876826831
392.0, 0.029419392479096345
393.0, 0.029711562285190035
394.0, 0.02970468448466284
395.0, 0.029746885093158166
396.0, 0.03022932923550422
397.0, 0.031134225284197015
398.0, 0.03142702731911024
399.0, 0.03146739379855667
400.0, 0.031831190209049176
401.0, 0.03310486944141754
402.0, 0.03424700913704983
403.0, 0.0352422835030273
404.0, 0.03620978321018208
405.0, 0.03789813259799037
406.0, 0.03882211877918034
407.0, 0.03899024163463889
408.0, 0.038875048026575404
409.0, 0.03959120931034668
410.0, 0.03972491764586821
411.0, 0.03925758646629357
412.0, 0.03902010703408194
413.0, 0.038148105801808524
414.0, 0.03693377273305262
415.0, 0.03573994681854279
416.0, 0.035942615558229966
417.0, 0.03548069946546689
418.0, 0.035368017440521066
419.0, 0.03582300388361382
420.0, 0.03613865737297785
421.0, 0.03619916016951614
422.0, 0.036068061944894404
423.0, 0.03578074256643119
424.0, 0.035467844522883284
425.0, 0.03513684275035076
426.0, 0.03452705201900676
427.0, 0.03350072688570637
428.0, 0.032090452275890795
429.0, 0.03088502312166739
430.0, 0.029712871468577862
431.0, 0.028471772012928977
432.0, 0.02715687087040033
433.0, 0.026042754401561678
434.0, 0.02488789236198155
435.0, 0.02354134058676625
436.0, 0.022687384322594956
437.0, 0.021887598360300648
438.0, 0.021048779999537207
439.0, 0.020097746845093085
440.0, 0.01946817633669611
441.0, 0.018855333293550925
442.0, 0.018219878294461284
443.0, 0.01752347616766093
444.0, 0.01694951820627298
445.0, 0.016340176205260397
446.0, 0.015680659475755362
447.0, 0.014954009461844272
448.0, 0.014187994944798207
449.0, 0.013606704590006388
450.0, 0.013057976355645037
451.0, 0.01235235269801687
452.0, 0.01200101890383557
453.0, 0.011606899830781852
454.0, 0.011057697675531039
455.0, 0.010213756873008434
456.0, 0.009364312336271862
457.0, 0.008903673714831088
458.0, 0.008555193414106032
459.0, 0.00790048409943794
460.0, 0.007628533906933611
461.0, 0.007248091089315282
462.0, 0.006805273409103267
463.0, 0.006408685777899184
464.0, 0.0058641393750576585
465.0, 0.005555960396921303
466.0, 0.005319453217532625
467.0, 0.0048558195456126175
468.0, 0.005075580883146663
469.0, 0.005008686443261434
470.0, 0.0047745938557040065
471.0, 0.004672827489585727
472.0, 0.004509455287350467
473.0, 0.004284868882555499
474.0, 0.004074114630896755
475.0, 0.004003358437935326
476.0, 0.0037882458451060715
477.0, 0.003697748522429129
478.0, 0.0036811061771232115
479.0, 0.0036232489936309535
480.0, 0.0035416465655719546
481.0, 0.0034775832369612573
482.0, 0.0034575253233363685
483.0, 0.0035219054418788123
484.0, 0.0033568244411996337
485.0, 0.003360668955693046
486.0, 0.0034117661346967348
487.0, 0.003271890907054751
488.0, 0.0030293039645998155
489.0, 0.0030342819491112148
490.0, 0.003091833323647634
491.0, 0.002869113705075291
492.0, 0.002613065224006891
493.0, 0.0025586294118735645
494.0, 0.0025542096762669175
495.0, 0.002362611868783562
496.0, 0.0022867144427953876
497.0, 0.0028007365512112527
498.0, 0.0033068801018623774
499.0, 0.0029710169729129654
500.0, 0.002960875912884435
501.0, 0.0029802556976953813
502.0, 0.0028201388488165186
503.0, 0.0022348285699699054
504.0, 0.002247600320482138
505.0, 0.0019386267249976046
506.0, 0.0017298067578854445
507.0, 0.0021088343724665693
508.0, 0.0019854503584755203
509.0, 0.002091345560585083
510.0, 0.0022147671315041768
511.0, 0.0021391936970903834
512.0, 0.0017627350011276623
513.0, 0.0018684359269579636
514.0, 0.0019549432425411263
515.0, 0.0016091599587350336
516.0, 0.0018000749286929453
517.0, 0.0018262325811699627
518.0, 0.0017135665434990762
519.0, 0.0015000282315198415
520.0, 0.001572525925986311
521.0, 0.001554803223924749
522.0, 0.001593928205429471
523.0, 0.0017464938420357744
524.0, 0.001501446056784722
525.0, 0.0015074942972820597
526.0, 0.0013926494296374373
527.0, 0.0010629787079224197
528.0, 0.0015229659386563638
529.0, 0.0014413897817148365
530.0, 0.001295219838204247
531.0, 0.0012880759453703923
532.0, 0.0013540568666678828
533.0, 0.0011608421948660584
534.0, 0.0011554832585508887
535.0, 0.0013730773365416846
536.0, 0.0011629160049419999
537.0, 0.0010169452966597254
538.0, 0.0010277328756570915
539.0, 0.0011530106267784485
540.0, 0.0011258345227983866
541.0, 0.000776047047863332
542.0, 0.000698273237676011
543.0, 0.0008963784554290029
544.0, 0.001000087066482077
545.0, 0.0007229792166143611
546.0, 0.0005393255188828664
547.0, 0.0005182493607476674
548.0, 0.0006480380302638645
549.0, 0.0005861641308066542
550.0, 0.0006685242010502633
551.0, 0.0008463946579210245
552.0, 0.0009762710630749697
553.0, 0.0008946918377255552
554.0, 0.0007848559534550384
555.0, 0.0007291237983608316
556.0, 0.0008198197463863805
557.0, 0.0007426019868743471
558.0, 0.0006539122880581751
559.0, 0.0005653781182176288
560.0, 0.0004867824800078143
561.0, 0.00046420811710349094
562.0, 0.0003984441363694473
563.0, 0.0003663922355461345
564.0, 0.00040631622722115947
565.0, 0.00026129690851903317
566.0, 0.00019474624137099102
567.0, 0.00015461942010654812
568.0, 0.00012640874897152242
569.0, 0.0002080839731947078
570.0, 0.00015397478713640684
571.0, 9.995240955977248e-05
572.0, 0.00012162168787205044
573.0, 0.0003340434979418795
574.0, 0.0002845472917543307
575.0, 0.00018575883202865732
576.0, 0.00010599835426752177
577.0, 8.765917833412048e-05
578.0, 0.00023879538609762596
579.0, 0.00020750127066166622
580.0, 9.81565105753443e-05
581.0, 0.0002518038043841568
582.0, 0.0003125991773650225
583.0, 0.00020664119575808195
584.0, 0.00013847911759433168
585.0, 0.00040982726211499597
586.0, 0.00025424484316084533
587.0, 0.0002533633099122151
588.0, 0.00031990664115031807
589.0, 0.0003452145753375293
590.0, 0.00013977652808106473
591.0, 8.323081447834188e-05
592.0, 0.00012003699343009439
593.0, 0.00022540129878623807
594.0, 0.0005350055401656622
595.0, 0.00042947426351936513
596.0, 0.0002993256375550234
597.0, 0.00033387102913037337
598.0, 0.0006307500300059646
599.0, 0.0005035826428999914
600.0, 0.0005341041119839452
601.0, 0.0006939341305769737
602.0, 0.0003964535250734263
603.0, 0.0005182201974667839
604.0, 0.0005689916199575179
605.0, 0.0005730816867121996
606.0, 0.0007251535248022592
607.0, 0.0008897218686799866
608.0, 0.0008059802495689567
609.0, 0.0006496707446878026
610.0, 0.0006565414967734563
611.0, 0.0007030089819505696
612.0, 0.0006854610415280912
613.0, 0.0006492984516456691
614.0, 0.000616234976038495
615.0, 0.00039789185459422464
616.0, 0.0005691440906445174
617.0, 0.000836566412969848
618.0, 0.0010063968956205795
619.0, 0.0007846327438855125
620.0, 0.0006375442406835065
621.0, 0.0006005452248273856
622.0, 0.0006084206121311538
623.0, 0.00043413878210754483
624.0, 0.0006247443108115413
625.0, 0.0006066566382529713
626.0, 0.0004718024177594333
627.0, 0.0005220207392946971
628.0, 0.0002408385582565651
629.0, 0.00024650254269064433
630.0, 0.0003492705707286659
631.0, 0.0003221222763019968
632.0, 0.00021762577465965304
633.0, 0.00015696061588330902
634.0, 0.0001498906596830515
635.0, 0.00019939853236599606
636.0, 0.0002859025039646863
637.0, 0.0003296339408470518
638.0, 0.00026548835923562966
639.0, 0.00012546487433782858
640.0, 0.00010533595976484428
641.0, 0.0001888377004863606
642.0, 0.0002955479804237222
643.0, 0.00036738755526099544
644.0, 0.00032015275624514087
645.0, 0.00022292693855356776
646.0, 0.00016621414188338178
647.0, 0.0001688840478730254
648.0, 0.00024275350904618467
649.0, 0.000356193166730834
650.0, 0.0004511436376092384
651.0, 0.0004890438320940998
652.0, 0.00047155151784145885
653.0, 0.0005730212473083049
654.0, 0.00046092395409814507
655.0, 0.0004869481258512398
656.0, 0.000581766826717229
657.0, 0.00016262215793135348
658.0, 0.0002268209947027436
659.0, 0.0005616992913956559
660.0, 0.0008069612732992803
661.0, 0.0004294405266434153
662.0, 0.0003493792939046126
663.0, 0.0004124011798042385
664.0, 0.0005318504997642817
665.0, 0.0006237783669515904
666.0, 0.0005659816633484899
667.0, 0.00040663294688214564
668.0, 0.00027494798541666244
669.0, 0.0002799782194180474
670.0, 0.0006490182868679609
671.0, 0.0004757478952410981
672.0, 0.0003853880765056197
673.0, 0.00035806192953669123
674.0, 4.627708562020819e-05
675.0, 4.7080707768861805e-05
676.0, 4.358335696695299e-05
677.0, 8.326127717134373e-05
678.0, 0.00023237201555826806
679.0, 0.00020057728455631605
680.0, 0.00030422626133213133
681.0, 0.00034210747625935923
682.0, 0.00023949981025937707
683.0, 0.00023883601007638745
684.0, 0.00024797051915360186
685.0, 0.00021493818376677062
686.0, 0.00016797087188134369
687.0, 0.000212491982594042
688.0, 0.000346517037850842
689.0, 0.0002548171971074028
690.0, 0.00020608308399196827
691.0, 0.0005424254115468247
692.0, 0.000710530367631251
693.0, 0.000955554109618504
694.0, 0.0009419050622673108
695.0, 0.0006386723813104401
696.0, 0.001074562642532038
697.0, 0.0010150586860984232
698.0, 0.0011577813333317278
699.0, 0.001485864797798314
700.0, 0.0014942756464315094
701.0, 0.001404213153323154
702.0, 0.001490918702569928
703.0, 0.0016775684143155018
704.0, 0.0018296395970876563
705.0, 0.001491088994866882
706.0, 0.0020772501641716694
707.0, 0.002586915440361842
708.0, 0.0025464070489880654
709.0, 0.0023570274202297354
710.0, 0.0027205882657682307
711.0, 0.003216293148103636
712.0, 0.0035163733983153878
713.0, 0.0031532963358910713
714.0, 0.003721807363762332
715.0, 0.004064117636548095
716.0, 0.004157626565468
717.0, 0.004077979470156516
718.0, 0.004224298926133008
719.0, 0.0046590245642579905
720.0, 0.005003532894310282
721.0, 0.005190772800450865
722.0, 0.005565478112179385
723.0, 0.006058607855161899
724.0, 0.006221409429655719
725.0, 0.006254458778789195
726.0, 0.006563449839443596
727.0, 0.00675179373744131
728.0, 0.007242048676016768
729.0, 0.007624494660985261
730.0, 0.0077731697469044505
731.0, 0.00874118063639091
732.0, 0.00920085872399155
733.0, 0.009409177354054827
734.0, 0.009639834180728495
735.0, 0.010354848063895812
736.0, 0.010423874678705744
737.0, 0.01069324755353884
738.0, 0.011277360633489003
739.0, 0.012179387477223953
740.0, 0.01284002613914398
741.0, 0.013410020872400964
742.0, 0.014190426679809553
743.0, 0.015070339407768724
744.0, 0.015250735993342555
745.0, 0.01629733686641329
746.0, 0.017113558641935193
747.0, 0.017973640003873796
748.0, 0.019398750459286324
749.0, 0.019943345045442384
750.0, 0.02145975688946932
751.0, 0.023496214239988787
752.0, 0.02568329228331873
753.0, 0.027562182825930155
754.0, 0.030734313611926217
755.0, 0.033671657253734534
756.0, 0.03663814923778098
757.0, 0.04057884082002809
758.0, 0.04587358049341028
759.0, 0.05118045575121556
760.0, 0.0570124763837893
761.0, 0.06364544947869565
762.0, 0.07054036926220925
763.0, 0.07717855610427857
764.0, 0.08315931001608894
765.0, 0.08787392683976446
766.0, 0.09035355026028981
767.0, 0.09059821797943574
768.0, 0.09094165219881993
769.0, 0.09063215088146725
770.0, 0.08930556309408672
771.0, 0.08939990265808241
772.0, 0.08965891762170747
773.0, 0.0889878535737855
774.0, 0.08814711517691454
775.0, 0.08959164506308194
776.0, 0.09012638971823524
777.0, 0.09284051196626823
778.0, 0.09685546820337575
779.0, 0.10131935831727315
780.0, 0.10749120655884407
781.0, 0.11322906690552333
782.0, 0.11958159072612654
783.0, 0.12632265020008648
784.0, 0.13213067183696994
785.0, 0.13793044295795318
786.0, 0.14226518332559968
787.0, 0.14512944828116534
788.0, 0.1464903900376808
789.0, 0.14477365072453682
790.0, 0.1463360390594235
791.0, 0.14699727497612833
792.0, 0.14712682082205417
793.0, 0.1505814041073787
794.0, 0.15628242137710988
795.0, 0.1651775969494129
796.0, 0.1774874380530289
797.0, 0.19325919649644263
798.0, 0.2129959969212033
799.0, 0.24055460796887462
800.0, 0.2745825183730581
801.0, 0.3184073674341015
802.0, 0.3792235506553701
803.0, 0.4581088260895031
804.0, 0.5468672201165308
805.0, 0.6456388362014427
806.0, 0.7483534553337732
807.0, 0.8174015377489737
808.0, 0.8873074665940269
809.0, 0.9377362196526831
810.0, 0.9678734012745086
811.0, 0.9859791518397659
812.0, 0.9968695045878215
813.0, 0.995257190640974
814.0, 0.9741177494595458
815.0, 0.9309618390092589
816.0, 0.8716034232936831
817.0, 0.7858361634178125
818.0, 0.6913584861337206
819.0, 0.5957463141543708
820.0, 0.5056459611492745
821.0, 0.43778732760907907
822.0, 0.37324802193287915
823.0, 0.31851247063807064
824.0, 0.27561055491137354
825.0, 0.2410883630927505
826.0, 0.21469976680141822
827.0, 0.19023522762414036
828.0, 0.16993998240090913
829.0, 0.1561191842174915
830.0, 0.14146548385663704
831.0, 0.1292351217443167
832.0, 0.12002626555762463
833.0, 0.11229061699622156
834.0, 0.10202360386304404
835.0, 0.09601942650409494
836.0, 0.08984287354699666
837.0, 0.08429483159749117
838.0, 0.08001267685960389
839.0, 0.07628662086353863
840.0, 0.07241087620924018
841.0, 0.06865069755059615
842.0, 0.06548794278185906
843.0, 0.06347882507401728
844.0, 0.06007708056801839
845.0, 0.057665002527982054
846.0, 0.05571814814150713
847.0, 0.05366870033917289
848.0, 0.050580866304903535
849.0, 0.04896890678215654
850.0, 0.04713619033056957
851.0, 0.045223840948425804
852.0, 0.04349471791916995
853.0, 0.041317722456425704
854.0, 0.03954953629820981
855.0, 0.03803730889006478
856.0, 0.03664618199869734
857.0, 0.03520408358149
858.0, 0.033454184763017224
859.0, 0.031738220056691885
860.0, 0.030377959269847505
861.0, 0.029264445982707013
862.0, 0.02718269296075712
863.0, 0.026714107401101434
864.0, 0.026125258248336173
865.0, 0.02496790903435987
866.0, 0.02311523481668832
867.0, 0.021400916080279307
868.0, 0.021415422878702486
869.0, 0.02089637025249332
870.0, 0.019953422540160384
871.0, 0.020367716961773596
872.0, 0.019083990917076393
873.0, 0.018296829495861908
874.0, 0.017871683268494615
875.0, 0.017550978792082925
876.0, 0.016820210223385073
877.0, 0.016259084829513673
878.0, 0.015718618804040994
879.0, 0.015272713878392262
880.0, 0.014997222595778908
881.0, 0.0146618691982085
882.0, 0.014625442900682087
883.0, 0.014266551389494462
884.0, 0.013629290906760419
885.0, 0.013159229802994304
886.0, 0.013365010241990792
887.0, 0.012832477238404218
888.0, 0.012260664829864711
889.0, 0.011932507625550726
890.0, 0.011416845383277668
891.0, 0.01144436005131016
892.0, 0.010865578582271109
893.0, 0.010103587501129515
894.0, 0.009714631366117887
895.0, 0.010052464133507622
896.0, 0.009829551250921489
897.0, 0.009404630875111062
898.0, 0.00888154015226512
899.0, 0.008316142140015059
900.0, 0.008243168174440008
901.0, 0.007802173912211736
902.0, 0.007182372252778743
903.0, 0.006639793345111759
904.0, 0.006573173662603686
905.0, 0.006571443392612119
906.0, 0.006189321587261533
907.0, 0.0058704523112120405
908.0, 0.005892022775013705
909.0, 0.006119112095316246
910.0, 0.006178820175739214
911.0, 0.005857984767589561
912.0, 0.0055259628562036485
913.0, 0.005564767330681628
914.0, 0.005833493130177873
915.0, 0.006671665294310196
916.0, 0.007504515894878742
917.0, 0.007973721963033299
918.0, 0.00784854203403053
919.0, 0.008596938201685245
920.0, 0.008852273622155103
921.0, 0.008563448590413098
922.0, 0.007786185473143822
923.0, 0.006692263069254323
924.0, 0.005576063385630028
925.0, 0.004926434526913882
926.0, 0.004340769618891823
927.0, 0.003643321017881789
928.0, 0.00310923186680527
929.0, 0.002655641506796063
930.0, 0.0023538850881466684
931.0, 0.0021913905183466214
932.0, 0.002120027526147844
933.0, 0.002004700456317815
934.0, 0.001898066982490041
935.0, 0.0017847657291019622
936.0, 0.0017004666571524753
937.0, 0.0016765511861078504
938.0, 0.0016025777429034573
939.0, 0.0017989714116150718
940.0, 0.00173340477472452
941.0, 0.0015053000264779643
942.0, 0.0014959378981791996
943.0, 0.0015151405913228632
944.0, 0.001341117181418296
945.0, 0.001180175901917839
946.0, 0.0011953172319334542
947.0, 0.0015382232528797664
948.0, 0.001315166487792906
949.0, 0.0014008415392280141
950.0, 0.0015591996177662523
951.0, 0.0016010653241292406
952.0, 0.0013872957516177851
953.0, 0.0016159422955678978
954.0, 0.0016141042949706422
955.0, 0.0015303992744273172
956.0, 0.0014441011889855845
957.0, 0.0011322109169086176
958.0, 0.0016183458353909183
959.0, 0.0016387833039508142
960.0, 0.0014402068338087918
961.0, 0.0013730087793591141
962.0, 0.001444556491076465
963.0, 0.0011454830780725069
964.0, 0.0012123364039019137
965.0, 0.0011897558639370031
966.0, 0.0006582182163501005
967.0, 0.0011454012074102148
968.0, 0.001095267986056541
969.0, 0.0008405598843490734
970.0, 0.0006222731155638705
971.0, 0.0005948793694699722
972.0, 0.00011563878332826515
973.0, 0.000377055968781876
974.0, 0.0006147991936649164
975.0, 0.000525905869246087
976.0, 8.0440535921754e-05
977.0, 0.0006780428150929205
978.0, 0.0005342799991468422
979.0, 0.00043490570960227193
980.0, 0.0005033880751912661
981.0, 0.0004575462092912924
982.0, 0.0006309121221503824
983.0, 0.0008139138165573951
984.0, 0.0009214972872819477
985.0, 0.0009324395125083959
986.0, 0.0008809990443754271
987.0, 0.0010094366553090306
988.0, 0.0011074339564132295
989.0, 0.0008888389603667578
990.0, 0.0006351305395979577
991.0, 0.0012903925659206179
992.0, 0.0011564101491261312
993.0, 0.0006252860487026462
994.0, 0.0004118710314894842
995.0, 0.0006368782619657674
996.0, 0.0006140980907490928
997.0, 0.0008319522269379064
998.0, 0.0007110078140796892
999.0, 0.0005742343699450297
1000.0, 0.0005043486164050322
1001.0, 0.00014821678654611096
1002.0, 0.0002677795055876459
1003.0, 0.0003243682765045628
1004.0, 0.00039412301759955134
1005.0, 0.0005203319906970247
1006.0, 0.0006354616669954363
1007.0, 0.0005533950942205947
1008.0, 0.0005987065821626994
1009.0, 0.0006592241254298257
1010.0, 0.000620568842142199
1011.0, 0.0004027173770104006
1012.0, 0.0004724852288825731
1013.0, 0.0005504189981776484
1014.0, 0.0006301783378699687
1015.0, 0.0006754502505736451
1016.0, 0.0005407708015023234
1017.0, 0.0004060856075716506
1018.0, 0.00036723215565568647
1019.0, 0.00031334560273796856
1020.0, 0.00021458874529827293
1021.0, 0.00023971931028352186
1022.0, 0.00010142889378590505
1023.0, 0.00017362917449807407
1024.0, 0.00027702580358385725
1025.0, 0.0002575247274942226
1026.0, 8.096054004332456e-05
1027.0, 0.0002980505709161411
1028.0, 0.0004032492219623673
1029.0, 0.0003436086377939884
1030.0, 0.0002113809096226367
1031.0, 0.0003122703018924877
1032.0, 0.00016224218966362012
1033.0, 0.0002762125855167589
1034.0, 0.0002878482584781025
1035.0, 0.0001017447321743501
1036.0, 0.00016455173025527807
1037.0, 0.0002438228016637149
1038.0, 0.00018491129207356654
1039.0, 0.00013399356827657532
1040.0, 0.00016552577376319292
1041.0, 0.00022999144096435322
1042.0, 0.0001535022152305965
1043.0, 7.717934490827474e-05
1044.0, 8.380114359694844e-05
1045.0, 0.0001295897617429643
1046.0, 1.4902450323876076e-05
1047.0, 0.00011888111638327874
1048.0, 0.0001250525342109151
1049.0, 0.00024542391362022926
1050.0, 0.00041724929673636043
1051.0, 0.0002944425949086216
1052.0, 0.00018542823737906206
1053.0, 0.00025991541938504264
1054.0, 0.0003079804281528409
1055.0, 0.0002258304549565516
1056.0, 1.4681430695920528e-05
1057.0, 0.00011956169056654999
1058.0, 0.00012987923937887334
1059.0, 0.00012254929289049493
1060.0, 0.00016713959289421594
1061.0, 0.00030340281354110225
1062.0, 0.0001833993563548097
1063.0, 0.00012004680654206702
1064.0, 6.611608558405516e-05
1065.0, 8.168877297369022e-05
1066.0, 0.00022016870210595375
1067.0, 3.794132216837247e-05
1068.0, 0.00023057795071386518
1069.0, 0.0002708928051651979
1070.0, 0.0003321163623894775
1071.0, 0.0006313190570875434
1072.0, 0.0003102100835436362
1073.0, 0.00032985589736901784
1074.0, 0.00028641554564307205
1075.0, 0.0001539350244085738
1076.0, 3.501337170169697e-05
1077.0, 0.00019694048243263905
1078.0, 7.203267561176201e-05
1079.0, 1.828031139768005e-05
1080.0, 7.559832250205836e-05
1081.0, 0.00020270222801971956
1082.0, 0.00027767378776622143
1083.0, 0.0001549214135951453
1084.0, 0.00010306267662845964
1085.0, 0.0001544036430436879
1086.0, 0.00022876905337253488
1087.0, 0.00010539144265073789
1088.0, 0.00011983095424499236
1089.0, 5.3799552111411905e-05
1090.0, 0.0001123222786350463
1091.0, 0.00024383784515928254
1092.0, 0.0001611569314599358
1093.0, 0.00026970493718872366
1094.0, 0.00038911678410699483
1095.0, 0.00025292187808386145
1096.0, 4.7848361561116435e-05
1097.0, 0.0001514611994493595
1098.0, 9.182871212548219e-05
1099.0, 3.380106043244622e-05
1100.0, 9.787082675051586e-05
1101.0, 0.00023547055548033956
1102.0, 0.0003263135042383415
1103.0, 0.00019496798453430634
1104.0, 0.00053498037164557
1105.0, 0.0004918185387594137
1106.0, 0.00022882623719333277
1107.0, 7.659312145260195e-05
1108.0, 0.00029578938424272436
1109.0, 0.0002516082621092039
1110.0, 0.0004651392731559323
1111.0, 0.0005158446501556883
1112.0, 0.0002878042256643185
1113.0, 0.0002114421280097712
1114.0, 0.000595223236288493
1115.0, 0.0006418420726191009
1116.0, 0.0007038799005198018
1117.0, 0.0008477926584227667
1118.0, 0.000885124855874133
1119.0, 0.00044255802991642395
1120.0, 0.0013207370692585071
1121.0, 0.0021101815416544904
1122.0, 0.0028487275989921546
1123.0, 0.003834548006456493
1124.0, 0.0034614724284877064
1125.0, 0.0026054133370059067
1126.0, 0.0018924682971543454
1127.0, 0.0013576077644908617
1128.0, 0.0009538106468311871
1129.0, 0.0007350337317885742
1130.0, 0.0005558838908337257
1131.0, 0.0005593963099585592
1132.0, 0.000669574886302222
1133.0, 0.0008059261239066456
1134.0, 0.0009116581695514921
1135.0, 0.0011146218213184823
1136.0, 0.0009538085114972195
1137.0, 0.000993802007724358
1138.0, 0.0011107264261789418
1139.0, 0.0008829268562591532
1140.0, 0.0008739819969027882
1141.0, 0.0008769628816601013
1142.0, 0.0008998317373742165
1143.0, 0.000905649784450311
1144.0, 0.0008997478045812783
1145.0, 0.001060064351858588
1146.0, 0.0010756224357057228
1147.0, 0.0009124225953889803
1148.0, 0.0009083751966775011
1149.0, 0.0011772234416907684
1150.0, 0.0014710865858717419
1151.0, 0.0009396628450604777
1152.0, 0.0012858981967577565
1153.0, 0.001373965677331441
1154.0, 0.0011760078440684575
1155.0, 0.0012103371001982502
1156.0, 0.0006920884447477293
1157.0, 0.0010247067398498585
1158.0, 0.0013530775515947712
1159.0, 0.0013871335382256956
1160.0, 0.0012280134828865372
1161.0, 0.0016446729180621534
1162.0, 0.0014174272019230212
1163.0, 0.0015287030637699485
1164.0, 0.0016224239170530732
1165.0, 0.0015336093744765143
1166.0, 0.0014309927709344123
1167.0, 0.0015614213174025612
1168.0, 0.001330399796056989
1169.0, 0.0015248928458169721
1170.0, 0.001832107186981534
1171.0, 0.0016595580778973834
1172.0, 0.0015338773553608904
1173.0, 0.0016005015038066555
1174.0, 0.0014231201916776503
1175.0, 0.0012901478899121801
1176.0, 0.0013576207985444403
1177.0, 0.0013522936963903983
1178.0, 0.0017547039579501487
1179.0, 0.0016456447033216864
1180.0, 0.001775527621439339
1181.0, 0.0020297304489255603
1182.0, 0.0018023929259403523
1183.0, 0.0014615054945011177
1184.0, 0.001712211575541213
1185.0, 0.0018290601274150984
1186.0, 0.0017836205383136119
1187.0, 0.0016988281028629815
1188.0, 0.0016467429919541836
1189.0, 0.0020424483311222057
1190.0, 0.002150389147567702
1191.0, 0.0021163772843833923
1192.0, 0.0020122066686297847
1193.0, 0.0018419302028177256
1194.0, 0.002007055806215426
1195.0, 0.0017787382539383827
1196.0, 0.0019326176252117437
1197.0, 0.002044439252474249
1198.0, 0.0017219377806639141
1199.0, 0.0016207750086972119
1200.0, 0.001978792979261279
1201.0, 0.0020243470348108496
1202.0, 0.0018388245217637318
1203.0, 0.0017602030093142595
1204.0, 0.00216388368973354
1205.0, 0.0018805460892556774
1206.0, 0.0019201676168012518
1207.0, 0.0020790098070094104
1208.0, 0.002209342601784136
1209.0, 0.002205629713340356
1210.0, 0.0020298574522924925
1211.0, 0.001872647962638158
1212.0, 0.0020744631456047083
1213.0, 0.0020565156389810066
1214.0, 0.00187435736478963
1215.0, 0.002060644492584919
1216.0, 0.001848954568166885
1217.0, 0.0019102766498186121
1218.0, 0.0020218754414594816
1219.0, 0.00194990284831705
1220.0, 0.001685004960114605
1221.0, 0.001715502096656433
1222.0, 0.0017265003334394487
1223.0, 0.0019944884857079305
1224.0, 0.0020094378452239067
1225.0, 0.0018831623412228701
1226.0, 0.0020657652171202695
1227.0, 0.002066281241434852
1228.0, 0.0020590284174680134
1229.0, 0.002160274939191701
1230.0, 0.002042448828953474
1231.0, 0.0017304512022866952
1232.0, 0.0019461051670165307
1233.0, 0.0013918458740424498
1234.0, 0.0017305178344010836
1235.0, 0.002031707123109624
1236.0, 0.002035569350164613
1237.0, 0.001896115299473446
1238.0, 0.001874240431481631
1239.0, 0.0017315570230419413
1240.0, 0.001870686375327065
1241.0, 0.001960419135168529
1242.0, 0.0018683458143847766
1243.0, 0.0017712654340059633
1244.0, 0.0015309835803622445
1245.0, 0.0017544493028200329
1246.0, 0.0018173470360331938
1247.0, 0.0016894862408557022
1248.0, 0.0015957829893338755
1249.0, 0.0018865515887395452
1250.0, 0.0017295194034761263
1251.0, 0.0015267332786162951
1252.0, 0.0014741148843488725
1253.0, 0.001509548469104116
1254.0, 0.0014877090264568751
1255.0, 0.0017493570075498661
1256.0, 0.0017155678693523016
1257.0, 0.0017070529806660286
1258.0, 0.0017107288051585808
1259.0, 0.001727820987647939
1260.0, 0.0018234082990426282
1261.0, 0.00181543420706014
1262.0, 0.0017117963513409167
1263.0, 0.0016310431592393908
1264.0, 0.0015233509994591514
1265.0, 0.0013516790252658657
1266.0, 0.0012385893391741707
1267.0, 0.0012574488876669616
1268.0, 0.0011577317431671055
1269.0, 0.0011480012870520749
1270.0, 0.0012895026002840819
1271.0, 0.001426696533647664
1272.0, 0.000902908074209882
1273.0, 0.0011287642183329563
1274.0, 0.0009761974824042259
1275.0, 0.0009497083177438064
1276.0, 0.0012239887727681818
1277.0, 0.0014316084167644149
1278.0, 0.001334844414995062
1279.0, 0.0011153552911557661
1280.0, 0.0010825118559461841
1281.0, 0.0011032193865516528
1282.0, 0.00106090583552651
1283.0, 0.00105241295735569
1284.0, 0.0011149798899904465
1285.0, 0.001014487350257214
1286.0, 0.0010476038118411048
1287.0, 0.0009494383449961317
1288.0, 0.0006181890449049863
1289.0, 0.0009815020627374344
1290.0, 0.0006478059276847771
1291.0, 0.0010702231283746825
1292.0, 0.0011808708661979615
1293.0, 0.0008350071777711626
1294.0, 0.0005837019526327375
1295.0, 0.0010048594620952203
1296.0, 0.0005602943053917097
1297.0, 0.0006858910681490814
1298.0, 0.0005645410604204316
1299.0, 0.000294881757085206
1300.0, 0.0007146283760648358
1301.0, 0.00043151868710173134
1302.0, 0.00033513683119082075
1303.0, 0.00031440872642862327
1304.0, 0.0004877905967378051
1305.0, 0.0006147985994249508
1306.0, 0.0001309052182122305
1307.0, 0.0003656821130535858
1308.0, 0.00021961582642079423
1309.0, 0.0002488735902640701
1310.0, 0.00042980838201153737
1311.0, 0.0005474333712128945
1312.0, 0.00037419454640959997
1313.0, 7.479613813505661e-05
1314.0, 0.00020093958042197103
1315.0, 0.00018915390595603652
1316.0, 0.00027602029556446654
1317.0, 0.0005521083341784666
1318.0, 0.0002088749812486457
1319.0, 0.00021236460049661976
1320.0, 0.0002606751694687844
1321.0, 0.00019160151712208372
1322.0, 6.537824730691202e-05
1323.0, 5.8164254998026445e-05
1324.0, 0.0003558604334337385
1325.0, 0.0002521735763119131
1326.0, 0.00023900365568576317
1327.0, 0.00046050516300217935
1328.0, 0.0006552168821734948
1329.0, 0.0005025744200498871
1330.0, 0.0001867300518496667
1331.0, 0.0002445711128897006
1332.0, 0.0003619983050660193
1333.0, 0.000333855702961753
1334.0, 0.00020692976527899627
1335.0, 0.00020680790978349739
1336.0, 0.0006131464112281541
1337.0, 0.0003091886848361245
1338.0, 0.0003716499718176047
1339.0, 0.0005910548901944038
1340.0, 0.0006277767271916757
1341.0, 0.00032986286657493566
1342.0, 0.0003310000870417826
1343.0, 0.0005350295643865496
1344.0, 0.0004878142035544884
1345.0, 0.00043758868409832295
1346.0, 0.0004101367803881015
1347.0, 0.00026837595475644725
1348.0, 0.0001390669195900235
1349.0, 0.00023885751898565502
1350.0, 0.0003131165306383219
1351.0, 0.0003336859224555116
1352.0, 0.0004258120642914348
1353.0, 0.0006737610609840236
1354.0, 0.0005442887472428509
1355.0, 0.0005629583332767617
1356.0, 0.00042312616327847046
1357.0, 0.0003488899658472228
1358.0, 0.00035779398311006414
1359.0, 0.00031675580673829883
1360.0, 0.00033030062359058364
1361.0, 0.00027982229851825503
1362.0, 0.0001701812960319257
1363.0, 8.780858380696758e-05
1364.0, 4.544490523652641e-05
1365.0, 7.883003976091486e-05
1366.0, 0.0005719405698267051
1367.0, 0.0005043358254551298
1368.0, 0.0006305970071360299
1369.0, 0.0005157956385701719
1370.0, 0.0002869526766365074
1371.0, 0.00033979792262124825
1372.0, 0.0004416774378312093
1373.0, 0.0002518630587919207
1374.0, 0.00020322065356615407
1375.0, 0.00011807029595690441
1376.0, 5.706339052499374e-05
1377.0, 0.00016498308097625934
1378.0, 0.00033905715138987137
1379.0, 0.0003159319281150987
1380.0, 0.00023037461731024143
1381.0, 0.00015374597288362227
1382.0, 0.00015725771954287453
1383.0, 0.0002352498290613407
1384.0, 0.00021265085846622933
1385.0, 0.0005252221682135744
1386.0, 0.0004043125014012136
1387.0, 0.0004843326308166896
1388.0, 0.0006386441114250148
1389.0, 0.0005441385787165647
1390.0, 0.0002124601538956555
1391.0, 0.0004489665390720579
1392.0, 0.0003238487387696543
1393.0, 0.00015182719430117966
1394.0, 9.211693232493095e-05
1395.0, 0.00013703018132896569
1396.0, 0.00012342928537649315
1397.0, 2.281675009467085e-05
1398.0, 7.44829771915657e-05
1399.0, 0.00010235592901871144
1400.0, 0.00026460449609644473
1401.0, 0.00047197503877214887
1402.0, 0.00034957140394968194
1403.0, 0.0002802992057447729
1404.0, 0.0005241639061049877
1405.0, 0.000630016362479272
1406.0, 0.0003950709776746658
1407.0, 0.00018798758683184188
1408.0, 0.0005280622445551491
1409.0, 0.0005015125497658765
1410.0, 0.0003118036207362116
1411.0, 0.0006208090870456486
1412.0, 0.0006921003481361886
1413.0, 0.00047263626452925746
1414.0, 0.0003730841998719538
1415.0, 0.0005038912369161265
1416.0, 0.00043555920669814414
1417.0, 0.0004985862244871334
1418.0, 0.0005009089446142487
1419.0, 0.00044700336405014703
1420.0, 0.00038649182946943073
1421.0, 0.00027764659987346556
1422.0, 0.0006104434526620247
1423.0, 0.0003407626568761673
1424.0, 0.00044776750092753893
1425.0, 0.0006903110537879967
1426.0, 0.0006911760100170127
1427.0, 0.0004725238293481035
1428.0, 0.0006056271660842687
1429.0, 0.00036759811989713585
1430.0, 0.0006250540957513075
1431.0, 0.0007793952149314938
1432.0, 0.0005734068264007256
1433.0, 0.0002715382922974448
1434.0, 9.652395718058957e-05
1435.0, 0.0008566093380839516
1436.0, 0.0008421278242860533
1437.0, 0.0007803365987113275
1438.0, 0.0007506135438551658
1439.0, 0.0005837735426181143
1440.0, 0.0005668030255136
1441.0, 0.000407422657646648
1442.0, 0.0004893452699333458
1443.0, 0.00035589542560521525
1444.0, 0.00041074092416653224
1445.0, 0.0006719598895216372
1446.0, 0.00046555826764742053
1447.0, 0.0006569136361459882
1448.0, 0.00033325815848927017
1449.0, 0.0001508348031829479
1450.0, 0.00020132204862827424
1451.0, 0.00029143937704455167
1452.0, 0.00022334029679920561
1453.0, 0.000307494141806159
1454.0, 0.0008066618328084132
1455.0, 0.0006240550299120117
1456.0, 0.0005922676115361302
1457.0, 0.0007523170285692733
1458.0, 0.0007017459972639776
1459.0, 0.0001545642245098483
1460.0, 0.0006620100208016058
1461.0, 0.0002318725766948175
1462.0, 0.00024227593699697715
1463.0, 0.0004332990662325367
1464.0, 0.00041615542549208897
1465.0, 0.00020854385658388715
1466.0, 0.00039802758002797044
1467.0, 0.00025720812895093737
1468.0, 0.0006556504070870686
1469.0, 0.0007798497550513258
1470.0, 0.00048580423919172464
1471.0, 0.00022418417487170907
1472.0, 0.0006040533290548208
1473.0, 0.0005718728757983599
1474.0, 0.0006262560635548194
1475.0, 0.0006854127238171469
1476.0, 0.0005896307010380336
1477.0, 0.0003281906448970842
1478.0, 0.00012565866474743305
1479.0, 0.0004758971254035028
1480.0, 0.0006965044750597482
1481.0, 0.0003625269560428694
1482.0, 0.0003663374301607319
1483.0, 0.000529518197586261
1484.0, 0.00044248065985556323
1485.0, 0.0005061906616455074
1486.0, 0.00013521328915066274
1487.0, 9.206163730233655e-05
1488.0, 0.0004105438053706327
1489.0, 0.0006079194399562617
1490.0, 0.0005953348428677086
1491.0, 0.000688370352701086
1492.0, 0.0007432886904944059
1493.0, 0.00025551102991021963
1494.0, 0.00019689144404468723
1495.0, 0.00029948944105603783
1496.0, 0.000564867771163672
1497.0, 0.0008565186066555133
1498.0, 0.0006767412569119422
1499.0, 0.0006946952394024546
1500.0, 0.0002327024994391494
1501.0, 0.00043700162701810943
1502.0, 0.0003821655013410629
1503.0, 4.8891955502152996e-05
1504.0, 7.052578411199694e-05
1505.0, 6.50440564599468e-05
1506.0, 0.00042155477684387274
1507.0, 0.0007653920254572736
1508.0, 0.001052580745718815
1509.0, 0.0012306341967990464
1510.0, 0.0013036885563262924
1511.0, 0.001327314992048731
1512.0, 0.0012569344251977227
1513.0, 0.0011969764979943797
1514.0, 0.001015812084355611
1515.0, 0.0009153932111567567
1516.0, 0.0006968362327941044
1517.0, 0.00025036761666251975
1518.0, 1.8223054761969066e-05
1519.0, 0.00025758514107814136
1520.0, 8.209294820229248e-05
1521.0, 0.00032006977773454563
1522.0, 0.0004591332571418514
1523.0, 0.0002696843147300511
1524.0, 1.4789487351676475e-07
1525, 0.0
1526, 0.0
1527, 0.0
1528, 0.0
1529, 0.0
1530, 0.0
1531, 0.0
1532, 0.0
1533, 0.0
1534, 0.0
1535, 0.0
1536, 0.0
1537, 0.0
1538, 0.0
1539, 0.0
1540, 0.0
1541, 0.0
1542, 0.0
1543, 0.0
1544, 0.0
1545, 0.0
1546, 0.0
1547, 0.0
1548, 0.0
1549, 0.0
1550, 0.0
1551, 0.0
1552, 0.0
1553, 0.0
1554, 0.0
1555, 0.0
1556, 0.0
1557, 0.0
1558, 0.0
1559, 0.0
1560, 0.0
1561, 0.0
1562, 0.0
1563, 0.0
1564, 0.0
1565, 0.0
1566, 0.0
1567, 0.0
1568, 0.0
1569, 0.0
1570, 0.0
1571, 0.0
1572, 0.0
1573, 0.0
1574, 0.0
1575, 0.0
1576, 0.0
1577, 0.0
1578, 0.0
1579, 0.0
1580, 0.0
1581, 0.0
1582, 0.0
1583, 0.0
1584, 0.0
1585, 0.0
1586, 0.0
1587, 0.0
1588, 0.0
1589, 0.0
1590, 0.0
1591, 0.0
1592, 0.0
1593, 0.0
1594, 0.0
1595, 0.0
1596, 0.0
1597, 0.0
1598, 0.0
1599, 0.0
