30, 0.0
31, 0.0
32, 0.0
33, 0.0
34, 0.0
35, 0.0
36, 0.0
37, 0.0
38, 0.0
39, 0.0
40, 0.0
41, 0.0
42, 0.0
43, 0.0
44, 0.0
45, 0.0
46, 0.0
47, 0.0
48, 0.0
49, 0.0
50, 0.0
51, 0.0
52, 0.0
53, 0.0
54, 0.0
55, 0.0
56, 0.0
57, 0.0
58, 0.0
59, 0.0
60, 0.0
61, 0.0
62, 0.0
63, 0.0
64, 0.0
65, 0.0
66, 0.0
67, 0.0
68, 0.0
69, 0.0
70, 0.0
71, 0.0
72, 0.0
73, 0.0
74, 0.0
75, 0.0
76, 0.0
77, 0.0
78, 0.0
79, 0.0
80, 0.0
81, 0.0
82, 0.0
83, 0.0
84, 0.0
85, 0.0
86, 0.0
87, 0.0
88, 0.0
89, 0.0
90, 0.0
91, 0.0
92, 0.0
93, 0.0
94, 0.0
95, 0.0
96, 0.0
97, 0.0
98, 0.0
99, 0.0
100, 0.0
101, 0.0
102, 0.0
103, 0.0
104, 0.0
105, 0.0
106, 0.0
107, 0.0
108, 0.0
109, 0.0
110.0, 0.00040336505453864897
111.0, 9.48124414971846e-05
112.0, 0.00010148662546627869
113.0, 0.0022892948271500363
114.0, 0.005988566270654023
115.0, 0.009891119153008976
116.0, 0.013679218825033193
117.0, 0.013411953107127108
118.0, 0.010489191028461152
119.0, 0.0052589566134122094
120.0, 0.002602895905163494
121.0, 0.00037574011765997877
122.0, 0.001441346836609234
123.0, 0.0007320711971210115
124.0, 0.006819986072657165
125.0, 0.015180530395788488
126.0, 0.025570931361473072
127.0, 0.037921277566635665
128.0, 0.05238197675564137
129.0, 0.07128250721435866
130.0, 0.09223872369472975
131.0, 0.11075592914007672
132.0, 0.1229775398965214
133.0, 0.12734112059658684
134.0, 0.11984259386792653
135.0, 0.11120539075267863
136.0, 0.10732080620315713
137.0, 0.10337175512651879
138.0, 0.10425803999356632
139.0, 0.1073141045058221
140.0, 0.11418026645506832
141.0, 0.12979753143324196
142.0, 0.15478226458446057
143.0, 0.19554848132946714
144.0, 0.25159572135562325
145.0, 0.32126833005269473
146.0, 0.40516994936716255
147.0, 0.5063249830168318
148.0, 0.618610385791377
149.0, 0.7330731466572988
150.0, 0.8417916287626169
151.0, 0.9481970638668239
152.0, 0.9992882941209197
153.0, 0.9458199484030325
154.0, 0.788400134096087
155.0, 0.6016470496359505
156.0, 0.4411873880518118
157.0, 0.3282967256111811
158.0, 0.25805355239159733
159.0, 0.21314331831711408
160.0, 0.18649837199841457
161.0, 0.17429231321763736
162.0, 0.17035550518429676
163.0, 0.1669886859382806
164.0, 0.1623793265573849
165.0, 0.16117363250286276
166.0, 0.15874770399616528
167.0, 0.1501399692859421
168.0, 0.1378635562854249
169.0, 0.1237210400280409
170.0, 0.10909649992682557
171.0, 0.09431928960132882
172.0, 0.07950690343936657
173.0, 0.06752684944839701
174.0, 0.057018711663139016
175.0, 0.04709547114317967
176.0, 0.038316011927125075
177.0, 0.03232426380944292
178.0, 0.027340532098399366
179.0, 0.022301294124138043
180.0, 0.017664412925594723
181.0, 0.014588248901161737
182.0, 0.012068676682712262
183.0, 0.009775835824055026
184.0, 0.008023245678406003
185.0, 0.00656270492409617
186.0, 0.00385075197672346
187.0, 0.0024686025376710317
188.0, 0.001462943460577257
189.0, 0.0005271865132922502
190.0, 0.00023000714935696458
191.0, 0.0008510449745558104
192.0, 0.0013763157969069505
193.0, 0.002707954696289857
194.0, 0.00026877712968425145
195.0, 0.0010444113490185648
196.0, 0.0007572276324556779
197.0, 0.0004137375474045157
198.0, 0.0004053231323430738
199.0, 0.002148532291123379
200.0, 0.004046818289573476
201.0, 0.003737360225602854
202.0, 0.003851616704170754
203.0, 0.005419922349171415
204.0, 0.006039318904917347
205.0, 0.0037415030370585955
206.0, 0.003931168279109569
207.0, 0.004727324502433898
208.0, 0.00346712773987778
209.0, 0.0037691521534998153
210.0, 0.004833344406165904
211.0, 0.004098712832124477
212.0, 0.002120210782278657
213.0, 0.0015748645774633695
214.0, 0.00042293829101727943
215.0, 0.001121965034066943
216.0, 0.002429108394000679
217.0, 0.002554427813316185
218.0, 0.0022712451307030693
219.0, 0.002849122447052247
220.0, 0.004327030336690292
221.0, 0.006289734179550117
222.0, 0.008119250389725519
223.0, 0.010079170741272266
224.0, 0.010908123872315934
225.0, 0.012740668172108865
226.0, 0.016784262938434137
227.0, 0.020872959950704924
228.0, 0.02487488897384555
229.0, 0.029035168890621674
230.0, 0.033043846518431744
231.0, 0.037227034233308684
232.0, 0.04304527695244273
233.0, 0.04469612456879913
234.0, 0.04763504674332891
235.0, 0.05213061111593851
236.0, 0.054864901452253236
237.0, 0.05619820979212548
238.0, 0.05583414154013479
239.0, 0.05448728339878284
240.0, 0.05224084835887188
241.0, 0.048387249229862164
242.0, 0.045508186012566336
243.0, 0.04288780570771001
244.0, 0.038373792572147215
245.0, 0.03118097916809486
246.0, 0.027830170786489652
247.0, 0.024418099160115492
248.0, 0.020458906825604296
249.0, 0.016551048675384726
250.0, 0.013194878808571033
251.0, 0.009276527525904165
252.0, 0.006498463590940579
253.0, 0.004387746333079825
254.0, 0.003030312451603391
255.0, 0.0026674552699818277
256.0, 0.000792760166475229
257.0, 0.00036177927469656146
258.0, 0.0007061845966329777
259.0, 0.0010887133616293222
260.0, 0.0018934974168522921
261.0, 0.0018750104899605117
262.0, 0.0023458412374141
263.0, 0.0034742820943765617
264.0, 0.004029031242104162
265.0, 0.0022007967646815343
266.0, 0.0012997779529519574
267.0, 0.0015068690771198638
268.0, 0.0005923435004741881
269.0, 0.0021327201970804373
270.0, 0.0012086666765297443
271.0, 0.005100995017584313
272.0, 0.009670789580595425
273.0, 0.01281876693816354
274.0, 0.015970326186314793
275.0, 0.02031561844507703
276.0, 0.026609532540780183
277.0, 0.03335013936951239
278.0, 0.04016758510285783
279.0, 0.04800880966829964
280.0, 0.0539819365693047
281.0, 0.06573498406403497
282.0, 0.07811115100168155
283.0, 0.08768684939005209
284.0, 0.10026118514107164
285.0, 0.11244617069499006
286.0, 0.12536755726506657
287.0, 0.13813797626869134
288.0, 0.1494098445341894
289.0, 0.15955903523804812
290.0, 0.16864954252242073
291.0, 0.17370876174429306
292.0, 0.17627076978031017
293.0, 0.17873868814358596
294.0, 0.17774520987410955
295.0, 0.1717962873400165
296.0, 0.16443709967774278
297.0, 0.1546574549497781
298.0, 0.14166582189459997
299.0, 0.13038627700853717
300.0, 0.11999875021118254
301.0, 0.11112307833682332
302.0, 0.10295204876575025
303.0, 0.09498908750066003
304.0, 0.08927080332873533
305.0, 0.08476401183321727
306.0, 0.08165158504038442
307.0, 0.07971546725148805
308.0, 0.07832783095168458
309.0, 0.07685584852892935
310.0, 0.07788336386378945
311.0, 0.07797005864399024
312.0, 0.076696055689182
313.0, 0.07665133302202061
314.0, 0.07824471652240494
315.0, 0.07961315065393842
316.0, 0.07914172732529891
317.0, 0.07800834818644135
318.0, 0.07845372691632758
319.0, 0.07949351428367617
320.0, 0.07900311352076324
321.0, 0.08084382694041341
322.0, 0.08379702535906709
323.0, 0.08371894087829775
324.0, 0.0870855399410673
325.0, 0.09230510315538801
326.0, 0.09774110094447963
327.0, 0.10354862007219333
328.0, 0.11129536049820396
329.0, 0.11634454343892467
330.0, 0.1223120637011664
331.0, 0.12769388402483023
332.0, 0.13095878922089324
333.0, 0.1325846428043131
334.0, 0.13268648126033353
335.0, 0.13345535340140396
336.0, 0.1309377402004678
337.0, 0.12353679446116188
338.0, 0.11406366773380286
339.0, 0.10610962690006732
340.0, 0.09781535791805478
341.0, 0.08941619326689829
342.0, 0.0810107539720329
343.0, 0.07201776054560256
344.0, 0.06163276643440463
345.0, 0.053115610304548186
346.0, 0.046652457808803505
347.0, 0.04193388832477063
348.0, 0.03816479042062573
349.0, 0.03326164717859708
350.0, 0.028974524196390728
351.0, 0.02837532050727721
352.0, 0.029290385398706594
353.0, 0.029021716041544215
354.0, 0.028173563947385048
355.0, 0.028538220581799143
356.0, 0.030893729892042067
357.0, 0.03375054652792668
358.0, 0.03682846939048855
359.0, 0.04205597075494166
360.0, 0.049910260705993595
361.0, 0.058985657457797616
362.0, 0.07114081223353874
363.0, 0.08706049484922873
364.0, 0.1041779585827212
365.0, 0.12161457793221603
366.0, 0.13841704267412927
367.0, 0.15609551213523395
368.0, 0.1749199191679749
369.0, 0.1907687862491693
370.0, 0.1925997297557422
371.0, 0.18106988359252085
372.0, 0.15422913741164088
373.0, 0.11778733653217202
374.0, 0.08245611668017258
375.0, 0.05515444636913746
376.0, 0.03619912255702784
377.0, 0.025318085886607968
378.0, 0.018400752285813567
379.0, 0.010969723067126267
380.0, 0.006508806014785814
381.0, 0.003774871362153011
382.0, 0.000965748649548537
383.0, 0.0017126495298346754
384.0, 0.0016631671329527431
385.0, 0.002849890945557989
386.0, 0.0035489153381988076
387.0, 0.003736884569592805
388.0, 0.003440934237283952
389.0, 0.00278280141020075
390.0, 0.0020715925907480873
391.0, 0.0013767564979583762
392.0, 0.0005446678900381287
393.0, 0.000299254115244559
394.0, 0.0011997568468481267
395.0, 0.0023325984051833525
396.0, 0.0030375733009360795
397.0, 0.004082222513484621
398.0, 0.005302676297980904
399.0, 0.0064856875796066174
400.0, 0.00723841641060235
401.0, 0.007237223716620509
402.0, 0.00860288254367541
403.0, 0.008904004179360485
404.0, 0.009147099055626877
405.0, 0.010426464618554983
406.0, 0.011358603412627295
407.0, 0.010293578264158176
408.0, 0.011644789504700496
409.0, 0.012891608730805195
410.0, 0.013420568650071312
411.0, 0.01486170461609429
412.0, 0.013299835496952092
413.0, 0.0147107324885381
414.0, 0.015939015561398866
415.0, 0.015749788886867646
416.0, 0.016325527223690448
417.0, 0.01817956733274298
418.0, 0.017774765955743347
419.0, 0.020236948475985696
420.0, 0.022974080241211527
421.0, 0.02352349921327902
422.0, 0.023691171580237508
423.0, 0.02787158762562742
424.0, 0.02947896539203256
425.0, 0.03190318276387945
426.0, 0.03614457215767329
427.0, 0.039610679461651706
428.0, 0.04161784062655029
429.0, 0.04426993743670165
430.0, 0.04791239251277868
431.0, 0.05035722388702517
432.0, 0.0517458886798421
433.0, 0.0534892403555281
434.0, 0.05276290974776702
435.0, 0.05216722410535622
436.0, 0.05179455094853947
437.0, 0.049507186644568706
438.0, 0.04565678729212508
439.0, 0.04504495792030043
440.0, 0.0424437049320376
441.0, 0.037139144906901046
442.0, 0.03344006180226539
443.0, 0.03161072400766292
444.0, 0.028297517576284
445.0, 0.025608617356408674
446.0, 0.022381525611513874
447.0, 0.019441485885455106
448.0, 0.017527967752392334
449.0, 0.015955433521711554
450.0, 0.013190766255525963
451.0, 0.011284372666371301
452.0, 0.009877967383104988
453.0, 0.008435243215780258
454.0, 0.007033259848621817
455.0, 0.006168091895920603
456.0, 0.005795593717418877
457.0, 0.005916697847716865
458.0, 0.003888293620819075
459.0, 0.00275981732731943
460.0, 0.0036227931752084138
461.0, 0.002570407915742835
462.0, 0.002292840184910397
463.0, 0.0013035988940086638
464.0, 0.001465861524139913
465.0, 0.0016923182649504636
466.0, 0.0009222891801559003
467.0, 0.002172813590200824
468.0, 0.0008353854954582964
469.0, 0.0009444330889160287
470.0, 0.0019473643220299618
471.0, 0.0016518356348502433
472.0, 0.00017978703209585082
473.0, 0.0006927221819710672
474.0, 0.0012513681321030977
475.0, 0.0013195754089070277
476.0, 0.0008972121412755444
477.0, 0.0004580150070510731
478.0, 0.0007709121886291117
479.0, 0.0015991457816142926
480.0, 0.0010816372487863159
481.0, 0.00025975801097151646
482.0, 8.939749111956477e-05
483.0, 0.0005868323374266795
484.0, 0.001265283433141633
485.0, 0.0012146760365260789
486.0, 0.0001172538467645162
487.0, 0.0006246783698114298
488.0, 0.0011627728248123398
489.0, 0.00013914902439720778
490.0, 0.0006659777744113583
491.0, 0.0006854008910637705
492.0, 0.0004899299108799617
493.0, 0.0002083245272768727
494.0, 0.0005068365022703529
495.0, 0.00019110643702132754
496.0, 8.762370599799352e-05
497.0, 0.0005643706072646859
498.0, 0.00033683373562501417
499.0, 0.0006929996348570222
500.0, 0.0012145758021575278
501.0, 0.00026625085293096625
502.0, 0.0001985428143081686
503.0, 0.0014252276749179373
504.0, 0.0010225925755366785
505.0, 7.688238962560396e-05
506.0, 0.00019345478534714842
507.0, 9.904641171113867e-05
508.0, 0.00048313690464076817
509.0, 0.0001733414802284936
510.0, 0.0005771108760637684
511.0, 0.0008957740162329683
512.0, 0.002080403151588631
513.0, 0.0006621283482179361
514.0, 0.0010861158348636742
515.0, 0.0008546237891397046
516.0, 0.00109960530821754
517.0, 0.002037194062402409
518.0, 0.0023125260535704936
519.0, 0.003282947272919335
520.0, 0.004477890957986269
521.0, 0.0042934084521703605
522.0, 0.0044509760438543895
523.0, 0.005610097721770222
524.0, 0.006865517791697666
525.0, 0.00814352119363309
526.0, 0.008635420289439182
527.0, 0.010042964650957243
528.0, 0.011792838265542251
529.0, 0.012524504346327014
530.0, 0.012756935318740014
531.0, 0.015096729371197137
532.0, 0.016158687003541474
533.0, 0.016995658986577768
534.0, 0.01887358257613793
535.0, 0.021563138564697472
536.0, 0.02426144727721411
537.0, 0.027406336605265733
538.0, 0.031852194343689064
539.0, 0.03575219174362818
540.0, 0.03939226904901699
541.0, 0.04380697789649587
542.0, 0.04938759680062607
543.0, 0.05561509116061032
544.0, 0.061762622687621595
545.0, 0.06805269566227651
546.0, 0.07597214549958997
547.0, 0.08531993783377256
548.0, 0.0952424538211942
549.0, 0.10579986090716405
550.0, 0.11589100496333758
551.0, 0.12598408725720794
552.0, 0.13683543978778878
553.0, 0.14736952469845904
554.0, 0.1568248478391377
555.0, 0.16599543282990542
556.0, 0.16997366784331583
557.0, 0.17400101275032323
558.0, 0.17417123153305625
559.0, 0.17166366609404693
560.0, 0.16761056145176675
561.0, 0.15994882140260777
562.0, 0.15077375958402014
563.0, 0.1410698685431925
564.0, 0.13007997340297506
565.0, 0.1183398516603939
566.0, 0.10753019074652921
567.0, 0.09870942287285366
568.0, 0.0905379155434945
569.0, 0.08173539034958835
570.0, 0.07388634867806801
571.0, 0.06835233588169728
572.0, 0.06362049511965358
573.0, 0.05865269732464842
574.0, 0.05531980921989918
575.0, 0.05113833772493515
576.0, 0.04735683702668154
577.0, 0.044220372474575206
578.0, 0.040108765198692636
579.0, 0.035506979658425274
580.0, 0.03317677957205121
581.0, 0.03222211053305487
582.0, 0.029059314345202352
583.0, 0.027158062201744028
584.0, 0.025204819271808492
585.0, 0.02225531275432633
586.0, 0.019669852424204857
587.0, 0.01835942872935715
588.0, 0.015747061310905357
589.0, 0.015020092462145787
590.0, 0.013162574731201025
591.0, 0.011152636178070795
592.0, 0.010532194703483882
593.0, 0.009078046695379417
594.0, 0.007465516328439889
595.0, 0.0066475722180790306
596.0, 0.005502366946782078
597.0, 0.006296899674024666
598.0, 0.007063335930847434
599.0, 0.004866731282693337
600.0, 0.004778337020071419
601.0, 0.005067433552643719
602.0, 0.004448319021306527
603.0, 0.002647957376690974
604.0, 0.002290729796538168
605.0, 0.0032688802850722484
606.0, 0.002013501028922509
607.0, 0.0020680182560852455
608.0, 0.0019000485306389524
609.0, 0.0008992889632371763
610.0, 0.0004806851299232617
611.0, 0.001053540677419361
612.0, 0.001193782520585127
613.0, 0.00034426450171199226
614.0, 0.00029143859560411256
615.0, 0.0008852804142464203
616.0, 0.0006597052506897253
617.0, 0.0007545242113753968
618.0, 0.0015605748144122754
619.0, 0.0009043740015494385
620.0, 0.00026689944666398875
621.0, 0.0012419647689672297
622.0, 0.001044629174947
623.0, 0.0005589918541922853
624.0, 0.00020096776846038279
625.0, 0.0005884604745619261
626.0, 0.00014073764235419595
627.0, 0.00013072311905799362
628.0, 0.0005021340364009004
629.0, 0.00038716132511598184
630.0, 0.0007709852901615605
631.0, 0.0002758882684166672
632.0, 0.0008597315912971968
633.0, 0.000130139017424198
634.0, 0.0001853651526139653
635.0, 0.00015270058711133242
636.0, 0.00018001055513567626
637.0, 0.0006518124178340434
638.0, 0.0015307443974187575
639.0, 0.0010870729339291442
640.0, 0.004406415560986759
641.0, 0.002702660078357268
642.0, 0.0005824068103349831
643.0, 0.0012345691994384701
644.0, 0.0026275597697378544
645.0, 0.0024109226912079076
646.0, 0.0015661443947839956
647.0, 0.002042552562151615
648.0, 0.005836046078912565
649.0, 0.006247999357370492
650.0, 0.004710705399747537
651.0, 0.0036214904034949755
652.0, 0.003959646326434738
653.0, 0.006145900735511588
654.0, 0.005967483882702035
655.0, 0.007088142305613082
656.0, 0.007942086504139939
657.0, 0.008863384109534841
658.0, 0.01007655839786425
659.0, 0.011235877612103241
660.0, 0.013363425529916314
661.0, 0.014766563666749851
662.0, 0.014847177488094427
663.0, 0.01736617499585607
664.0, 0.019387660134401616
665.0, 0.021054250234717267
666.0, 0.024492139484004073
667.0, 0.026129933444693713
668.0, 0.027771036882731248
669.0, 0.0305353714893072
670.0, 0.030981641846656832
671.0, 0.031462331821153725
672.0, 0.03234595056267932
673.0, 0.03282419080862521
674.0, 0.03377031020855891
675.0, 0.030802452378311473
676.0, 0.02725536829792349
677.0, 0.024320205179298143
678.0, 0.021739951129506434
679.0, 0.019589387348103962
680.0, 0.017176324086771427
681.0, 0.013582861403768453
682.0, 0.012615177856316748
683.0, 0.011251953416270333
684.0, 0.008661504932347904
685.0, 0.007347685970161998
686.0, 0.006647782538227575
687.0, 0.005484390079788491
688.0, 0.005042642649744918
689.0, 0.004323990891035316
690.0, 0.003882046098314666
691.0, 0.004017359592904067
692.0, 0.004683761529550746
693.0, 0.003800538981267462
694.0, 0.0018907104132575609
695.0, 0.0024964700253325453
696.0, 0.0030199459488331588
697.0, 0.002752772688210762
698.0, 0.0023694684371251963
699.0, 0.002873374006696761
700.0, 0.003635852618642137
701.0, 0.0039006402956595584
702.0, 0.004377535529900883
703.0, 0.005732039952352677
704.0, 0.004825709248786843
705.0, 0.0050778224916468665
706.0, 0.0066220500741156615
707.0, 0.007316993803172894
708.0, 0.008123612148067649
709.0, 0.009857511618602276
710.0, 0.010666515617718067
711.0, 0.01152788938012216
712.0, 0.01323676222531898
713.0, 0.01455592654464623
714.0, 0.014818452476664447
715.0, 0.016590463386640046
716.0, 0.020432279888414156
717.0, 0.02321551256031974
718.0, 0.022050235374964602
719.0, 0.024529533808628167
720.0, 0.02656230981581478
721.0, 0.027582347700741677
722.0, 0.028686553369767956
723.0, 0.028913333315737148
724.0, 0.02806384179046346
725.0, 0.02791197476658319
726.0, 0.02613374025327367
727.0, 0.02351309304279522
728.0, 0.02202904293441821
729.0, 0.019143364067071213
730.0, 0.015860869100550394
731.0, 0.01367704784368943
732.0, 0.011863114173985936
733.0, 0.009712991114853475
734.0, 0.008406882085527574
735.0, 0.007432676981198281
736.0, 0.0065896165609474625
737.0, 0.005231638023048944
738.0, 0.004945690902729805
739.0, 0.004602652793686671
740.0, 0.0025677841938851467
741.0, 0.0031276831442447472
742.0, 0.002619356091575533
743.0, 0.0018113833905010986
744.0, 0.0013713403373832756
745.0, 0.0004739849321082143
746.0, 0.0007997588183100726
747.0, 0.0009759309369663054
748.0, 0.0002055748778509777
749.0, 0.00029484214060632516
750.0, 0.001101866375997007
751.0, 0.0005930032756367845
752.0, 0.0007845965125798535
753.0, 0.0007478575500228438
754.0, 0.00031405538134222704
755.0, 0.0002946902820491822
756.0, 5.891986121641903e-05
757.0, 0.0010115786080700266
758.0, 0.0005237678034998334
759.0, 0.0008710882426151668
760.0, 0.0002987284378146677
761.0, 0.0004282160794903155
762.0, 0.0010065303480004098
763.0, 0.000331576640891293
764.0, 0.0008900401729079778
765.0, 0.0005074928202549732
766.0, 0.0010249999878447547
767.0, 0.00016387143456238212
768.0, 0.0007388517156592285
769.0, 0.0015752012100956388
770.0, 0.0011729380458290217
771.0, 0.0006155412033586595
772.0, 0.0009442872865105538
773.0, 0.0012766696691234062
774.0, 0.0017128997820990593
775.0, 0.0009302458803217036
776.0, 0.001269650943800109
777.0, 0.0005241638457859309
778.0, 0.0005661193971553578
779.0, 0.0021000396827629423
780.0, 0.0015482959703664544
781.0, 0.0013964058511602476
782.0, 0.0023014075156075286
783.0, 0.0031290909370005745
784.0, 0.002558541332991237
785.0, 0.0027179331891793125
786.0, 0.0023659555210856203
787.0, 0.0024102994151806493
788.0, 0.004888237145321175
789.0, 0.0039502449046621415
790.0, 0.005179858002277688
791.0, 0.004342828091038802
792.0, 0.0039058488449652206
793.0, 0.004375529885106255
794.0, 0.004473990405983878
795.0, 0.004564061504103494
796.0, 0.005567212884345641
797.0, 0.006577606548837806
798.0, 0.005828072840692882
799.0, 0.006267149143495249
800.0, 0.00675441800231192
801.0, 0.008508963044105788
802.0, 0.009835694306656283
803.0, 0.00968592487049515
804.0, 0.010258064234560944
805.0, 0.012890162988159407
806.0, 0.013580806753730957
807.0, 0.014384596343530787
808.0, 0.01613068637415539
809.0, 0.016668530028167476
810.0, 0.018343216041879894
811.0, 0.021320655941404008
812.0, 0.02379318663433518
813.0, 0.024908441288530873
814.0, 0.025524303322032718
815.0, 0.027706441901941492
816.0, 0.0316334679414698
817.0, 0.033715726943786856
818.0, 0.03699870226170794
819.0, 0.04147036420021309
820.0, 0.04479620343422422
821.0, 0.04836627649778633
822.0, 0.05496566690275583
823.0, 0.062250400584173624
824.0, 0.07084126855463521
825.0, 0.08296875294113029
826.0, 0.09606827227253716
827.0, 0.11204640624707288
828.0, 0.13130026657916793
829.0, 0.15368656386956858
830.0, 0.1804384945883892
831.0, 0.21437581927674043
832.0, 0.25611900656745795
833.0, 0.3016581736362326
834.0, 0.3609584905496117
835.0, 0.42400763468622255
836.0, 0.4927349067567939
837.0, 0.5665938626478361
838.0, 0.6379245105790659
839.0, 0.6917995667043747
840.0, 0.721822504383602
841.0, 0.7461491026768657
842.0, 0.7697315966223478
843.0, 0.807939171171452
844.0, 0.8582470334406459
845.0, 0.9078495281121121
846.0, 0.929586940859868
847.0, 0.8950600800434424
848.0, 0.7951317908540501
849.0, 0.6494397030957451
850.0, 0.49498425805550184
851.0, 0.37284586244307755
852.0, 0.28331681045813445
853.0, 0.22185852823544494
854.0, 0.17577940597616415
855.0, 0.1408539731974241
856.0, 0.11657946970196413
857.0, 0.09906011065145855
858.0, 0.08438440387654962
859.0, 0.07229672172150821
860.0, 0.06193019695611365
861.0, 0.05466743753778451
862.0, 0.048016681300401605
863.0, 0.04208904938650039
864.0, 0.03735031349023842
865.0, 0.03337646103545598
866.0, 0.030751942874047096
867.0, 0.029318575869578513
868.0, 0.026507295763774044
869.0, 0.022980045010842064
870.0, 0.020856175840239313
871.0, 0.01901367697987863
872.0, 0.017795482976582067
873.0, 0.016090806522058566
874.0, 0.015007031231314943
875.0, 0.014132508917247877
876.0, 0.012730718575086968
877.0, 0.011960425862624337
878.0, 0.012167060252902288
879.0, 0.012719521979161659
880.0, 0.009939443448526314
881.0, 0.008439370289976952
882.0, 0.008721787076688149
883.0, 0.009013176890705549
884.0, 0.008959969088217007
885.0, 0.008037254542275052
886.0, 0.006006888598413654
887.0, 0.004621026401453078
888.0, 0.00436322455077004
889.0, 0.005804190609279436
890.0, 0.004517841195582269
891.0, 0.004021060684980125
892.0, 0.004302362538453046
893.0, 0.004576514495501258
894.0, 0.004128556960297448
895.0, 0.0039510941706612885
896.0, 0.003915282055549301
897.0, 0.0025218749242468916
898.0, 0.003008263952564493
899.0, 0.00329085828795555
900.0, 0.003521271653407398
901.0, 0.0022384938243461714
902.0, 0.003345099391462518
903.0, 0.003048451301427677
904.0, 0.0017613440145129587
905.0, 0.0016195254763940081
906.0, 0.0016673571877223337
907.0, 0.0012943278225703463
908.0, 0.0006193301071741376
909.0, 0.0010290151624759167
910.0, 0.0021236392581943605
911.0, 0.0014895893633386703
912.0, 0.0006354531056337381
913.0, 0.00010501421131206983
914.0, 0.00025267174785237155
915.0, 0.0003946866258728013
916.0, 0.0010528834454774584
917.0, 7.591477931305284e-05
918.0, 0.0004260207335288129
919.0, 0.000524533477427146
920.0, 0.000526904135918861
921.0, 0.0004389045398428231
922.0, 0.00031720195899650837
923.0, 0.0015468479050190257
924.0, 0.0008148322716494672
925.0, 0.0003348863492105662
926.0, 0.0007544912485494207
927.0, 0.00044621496331679185
928.0, 0.0009456725772786989
929.0, 0.0007481963762282865
930.0, 0.00016850844615757423
931.0, 0.0008266240005075935
932.0, 0.0004595156137589477
933.0, 0.0007439124460652405
934.0, 0.00031221971014206795
935.0, 0.0003439358710389918
936.0, 0.00033727204889305606
937.0, 0.00021573451637721603
938.0, 0.0011152910272641636
939.0, 0.0012481789608121767
940.0, 0.00032574283842413514
941.0, 0.00029617025693855746
942.0, 0.0010766873161970334
943.0, 0.0011315073844621855
944.0, 0.0005136904529632479
945.0, 0.0005960274195980247
946.0, 0.0018422219619846105
947.0, 0.0019751219533878767
948.0, 0.0002367671561240502
949.0, 0.00012005864329565089
950.0, 0.001089626257345371
951.0, 0.0023395005479923334
952.0, 0.0022410849537332347
953.0, 0.0024776647179638985
954.0, 0.0014147339636501354
955.0, 0.0022153552149638354
956.0, 0.001529991058066035
957.0, 0.0012700198421918714
958.0, 0.0016786582746056455
959.0, 0.0012326901829319906
960.0, 0.0011408413551461357
961.0, 0.0009742587285581892
962.0, 0.0018872752651998416
963.0, 0.0023945844332945105
964.0, 0.0022943483822678405
965.0, 0.002069640085131038
966.0, 0.0024711516373309927
967.0, 0.0020569730100950465
968.0, 0.002544262128480631
969.0, 0.003170730080182588
970.0, 0.002027526128701345
971.0, 0.00092552808150217
972.0, 0.002264592657378676
973.0, 0.0037926785829099524
974.0, 0.0014437594661720879
975.0, 0.0022295779656720935
976.0, 0.0031422087509898125
977.0, 0.00248617291117698
978.0, 0.0025126549522233328
979.0, 0.004409424097637124
980.0, 0.003953380549095422
981.0, 0.002117787764398821
982.0, 0.0024133069006934413
983.0, 0.0029240074892865806
984.0, 0.002120176925920977
985.0, 0.0026873683719199635
986.0, 0.001250629308492394
987.0, 0.0010839344116014887
988.0, 0.0008252642598345634
989.0, 0.0006304636556758158
990.0, 0.00031839242127876336
991.0, 0.001051485013288695
992.0, 0.001111372152125951
993.0, 0.00022719490595525781
994.0, 0.0005451937430820832
995.0, 0.00047152219577941844
996.0, 0.0006975425398778896
997.0, 0.0014318420925828294
998.0, 0.0014535629180110038
999.0, 0.0016825184782017838
1000.0, 5.7635080048657366e-05
1001.0, 0.0010036133636344498
1002.0, 0.0014566484400780938
1003.0, 0.0023564923692845087
1004.0, 0.0023355617394402698
1005.0, 0.0012468357618433807
1006.0, 0.0010840824900442312
1007.0, 0.0022000493224363957
1008.0, 0.002822049261451906
1009.0, 0.0022030792198715517
1010.0, 0.002152727432565876
1011.0, 0.002440144460121211
1012.0, 0.0016211964889593818
1013.0, 0.002801487306574742
1014.0, 0.00287140044208447
1015.0, 0.0015525150332947706
1016.0, 0.002690895297726239
1017.0, 0.002179923365116759
1018.0, 0.0015271880768016738
1019.0, 0.001669512325596521
1020.0, 0.0011298132897004688
1021.0, 0.0006866509334044903
1022.0, 0.00020828390628289012
1023.0, 0.0011740432407019298
1024.0, 0.0008029328917814007
1025.0, 0.001244911994654886
1026.0, 0.0006345207782253411
1027.0, 0.00027927620974197234
1028.0, 0.0007025416034624709
1029.0, 0.0008245026608022551
1030.0, 0.0019382976056265418
1031.0, 0.0021689412846295623
1032.0, 0.0016152316518765364
1033.0, 0.0011580288593788617
1034.0, 0.0006685545609714929
1035.0, 0.001831552214095444
1036.0, 0.0020185840089497957
1037.0, 0.0009533322534861682
1038.0, 0.0013000826196536972
1039.0, 0.001597366367580978
1040.0, 0.0011188559792497405
1041.0, 5.598281524168916e-05
1042.0, 0.0008565785764665715
1043.0, 0.0019703639161379742
1044.0, 0.0021661854620851034
1045.0, 0.0016228849135972397
1046.0, 0.0015635504833300133
1047.0, 0.002144340080826926
1048.0, 0.0018548555812065218
1049.0, 0.0014069556605350556
1050.0, 0.0021644562074623077
1051.0, 0.0022488942691394447
1052.0, 0.0010202144415805865
1053.0, 0.001307673932551596
1054.0, 0.002946259306591334
1055.0, 0.0013771973645523325
1056.0, 0.0013815669786439266
1057.0, 0.002244825273480434
1058.0, 0.0010895060363665162
1059.0, 0.0010376272008682356
1060.0, 0.0025501335847820743
1061.0, 0.0023451135202075682
1062.0, 0.0013398635783037171
1063.0, 0.0009212935829173204
1064.0, 0.0009275660418347496
1065.0, 0.001571255486956088
1066.0, 0.00042597703213221114
1067.0, 0.0009400737168033157
1068.0, 0.001396999423286595
1069.0, 0.0015292905362392247
1070.0, 0.0003979913951183699
1071.0, 0.0012869989433287187
1072.0, 0.00198921727217406
1073.0, 0.001257633675599064
1074.0, 0.0011930043452966518
1075.0, 0.001488506121962487
1076.0, 0.0015061441263053224
1077.0, 0.0010011859866121847
1078.0, 0.0005555573252407613
1079.0, 0.0009963608548268293
1080.0, 0.0005315461644970965
1081.0, 0.000840510779289568
1082.0, 0.001892560072923956
1083.0, 0.002081423371009141
1084.0, 0.0008145022607216718
1085.0, 0.0021791680474425043
1086.0, 0.0015190638174166682
1087.0, 0.000545279665368709
1088.0, 0.0005723553785167267
1089.0, 0.0011040703176846182
1090.0, 0.000563398410563927
1091.0, 0.0006030604531277689
1092.0, 0.0016421867326651322
1093.0, 0.0020735377731305837
1094.0, 0.0020381642359572597
1095.0, 0.0008436260064151211
1096.0, 0.001282552861561558
1097.0, 0.0012890728842896038
1098.0, 0.0003301511797619807
1099.0, 0.0007260537325378345
1100.0, 0.0006151921494740481
1101.0, 0.0002906253358170953
1102.0, 0.0005370175473082002
1103.0, 0.000503812424526213
1104.0, 0.001143382615946939
1105.0, 0.0015953270802062766
1106.0, 0.0013146513868291508
1107.0, 0.0006683061034263324
1108.0, 0.0009493441421774558
1109.0, 0.0011458823382868172
1110.0, 0.0010829668810362924
1111.0, 0.0017935551645971576
1112.0, 0.0016380687595466173
1113.0, 0.0016152752625141016
1114.0, 0.0010536456916308478
1115.0, 0.0008498426361218119
1116.0, 0.0010462100084653572
1117.0, 0.0012880180233290277
1118.0, 0.001303451461529383
1119.0, 0.002335753996922058
1120.0, 6.456077690837885e-05
1121.0, 0.0004876691988342058
1122.0, 0.0016448890316954358
1123.0, 0.0010576894021033997
1124.0, 0.000618518430923736
1125.0, 0.0012573798946974698
1126.0, 0.0016143113611522277
1127.0, 0.0017853761985892821
1128.0, 0.0015658293706714793
1129.0, 0.001497403767476431
1130.0, 0.0029912721930994562
1131.0, 0.0018482026900001889
1132.0, 0.001502202911387476
1133.0, 0.0010132992996251095
1134.0, 0.00336177917856918
1135.0, 0.0017837840653407405
1136.0, 0.0021038788091962152
1137.0, 0.001493821775021019
1138.0, 0.0019210025992042413
1139.0, 0.002144904981667946
1140.0, 0.002471837442158768
1141.0, 0.0018759395023492356
1142.0, 0.0018729277289357346
1143.0, 0.0024903470518609187
1144.0, 0.003092460683688209
1145.0, 0.0028724245662267766
1146.0, 0.0017171690966586253
1147.0, 0.001472185553955461
1148.0, 0.0019764922271262517
1149.0, 0.0025155511792109625
1150.0, 0.0025276396331403313
1151.0, 0.0019471844478298399
1152.0, 0.002012325678712607
1153.0, 0.002691243267133171
1154.0, 0.0025441400076530295
1155.0, 0.0022665135316496756
1156.0, 0.003072168036537525
1157.0, 0.002775733356652873
1158.0, 0.0018148094325576556
1159.0, 0.0023365705514702437
1160.0, 0.0018359285575518447
1161.0, 0.0022039117510178016
1162.0, 0.0025800314621253315
1163.0, 0.002319104582573663
1164.0, 0.0033734477133205228
1165.0, 0.0042376503257125775
1166.0, 0.003918032114201187
1167.0, 0.003920411024007938
1168.0, 0.0029001999419003104
1169.0, 0.0019991123570565774
1170.0, 0.0021378678104989647
1171.0, 0.001458006134893339
1172.0, 0.0013615950106800638
1173.0, 0.0026346252209097885
1174.0, 0.0027660409132884613
1175.0, 0.005026122091216641
1176.0, 0.0033981966239631837
1177.0, 0.0013601326084280853
1178.0, 0.0014761065730441172
1179.0, 0.0003168420450446016
1180.0, 0.000700555492927236
1181.0, 0.0012739619372856646
1182.0, 0.0015482116709762265
1183.0, 0.001664280982984495
1184.0, 0.0005273373179787599
1185.0, 0.0007880954727986019
1186.0, 0.0013280508883537253
1187.0, 0.0014494636303697436
1188.0, 0.001138327214392312
1189.0, 0.0008961966689724861
1190.0, 0.0012630997096474935
1191.0, 0.0004890119944765594
1192.0, 0.000530708890034008
1193.0, 0.0005366099183129019
1194.0, 0.00024604231982190396
1195.0, 0.0014825962623905091
1196.0, 0.0021203854401501457
1197.0, 0.0023553883366827133
1198.0, 0.0025630126319198202
1199.0, 0.001472155179780775
1200.0, 0.0025757800361958295
1201.0, 0.0025597775797285955
1202.0, 0.002690483857199315
1203.0, 0.0007083448593821702
1204.0, 0.0012984242149522863
1205.0, 0.0015031186120666635
1206.0, 0.003057238038024202
1207.0, 0.001054914095772355
1208.0, 0.00118200419582258
1209.0, 0.0009436806145228648
1210.0, 0.002658994409220961
1211.0, 0.0037876434238591334
1212.0, 0.003464854630871848
1213.0, 0.0023107651548412403
1214.0, 0.001717883199941807
1215.0, 0.0016657602734179932
1216.0, 0.0019283055792351715
1217.0, 0.0020335588093130363
1218.0, 0.0027306911656301116
1219.0, 0.0015211320662586434
1220.0, 0.0011463078754036858
1221.0, 0.0009217911052775284
1222.0, 0.0016034001109065023
1223.0, 0.002945688799296765
1224.0, 0.0015842708566958796
1225.0, 0.0010280131515846918
1226.0, 0.0013485904104708797
1227.0, 0.0018145414688519519
1228.0, 0.002653850561190322
1229.0, 0.0024614031826828806
1230.0, 0.0015867134760968122
1231.0, 0.0018514911510992794
1232.0, 0.0018104810837238825
1233.0, 0.0023160165044360656
1234.0, 0.0017715785034192785
1235.0, 0.001349491049087968
1236.0, 0.0012271167568781369
1237.0, 0.0010313857573982545
1238.0, 0.0007363787223152594
1239.0, 0.0010144755828934249
1240.0, 0.0049978054444624834
1241.0, 0.0028168979851860565
1242.0, 0.0001408741666172502
1243.0, 0.0015564139599697285
1244.0, 0.002068206570643152
1245.0, 0.0016192967774206809
1246.0, 0.00130515417492554
1247.0, 0.0012231264298453444
1248.0, 0.0011368757066962474
1249.0, 0.001463914531207535
1250.0, 0.0008667643101803575
1251.0, 0.0010194332251703376
1252.0, 0.0011227021082511536
1253.0, 0.001894111303256248
1254.0, 0.002291824269597641
1255.0, 0.0005403262171079861
1256.0, 0.00026834694961800417
1257.0, 0.0018306661756418148
1258.0, 0.0015501925364732453
1259.0, 0.0014793664508384774
1260.0, 0.0018342739244436097
1261.0, 0.0017260422950484626
1262.0, 0.0008940238678175822
1263.0, 0.0014114725566124766
1264.0, 0.000812922466764551
1265.0, 0.0012506489559690921
1266.0, 0.00028872220106401417
1267.0, 0.001205132692819977
1268.0, 0.0013524226408389564
1269.0, 0.0013394392902811583
1270.0, 0.0021947842108099003
1271.0, 0.0005421087109284989
1272.0, 0.0009002034599700256
1273, 0.0
1274, 0.0
1275, 0.0
1276, 0.0
1277, 0.0
1278, 0.0
1279, 0.0
1280, 0.0
1281, 0.0
1282, 0.0
1283, 0.0
1284, 0.0
1285, 0.0
1286, 0.0
1287, 0.0
1288, 0.0
1289, 0.0
1290, 0.0
1291, 0.0
1292, 0.0
1293, 0.0
1294, 0.0
1295, 0.0
1296, 0.0
1297, 0.0
1298, 0.0
1299, 0.0
1300, 0.0
1301, 0.0
1302, 0.0
1303, 0.0
1304, 0.0
1305, 0.0
1306, 0.0
1307, 0.0
1308, 0.0
1309, 0.0
1310, 0.0
1311, 0.0
1312, 0.0
1313, 0.0
1314, 0.0
1315, 0.0
1316, 0.0
1317, 0.0
1318, 0.0
1319, 0.0
1320, 0.0
1321, 0.0
1322, 0.0
1323, 0.0
1324, 0.0
1325, 0.0
1326, 0.0
1327, 0.0
1328, 0.0
1329, 0.0
1330, 0.0
1331, 0.0
1332, 0.0
1333, 0.0
1334, 0.0
1335, 0.0
1336, 0.0
1337, 0.0
1338, 0.0
1339, 0.0
1340, 0.0
1341, 0.0
1342, 0.0
1343, 0.0
1344, 0.0
1345, 0.0
1346, 0.0
1347, 0.0
1348, 0.0
1349, 0.0
1350, 0.0
1351, 0.0
1352, 0.0
1353, 0.0
1354, 0.0
1355, 0.0
1356, 0.0
1357, 0.0
1358, 0.0
1359, 0.0
1360, 0.0
1361, 0.0
1362, 0.0
1363, 0.0
1364, 0.0
1365, 0.0
1366, 0.0
1367, 0.0
1368, 0.0
1369, 0.0
1370, 0.0
1371, 0.0
1372, 0.0
1373, 0.0
1374, 0.0
1375, 0.0
1376, 0.0
1377, 0.0
1378, 0.0
1379, 0.0
1380, 0.0
1381, 0.0
1382, 0.0
1383, 0.0
1384, 0.0
1385, 0.0
1386, 0.0
1387, 0.0
1388, 0.0
1389, 0.0
1390, 0.0
1391, 0.0
1392, 0.0
1393, 0.0
1394, 0.0
1395, 0.0
1396, 0.0
1397, 0.0
1398, 0.0
1399, 0.0
1400, 0.0
1401, 0.0
1402, 0.0
1403, 0.0
1404, 0.0
1405, 0.0
1406, 0.0
1407, 0.0
1408, 0.0
1409, 0.0
1410, 0.0
1411, 0.0
1412, 0.0
1413, 0.0
1414, 0.0
1415, 0.0
1416, 0.0
1417, 0.0
1418, 0.0
1419, 0.0
1420, 0.0
1421, 0.0
1422, 0.0
1423, 0.0
1424, 0.0
1425, 0.0
1426, 0.0
1427, 0.0
1428, 0.0
1429, 0.0
1430, 0.0
1431, 0.0
1432, 0.0
1433, 0.0
1434, 0.0
1435, 0.0
1436, 0.0
1437, 0.0
1438, 0.0
1439, 0.0
1440, 0.0
1441, 0.0
1442, 0.0
1443, 0.0
1444, 0.0
1445, 0.0
1446, 0.0
1447, 0.0
1448, 0.0
1449, 0.0
1450, 0.0
1451, 0.0
1452, 0.0
1453, 0.0
1454, 0.0
1455, 0.0
1456, 0.0
1457, 0.0
1458, 0.0
1459, 0.0
1460, 0.0
1461, 0.0
1462, 0.0
1463, 0.0
1464, 0.0
1465, 0.0
1466, 0.0
1467, 0.0
1468, 0.0
1469, 0.0
1470, 0.0
1471, 0.0
1472, 0.0
1473, 0.0
1474, 0.0
1475, 0.0
1476, 0.0
1477, 0.0
1478, 0.0
1479, 0.0
1480, 0.0
1481, 0.0
1482, 0.0
1483, 0.0
1484, 0.0
1485, 0.0
1486, 0.0
1487, 0.0
1488, 0.0
1489, 0.0
1490, 0.0
1491, 0.0
1492, 0.0
1493, 0.0
1494, 0.0
1495, 0.0
1496, 0.0
1497, 0.0
1498, 0.0
1499, 0.0
1500, 0.0
1501, 0.0
1502, 0.0
1503, 0.0
1504, 0.0
1505, 0.0
1506, 0.0
1507, 0.0
1508, 0.0
1509, 0.0
1510, 0.0
1511, 0.0
1512, 0.0
1513, 0.0
1514, 0.0
1515, 0.0
1516, 0.0
1517, 0.0
1518, 0.0
1519, 0.0
1520, 0.0
1521, 0.0
1522, 0.0
1523, 0.0
1524, 0.0
1525, 0.0
1526, 0.0
1527, 0.0
1528, 0.0
1529, 0.0
1530, 0.0
1531, 0.0
1532, 0.0
1533, 0.0
1534, 0.0
1535, 0.0
1536, 0.0
1537, 0.0
1538, 0.0
1539, 0.0
1540, 0.0
1541, 0.0
1542, 0.0
1543, 0.0
1544, 0.0
1545, 0.0
1546, 0.0
1547, 0.0
1548, 0.0
1549, 0.0
1550, 0.0
1551, 0.0
1552, 0.0
1553, 0.0
1554, 0.0
1555, 0.0
1556, 0.0
1557, 0.0
1558, 0.0
1559, 0.0
1560, 0.0
1561, 0.0
1562, 0.0
1563, 0.0
1564, 0.0
1565, 0.0
1566, 0.0
1567, 0.0
1568, 0.0
1569, 0.0
1570, 0.0
1571, 0.0
1572, 0.0
1573, 0.0
1574, 0.0
1575, 0.0
1576, 0.0
1577, 0.0
1578, 0.0
1579, 0.0
1580, 0.0
1581, 0.0
1582, 0.0
1583, 0.0
1584, 0.0
1585, 0.0
1586, 0.0
1587, 0.0
1588, 0.0
1589, 0.0
1590, 0.0
1591, 0.0
1592, 0.0
1593, 0.0
1594, 0.0
1595, 0.0
1596, 0.0
1597, 0.0
1598, 0.0
1599, 0.0
