30, 0.0
31, 0.0
32, 0.0
33, 0.0
34, 0.0
35, 0.0
36, 0.0
37, 0.0
38, 0.0
39, 0.0
40, 0.0
41, 0.0
42, 0.0
43, 0.0
44, 0.0
45, 0.0
46, 0.0
47, 0.0
48, 0.0
49, 0.0
50, 0.0
51, 0.0
52, 0.0
53, 0.0
54, 0.0
55, 0.0
56, 0.0
57, 0.0
58, 0.0
59, 0.0
60, 0.0
61, 0.0
62, 0.0
63, 0.0
64, 0.0
65, 0.0
66, 0.0
67, 0.0
68, 0.0
69, 0.0
70, 0.0
71, 0.0
72, 0.0
73, 0.0
74, 0.0
75, 0.0
76, 0.0
77, 0.0
78, 0.0
79, 0.0
80, 0.0
81, 0.0
82, 0.0
83, 0.0
84, 0.0
85, 0.0
86, 0.0
87, 0.0
88, 0.0
89, 0.0
90, 0.0
91, 0.0
92, 0.0
93, 0.0
94, 0.0
95, 0.0
96, 0.0
97, 0.0
98, 0.0
99, 0.0
100, 0.0
101, 0.0
102, 0.0
103, 0.0
104, 0.0
105, 0.0
106, 0.0
107, 0.0
108, 0.0
109, 0.0
110, 0.0
111, 0.0
112, 0.0
113, 0.0
114, 0.0
115, 0.0
116, 0.0
117, 0.0
118, 0.0
119, 0.0
120, 0.0
121, 0.0
122, 0.0
123, 0.0
124, 0.0
125, 0.0
126, 0.0
127, 0.0
128.0, 7.28411558325028e-08
129.0, 3.541467624046781e-06
130.0, 0.0013920042402347083
131.0, 0.0018126085332499748
132.0, 0.0013982641157215092
133.0, 0.0013289979398415658
134.0, 0.000599189906855207
135.0, 0.0040254806032953465
136.0, 0.008160713701008876
137.0, 0.01142540188933109
138.0, 0.01347694769501835
139.0, 0.015945608901301856
140.0, 0.019420583254102904
141.0, 0.021835137021070414
142.0, 0.025133348366456792
143.0, 0.0296520499305671
144.0, 0.03401300884030345
145.0, 0.03926033417225707
146.0, 0.040246835168704746
147.0, 0.04296002443862223
148.0, 0.046931384625059275
149.0, 0.05044019980513183
150.0, 0.058144162173523646
151.0, 0.05687861449865873
152.0, 0.06310614733750385
153.0, 0.06881477815945683
154.0, 0.06808812595295642
155.0, 0.0640687543249122
156.0, 0.06429864912851499
157.0, 0.06321455998004887
158.0, 0.05897372210732154
159.0, 0.052472365698186675
160.0, 0.046016301150936016
161.0, 0.03901709853340746
162.0, 0.030095740189444425
163.0, 0.021049882492422543
164.0, 0.014996495695507931
165.0, 0.012010347789510217
166.0, 0.004670793763696053
167.0, 0.00909259235109557
168.0, 0.005327049584335142
169.0, 0.00204402542691196
170.0, 0.0037416916861106406
171.0, 0.009282898002142239
172.0, 0.011894756199179414
173.0, 0.015262306882277083
174.0, 0.01977109890299771
175.0, 0.022578254400832967
176.0, 0.02280966702851562
177.0, 0.028372907464470805
178.0, 0.02960512167721399
179.0, 0.029874529788773262
180.0, 0.029332075637700836
181.0, 0.029169071490082608
182.0, 0.031137846683768792
183.0, 0.025834500454632654
184.0, 0.027000904917761793
185.0, 0.025008704363887302
186.0, 0.0208177204206698
187.0, 0.019159558919231878
188.0, 0.02399272161504247
189.0, 0.021359505234019117
190.0, 0.020014696849940023
191.0, 0.022588153939006702
192.0, 0.027328525374799233
193.0, 0.02884656643072703
194.0, 0.030027966083213325
195.0, 0.031234743467425944
196.0, 0.03261740452148005
197.0, 0.034258295781521765
198.0, 0.035726818126350916
199.0, 0.03499188240900777
200.0, 0.03605610962870175
201.0, 0.034162032447272214
202.0, 0.03290018764678911
203.0, 0.03203207865551823
204.0, 0.027233137939967563
205.0, 0.02484544479879969
206.0, 0.02127634277843386
207.0, 0.016906982694973732
208.0, 0.013408061247462136
209.0, 0.01209869791684393
210.0, 0.012139506395276623
211.0, 0.009451203802761859
212.0, 0.007358577352339182
213.0, 0.0049616388238480705
214.0, 0.0024042121772156317
215.0, 0.0009251745549677097
216.0, 0.00115726905953836
217.0, 0.0032017474675962248
218.0, 0.003994690812365171
219.0, 0.004216495200533304
220.0, 0.004705123079501567
221.0, 0.004375668390678102
222.0, 0.0014804634364288941
223.0, 0.0005294873549830143
224.0, 0.0010115283681500224
225.0, 0.0026733163946546677
226.0, 0.005188201983709171
227.0, 0.006036434095265122
228.0, 0.007516090101004833
229.0, 0.00941405396962922
230.0, 0.011064658794858634
231.0, 0.010853620838555013
232.0, 0.006379810905049431
233.0, 0.010791695423458118
234.0, 0.012945767806492403
235.0, 0.016184785473728473
236.0, 0.02035772773485827
237.0, 0.022470262835789838
238.0, 0.015310824713932912
239.0, 0.01729748554649941
240.0, 0.017627818345909728
241.0, 0.017322003662985044
242.0, 0.017163341095059747
243.0, 0.016820146379729114
244.0, 0.017970200543240892
245.0, 0.018177611996993175
246.0, 0.019722094932968098
247.0, 0.021452024598240617
248.0, 0.0222585465136204
249.0, 0.0229820510986647
250.0, 0.025283089123010735
251.0, 0.027792240799865888
252.0, 0.03127971201898209
253.0, 0.034684224167316646
254.0, 0.036818663759775674
255.0, 0.04037336407417517
256.0, 0.04240427894778863
257.0, 0.04533544299304292
258.0, 0.048769093807253874
259.0, 0.05270998588127806
260.0, 0.05780289348605417
261.0, 0.0633175918366903
262.0, 0.056704964891248606
263.0, 0.058241101888582295
264.0, 0.0640532583116869
265.0, 0.06862032833451946
266.0, 0.07654575383697737
267.0, 0.08051805556129588
268.0, 0.08537682787084434
269.0, 0.09144908402793678
270.0, 0.09848099832720938
271.0, 0.10677355246694939
272.0, 0.1198884330715175
273.0, 0.12686875618077917
274.0, 0.14608011215165237
275.0, 0.1641364323893915
276.0, 0.17597800417887585
277.0, 0.18614359593663332
278.0, 0.19145040914141337
279.0, 0.2008391343222499
280.0, 0.20304727433572686
281.0, 0.20255581391638272
282.0, 0.20089137854942474
283.0, 0.19168930607476742
284.0, 0.1973657047467957
285.0, 0.19154338447228325
286.0, 0.18255609968118391
287.0, 0.17645243347604334
288.0, 0.1727443499543988
289.0, 0.15831788832394864
290.0, 0.14942473590554417
291.0, 0.14341964993004308
292.0, 0.13953455441595547
293.0, 0.13663625905336232
294.0, 0.1336468776571643
295.0, 0.13035107087461642
296.0, 0.12879008203556097
297.0, 0.1270969584557791
298.0, 0.12210612126466996
299.0, 0.11722233040286657
300.0, 0.11896680078851632
301.0, 0.11688487649569397
302.0, 0.11681687734524324
303.0, 0.1084799765376596
304.0, 0.09376490987402322
305.0, 0.08202519247372077
306.0, 0.08468855334979264
307.0, 0.06707512000678803
308.0, 0.058142091765913666
309.0, 0.052420246950320715
310.0, 0.04808494757239738
311.0, 0.04391823840458959
312.0, 0.03839166365257434
313.0, 0.03750337621393495
314.0, 0.03836643350734249
315.0, 0.03362401721274014
316.0, 0.02831628948143364
317.0, 0.029314468528566968
318.0, 0.03563699042896751
319.0, 0.027597376035101994
320.0, 0.027345701487848942
321.0, 0.027166844797553207
322.0, 0.02474909787266804
323.0, 0.021994596572332444
324.0, 0.02298233381633427
325.0, 0.022034681289961607
326.0, 0.021044751971002428
327.0, 0.021152773437565255
328.0, 0.019849360649833746
329.0, 0.014730069850347326
330.0, 0.013755628989024393
331.0, 0.014381922386869923
332.0, 0.014605611706088841
333.0, 0.013050342409619997
334.0, 0.011769778460139472
335.0, 0.013610259071582023
336.0, 0.01095293217421264
337.0, 0.007204060639171548
338.0, 0.00935997499148745
339.0, 0.009516806648305618
340.0, 0.0075120122932350285
341.0, 0.010824219271484711
342.0, 0.013296962134251716
343.0, 0.01502004525592509
344.0, 0.017541502548100687
345.0, 0.020140919844552022
346.0, 0.021415982753989676
347.0, 0.020888970601966584
348.0, 0.028259725652623257
349.0, 0.029406259293517978
350.0, 0.033015106892324224
351.0, 0.03660093411336811
352.0, 0.03929607653539488
353.0, 0.04403745761808263
354.0, 0.04329694215832452
355.0, 0.04164429855268418
356.0, 0.04357771518473378
357.0, 0.04489015370205309
358.0, 0.04449294770934645
359.0, 0.046900849950879855
360.0, 0.042822844060766696
361.0, 0.04359857176417711
362.0, 0.039998707410904326
363.0, 0.03424479600934323
364.0, 0.03016083150848396
365.0, 0.029109071264504727
366.0, 0.027199761313313878
367.0, 0.026038567347321954
368.0, 0.023886369160557266
369.0, 0.020591550402850888
370.0, 0.017509676101053064
371.0, 0.016807617068675104
372.0, 0.013928022826112432
373.0, 0.01226329133047136
374.0, 0.013085215142621533
375.0, 0.010350709644564133
376.0, 0.00468952910580422
377.0, 0.005949051172911791
378.0, 0.002613945335904759
379.0, 0.0028738518445893695
380.0, 0.004237377155942485
381.0, 0.003410269912795385
382.0, 0.0012882432809614645
383.0, 0.002878404216598205
384.0, 0.00032237678998978353
385.0, 3.134019923243071e-05
386.0, 0.0013519308334274144
387.0, 0.0017114354353690976
388.0, 0.0016677512995819234
389.0, 0.00480776303445394
390.0, 0.006319861766089387
391.0, 0.007029098156984
392.0, 0.009135980428412507
393.0, 0.01038069436746879
394.0, 0.00973841720220154
395.0, 0.008836656760242432
396.0, 0.012280806787786947
397.0, 0.012586285891975444
398.0, 0.01136129937989183
399.0, 0.010724402445771001
400.0, 0.011938842381419717
401.0, 0.014700497738652684
402.0, 0.015788767054505097
403.0, 0.014753590431512687
404.0, 0.013391109815967263
405.0, 0.01100275672021283
406.0, 0.009162393700307308
407.0, 0.00937226782137272
408.0, 0.005624835065611709
409.0, 0.008072709427853996
410.0, 0.010623427555704156
411.0, 0.009002447610100155
412.0, 0.00699558517194086
413.0, 0.010083715897243585
414.0, 0.014072954675415954
415.0, 0.018002755365520682
416.0, 0.017663581549587658
417.0, 0.016254859123203944
418.0, 0.01722527613627486
419.0, 0.021071280137014405
420.0, 0.022474287218763454
421.0, 0.025315184345640618
422.0, 0.026474475713647656
423.0, 0.025313809139844306
424.0, 0.025152849984242415
425.0, 0.02588204551439032
426.0, 0.02076385303866328
427.0, 0.02483089429090686
428.0, 0.025836140318104325
429.0, 0.022576255220459272
430.0, 0.021999787763083718
431.0, 0.02339745133717181
432.0, 0.01638737346496302
433.0, 0.008516397210612026
434.0, 0.009211079166865683
435.0, 0.008888606680262333
436.0, 0.009306873011879541
437.0, 0.00948415134351532
438.0, 0.006161022275610568
439.0, 0.0043441011909262596
440.0, 0.002778903274167102
441.0, 0.0018011748701099552
442.0, 0.0012297658085668659
443.0, 0.00102746990248222
444.0, 0.0012565033074087822
445.0, 0.0019002431394617072
446.0, 0.0009637234679150213
447.0, 0.0005305923164830688
448.0, 0.0012938088996436834
449.0, 0.0034422770117742687
450.0, 0.004755332803083072
451.0, 0.0004323557301442282
452.0, 0.006189428075937845
453.0, 0.004565529824126423
454.0, 0.003128532401749605
455.0, 0.002789414743803029
456.0, 0.0021578346774826307
457.0, 0.00044229730194721584
458.0, 0.004433547434403721
459.0, 0.0015339942801515236
460.0, 0.001518968912276552
461.0, 0.0021336343505837852
462.0, 0.0031039956966214814
463.0, 0.005736688411137968
464.0, 0.006877915860886562
465.0, 0.004238711668475906
466.0, 0.005364847574669038
467.0, 0.005820060569022954
468.0, 0.0037542275900700394
469.0, 0.0012618359504583147
470.0, 0.004034301229985363
471.0, 0.006196338436129445
472.0, 0.004840777410381424
473.0, 0.0036131141918890265
474.0, 0.002806866750338648
475.0, 0.002556348059950824
476.0, 0.003551836751265324
477.0, 0.0043014829730606535
478.0, 0.007091963369279122
479.0, 0.010935819015680467
480.0, 0.012984686914258432
481.0, 0.013872154888511049
482.0, 0.015047120088841119
483.0, 0.012626285934080873
484.0, 0.014884326778302691
485.0, 0.015711267447232658
486.0, 0.014003467665875203
487.0, 0.010583025215928776
488.0, 0.0074885677505419235
489.0, 0.007113649220243089
490.0, 0.01060312929564974
491.0, 0.011585703140998332
492.0, 0.00980413991491821
493.0, 0.009171919918074886
494.0, 0.01011108181932802
495.0, 0.00976919423083317
496.0, 0.0075865534701396505
497.0, 0.00818181134520931
498.0, 0.006996033419364647
499.0, 0.006961721421647515
500.0, 0.007658809752406093
501.0, 0.007908054932414858
502.0, 0.00844023861904117
503.0, 0.009030223939573222
504.0, 0.012330561635790297
505.0, 0.017024052602214266
506.0, 0.019662043325988542
507.0, 0.017668682359224128
508.0, 0.012561370082563151
509.0, 0.016210933781923433
510.0, 0.010435721546221818
511.0, 0.012823486000052802
512.0, 0.014198212770976092
513.0, 0.012943216382607252
514.0, 0.011596016032014373
515.0, 0.011269492663675773
516.0, 0.008802487664883224
517.0, 0.009092162030838994
518.0, 0.008798819651111718
519.0, 0.013500423175751463
520.0, 0.020427601948283358
521.0, 0.021836873120373548
522.0, 0.024749883165477517
523.0, 0.03222438351648425
524.0, 0.032284618719099434
525.0, 0.03266762970327145
526.0, 0.034854151214595536
527.0, 0.03738231806917266
528.0, 0.038588424694408735
529.0, 0.029124716367605594
530.0, 0.029114225915130104
531.0, 0.029945259039989937
532.0, 0.03060203032145532
533.0, 0.030392401984971673
534.0, 0.029177812710808635
535.0, 0.029703203173177525
536.0, 0.026702875244484975
537.0, 0.029310727548228853
538.0, 0.03252699264748719
539.0, 0.03500712987675153
540.0, 0.037748088565001184
541.0, 0.04187605067670397
542.0, 0.043026161278296136
543.0, 0.048549511305069334
544.0, 0.05324509533175882
545.0, 0.05551364155887417
546.0, 0.05473706203999059
547.0, 0.05204433713180526
548.0, 0.050323992629545206
549.0, 0.045561767336198024
550.0, 0.03782357613516407
551.0, 0.033600828010085876
552.0, 0.029620164407085918
553.0, 0.025456758361546223
554.0, 0.02279046332132303
555.0, 0.018061364254580225
556.0, 0.016148943887644172
557.0, 0.012431699158146112
558.0, 0.011622158372585319
559.0, 0.010850860696791273
560.0, 0.009173114073061862
561.0, 0.009723542009786826
562.0, 0.010112780809754291
563.0, 0.008743908682336918
564.0, 0.007382513804202391
565.0, 0.00534175331789073
566.0, 0.004014576456853208
567.0, 0.004136615867057045
568.0, 0.0041697960378907495
569.0, 0.006768733814515088
570.0, 0.004248798729824258
571.0, 0.005111018770304027
572.0, 0.005001093442144927
573.0, 0.0035114650974311045
574.0, 0.003259988211489208
575.0, 0.004746538474214367
576.0, 0.004110900078496943
577.0, 0.0054857580950137055
578.0, 0.0024496480923293
579.0, 0.002139630258323523
580.0, 0.004974959471964059
581.0, 0.005412797176715486
582.0, 0.004548095225593401
583.0, 0.010051481777847236
584.0, 0.004082245861975722
585.0, 0.000993952624730967
586.0, 0.0008837322442365815
587.0, 0.0024066837276064115
588.0, 0.005202188186919058
589.0, 0.0012548581107756892
590.0, 0.000662893322408382
591.0, 0.004511673589164978
592.0, 0.0065570339200023186
593.0, 0.004285526134024995
594.0, 0.0025407045258622656
595.0, 0.007451805663120873
596.0, 0.0006448320082410278
597.0, 0.0040343499243693445
598.0, 0.006652960741425117
599.0, 0.0052749635907314
600.0, 0.004203556898171255
601.0, 0.005074826532708327
602.0, 0.003533195030873429
603.0, 0.006334358422831488
604.0, 0.0037003458422194104
605.0, 0.0036112657993803777
606.0, 0.005991166421686859
607.0, 0.005259297840690286
608.0, 0.0020359909626246255
609.0, 0.005634291755866855
610.0, 0.0009669206461135568
611.0, 0.0025506975122902426
612.0, 0.0018383030045123123
613.0, 0.0010256545883809427
614.0, 0.002336754474044583
615.0, 0.005102442727666703
616.0, 0.006050450115690271
617.0, 0.008329786776029802
618.0, 0.006208369971518637
619.0, 0.005027867166933956
620.0, 0.00757325886991932
621.0, 0.012212529884138294
622.0, 0.0128813386717916
623.0, 0.0044270652589630255
624.0, 0.009759916503973759
625.0, 0.008993541659100077
626.0, 0.013218339886827257
627.0, 0.01805428157039516
628.0, 0.020105725556514388
629.0, 0.020279100706066998
630.0, 0.023067072045896718
631.0, 0.028725074222489686
632.0, 0.028575888902359292
633.0, 0.03328322240381983
634.0, 0.037954360435356306
635.0, 0.04416992371437648
636.0, 0.05602593837394614
637.0, 0.07303982172722555
638.0, 0.08222029005310706
639.0, 0.09809700134355315
640.0, 0.12037167780435751
641.0, 0.13475329117920634
642.0, 0.14480944780135585
643.0, 0.15700085196756122
644.0, 0.16868892802024532
645.0, 0.1725479066101353
646.0, 0.17306096160275639
647.0, 0.16735954083280377
648.0, 0.15832429058725034
649.0, 0.14740916376263669
650.0, 0.1357375104389616
651.0, 0.1237075116079546
652.0, 0.10750185673819831
653.0, 0.09939418737042717
654.0, 0.0843463662875329
655.0, 0.07919846065327328
656.0, 0.07376076612392944
657.0, 0.0647590508366613
658.0, 0.06021618409382554
659.0, 0.05447465892214097
660.0, 0.05173108151561068
661.0, 0.04967857674109911
662.0, 0.04687222259766383
663.0, 0.04274153709999438
664.0, 0.03837870100274006
665.0, 0.035211589849834704
666.0, 0.03306330036143821
667.0, 0.03578667988306453
668.0, 0.030150124985347637
669.0, 0.029014400677594573
670.0, 0.02894230187060002
671.0, 0.027034715180632215
672.0, 0.02446724030394743
673.0, 0.02460646215177242
674.0, 0.02392984181035184
675.0, 0.01826246009095498
676.0, 0.014302792744874913
677.0, 0.013655399990697543
678.0, 0.015728928002497408
679.0, 0.01743641308265761
680.0, 0.016322743078534152
681.0, 0.02103037460854864
682.0, 0.019834674392493427
683.0, 0.02124238701100425
684.0, 0.022391679171431932
685.0, 0.01999023168017336
686.0, 0.016144258099628016
687.0, 0.015522404003073897
688.0, 0.01584742197564892
689.0, 0.016500987621908283
690.0, 0.019687912307070513
691.0, 0.024563555495603292
692.0, 0.027310386288665642
693.0, 0.030621475137074205
694.0, 0.035247173720060185
695.0, 0.03306566133131188
696.0, 0.03992491912139525
697.0, 0.045766802038790556
698.0, 0.04406787984248572
699.0, 0.04468575275333745
700.0, 0.04229557665079679
701.0, 0.03734751027709338
702.0, 0.04011066018146386
703.0, 0.03760003555738174
704.0, 0.0359299530262388
705.0, 0.03488291925443748
706.0, 0.03345423714817877
707.0, 0.03796105352450248
708.0, 0.04730890992035856
709.0, 0.05614765541370316
710.0, 0.0655867025930837
711.0, 0.06845445748332181
712.0, 0.07755162098814279
713.0, 0.0837050276216097
714.0, 0.09022122389607588
715.0, 0.09125952709011417
716.0, 0.08698541357514972
717.0, 0.08616336279253105
718.0, 0.0737350623024834
719.0, 0.07249243313723225
720.0, 0.06521355553360388
721.0, 0.05842798539221598
722.0, 0.05069221063976475
723.0, 0.03957408403611823
724.0, 0.027568756527885804
725.0, 0.02264279937082582
726.0, 0.014086407789543929
727.0, 0.017196465186798623
728.0, 0.006515561352173186
729.0, 0.006250530696308116
730.0, 0.00713368867430218
731.0, 0.0016397008437408493
732.0, 0.0016068852962943386
733.0, 0.003237731677255256
734.0, 0.01158436340706178
735.0, 0.005501338591104592
736.0, 0.0023068713980551664
737.0, 0.005061001102315143
738.0, 0.006483377597785793
739.0, 0.0037221219465347916
740.0, 0.005903281902497853
741.0, 0.0020301766919617243
742.0, 0.004532193575970426
743.0, 0.003973463354707709
744.0, 0.003976094189777467
745.0, 0.004520035619196703
746.0, 0.0034214092994817244
747.0, 0.000859331432673424
748.0, 0.0024845230200761527
749.0, 0.0007301961565433808
750.0, 0.0038435529964756694
751.0, 0.003883140317526838
752.0, 0.005235655640771168
753.0, 0.004881692222240651
754.0, 0.0020649815106330064
755.0, 0.0017974145337167561
756.0, 0.0020170610916296476
757.0, 0.001026843314974373
758.0, 0.002299425186839324
759.0, 0.004102972335580534
760.0, 0.005600183250350817
761.0, 0.006337524078239882
762.0, 0.007348435645751394
763.0, 0.009589695795370487
764.0, 0.0054574657497108905
765.0, 0.0020741284525782585
766.0, 0.0004710882866516267
767.0, 0.00039171677648529264
768.0, 0.0014239941036738324
769.0, 0.0020488824490898045
770.0, 0.0021253054731341565
771.0, 0.003736164776924294
772.0, 0.00038293142280636716
773.0, 0.0015321906488978737
774.0, 0.0035608777828920034
775.0, 0.004703253409796562
776.0, 0.004457727146948128
777.0, 0.004779025688304377
778.0, 0.006459440645005469
779.0, 0.005433951425961138
780.0, 0.002350445151826296
781.0, 0.005176867282411165
782.0, 0.002256406390602345
783.0, 0.0008974034692991401
784.0, 0.0019436167367034205
785.0, 0.0022519850782892173
786.0, 0.0017494194679487174
787.0, 0.0062045161695525024
788.0, 0.00036479587922773685
789.0, 0.0009950388908945148
790.0, 0.003723270420084179
791.0, 0.005690802813066953
792.0, 0.004879658162536137
793.0, 0.002546342972029874
794.0, 0.0016711633837762424
795.0, 0.002830620222482255
796.0, 0.005667923951326112
797.0, 0.0020809509966693753
798.0, 0.0013495120986451298
799.0, 0.0025384223095118843
800.0, 0.002282717709200602
801.0, 0.000915360036709332
802.0, 0.0007551821433891175
803.0, 0.0004292812335369438
804.0, 0.002491134667681441
805.0, 0.0028894893007152616
806.0, 0.0032984946058958052
807.0, 0.003455631536902526
808.0, 0.005885116810313433
809.0, 0.006865442003425592
810.0, 0.0038297594657849742
811.0, 0.005739128295422223
812.0, 0.0019337500517439205
813.0, 0.0006799419817146989
814.0, 0.0012349462179749406
815.0, 0.00437121502013107
816.0, 0.007762027285450069
817.0, 0.009111923019560592
818.0, 0.00667784912790275
819.0, 0.0009659781870034693
820.0, 0.006120134300603577
821.0, 0.0022979539116489206
822.0, 0.0005498269477647586
823.0, 0.003665287219228191
824.0, 0.003461858873100607
825.0, 0.0027951337077806197
826.0, 0.00422822577453854
827.0, 0.0011244034932013402
828.0, 0.0054512007516056725
829.0, 0.0028284813696542264
830.0, 0.006086452559698402
831.0, 0.007831273488249291
832.0, 0.008724350926421792
833.0, 0.009976442034528276
834.0, 0.01155343838357837
835.0, 0.012762533195879002
836.0, 0.013447101554340658
837.0, 0.014821638523727828
838.0, 0.016779028935130127
839.0, 0.01623302483901312
840.0, 0.012797301708820786
841.0, 0.010721456753326714
842.0, 0.007969506615212795
843.0, 0.00209823007802393
844.0, 0.003513912351152092
845.0, 0.00784501039816441
846.0, 0.00389069128998032
847.0, 0.002278586419850889
848.0, 0.0012617394300489804
849.0, 0.0035191435739129707
850.0, 0.004854730426613939
851.0, 0.0028298466291487297
852.0, 0.004547048292253684
853.0, 0.008123152412155697
854.0, 0.0026848407039444747
855.0, 0.0006098158634284757
856.0, 0.004056872699170125
857.0, 0.0059399321265596015
858.0, 0.0037537890967230775
859.0, 0.0020750643735192222
860.0, 0.005288424576692958
861.0, 0.008003744653688524
862.0, 0.010750882875041478
863.0, 0.009828525395832531
864.0, 0.010629054735499988
865.0, 0.008049560433397924
866.0, 0.0077805677189651335
867.0, 0.009539192695474583
868.0, 0.009042884495546657
869.0, 0.008519845635921189
870.0, 0.014239381340836854
871.0, 0.00923886912909227
872.0, 0.0019779853958322496
873.0, 0.006548401592998396
874.0, 0.0067925990088335214
875.0, 0.00426992756167551
876.0, 0.0056076550109335575
877.0, 0.007744600570813791
878.0, 0.0032085053762673996
879.0, 0.004043887584372525
880.0, 0.0091251428629034
881.0, 0.006036100748811855
882.0, 0.002896765071644194
883.0, 0.004879845305963757
884.0, 0.009272256490907694
885.0, 0.01231313244032951
886.0, 0.014927166451488238
887.0, 0.018554149925614348
888.0, 0.022344198248645235
889.0, 0.026930004696475416
890.0, 0.026162940279805782
891.0, 0.034317001618509264
892.0, 0.04363270668075723
893.0, 0.050053269174534634
894.0, 0.059687561066021265
895.0, 0.07727789175230904
896.0, 0.1012216809983001
897.0, 0.13126311558453496
898.0, 0.16582260186446843
899.0, 0.2141785186969433
900.0, 0.2780858591732972
901.0, 0.35091290609292336
902.0, 0.4232384411664345
903.0, 0.4863130862661852
904.0, 0.5348054574135145
905.0, 0.5762644778394066
906.0, 0.5821067680816404
907.0, 0.5585660095299984
908.0, 0.5018748210856697
909.0, 0.42803181669105234
910.0, 0.3482332451800354
911.0, 0.271379981807977
912.0, 0.20422319436574543
913.0, 0.14703166409437288
914.0, 0.10898659348130413
915.0, 0.08158467321506316
916.0, 0.062004391342408156
917.0, 0.049714731203048576
918.0, 0.03762661623081896
919.0, 0.03142308917962115
920.0, 0.029711619826358966
921.0, 0.02443597223300382
922.0, 0.022490776232979605
923.0, 0.021653454805031145
924.0, 0.024865404651996804
925.0, 0.022744243885779555
926.0, 0.02281385607827728
927.0, 0.02863876242297127
928.0, 0.03152995226827135
929.0, 0.02757724382676581
930.0, 0.022169188037528646
931.0, 0.01876986991581658
932.0, 0.024221832532780638
933.0, 0.02256422399792841
934.0, 0.022693962044540397
935.0, 0.021555758498101617
936.0, 0.01610553544145947
937.0, 0.009043362981206676
938.0, 0.007239223131414578
939.0, 0.011321056954913786
940.0, 0.010294590932844194
941.0, 0.00276779224951562
942.0, 0.008230956702413373
943.0, 0.010051959013454948
944.0, 0.008873671845283648
945.0, 0.010052645494672966
946.0, 0.012489135125282519
947.0, 0.013304983557614338
948.0, 0.013916727080203726
949.0, 0.016479382467474147
950.0, 0.010160930404960543
951.0, 0.009963979491624619
952.0, 0.01289956969584088
953.0, 0.01282781038837251
954.0, 0.00985638055323965
955.0, 0.009238520012564748
956.0, 0.011910203951488006
957.0, 0.010442858654788813
958.0, 0.002608174507846298
959.0, 0.007688095840930941
960.0, 0.0022649208121396135
961.0, 0.001857456508115142
962.0, 0.0049821145536589435
963.0, 0.005922627645371331
964.0, 0.011173709976427488
965.0, 0.010006565923986382
966.0, 0.005691830901440925
967.0, 0.010960080462156574
968.0, 0.012482979627589163
969.0, 0.006076603811511436
970.0, 0.009956295882170979
971.0, 0.021073841591979704
972.0, 0.01852713745449397
973.0, 0.020073906819833932
974.0, 0.02052024477193452
975.0, 0.01730380768785432
976.0, 0.017865471777540942
977.0, 0.02290607484955091
978.0, 0.017884078332384895
979.0, 0.02332701116504547
980.0, 0.028044862283491546
981.0, 0.030130912036654335
982.0, 0.03288485760060258
983.0, 0.03826403132348425
984.0, 0.04236511435428262
985.0, 0.04188886102514642
986.0, 0.04207289325347656
987.0, 0.050739195993035315
988.0, 0.052105254257127656
989.0, 0.047713132554798185
990.0, 0.0492146771278509
991.0, 0.04479421519869907
992.0, 0.0400498948716922
993.0, 0.033784599795229214
994.0, 0.026938932804124283
995.0, 0.023172250934594338
996.0, 0.02339705566860959
997.0, 0.02318475391401488
998.0, 0.01877000824849912
999.0, 0.024361030085891543
1000.0, 0.025783750179075478
1001.0, 0.031018973309464272
1002.0, 0.03365666801375838
1003.0, 0.03291384400457922
1004.0, 0.0297283705086515
1005.0, 0.03131443498809325
1006.0, 0.04043891618422643
1007.0, 0.03565481990309266
1008.0, 0.03978027728324521
1009.0, 0.031164365202889142
1010.0, 0.03792816075432001
1011.0, 0.03905792536644799
1012.0, 0.04067645474360816
1013.0, 0.040685686897458606
1014.0, 0.03201914829223983
1015.0, 0.023091324616812188
1016.0, 0.02699892780440076
1017.0, 0.02185917430326486
1018.0, 0.012797564328587585
1019.0, 0.016625534154185863
1020.0, 0.009080007534085638
1021.0, 0.013901946270066377
1022.0, 0.01602629993346282
1023.0, 0.01472491516225263
1024.0, 0.013315414323385481
1025.0, 0.010858339956685165
1026.0, 0.009224609214044579
1027.0, 0.01638449758257969
1028.0, 0.016177447981653676
1029.0, 0.015009461476942449
1030.0, 0.01222407876277217
1031.0, 0.01876286168791831
1032.0, 0.019787145449170557
1033.0, 0.020770755929672584
1034.0, 0.018507937851976592
1035.0, 0.01605873646020351
1036.0, 0.020810318858955745
1037.0, 0.012386798508077751
1038.0, 0.008700923725206991
1039.0, 0.014194670370544919
1040.0, 0.011579902518662139
1041.0, 0.01321664004888315
1042.0, 0.008088250769062362
1043.0, 0.008252940804006528
1044.0, 0.0118978819193512
1045.0, 0.011675277910752267
1046.0, 0.011072145987936327
1047.0, 0.016300844888749888
1048.0, 0.01979102162192134
1049.0, 0.012430394272404709
1050.0, 0.01189890008779695
1051.0, 0.0063513994347989605
1052.0, 0.006044337305762627
1053.0, 0.006803666698941008
1054.0, 0.010757430560360442
1055.0, 0.01485515503147734
1056.0, 0.01588592830162589
1057.0, 0.017738176797346197
1058.0, 0.016778216794122076
1059.0, 0.01660341737072425
1060.0, 0.018880152260946578
1061.0, 0.016301961154085328
1062.0, 0.019242621025796804
1063.0, 0.018014169580185722
1064.0, 0.018647970761490003
1065.0, 0.0237021686829293
1066.0, 0.027841352366619457
1067.0, 0.027697525782513624
1068.0, 0.028599083742114104
1069.0, 0.03738036790021778
1070.0, 0.039596703488301174
1071.0, 0.04344437470765186
1072.0, 0.04896578068296624
1073.0, 0.06642993036968804
1074.0, 0.08837732815014712
1075.0, 0.1340684115972923
1076.0, 0.19880857511225808
1077.0, 0.2727775924413858
1078.0, 0.37439647929129927
1079.0, 0.509417168937293
1080.0, 0.6111173949812428
1081.0, 0.6701414262007405
1082.0, 0.7378040579079151
1083.0, 0.839827947503623
1084.0, 0.9501862689989771
1085.0, 0.9955328437246889
1086.0, 0.9886941912431187
1087.0, 0.9592388808116137
1088.0, 0.9033923951580769
1089.0, 0.8077592668226632
1090.0, 0.69016251107588
1091.0, 0.6378193312968553
1092.0, 0.6695905016693174
1093.0, 0.6720854669337659
1094.0, 0.596644080275098
1095.0, 0.4791814631142293
1096.0, 0.35995571077055966
1097.0, 0.2505113935503717
1098.0, 0.162097743527373
1099.0, 0.103182128703544
1100.0, 0.06289759551970456
1101.0, 0.0327621295818154
1102.0, 0.036669843010587344
1103.0, 0.02473378150875285
1104.0, 0.021766665126742836
1105.0, 0.01872250857803924
1106.0, 0.010995309131154303
1107.0, 0.014887749108722054
1108.0, 0.014956101897429571
1109.0, 0.009984781598805958
1110.0, 0.008443274229756197
1111.0, 0.00823553857445869
1112.0, 0.011717550301520436
1113.0, 0.015609846289192146
1114.0, 0.007087498701716541
1115.0, 0.015623920298649103
1116.0, 0.008771809551617507
1117.0, 0.012486180199585698
1118.0, 0.020438957311286775
1119.0, 0.030424077310299905
1120.0, 0.030105708121555348
1121.0, 0.027635104909670073
1122.0, 0.03599157329246987
1123.0, 0.03545440115977979
1124.0, 0.02576969762916541
1125.0, 0.036193468316583675
1126.0, 0.01800718718907324
1127.0, 0.01750354042745014
1128.0, 0.0123812053667821
1129.0, 0.013838586439968166
1130.0, 0.012361630337650592
1131.0, 0.010328805435390418
1132.0, 0.010292478395299606
1133.0, 0.007117287655057699
1134.0, 0.0030610946371560158
1135.0, 0.008972003316627999
1136.0, 0.005535284562443647
1137.0, 0.007025672882923565
1138.0, 0.0032693498283359523
1139.0, 0.00461797900477085
1140.0, 0.0035365196580256124
1141.0, 0.0029798439819012966
1142.0, 0.003271536700304488
1143.0, 0.0025089947690241665
1144.0, 0.003519757576260133
1145.0, 0.005027780463342342
1146.0, 0.0011351917179470373
1147.0, 0.0002152776089148434
1148.0, 0.0013330422012273288
1149.0, 0.005018961831306103
1150.0, 0.007966732991816328
1151.0, 0.008248436469416214
1152.0, 0.002257450970506323
1153.0, 0.005132930804793194
1154.0, 0.007545154742873565
1155.0, 0.004632783934053657
1156.0, 0.003245957955609732
1157.0, 0.0050848261503028324
1158.0, 0.003999017128728496
1159.0, 0.002633553994023852
1160.0, 5.997336545007128e-05
1161.0, 0.00023821229909687413
1162.0, 0.004400745311682898
1163.0, 0.0017544495014522735
1164.0, 0.002712343694554048
1165.0, 0.005782339383055933
1166.0, 0.0054640454980140534
1167.0, 0.002706088990848694
1168.0, 0.0018001778366822168
1169.0, 0.003057500420261336
1170.0, 0.0030165979253053195
1171.0, 0.0017250788620586477
1172.0, 0.00395176359509675
1173.0, 0.003326028315581024
1174.0, 0.006403595926687443
1175.0, 0.003474757571846381
1176.0, 0.00820927133117206
1177.0, 0.007357038027898902
1178.0, 0.0069791078369339276
1179.0, 0.0090160130881446
1180.0, 0.00596363300416582
1181.0, 0.0016988779036147578
1182.0, 0.003725835985857356
1183.0, 0.004252072160574482
1184.0, 0.008073232415381102
1185.0, 0.0026398723121930762
1186.0, 0.005351744103105677
1187.0, 0.0017816789834962413
1188.0, 0.0021810802333424657
1189.0, 0.005143604086512403
1190.0, 0.0030886316421989313
1191.0, 0.0027847575919165727
1192.0, 0.0032098354057018058
1193.0, 0.0049362962470102315
1194.0, 0.0062033821432445945
1195.0, 0.004437915879079867
1196.0, 0.008448128516226838
1197.0, 0.0013653658767046155
1198.0, 0.009041113880639396
1199.0, 0.005733282617728619
1200.0, 0.01118143509818222
1201.0, 0.006661286878643827
1202.0, 0.0028661520823841883
1203.0, 0.006581284733525111
1204.0, 0.006133333978770913
1205.0, 0.003845817221956238
1206.0, 0.009214978077595056
1207.0, 0.01186478765209053
1208.0, 0.0024443184561750474
1209.0, 0.004855789339465438
1210.0, 0.010671263311697057
1211.0, 0.005183768514550503
1212.0, 0.006626480490047161
1213.0, 0.018647495223875144
1214.0, 0.013637531563537465
1215.0, 0.005049635173108176
1216.0, 0.0012219028831142987
1217.0, 0.0010812711893441484
1218.0, 0.005133554910865838
1219.0, 0.010525921826743315
1220.0, 0.011999840409512264
1221.0, 0.009321462829471907
1222.0, 0.005813954520304875
1223.0, 0.003511449900237759
1224.0, 0.007039935707532883
1225.0, 0.009481533005853342
1226.0, 0.007724840848463074
1227.0, 0.009062189498031186
1228.0, 0.0056249862847955025
1229.0, 0.008524396789315367
1230.0, 0.009185416429721989
1231.0, 0.0070758591291509455
1232.0, 0.007176976646484155
1233.0, 0.00818404664166556
1234.0, 0.007889188344098356
1235.0, 0.008508322274021657
1236.0, 0.008676844309200384
1237.0, 0.011371148793365005
1238.0, 0.01056889990323217
1239.0, 0.01234143208216878
1240.0, 0.009822953208374747
1241.0, 0.010430402308625483
1242.0, 0.007983943481457891
1243.0, 0.01018779227030556
1244.0, 0.012991656706256943
1245.0, 0.011841470169219648
1246.0, 0.0076938266952738706
1247.0, 0.004041560743617464
1248.0, 0.002558065802673368
1249.0, 0.0027500100488996077
1250.0, 0.0048136791044283474
1251.0, 0.0072000303503818525
1252.0, 0.005975172127381043
1253.0, 0.007375397566075871
1254.0, 0.004639216573789864
1255.0, 0.0009703209025710444
1256.0, 0.002185379989479723
1257.0, 0.0034153455159757163
1258.0, 0.005402296306276035
1259.0, 0.0037868738539592996
1260.0, 0.004105380713246425
1261.0, 0.006567221836510179
1262.0, 0.007146675765338514
1263.0, 0.010267564019849539
1264.0, 0.011834346181166409
1265.0, 0.012021278368705906
1266.0, 0.01623817078483663
1267.0, 0.008212518759410939
1268.0, 0.014058735996577278
1269.0, 0.010367431407159114
1270.0, 0.0041579461729919585
1271.0, 0.006919952071565625
1272.0, 0.008190563016426353
1273.0, 0.006257296775461923
1274.0, 0.006345902515200251
1275.0, 0.007422868311840969
1276.0, 0.006669443336046045
1277.0, 0.00499999301122948
1278.0, 0.0030578572344882446
1279.0, 0.0031224176200114135
1280.0, 0.005681391196540253
1281.0, 0.0031404698303504034
1282.0, 0.011094933440498719
1283.0, 0.0029425753494129814
1284.0, 0.006424009002848425
1285.0, 0.011473139160133889
1286.0, 0.0058023452889614715
1287.0, 0.004352547586398252
1288.0, 0.007579696005356082
1289.0, 0.005889313166185681
1290.0, 0.006200907892499049
1291.0, 0.009048533646484594
1292.0, 0.008702074967231301
1293.0, 0.011800732963089002
1294.0, 0.006320227474894624
1295.0, 0.0033569285074115432
1296.0, 0.012429512925640434
1297.0, 0.0152671685539512
1298.0, 0.004780468114183655
1299.0, 0.0018204914797350044
1300.0, 0.008286810894256195
1301.0, 0.007621089756895318
1302.0, 0.00639586537008292
1303.0, 0.0071090523975465576
1304.0, 0.004894109248930639
1305.0, 0.006591048692722771
1306.0, 0.008121264603146942
1307.0, 0.006434907019145047
1308.0, 0.011261774604877423
1309.0, 0.01348384211603476
1310.0, 0.011888618618266499
1311.0, 0.005893062387750696
1312.0, 0.005266933762050276
1313.0, 0.004411177919824682
1314.0, 0.0093862220744821
1315.0, 0.011061335846805652
1316.0, 0.010998654061645774
1317.0, 0.009651676563703313
1318.0, 0.00874957260219178
1319.0, 0.007112104104224612
1320.0, 0.005772831635880638
1321.0, 0.003584923320390314
1322.0, 0.0013606402992831935
1323.0, 0.0007055752003931918
1324.0, 0.0008651586208994966
1325.0, 0.0030001880252374376
1326.0, 0.004635526991823883
1327.0, 0.004410116180586226
1328.0, 0.01433022141255204
1329.0, 0.007831580695651234
1330.0, 0.008082509501435197
1331.0, 0.01300546972266711
1332.0, 0.010222085497438532
1333.0, 0.005362933881071159
1334.0, 0.002737357377280332
1335.0, 0.00484015952660883
1336.0, 0.007559340126599112
1337.0, 0.008322837928722323
1338.0, 0.008942289549619634
1339.0, 0.009022332639370361
1340.0, 0.00796760261675142
1341.0, 0.010697456462858308
1342.0, 0.015251480787390819
1343.0, 0.009122510894537935
1344.0, 0.009877458971731895
1345.0, 0.002737693328222412
1346.0, 0.0003208495075003538
1347.0, 0.011684885840315701
1348.0, 0.0033743194023088353
1349.0, 0.00464085690886649
1350.0, 0.0070244467219330335
1351.0, 0.0026668265965975246
1352.0, 0.004543986285775722
1353.0, 0.0071084436812411216
1354.0, 0.004123324594432824
1355.0, 0.005208103207591743
1356.0, 0.008651464808756193
1357.0, 0.005654985347670441
1358.0, 0.0027973022772781147
1359.0, 0.003051759087797733
1360.0, 0.002109533758988971
1361.0, 0.006372670643665346
1362.0, 0.0006697980150798979
1363.0, 0.001552897318815007
1364.0, 0.006124716806415624
1365.0, 0.0024517999428961532
1366.0, 0.005552121239809564
1367.0, 0.006562205212063811
1368.0, 0.006066656753372475
1369.0, 0.012325651974988756
1370.0, 0.01088135562743695
1371.0, 0.009856968707093317
1372.0, 0.006115988967489263
1373.0, 0.00572731861243327
1374.0, 0.006134283417140549
1375.0, 0.003945799516438035
1376.0, 0.00572677801195029
1377.0, 0.0035722633353905166
1378.0, 0.007892135387493103
1379.0, 0.010321920475408825
1380.0, 0.011109264182251761
1381.0, 0.002391213173888445
1382.0, 0.006784771093893641
1383.0, 0.005734662122637159
1384.0, 0.00455380179868356
1385.0, 0.007895870355117096
1386.0, 0.006440026216262497
1387.0, 0.0025157286622799783
1388.0, 0.005823351971961117
1389.0, 0.0030172988355092268
1390.0, 0.0051440817904306515
1391.0, 0.00400418218144748
1392.0, 0.0034694154703157937
1393.0, 0.009188058267934354
1394.0, 0.007480185478375333
1395.0, 0.0018327033959656801
1396.0, 0.005900140750775341
1397.0, 0.006772922699790126
1398.0, 0.0015449660341154054
1399.0, 0.0009426137049943096
1400.0, 0.005079656289060599
1401.0, 0.010843400414850423
1402.0, 0.0021045143468916352
1403.0, 0.006565132250559682
1404.0, 0.00720025804899237
1405.0, 0.012593757824576595
1406.0, 0.008727792088511339
1407.0, 0.007581629478005422
1408.0, 0.012856298156979975
1409.0, 0.012636818930327677
1410.0, 0.009247652573702187
1411.0, 0.010320504889784555
1412.0, 0.01682663718597908
1413.0, 0.01625002036965435
1414.0, 0.010934395022772244
1415.0, 0.014294093611626873
1416.0, 0.014661064071791095
1417.0, 0.010801957968159257
1418.0, 0.010066065263714147
1419.0, 0.010164024724935642
1420.0, 0.017815184311290096
1421.0, 0.01655548222058107
1422.0, 0.011397437796345089
1423.0, 0.021435773611511288
1424.0, 0.020213195785385663
1425.0, 0.02160781819008216
1426.0, 0.018766363426423273
1427.0, 0.022647714815308664
1428.0, 0.021571993300359894
1429.0, 0.023056580356986756
1430.0, 0.02584433294094188
1431.0, 0.026902008410814242
1432.0, 0.028551294148399464
1433.0, 0.032862229951567075
1434.0, 0.03467609541985421
1435.0, 0.032431800621602926
1436.0, 0.03152436009391211
1437.0, 0.02678891227359981
1438.0, 0.016611537303431016
1439.0, 0.0178083325590658
1440.0, 0.012392032548625635
1441.0, 0.012456215798410294
1442.0, 0.013909223867900871
1443.0, 0.016447963805075256
1444.0, 0.01881980039883593
1445.0, 0.012076651505401392
1446.0, 0.009932511445887915
1447.0, 0.00794689820726119
1448.0, 0.003628863393555458
1449.0, 0.004253572803277076
1450.0, 0.00913088656950229
1451.0, 0.009398402330371172
1452.0, 0.009868978271997324
1453.0, 0.014076281245325171
1454.0, 0.009800922448947385
1455.0, 0.008115624320443434
1456.0, 0.00736824212012306
1457.0, 0.0046765291015460585
1458.0, 0.005317034990855075
1459.0, 0.005603100480472547
1460.0, 0.010440504652961726
1461.0, 0.011517704253420814
1462.0, 0.004682523169127391
1463.0, 0.0076857647622335466
1464.0, 0.012576754771420274
1465.0, 0.010132072067382586
1466.0, 0.0038804324311722035
1467.0, 0.0053503455022294215
1468.0, 0.004398946205648045
1469.0, 0.006363769106308987
1470.0, 0.00627555964425518
1471.0, 0.006736636978021299
1472.0, 0.011776374650446779
1473.0, 0.006763775981904658
1474.0, 0.005676636493369448
1475.0, 0.0018660919081729022
1476.0, 0.004731761611058551
1477.0, 0.006225569705033313
1478.0, 0.006273595455181352
1479.0, 0.004849529081769318
1480.0, 0.0021218099830151147
1481.0, 0.0024397647051797758
1482.0, 0.0027140128128518575
1483.0, 0.00383997919470402
1484.0, 0.010536865160377763
1485.0, 0.010498376863322648
1486.0, 0.004482579271066801
1487.0, 0.009220467463500763
1488.0, 0.006377930836232095
1489.0, 0.005197093226842435
1490.0, 0.009966421074251264
1491.0, 0.015925761880976795
1492.0, 0.010314856113720513
1493.0, 0.007982458958224452
1494.0, 0.016819238237512336
1495.0, 0.008286250082277874
1496.0, 0.011154786772000989
1497.0, 0.0030309665419113365
1498.0, 0.01718154183217176
1499.0, 0.01997905649058956
1500.0, 0.026072826441579895
1501.0, 0.029079197014251067
1502.0, 0.029050254544522827
1503.0, 0.027071831962428825
1504.0, 0.023605494954860796
1505.0, 0.02017949053306601
1506.0, 0.01991934619515886
1507.0, 0.02002731865487788
1508.0, 0.014741700241323413
1509.0, 0.01391139406927017
1510.0, 0.016436134528772867
1511.0, 0.012517864823726911
1512.0, 0.012554721540288366
1513.0, 0.015490819171667858
1514.0, 0.018086604833408747
1515.0, 0.0167603081202671
1516.0, 0.019708789566605302
1517.0, 0.023186398277543343
1518.0, 0.01913133769461454
1519.0, 0.02497935707223452
1520.0, 0.015196019464456373
1521.0, 0.017084842702094215
1522.0, 0.016183617054492786
1523.0, 0.002907298816486466
1524.0, 0.011490067636958621
1525.0, 0.010856605393418152
1526.0, 0.008226092177256804
1527.0, 0.003875118613584905
1528.0, 0.003907666309981421
1529.0, 0.0030198150043083656
1530.0, 0.004078608570239235
1531.0, 0.004487780230129391
1532.0, 0.004673497073040833
1533.0, 0.005012561214968805
1534.0, 0.004966137972740773
1535.0, 0.0048495097330640636
1536.0, 0.004995123969255055
1537.0, 0.005355141736906166
1538.0, 0.006455714851283317
1539.0, 0.008776473011180862
1540.0, 0.0104178509169157
1541.0, 0.011252890244090917
1542.0, 0.011693346943248884
1543.0, 0.009610192119896017
1544.0, 0.006483645545737052
1545.0, 0.006609830060500175
1546.0, 0.008888773698507336
1547.0, 0.0012745685812127771
1548.0, 0.0024489551619719533
1549.0, 0.007359862009785997
1550.0, 0.015040476431620398
1551.0, 0.01438652977191595
1552.0, 0.009220690331170216
1553.0, 0.0048018390816950175
1554.0, 0.021362927470412487
1555.0, 0.009858383236631805
1556.0, 0.006703725761171788
1557.0, 0.017198805930676846
1558.0, 0.008813962583769396
1559.0, 0.004628871264851644
1560.0, 0.0061623268616939715
1561.0, 0.011282073869002696
1562.0, 0.00489090998301857
1563.0, 0.006020656368006881
1564.0, 0.011559292639752203
1565.0, 0.011200423743213471
1566.0, 0.006160179694866495
1567.0, 0.0023888075159664663
1568.0, 0.009556302279496172
1569.0, 0.004709614711371975
1570.0, 0.006456290545262384
1571.0, 0.004105350956917754
1572, 0.0
1573, 0.0
1574, 0.0
1575, 0.0
1576, 0.0
1577, 0.0
1578, 0.0
1579, 0.0
1580, 0.0
1581, 0.0
1582, 0.0
1583, 0.0
1584, 0.0
1585, 0.0
1586, 0.0
1587, 0.0
1588, 0.0
1589, 0.0
1590, 0.0
1591, 0.0
1592, 0.0
1593, 0.0
1594, 0.0
1595, 0.0
1596, 0.0
1597, 0.0
1598, 0.0
1599, 0.0
