30, 0.0
31, 0.0
32, 0.0
33, 0.0
34, 0.0
35, 0.0
36, 0.0
37, 0.0
38, 0.0
39, 0.0
40, 0.0
41, 0.0
42, 0.0
43, 0.0
44, 0.0
45, 0.0
46, 0.0
47, 0.0
48, 0.0
49, 0.0
50, 0.0
51, 0.0
52, 0.0
53, 0.0
54, 0.0
55, 0.0
56, 0.0
57, 0.0
58, 0.0
59, 0.0
60, 0.0
61, 0.0
62, 0.0
63, 0.0
64, 0.0
65, 0.0
66, 0.0
67, 0.0
68, 0.0
69, 0.0
70, 0.0
71, 0.0
72, 0.0
73, 0.0
74, 0.0
75, 0.0
76, 0.0
77, 0.0
78, 0.0
79, 0.0
80, 0.0
81, 0.0
82, 0.0
83, 0.0
84, 0.0
85, 0.0
86, 0.0
87, 0.0
88, 0.0
89, 0.0
90, 0.0
91, 0.0
92, 0.0
93, 0.0
94, 0.0
95, 0.0
96, 0.0
97, 0.0
98, 0.0
99, 0.0
100, 0.0
101, 0.0
102, 0.0
103, 0.0
104, 0.0
105, 0.0
106, 0.0
107, 0.0
108, 0.0
109, 0.0
110, 0.0
111, 0.0
112, 0.0
113, 0.0
114, 0.0
115, 0.0
116, 0.0
117, 0.0
118, 0.0
119, 0.0
120, 0.0
121, 0.0
122, 0.0
123, 0.0
124, 0.0
125, 0.0
126, 0.0
127, 0.0
128, 0.0
129, 0.0
130, 0.0
131, 0.0
132, 0.0
133, 0.0
134, 0.0
135, 0.0
136, 0.0
137, 0.0
138, 0.0
139, 0.0
140, 0.0
141, 0.0
142, 0.0
143, 0.0
144, 0.0
145, 0.0
146, 0.0
147, 0.0
148, 0.0
149, 0.0
150, 0.0
151, 0.0
152, 0.0
153, 0.0
154, 0.0
155, 0.0
156, 0.0
157, 0.0
158, 0.0
159, 0.0
160, 0.0
161, 0.0
162, 0.0
163, 0.0
164, 0.0
165, 0.0
166, 0.0
167, 0.0
168, 0.0
169, 0.0
170, 0.0
171, 0.0
172, 0.0
173, 0.0
174, 0.0
175.0, 0.024387885861880586
176.0, 0.04222499326694715
177.0, 0.0037053820782988406
178.0, 0.011382505277934909
179.0, 0.04070667912911181
180.0, 0.024167010893924028
181.0, 0.06088789564200311
182.0, 0.0574501247426974
183.0, 0.03130663541924169
184.0, 0.040378369678586296
185.0, 0.05434032576999742
186.0, 0.04488944900030553
187.0, 0.02319026109322046
188.0, 0.010901181076865359
189.0, 0.038536694356095066
190.0, 0.023860065295190948
191.0, 0.036162931403734694
192.0, 0.07300567857373111
193.0, 0.08914137353705241
194.0, 0.05951228075408174
195.0, 0.014450375799241034
196.0, 0.0246985479746695
197.0, 0.06114151074576428
198.0, 0.036681259615746385
199.0, 0.03184939408723059
200.0, 0.05446398237121766
201.0, 0.06026213344631598
202.0, 0.04679997687495302
203.0, 0.07011528808165517
204.0, 0.03349481406596965
205.0, 0.017292819899622853
206.0, 0.03685645498794885
207.0, 0.05571478073252754
208.0, 0.04974506908510709
209.0, 0.03186804199995097
210.0, 0.026384749952843338
211.0, 0.03729534454337937
212.0, 0.04835130880783632
213.0, 0.013825073958255671
214.0, 0.01755611227456022
215.0, 0.06783286004807736
216.0, 0.058907016443848756
217.0, 0.02727898027995683
218.0, 0.04765489374540942
219.0, 0.056300055645124275
220.0, 0.04224679943260777
221.0, 0.06846507681686029
222.0, 0.08642560976302927
223.0, 0.10193470769960479
224.0, 0.11780532801712268
225.0, 0.127908151191685
226.0, 0.12321616737423417
227.0, 0.10571681531769929
228.0, 0.1072688874710599
229.0, 0.11732675613301728
230.0, 0.13040174861019355
231.0, 0.18742419300315125
232.0, 0.17629825159856005
233.0, 0.18971800342434184
234.0, 0.2203153163251838
235.0, 0.21017846139159885
236.0, 0.2318978469661891
237.0, 0.24278823453919804
238.0, 0.2642397357384578
239.0, 0.3027461282106506
240.0, 0.330888618588427
241.0, 0.32906947475913645
242.0, 0.31130778619493704
243.0, 0.3141444256891732
244.0, 0.3583077997313039
245.0, 0.3824017722742829
246.0, 0.4057547821056768
247.0, 0.40596912452372824
248.0, 0.39104207587263223
249.0, 0.3997271677737576
250.0, 0.44717828716807223
251.0, 0.49493205971856913
252.0, 0.5022166843017617
253.0, 0.495422328890976
254.0, 0.5226787958924575
255.0, 0.5338734582965001
256.0, 0.5574325132848447
257.0, 0.564186547301164
258.0, 0.5550588264059323
259.0, 0.5627598330966932
260.0, 0.5261473921211015
261.0, 0.523205446085699
262.0, 0.5052296175036778
263.0, 0.47045036877406543
264.0, 0.5231558816694566
265.0, 0.4929130626795212
266.0, 0.4664210234155044
267.0, 0.4648156780060646
268.0, 0.4530913728247553
269.0, 0.3955467152317246
270.0, 0.35742578553896204
271.0, 0.3186604507279897
272.0, 0.3061736886445484
273.0, 0.33880584871599084
274.0, 0.3015849405592518
275.0, 0.2928549390935389
276.0, 0.2758549232905875
277.0, 0.22912978314153618
278.0, 0.18638222732095372
279.0, 0.20090335856596903
280.0, 0.1946510973375754
281.0, 0.18647174551856305
282.0, 0.19087793976611006
283.0, 0.19030440089353656
284.0, 0.1459972041530658
285.0, 0.20284634819888672
286.0, 0.2419585280018873
287.0, 0.2075494679265598
288.0, 0.20427330937290517
289.0, 0.1735992653953096
290.0, 0.16408913695862085
291.0, 0.17608404442492998
292.0, 0.18890914264091016
293.0, 0.18490753049998582
294.0, 0.13121945037965196
295.0, 0.1485782676128748
296.0, 0.14870895733465964
297.0, 0.10713518038005862
298.0, 0.13741237941482903
299.0, 0.1615856148950162
300.0, 0.16068306817297495
301.0, 0.15884868760876011
302.0, 0.1702127500410713
303.0, 0.1880278061473116
304.0, 0.200551655559749
305.0, 0.18267557111293697
306.0, 0.16853917339263527
307.0, 0.17768722534667733
308.0, 0.1962916471583548
309.0, 0.17451924785972753
310.0, 0.1718529805356878
311.0, 0.17525672884608426
312.0, 0.16334201248744445
313.0, 0.15767675990121907
314.0, 0.13992343545129443
315.0, 0.13059704078626233
316.0, 0.14111664527866555
317.0, 0.14780137344173636
318.0, 0.10888275160248569
319.0, 0.1228414164691486
320.0, 0.09951838736653021
321.0, 0.0838686881290369
322.0, 0.11881400690454613
323.0, 0.13736775106700502
324.0, 0.07528665003676827
325.0, 0.06845491878315998
326.0, 0.08100842164507663
327.0, 0.06582688163362993
328.0, 0.07548576427236632
329.0, 0.05308166785631254
330.0, 0.042583609047616384
331.0, 0.052213209674039
332.0, 0.06459359574177177
333.0, 0.0691080965604515
334.0, 0.0710011345035806
335.0, 0.05177678500428351
336.0, 0.05196110578159956
337.0, 0.059297795010882455
338.0, 0.03350312560096853
339.0, 0.08140411202985419
340.0, 0.03844443288372193
341.0, 0.01969175685895074
342.0, 0.04305104984410564
343.0, 0.02096679284304614
344.0, 0.02330693700866741
345.0, 0.006565634242309871
346.0, 0.00924711865844956
347.0, 0.022576659112046423
348.0, 0.003438340214855432
349.0, 0.011223156714497026
350.0, 0.012877850782394853
351.0, 0.0044478257682226165
352.0, 0.012545675987621713
353.0, 0.015290552145805682
354.0, 0.003865629860004243
355.0, 0.012759583710779484
356.0, 0.03051375950816779
357.0, 0.05044759195189787
358.0, 0.005609549815661724
359.0, 0.01091347513686006
360.0, 0.012844747937342603
361.0, 0.004522379333185208
362.0, 0.008384345764590202
363.0, 0.048009723394988435
364.0, 0.0397221828623629
365.0, 0.0037180347627176003
366.0, 0.031373892327411404
367.0, 0.03836394524833187
368.0, 0.014908490786285476
369.0, 0.004783466396294182
370.0, 0.018039409183679203
371.0, 0.011889991176490517
372.0, 0.0009960701107756403
373.0, 0.005084750168942591
374.0, 0.019661462261302446
375.0, 0.01783288136137632
376.0, 0.03375475132547234
377.0, 0.013637944396360731
378.0, 0.04617182353656542
379.0, 0.024063364622867706
380.0, 0.033784909222741855
381.0, 0.045587008135216274
382.0, 0.048029894294387636
383.0, 0.057642959958225756
384.0, 0.059132941772430114
385.0, 0.06936921931112318
386.0, 0.06176932917591312
387.0, 0.07202379648052279
388.0, 0.0659814536569961
389.0, 0.052332835373827415
390.0, 0.024329111674234558
391.0, 0.006878879163937555
392.0, 0.02106634470039663
393.0, 0.03635410048605218
394.0, 0.03826048592002129
395.0, 0.03555381468416077
396.0, 0.03880114703144265
397.0, 0.029297477681652966
398.0, 0.02485325017627448
399.0, 0.024118620704703952
400.0, 0.027540222945086075
401.0, 0.04324861089000626
402.0, 0.007200008829896822
403.0, 0.021581152551817584
404.0, 0.06274486347034812
405.0, 0.07611693177522155
406.0, 0.05794192619876151
407.0, 0.04789645579919357
408.0, 0.0215593633834033
409.0, 0.016643757099977015
410.0, 0.009728574398864325
411.0, 0.016735657931307085
412.0, 0.00698150215466142
413.0, 0.018506395766178643
414.0, 0.04534715822252365
415.0, 0.05079232608904849
416.0, 0.03834734649621335
417.0, 0.0590004879360105
418.0, 0.05187956091969562
419.0, 0.029902462183566084
420.0, 0.04468644416451391
421.0, 0.05776568622037005
422.0, 0.031430758374450495
423.0, 0.00655337337268843
424.0, 0.018799934530758212
425.0, 0.00994934135219849
426.0, 0.04440893622130398
427.0, 0.05130553590551429
428.0, 0.012614203114423933
429.0, 0.012330462641627227
430.0, 0.03813295597694878
431.0, 0.061728794047163665
432.0, 0.04567048582176326
433.0, 0.02691284728980774
434.0, 0.031667534536396515
435.0, 0.04461038033986719
436.0, 0.03267753090556358
437.0, 0.04594776229847334
438.0, 0.07297974775866614
439.0, 0.05452153671564068
440.0, 0.06617660198654023
441.0, 0.08789318652777466
442.0, 0.1126122549387622
443.0, 0.11190346451150096
444.0, 0.08168341195316228
445.0, 0.09330092103222512
446.0, 0.15258927704187358
447.0, 0.11282002846769959
448.0, 0.1176314879128081
449.0, 0.1706905040985972
450.0, 0.1527075618907973
451.0, 0.21402380663014006
452.0, 0.20576263400648553
453.0, 0.24390661797793767
454.0, 0.28610023527683565
455.0, 0.2954888394026616
456.0, 0.3457732906879829
457.0, 0.3623105879387097
458.0, 0.3740988149957858
459.0, 0.42450095676855276
460.0, 0.48219729968525876
461.0, 0.5134824543535468
462.0, 0.5983608683009761
463.0, 0.6218879081083147
464.0, 0.6477865475240439
465.0, 0.7180200637368134
466.0, 0.7878873048310424
467.0, 0.8118888024652492
468.0, 0.8787938664858771
469.0, 0.937693650204013
470.0, 0.9468890497494066
471.0, 0.9661988338005022
472.0, 0.9999299602571408
473.0, 0.9343768968672953
474.0, 0.8577214059852378
475.0, 0.8055669430396708
476.0, 0.7145073866373329
477.0, 0.6208978189619804
478.0, 0.5489557925558257
479.0, 0.4129131881946828
480.0, 0.36085624799943306
481.0, 0.28727239871014276
482.0, 0.2320418570869429
483.0, 0.20984202098876922
484.0, 0.18662464963713396
485.0, 0.15051572190069235
486.0, 0.11922545718259882
487.0, 0.13468920383219196
488.0, 0.12527525041516235
489.0, 0.08405901690738943
490.0, 0.08675770530140525
491.0, 0.09307103473406429
492.0, 0.06947879110014224
493.0, 0.03812069668546146
494.0, 0.05217068411055014
495.0, 0.08254870932074675
496.0, 0.06973595940914357
497.0, 0.09011824655557713
498.0, 0.07983381962927232
499.0, 0.04340860581758778
500.0, 0.0199721309793161
501.0, 0.021194824059985504
502.0, 0.01941593902051073
503.0, 0.034569974512251696
504.0, 0.013885184686277847
505.0, 0.03480315825774269
506.0, 0.033497755226569954
507.0, 0.003389519038826291
508.0, 0.035664657641440556
509.0, 0.03374425411165917
510.0, 0.040652833743313445
511.0, 0.027107771902759564
512.0, 0.01701181619254894
513.0, 0.032359501571014894
514.0, 0.03591704333811035
515.0, 0.00888187111277094
516.0, 0.05311056749021496
517.0, 0.01023812435164479
518.0, 0.013881272674364165
519.0, 0.02401132219113905
520.0, 0.029696822531910416
521.0, 0.03691433606049122
522.0, 0.04296343679070898
523.0, 0.0448675809106875
524.0, 0.018221438832189015
525.0, 0.049569882326463935
526.0, 0.052414997082651196
527.0, 0.00439796269749132
528.0, 0.0475163873959885
529.0, 0.04780462462598943
530.0, 0.0158382649346301
531.0, 0.02767662781442328
532.0, 0.03408290839948552
533.0, 0.01718482755767163
534.0, 0.025902148334785297
535.0, 0.05085984754684414
536.0, 0.06596897854833518
537.0, 0.04414033566234168
538.0, 0.024076048065295615
539.0, 0.05605085855923981
540.0, 0.04651764387157447
541.0, 0.0364507643879923
542.0, 0.032572338414908385
543.0, 0.03579663157806193
544.0, 0.0349329483059801
545.0, 0.0011002751429139022
546.0, 0.037166487466655664
547.0, 0.044107921996726376
548.0, 0.027672743594644524
549.0, 0.02904498488598969
550.0, 0.04531483814536909
551.0, 0.035430836619643045
552.0, 0.022723002834276078
553.0, 0.009053989332629834
554.0, 0.008247910385672408
555.0, 0.008538462142293533
556.0, 0.0293918134891782
557.0, 0.06926235479979186
558.0, 0.023066569553247634
559.0, 0.0009791373941782948
560.0, 0.026637221951071193
561.0, 0.042762787233019156
562.0, 0.017667784226173915
563.0, 0.006088807151744724
564.0, 0.05740001904272888
565.0, 0.0308111784710687
566.0, 0.018282935245024674
567.0, 0.003171203181759369
568.0, 0.010677490077400133
569.0, 0.037417308625996834
570.0, 0.02213968196703387
571.0, 0.007975452422996293
572.0, 0.015747542104252134
573.0, 0.0305388629362127
574.0, 0.042366639582194714
575.0, 0.03399756175750682
576.0, 0.0328276555994078
577.0, 0.0523809481779273
578.0, 0.016556504871907914
579.0, 0.03902651199540336
580.0, 0.08168471922879363
581.0, 0.07097873058463337
582.0, 0.044493739883233865
583.0, 0.0610553868844715
584.0, 0.051179782932879885
585.0, 0.04139033871491123
586.0, 0.05285517697167716
587.0, 0.06270113676024809
588.0, 0.05786627020816283
589.0, 0.07357256604576118
590.0, 0.03152259461760339
591.0, 0.024039846198349927
592.0, 0.012862829186558067
593.0, 0.018220244292321337
594.0, 0.04835227219270838
595.0, 0.040940107949208396
596.0, 0.050018407926430405
597.0, 0.031725779625152835
598.0, 0.03336753060305461
599.0, 0.014059340978814994
600.0, 0.007575292657393601
601.0, 0.034312105284188835
602.0, 0.051555531267852305
603.0, 0.040711058160206134
604.0, 0.04822336013242369
605.0, 0.03555143663924789
606.0, 0.03766255336089252
607.0, 0.04715850903068978
608.0, 0.026191804641229097
609.0, 0.09791424624672392
610.0, 0.056452081765769914
611.0, 0.03924703590481437
612.0, 0.04929697964076276
613.0, 0.04565815731836101
614.0, 0.026253396779964574
615.0, 0.01746533213653953
616.0, 0.009280045884732184
617.0, 0.03855278292045564
618.0, 0.04821961196479876
619.0, 0.03204249309251203
620.0, 0.029017265277640265
621.0, 0.033228476062686675
622.0, 0.0026595470141788915
623.0, 0.058043649626743896
624.0, 0.039867397208715405
625.0, 0.01755129107973284
626.0, 0.03230619452249572
627.0, 0.04797435580455169
628.0, 0.0264242617411877
629.0, 0.00948474469973293
630.0, 0.011717694724847322
631.0, 0.06278448420766156
632.0, 0.0544354931457518
633.0, 0.031171848320932553
634.0, 0.040936060037862064
635.0, 0.029684398483869345
636.0, 0.0526296253587359
637.0, 0.014884199286329343
638.0, 0.020955668146026514
639.0, 0.0750468521885414
640.0, 0.050822332604202276
641.0, 0.005443634999467618
642.0, 0.008342299065437054
643.0, 0.049952953234171836
644.0, 0.051843371572617
645.0, 0.03603396034402645
646.0, 0.04722845438074787
647.0, 0.06835653621819117
648.0, 0.05857182171510819
649.0, 0.01680203817699223
650.0, 0.02880868000248812
651.0, 0.06826620631309191
652.0, 0.04697095807432927
653.0, 0.020394229262772266
654.0, 0.031437881282375506
655.0, 0.049670694879026575
656.0, 0.04291875821748449
657.0, 0.04595618204937334
658.0, 0.020324447967419286
659.0, 0.010780810439370838
660.0, 0.027548193944473026
661.0, 0.03373142362104356
662.0, 0.024081659425908487
663.0, 0.03864903391795281
664.0, 0.054269398660830984
665.0, 0.013591691128729162
666.0, 0.018430877208445717
667.0, 0.04608959931005236
668.0, 0.03938958969485555
669.0, 0.0241708026024473
670.0, 0.048485174441952904
671.0, 0.029531485334296458
672.0, 0.019944298267940908
673.0, 0.007319916259594623
674.0, 0.0013364110020846294
675.0, 0.03720096938091656
676.0, 0.06573399926227691
677.0, 0.04882338503983791
678.0, 0.029137354731737192
679.0, 0.008364044477524852
680.0, 0.014784745657154508
681.0, 0.013521821612609154
682.0, 0.036521377626807294
683.0, 0.015411505268739653
684.0, 0.0034122414537090307
685.0, 0.015276932512420113
686.0, 0.03828897863435438
687.0, 0.06497273993522609
688.0, 0.05023806257565662
689.0, 0.013980724426066456
690.0, 0.007321983472102547
691.0, 0.02799934755362548
692.0, 0.01802398223774278
693.0, 0.019186264852777454
694.0, 0.026867094691346915
695.0, 0.03698922351660448
696.0, 0.0566538429834089
697.0, 0.05345995095046001
698.0, 0.032774021293327904
699.0, 0.036288302951731605
700.0, 0.03359723742201254
701.0, 0.07468571924627232
702.0, 0.06273729234621024
703.0, 0.02399616350938415
704.0, 0.012918689606310131
705.0, 0.03727192923744174
706.0, 0.05584104095345857
707.0, 0.0331226131681449
708.0, 0.043151459061923365
709.0, 0.07927966092097478
710.0, 0.04355455233866028
711.0, 0.022658067391091687
712.0, 0.027937683183846998
713.0, 0.025732081434431946
714.0, 0.0494878643361409
715.0, 0.013877027177535861
716.0, 0.0023625825095239016
717.0, 0.04508255077122042
718.0, 0.054824930929796435
719.0, 0.03498470242952155
720.0, 0.02389895753015636
721.0, 0.033504713058241486
722.0, 0.060526293104528485
723.0, 0.03107320715573448
724.0, 0.06847129057004116
725.0, 0.06468420102599683
726.0, 0.06137093174930966
727.0, 0.06948488675796147
728.0, 0.05492426419007904
729.0, 0.038126844784856694
730.0, 0.06981577368546857
731.0, 0.05455332824318341
732.0, 0.03247059501419284
733.0, 0.01597955346982242
734.0, 0.019603822672227187
735.0, 0.031228225159883053
736.0, 0.0295360024742118
737.0, 0.03056751128252783
738.0, 0.032610925012626725
739.0, 0.011187073177765327
740.0, 0.01041738746998054
741.0, 0.006716920334296899
742.0, 0.005772110352305022
743.0, 0.025074757144635366
744.0, 0.04957669050348157
745.0, 0.0784239341783167
746.0, 0.05498213301086788
747.0, 0.05603616363238039
748.0, 0.06545797967135213
749.0, 0.02006483644707674
750.0, 0.03599895068764245
751.0, 0.06312632233243386
752.0, 0.04638742267583526
753.0, 0.08374791652040589
754.0, 0.0514488149009195
755.0, 0.005202138146777951
756.0, 0.036031333351910916
757.0, 0.0111695218030306
758.0, 0.01718658810377762
759.0, 0.02523445381160257
760.0, 0.025886147530303515
761.0, 0.032235613774800796
762.0, 0.03181771027439999
763.0, 0.03818556072575637
764.0, 0.027118838786114128
765.0, 0.036436458670914176
766.0, 0.04027184145340954
767.0, 0.018857214756967756
768.0, 0.0436097182292685
769.0, 0.045220637711231144
770.0, 0.022780264310889156
771.0, 0.028469511337874495
772.0, 0.03659270479282769
773.0, 0.028928552470232252
774.0, 0.03346686306239109
775.0, 0.04060728370051623
776.0, 0.03855351751656613
777.0, 0.02019094629861085
778.0, 0.03844455073676435
779.0, 0.022138154672317528
780.0, 0.04383852303411667
781.0, 0.02700207051756291
782.0, 0.00890343854131467
783.0, 0.05210578433403995
784.0, 0.07719667908781125
785.0, 0.009943590787574418
786.0, 0.004072681454279035
787.0, 0.02116078579154733
788.0, 0.04318220386321051
789.0, 0.04551017749596004
790.0, 0.04524840419186766
791.0, 0.04218511718409402
792.0, 0.05581864505031151
793.0, 0.05373132688785091
794.0, 0.0213598910945658
795.0, 0.014929272342787224
796.0, 0.0699920273953282
797.0, 0.07405674833002293
798.0, 0.05114084066582546
799.0, 0.04636069869720839
800.0, 0.02569640657613528
801.0, 0.016027174130841874
802.0, 0.04434451067291245
803.0, 0.03836359041923516
804.0, 0.045708495355123425
805.0, 0.042458381825950256
806.0, 0.03766219153030961
807.0, 0.04449524266086896
808.0, 0.060541712858924034
809.0, 0.0644747151757221
810.0, 0.051664293850638705
811.0, 0.044919293666744464
812.0, 0.04181840516607965
813.0, 0.01082380766470471
814.0, 0.014947679371007497
815.0, 0.0429742879890163
816.0, 0.026852724392935977
817.0, 0.05277244194868541
818.0, 0.06789813919656149
819.0, 0.03862765742568586
820.0, 0.053703962665189016
821.0, 0.020721809315134652
822.0, 0.05966388561326691
823.0, 0.017902258257241923
824.0, 0.018570656994902547
825.0, 0.011703735516192902
826.0, 0.010729997602982442
827.0, 0.053682645677075015
828.0, 0.08230770000162503
829.0, 0.037965990218619
830.0, 0.07255780061297189
831.0, 0.04946029781055445
832.0, 0.057067085112593945
833.0, 0.044072044085138685
834.0, 0.06960937391943878
835.0, 0.03981513324594776
836.0, 0.014305564227970047
837.0, 0.07161787624253857
838.0, 0.0659283476193504
839.0, 0.029516378319644536
840.0, 0.012087317323363742
841.0, 0.039752860339316326
842.0, 0.026866213199771578
843.0, 0.027779031241853405
844.0, 0.08732411994826138
845.0, 0.07578221554022409
846.0, 0.019124659691886484
847.0, 0.060333586956316396
848.0, 0.04454625347631934
849.0, 0.051541699914216636
850.0, 0.08179278996424579
851.0, 0.0777113736809951
852.0, 0.04554285486722894
853.0, 0.031418001821976044
854.0, 0.05143180487236458
855.0, 0.03585135062178139
856.0, 0.022786814260998847
857.0, 0.021390077843525524
858.0, 0.014602854603463158
859.0, 0.043482211597786376
860.0, 0.051792873277524326
861.0, 0.0523351982313176
862.0, 0.03512679548577079
863.0, 0.06460384473007692
864.0, 0.07402404259902763
865.0, 0.026012641201098856
866.0, 0.06291728178756649
867.0, 0.06923828999759249
868.0, 0.028849711707347563
869.0, 0.05444868071897195
870.0, 0.04098282600120268
871.0, 0.054239989769903574
872.0, 0.0476577596646341
873.0, 0.019914902356509605
874.0, 0.018749952615496016
875.0, 0.05472639289313469
876.0, 0.09307574109564233
877.0, 0.07975211832843328
878.0, 0.06570397823692917
879.0, 0.08141707395700638
880.0, 0.03257732654479297
881.0, 0.04554977285524939
882.0, 0.09253007227363691
883.0, 0.06464311629921479
884.0, 0.004250003453517843
885.0, 0.008080707032251147
886.0, 0.03257676911039053
887.0, 0.04329944679386385
888.0, 0.023410952539418252
889.0, 0.026780924361631854
890.0, 0.036110464279071566
891.0, 0.03344552909151234
892.0, 0.06146271565241823
893.0, 0.07618336352693199
894.0, 0.07119296497014652
895.0, 0.07857881598776975
896.0, 0.05490808920008432
897.0, 0.04826723362632217
898.0, 0.03620788865852547
899.0, 0.029061702874154455
900.0, 0.05021660972204974
901.0, 0.07200442128586397
902.0, 0.059691589863578705
903.0, 0.05797088427268806
904.0, 0.06551901953997329
905.0, 0.04237958468609519
906.0, 0.022574409244229182
907.0, 0.0030491949162870916
908.0, 0.019789941566589475
909.0, 0.03294963849915882
910.0, 0.027377263273196267
911.0, 0.02548991400222928
912.0, 0.0623220269967089
913.0, 0.06912915285151183
914.0, 0.040334461387672174
915.0, 0.028676075440300142
916.0, 0.02997317110746819
917.0, 0.06342952998734946
918.0, 0.02187149092886002
919.0, 0.07756167239807228
920.0, 0.00990067673728499
921.0, 0.008224413890436481
922.0, 0.04180695167469403
923.0, 0.06089272039255356
924.0, 0.04545464435590557
925.0, 0.008397638866131136
926.0, 0.011501401259914609
927.0, 0.04357629191383784
928.0, 0.04158519375241937
929.0, 0.04267695179116234
930.0, 0.040940870456237344
931.0, 0.05061924148009268
932.0, 0.032338484044931746
933.0, 0.07356679819690874
934.0, 0.08042615567921893
935.0, 0.04094492141185521
936.0, 0.02855193282160529
937.0, 0.054816740833090086
938.0, 0.09876583000986257
939.0, 0.07653474505170625
940.0, 0.0626458285283767
941.0, 0.03233295336940954
942.0, 0.01092743022765883
943.0, 0.015484634886082047
944.0, 0.05253327698675423
945.0, 0.025900943424077477
946.0, 0.025443326127342684
947.0, 0.06800763848735214
948.0, 0.04455654206755143
949.0, 0.01263642979452791
950.0, 0.006598969006940331
951.0, 0.038571792472446936
952.0, 0.052847349014390414
953.0, 0.0474139374312414
954.0, 0.03087159754347721
955.0, 0.006700783348360652
956.0, 0.03448839731386474
957.0, 0.07715682626292303
958.0, 0.08990434720639524
959.0, 0.07767630344898527
960.0, 0.06753950028442349
961.0, 0.0894989728476039
962.0, 0.034301091643189924
963.0, 0.023907673624151575
964.0, 0.06691022934615966
965.0, 0.05654135657659645
966.0, 0.05625716350712895
967.0, 0.012728938103413093
968.0, 0.009129007462524003
969.0, 0.028101379461066098
970.0, 0.05838690821501596
971.0, 0.06617904625507362
972.0, 0.022558976258617882
973.0, 0.027997755857449402
974.0, 0.03879678542770395
975.0, 0.03867946217170674
976.0, 0.023058605563365118
977.0, 0.01770729709783166
978.0, 0.015459747139119639
979.0, 0.029996898021055977
980.0, 0.031348477341696115
981.0, 0.0429198494142735
982.0, 0.07611826851614746
983.0, 0.07191787138937203
984.0, 0.04077588678109356
985.0, 0.05658130301552643
986.0, 0.05124579015008937
987.0, 0.02636166398127214
988.0, 0.029588970488749672
989.0, 0.038102196429683245
990.0, 0.03851354100327552
991.0, 0.019461866694835322
992.0, 0.02373513025420614
993.0, 0.018548909714358183
994.0, 0.015466238348242444
995.0, 0.07822013838495527
996.0, 0.09984219414846439
997.0, 0.06990228250544757
998.0, 0.060658273115786226
999.0, 0.04176495324542683
1000.0, 0.05642230458166555
1001.0, 0.021337408455104106
1002.0, 0.046342863924647114
1003.0, 0.035299533102944265
1004.0, 0.016888668891216582
1005.0, 0.034215827617761346
1006.0, 0.020255902344303554
1007.0, 0.023245362365121564
1008.0, 0.06741896383088607
1009.0, 0.06563029489499751
1010.0, 0.047851745445899006
1011.0, 0.06353808351790798
1012.0, 0.03206868623566733
1013.0, 0.04250318641201305
1014.0, 0.03629246359135905
1015.0, 0.018834227952952764
1016.0, 0.046970525517625046
1017.0, 0.05078543085420125
1018.0, 0.04099967142331509
1019.0, 0.03228407331590854
1020.0, 0.02987571155004921
1021.0, 0.02784015879616401
1022.0, 0.02713407514674992
1023.0, 0.04056239937976388
1024.0, 0.03960856711895147
1025.0, 0.020004300524308377
1026.0, 0.008789157779742155
1027.0, 0.006563020023761018
1028.0, 0.00912442931867139
1029.0, 0.02452247130760018
1030.0, 0.031538770941522375
1031.0, 0.013816806672226678
1032.0, 0.02640036447789809
1033.0, 0.04302878829617023
1034.0, 0.03613122612704594
1035.0, 0.027353743363745308
1036.0, 0.028979448881729205
1037.0, 0.04465156734489596
1038.0, 0.03363731341921245
1039.0, 0.005452976238225713
1040.0, 0.03617140500694896
1041.0, 0.05488283625144873
1042.0, 0.06410489098593411
1043.0, 0.07569448691110203
1044.0, 0.05125188305354456
1045.0, 0.06302805323535374
1046.0, 0.07665254856699925
1047.0, 0.04093154344987335
1048.0, 0.03075067989580739
1049.0, 0.06294483078800303
1050.0, 0.05709856037371128
1051.0, 0.039213125841049204
1052.0, 0.055315144524030496
1053.0, 0.030281727843204466
1054.0, 0.08340500715434136
1055.0, 0.039990551992901545
1056.0, 0.024368223136424155
1057.0, 0.03150883784029229
1058.0, 0.06003680417606535
1059.0, 0.04324357696154198
1060.0, 0.054183778692
1061.0, 0.0904409129812839
1062.0, 0.05591611415875568
1063.0, 0.057314649691613914
1064.0, 0.06010722163198804
1065.0, 0.012130569384780545
1066.0, 0.05330020139041069
1067.0, 0.05353098466027168
1068.0, 0.07161452647016293
1069.0, 0.03052926056352088
1070.0, 0.07362976564252183
1071.0, 0.06795800260037822
1072.0, 0.04545474000806337
1073.0, 0.044103101725450664
1074.0, 0.07076264875527705
1075.0, 0.017981477559173724
1076.0, 0.08060267556758505
1077.0, 0.09404964154561912
1078.0, 0.026870548706279244
1079.0, 0.0031313865354278213
1080.0, 0.007332912481239932
1081.0, 0.02529422243440878
1082.0, 0.018991793287128148
1083.0, 0.02983376934159683
1084.0, 0.04874090541050478
1085.0, 0.005033827326072095
1086.0, 0.008016660407154753
1087.0, 0.020882707864454765
1088.0, 0.06690041726369987
1089.0, 0.06178314348447631
1090.0, 0.05907744509244511
1091.0, 0.056472067725057674
1092.0, 0.06097838326212235
1093.0, 0.0472119053241376
1094.0, 0.02231786889150661
1095.0, 0.002779720117850751
1096.0, 0.03275860813336636
1097.0, 0.06967166428678749
1098.0, 0.036715911228222174
1099.0, 0.04232795634196777
1100.0, 0.020618452921424286
1101.0, 0.05909282596382803
1102.0, 0.026245356483717924
1103.0, 0.003110168651496164
1104.0, 0.029990833200117036
1105.0, 0.0037244501361732487
1106.0, 0.027924394459850628
1107.0, 0.02379143835494644
1108.0, 0.06685412888793706
1109.0, 0.015738285227708003
1110.0, 0.018681227636684228
1111.0, 0.048993423590382106
1112.0, 0.06083295940534762
1113.0, 0.04332615400470313
1114.0, 0.010289540787898852
1115.0, 0.011377988732753681
1116.0, 0.00804937539627838
1117.0, 0.008013979581552333
1118.0, 0.041575962672392566
1119.0, 0.055323121222179444
1120.0, 0.13633490313408722
1121.0, 0.09226710691055626
1122.0, 0.043149020513390174
1123.0, 0.021914011051534222
1124.0, 0.05559649787539087
1125.0, 0.03943102370279627
1126.0, 0.022202447554336643
1127.0, 0.04061698671612969
1128.0, 0.07858384385008765
1129.0, 0.08811975677501575
1130.0, 0.055774744504770546
1131.0, 0.039127285953307674
1132.0, 0.03672931046858351
1133.0, 0.034778622848592615
1134.0, 0.033691971240806085
1135.0, 0.028875306790344276
1136.0, 0.07551391824558137
1137.0, 0.05458857003089739
1138.0, 0.07012668194118629
1139.0, 0.08486420972927583
1140.0, 0.03500223216225666
1141.0, 0.06321612023946215
1142.0, 0.03728388167573955
1143.0, 0.029975152675581984
1144.0, 0.059414767915490156
1145.0, 0.06601598467342268
1146.0, 0.045718521208876595
1147.0, 0.06446218598860176
1148.0, 0.06599765095824815
1149.0, 0.04008692876395379
1150.0, 0.05225705925090462
1151.0, 0.06287404655629295
1152.0, 0.03417759737443228
1153.0, 0.03054145086960747
1154.0, 0.043056321762040474
1155.0, 0.05484164793672742
1156.0, 0.10033117605701208
1157.0, 0.07886103019727163
1158.0, 0.045843900807043945
1159.0, 0.0010913123676294847
1160.0, 0.05220858013986991
1161.0, 0.09653371906938843
1162.0, 0.05309959077457815
1163.0, 0.03526802242247833
1164.0, 0.0408156218251736
1165.0, 0.019477177627556023
1166.0, 0.05728056313119249
1167.0, 0.08624908284409719
1168.0, 0.04922983583112547
1169.0, 0.035849918806435815
1170.0, 0.019220691639359636
1171.0, 0.022016911839489655
1172.0, 0.029541454201689056
1173.0, 0.02377078155132799
1174.0, 0.026106804763279045
1175.0, 0.036803502451027065
1176.0, 0.021239828356399253
1177.0, 0.019768180271375536
1178.0, 0.08847338195168465
1179.0, 0.04347203907784157
1180.0, 0.013028024441210675
1181.0, 0.013640199098604746
1182.0, 0.0073706323416747165
1183.0, 0.014663174382244354
1184.0, 0.0461244905555223
1185.0, 0.05351546744118889
1186.0, 0.0035752890588949295
1187.0, 0.030985718214634524
1188.0, 0.01544840458170316
1189.0, 0.03854274007303435
1190.0, 0.026703309624637683
1191.0, 0.052757848563959465
1192.0, 0.035479688754593036
1193.0, 0.03838837886362248
1194.0, 0.031549066246554694
1195.0, 0.03338582660288961
1196.0, 0.030761338611601127
1197.0, 0.0332851402627431
1198.0, 0.054014758698085086
1199.0, 0.06139838615266884
1200.0, 0.04220337177937471
1201.0, 0.04810734451294121
1202.0, 0.062199336103981484
1203.0, 0.0179132242728392
1204.0, 0.006572071054557934
1205.0, 0.04695876127850764
1206.0, 0.04842687827372711
1207.0, 0.0030488699965666665
1208.0, 0.027639656024914003
1209.0, 0.047345592657978185
1210.0, 0.05380044520064073
1211.0, 0.027990684886489557
1212.0, 0.05434239339774031
1213.0, 0.05916195206826169
1214.0, 0.08058866194965451
1215.0, 0.009082966219210412
1216.0, 0.04868557098888873
1217.0, 0.045425502719961486
1218.0, 0.012027273456889488
1219.0, 0.031845999456556855
1220.0, 0.037332346326025764
1221.0, 0.025383058126151332
1222.0, 0.058279014162515776
1223.0, 0.04915306494125979
1224.0, 0.006983862073892886
1225.0, 0.010809784870263985
1226.0, 0.031210932920426614
1227.0, 0.009954587602659331
1228.0, 0.028005747689327103
1229.0, 0.04082714320466379
1230.0, 0.004374644641788572
1231.0, 0.004460493625622883
1232, 0.0
1233, 0.0
1234, 0.0
1235, 0.0
1236, 0.0
1237, 0.0
1238, 0.0
1239, 0.0
1240, 0.0
1241, 0.0
1242, 0.0
1243, 0.0
1244, 0.0
1245, 0.0
1246, 0.0
1247, 0.0
1248, 0.0
1249, 0.0
1250, 0.0
1251, 0.0
1252, 0.0
1253, 0.0
1254, 0.0
1255, 0.0
1256, 0.0
1257, 0.0
1258, 0.0
1259, 0.0
1260, 0.0
1261, 0.0
1262, 0.0
1263, 0.0
1264, 0.0
1265, 0.0
1266, 0.0
1267, 0.0
1268, 0.0
1269, 0.0
1270, 0.0
1271, 0.0
1272, 0.0
1273, 0.0
1274, 0.0
1275, 0.0
1276, 0.0
1277, 0.0
1278, 0.0
1279, 0.0
1280, 0.0
1281, 0.0
1282, 0.0
1283, 0.0
1284, 0.0
1285, 0.0
1286, 0.0
1287, 0.0
1288, 0.0
1289, 0.0
1290, 0.0
1291, 0.0
1292, 0.0
1293, 0.0
1294, 0.0
1295, 0.0
1296, 0.0
1297, 0.0
1298, 0.0
1299, 0.0
1300, 0.0
1301, 0.0
1302, 0.0
1303, 0.0
1304, 0.0
1305, 0.0
1306, 0.0
1307, 0.0
1308, 0.0
1309, 0.0
1310, 0.0
1311, 0.0
1312, 0.0
1313, 0.0
1314, 0.0
1315, 0.0
1316, 0.0
1317, 0.0
1318, 0.0
1319, 0.0
1320, 0.0
1321, 0.0
1322, 0.0
1323, 0.0
1324, 0.0
1325, 0.0
1326, 0.0
1327, 0.0
1328, 0.0
1329, 0.0
1330, 0.0
1331, 0.0
1332, 0.0
1333, 0.0
1334, 0.0
1335, 0.0
1336, 0.0
1337, 0.0
1338, 0.0
1339, 0.0
1340, 0.0
1341, 0.0
1342, 0.0
1343, 0.0
1344, 0.0
1345, 0.0
1346, 0.0
1347, 0.0
1348, 0.0
1349, 0.0
1350, 0.0
1351, 0.0
1352, 0.0
1353, 0.0
1354, 0.0
1355, 0.0
1356, 0.0
1357, 0.0
1358, 0.0
1359, 0.0
1360, 0.0
1361, 0.0
1362, 0.0
1363, 0.0
1364, 0.0
1365, 0.0
1366, 0.0
1367, 0.0
1368, 0.0
1369, 0.0
1370, 0.0
1371, 0.0
1372, 0.0
1373, 0.0
1374, 0.0
1375, 0.0
1376, 0.0
1377, 0.0
1378, 0.0
1379, 0.0
1380, 0.0
1381, 0.0
1382, 0.0
1383, 0.0
1384, 0.0
1385, 0.0
1386, 0.0
1387, 0.0
1388, 0.0
1389, 0.0
1390, 0.0
1391, 0.0
1392, 0.0
1393, 0.0
1394, 0.0
1395, 0.0
1396, 0.0
1397, 0.0
1398, 0.0
1399, 0.0
1400, 0.0
1401, 0.0
1402, 0.0
1403, 0.0
1404, 0.0
1405, 0.0
1406, 0.0
1407, 0.0
1408, 0.0
1409, 0.0
1410, 0.0
1411, 0.0
1412, 0.0
1413, 0.0
1414, 0.0
1415, 0.0
1416, 0.0
1417, 0.0
1418, 0.0
1419, 0.0
1420, 0.0
1421, 0.0
1422, 0.0
1423, 0.0
1424, 0.0
1425, 0.0
1426, 0.0
1427, 0.0
1428, 0.0
1429, 0.0
1430, 0.0
1431, 0.0
1432, 0.0
1433, 0.0
1434, 0.0
1435, 0.0
1436, 0.0
1437, 0.0
1438, 0.0
1439, 0.0
1440, 0.0
1441, 0.0
1442, 0.0
1443, 0.0
1444, 0.0
1445, 0.0
1446, 0.0
1447, 0.0
1448, 0.0
1449, 0.0
1450, 0.0
1451, 0.0
1452, 0.0
1453, 0.0
1454, 0.0
1455, 0.0
1456, 0.0
1457, 0.0
1458, 0.0
1459, 0.0
1460, 0.0
1461, 0.0
1462, 0.0
1463, 0.0
1464, 0.0
1465, 0.0
1466, 0.0
1467, 0.0
1468, 0.0
1469, 0.0
1470, 0.0
1471, 0.0
1472, 0.0
1473, 0.0
1474, 0.0
1475, 0.0
1476, 0.0
1477, 0.0
1478, 0.0
1479, 0.0
1480, 0.0
1481, 0.0
1482, 0.0
1483, 0.0
1484, 0.0
1485, 0.0
1486, 0.0
1487, 0.0
1488, 0.0
1489, 0.0
1490, 0.0
1491, 0.0
1492, 0.0
1493, 0.0
1494, 0.0
1495, 0.0
1496, 0.0
1497, 0.0
1498, 0.0
1499, 0.0
1500, 0.0
1501, 0.0
1502, 0.0
1503, 0.0
1504, 0.0
1505, 0.0
1506, 0.0
1507, 0.0
1508, 0.0
1509, 0.0
1510, 0.0
1511, 0.0
1512, 0.0
1513, 0.0
1514, 0.0
1515, 0.0
1516, 0.0
1517, 0.0
1518, 0.0
1519, 0.0
1520, 0.0
1521, 0.0
1522, 0.0
1523, 0.0
1524, 0.0
1525, 0.0
1526, 0.0
1527, 0.0
1528, 0.0
1529, 0.0
1530, 0.0
1531, 0.0
1532, 0.0
1533, 0.0
1534, 0.0
1535, 0.0
1536, 0.0
1537, 0.0
1538, 0.0
1539, 0.0
1540, 0.0
1541, 0.0
1542, 0.0
1543, 0.0
1544, 0.0
1545, 0.0
1546, 0.0
1547, 0.0
1548, 0.0
1549, 0.0
1550, 0.0
1551, 0.0
1552, 0.0
1553, 0.0
1554, 0.0
1555, 0.0
1556, 0.0
1557, 0.0
1558, 0.0
1559, 0.0
1560, 0.0
1561, 0.0
1562, 0.0
1563, 0.0
1564, 0.0
1565, 0.0
1566, 0.0
1567, 0.0
1568, 0.0
1569, 0.0
1570, 0.0
1571, 0.0
1572, 0.0
1573, 0.0
1574, 0.0
1575, 0.0
1576, 0.0
1577, 0.0
1578, 0.0
1579, 0.0
1580, 0.0
1581, 0.0
1582, 0.0
1583, 0.0
1584, 0.0
1585, 0.0
1586, 0.0
1587, 0.0
1588, 0.0
1589, 0.0
1590, 0.0
1591, 0.0
1592, 0.0
1593, 0.0
1594, 0.0
1595, 0.0
1596, 0.0
1597, 0.0
1598, 0.0
1599, 0.0
