30, 0.0
31, 0.0
32, 0.0
33, 0.0
34, 0.0
35, 0.0
36, 0.0
37, 0.0
38, 0.0
39, 0.0
40, 0.0
41, 0.0
42, 0.0
43, 0.0
44, 0.0
45, 0.0
46, 0.0
47, 0.0
48, 0.0
49, 0.0
50, 0.0
51, 0.0
52, 0.0
53, 0.0
54, 0.0
55, 0.0
56, 0.0
57, 0.0
58, 0.0
59, 0.0
60, 0.0
61, 0.0
62, 0.0
63, 0.0
64, 0.0
65, 0.0
66, 0.0
67, 0.0
68, 0.0
69, 0.0
70, 0.0
71, 0.0
72, 0.0
73, 0.0
74, 0.0
75, 0.0
76, 0.0
77, 0.0
78, 0.0
79, 0.0
80, 0.0
81, 0.0
82, 0.0
83, 0.0
84, 0.0
85, 0.0
86, 0.0
87, 0.0
88, 0.0
89, 0.0
90, 0.0
91.0, 0.003621488735743372
92.0, 0.0011188107073459852
93.0, 0.007922247793015997
94.0, 0.016974072758140304
95.0, 0.029771537587457705
96.0, 0.04584777967276632
97.0, 0.06234903877323481
98.0, 0.07449544836123217
99.0, 0.0857479516797099
100.0, 0.09824281440860186
101.0, 0.1113673077240064
102.0, 0.12750591912712111
103.0, 0.14496983456825066
104.0, 0.16434456552702847
105.0, 0.1869927109788647
106.0, 0.206800888520692
107.0, 0.22941414470208193
108.0, 0.2535218505273713
109.0, 0.27553445978917374
110.0, 0.2969945089361694
111.0, 0.3209270951913873
112.0, 0.349716825493563
113.0, 0.38399139391650045
114.0, 0.4219519023116134
115.0, 0.46228550290411785
116.0, 0.5020854839323977
117.0, 0.5409666886632861
118.0, 0.5809132528002198
119.0, 0.6216611719151046
120.0, 0.663095603699292
121.0, 0.7053816667555178
122.0, 0.7477043678189376
123.0, 0.7852638247717609
124.0, 0.8193867666572495
125.0, 0.8436006328911808
126.0, 0.8510250766962195
127.0, 0.8483933155321458
128.0, 0.8292167363299517
129.0, 0.7937799761142283
130.0, 0.7458095836875323
131.0, 0.6891511522094683
132.0, 0.6277211735537993
133.0, 0.5660367323697817
134.0, 0.5105352291023267
135.0, 0.46704988627313326
136.0, 0.43768584367067653
137.0, 0.41515460758379585
138.0, 0.395186501707684
139.0, 0.37676934749879665
140.0, 0.3657701397495634
141.0, 0.352679305166934
142.0, 0.337288607832644
143.0, 0.3224276785812602
144.0, 0.3060636298963358
145.0, 0.28645154923987737
146.0, 0.2633230876171227
147.0, 0.23784801570901612
148.0, 0.21141803961305056
149.0, 0.18459425110089336
150.0, 0.15711646985748962
151.0, 0.13030776635170896
152.0, 0.10663760202339102
153.0, 0.08796757945335149
154.0, 0.07057101657805455
155.0, 0.055439611347455404
156.0, 0.04422353839745123
157.0, 0.033145623518748606
158.0, 0.02451963290978673
159.0, 0.01795965460398724
160.0, 0.01259835459732701
161.0, 0.008061829824770621
162.0, 0.006346241238628992
163.0, 0.005680344636645835
164.0, 0.005071473985099589
165.0, 0.004536833440857215
166.0, 0.0032338135732671238
167.0, 0.0017339712863516203
168.0, 0.001163231116755065
169.0, 0.002092813737786377
170.0, 0.0030807858051389325
171.0, 0.005377680432621646
172.0, 0.007162867481887025
173.0, 0.008033567638105126
174.0, 0.010118755978930692
175.0, 0.014194146056010768
176.0, 0.016743849012064417
177.0, 0.018343043954320685
178.0, 0.021718073617318052
179.0, 0.026260311847641646
180.0, 0.03038791353307517
181.0, 0.03452276951391415
182.0, 0.03955072578658677
183.0, 0.04581403624587869
184.0, 0.051617755165937564
185.0, 0.056937837364560887
186.0, 0.061937553467429546
187.0, 0.06658934074813579
188.0, 0.07177319043322351
189.0, 0.07503853910178815
190.0, 0.07665883917888738
191.0, 0.07799371817204391
192.0, 0.07827542948014302
193.0, 0.0748641663086005
194.0, 0.07045858932414895
195.0, 0.0665501006275461
196.0, 0.0610942029474147
197.0, 0.055483129071617315
198.0, 0.04989013006325382
199.0, 0.0433387749700564
200.0, 0.0355775608417385
201.0, 0.03019199055292315
202.0, 0.023958445175755176
203.0, 0.018632176624355814
204.0, 0.015182218167877817
205.0, 0.009427415545439181
206.0, 0.004197087128446904
207.0, 0.0006186477384401194
208.0, 0.0021695591556396606
209.0, 0.004689022054587449
210.0, 0.006816693129219884
211.0, 0.008592334484861444
212.0, 0.009300902862766148
213.0, 0.008969266378908844
214.0, 0.009464934869538448
215.0, 0.009441702185541542
216.0, 0.008778530362653589
217.0, 0.008068271043694621
218.0, 0.008038370790734804
219.0, 0.00689731049650202
220.0, 0.006156053796948316
221.0, 0.005263766564749026
222.0, 0.003557432294968219
223.0, 0.0026890168044679612
224.0, 0.0007086312133411819
225.0, 0.0012876851788733911
226.0, 0.0022276137510432925
227.0, 0.0033403386608456373
228.0, 0.0061031365301804155
229.0, 0.008597102968969508
230.0, 0.009872216819402242
231.0, 0.010291422202293486
232.0, 0.011910542039751884
233.0, 0.013078835635767349
234.0, 0.014537682539299686
235.0, 0.01639097109007864
236.0, 0.017986618130273555
237.0, 0.01980758084191803
238.0, 0.02089379163471421
239.0, 0.02189634820804535
240.0, 0.023252959993600324
241.0, 0.02345129667786903
242.0, 0.02445722368709634
243.0, 0.025490600473122238
244.0, 0.026400812073332447
245.0, 0.027804915440416078
246.0, 0.02775200791371837
247.0, 0.02936365502375891
248.0, 0.030794106451140932
249.0, 0.030729795557978636
250.0, 0.03213683469767247
251.0, 0.03347966812510835
252.0, 0.03611778525869606
253.0, 0.03943731497547645
254.0, 0.041639778656076876
255.0, 0.0438639251191344
256.0, 0.046997294484467725
257.0, 0.050899097102778554
258.0, 0.0548480808858301
259.0, 0.057868374696436846
260.0, 0.062224491352162944
261.0, 0.06628679606663834
262.0, 0.07074584093171872
263.0, 0.07649134415307055
264.0, 0.08092060008917354
265.0, 0.08631072148313815
266.0, 0.09150703373472666
267.0, 0.0959213361922076
268.0, 0.1002545126760206
269.0, 0.10342834631150173
270.0, 0.10679344452535851
271.0, 0.11052248929913569
272.0, 0.11413813087896836
273.0, 0.11775849356158455
274.0, 0.12237521270907141
275.0, 0.1253556599368693
276.0, 0.12729994178122292
277.0, 0.13081765103676388
278.0, 0.13466945193948637
279.0, 0.13816370759632451
280.0, 0.14180051775993285
281.0, 0.14574688826063717
282.0, 0.1499695931563866
283.0, 0.15561538267520633
284.0, 0.16174574483702742
285.0, 0.16795426426397378
286.0, 0.17447579501667415
287.0, 0.18162189714871588
288.0, 0.18814595018678376
289.0, 0.19545276725831043
290.0, 0.20286864130163534
291.0, 0.20858087656944022
292.0, 0.2145498150712803
293.0, 0.21924279960488693
294.0, 0.22355958934043188
295.0, 0.22737587310327012
296.0, 0.2288749636356092
297.0, 0.22902469917624924
298.0, 0.22825334324890081
299.0, 0.22615853927084542
300.0, 0.22249694305346238
301.0, 0.21791197627584513
302.0, 0.21327913848750557
303.0, 0.20864163103960962
304.0, 0.20332336573568657
305.0, 0.19659004950611847
306.0, 0.18843430441072023
307.0, 0.18119077618345075
308.0, 0.17348004951665874
309.0, 0.16459127270377172
310.0, 0.15521106743600727
311.0, 0.14391505196672064
312.0, 0.13321368749435297
313.0, 0.12262970702955807
314.0, 0.11160431564236223
315.0, 0.10122239019556743
316.0, 0.0921384058056323
317.0, 0.08358138684497014
318.0, 0.0756438625491812
319.0, 0.06891153913972352
320.0, 0.06399000504703356
321.0, 0.059378315875061934
322.0, 0.05477138907720977
323.0, 0.05096540605985839
324.0, 0.04846922356636188
325.0, 0.04512624452205054
326.0, 0.04264452008231557
327.0, 0.03990983881711502
328.0, 0.03720759036557481
329.0, 0.03637165646894925
330.0, 0.0344754249787598
331.0, 0.032652796956332136
332.0, 0.03072969830722417
333.0, 0.028776687622214154
334.0, 0.027766327270742554
335.0, 0.025890948602593822
336.0, 0.024323260202449647
337.0, 0.02266840025377729
338.0, 0.02033108938496208
339.0, 0.01814368540695147
340.0, 0.01632960391473058
341.0, 0.01467415523651217
342.0, 0.013454690708284566
343.0, 0.01247765529934513
344.0, 0.009619990718387868
345.0, 0.007717103252221434
346.0, 0.005974106947522656
347.0, 0.004252520396166189
348.0, 0.003077952737505179
349.0, 0.0011956838849441474
350.0, 0.00010774741623664682
351.0, 0.0005498407741926904
352.0, 0.0012269853124567344
353.0, 0.001888139267302327
354.0, 0.0028622055953095647
355.0, 0.0034453043435099602
356.0, 0.003686064971721392
357.0, 0.003726925940486538
358.0, 0.003596946598303442
359.0, 0.0035888271734343174
360.0, 0.003602815357314776
361.0, 0.0032490409955165233
362.0, 0.002606588927968657
363.0, 0.002223740013970412
364.0, 0.0012771182655802401
365.0, 0.0006081595844367871
366.0, 0.00013763121450832715
367.0, 0.0005387558768458023
368.0, 0.00176922359620561
369.0, 0.002158448118084337
370.0, 0.0038319471524093573
371.0, 0.006263516157369613
372.0, 0.008346069724402957
373.0, 0.010290601605291274
374.0, 0.012580091623822317
375.0, 0.015646709344169583
376.0, 0.01880390718554308
377.0, 0.021443757636293127
378.0, 0.024406738093394994
379.0, 0.027813073821654287
380.0, 0.03185487785392615
381.0, 0.03633971003945013
382.0, 0.04093426700166298
383.0, 0.04564874027560861
384.0, 0.05070126979027986
385.0, 0.05586526264395839
386.0, 0.06130635893650271
387.0, 0.06735644862275462
388.0, 0.07378841206464912
389.0, 0.07977408085166446
390.0, 0.08535388278478467
391.0, 0.09094879430168823
392.0, 0.09665161199464782
393.0, 0.10158948729984624
394.0, 0.10793268948323707
395.0, 0.11394879456067386
396.0, 0.11903295309525427
397.0, 0.12348364683661374
398.0, 0.1272626022510626
399.0, 0.13047281059918783
400.0, 0.1331510292105408
401.0, 0.13487005071268113
402.0, 0.13546848158049485
403.0, 0.1363338508315102
404.0, 0.13570082323919175
405.0, 0.13356002007286988
406.0, 0.13095325065906602
407.0, 0.12856015459944023
408.0, 0.12501067793578324
409.0, 0.12177216418089785
410.0, 0.11863888544649288
411.0, 0.11584449153354402
412.0, 0.11327624462072658
413.0, 0.10948203554044142
414.0, 0.10757751029246919
415.0, 0.10515928277022292
416.0, 0.10260034804579427
417.0, 0.10128404704673152
418.0, 0.0994491262244882
419.0, 0.09710328860876132
420.0, 0.09483128666107064
421.0, 0.09229605805487485
422.0, 0.08969196248121636
423.0, 0.0890828776443181
424.0, 0.08561386621831736
425.0, 0.0831724277665275
426.0, 0.08152777930369351
427.0, 0.07895917470065628
428.0, 0.07587705397684678
429.0, 0.07308308149547411
430.0, 0.07078008834197051
431.0, 0.06824717847879037
432.0, 0.06524116713808491
433.0, 0.06266329886593537
434.0, 0.06055637560476026
435.0, 0.05796764632832157
436.0, 0.05557785208548388
437.0, 0.053769819858136815
438.0, 0.051938413675680396
439.0, 0.051039620394311605
440.0, 0.049851047634444506
441.0, 0.048682566853055984
442.0, 0.04809374951927657
443.0, 0.047987406125748255
444.0, 0.048165883452317954
445.0, 0.04814417405825412
446.0, 0.04847342106395471
447.0, 0.04979915815696447
448.0, 0.05240601527848305
449.0, 0.05398286905596396
450.0, 0.05738384326612713
451.0, 0.0608658371573373
452.0, 0.06469558377891736
453.0, 0.07024949793992448
454.0, 0.07503998379737374
455.0, 0.08161609029218235
456.0, 0.08818788748024559
457.0, 0.0946348714827248
458.0, 0.10161848437619794
459.0, 0.10790352617331089
460.0, 0.11404732113062607
461.0, 0.11751202871068449
462.0, 0.11880509338136076
463.0, 0.11897299865710888
464.0, 0.11733738421679195
465.0, 0.11358981704685858
466.0, 0.1080329673185928
467.0, 0.100599287485473
468.0, 0.09203491773700757
469.0, 0.08392202271134122
470.0, 0.07496093255970869
471.0, 0.06759740126953923
472.0, 0.06060545677682759
473.0, 0.053884101826118365
474.0, 0.04858317093294272
475.0, 0.043027903991638056
476.0, 0.03917527922879609
477.0, 0.035738670873414785
478.0, 0.032655577161436314
479.0, 0.030502355276672798
480.0, 0.02849281638293475
481.0, 0.026665086508316692
482.0, 0.025226938973290477
483.0, 0.02427751167298069
484.0, 0.023620642337263312
485.0, 0.022923808898905502
486.0, 0.022004707554883835
487.0, 0.021264059393591387
488.0, 0.02013820336849546
489.0, 0.018841295859704763
490.0, 0.018290131886820476
491.0, 0.01666097106771849
492.0, 0.016519607483248797
493.0, 0.015761865414344944
494.0, 0.013993747097249072
495.0, 0.012593476415189365
496.0, 0.01084248733660936
497.0, 0.00933709737531047
498.0, 0.007768739604489009
499.0, 0.006249349194905305
500.0, 0.005039530327673931
501.0, 0.0040731801104604195
502.0, 0.0029405244018619863
503.0, 0.0019268523059144424
504.0, 0.0008532815481418852
505.0, 4.068271210410556e-05
506.0, 0.0002481072060553788
507.0, 0.0005283108477043323
508.0, 0.0014126155622391924
509.0, 0.0017896741896597356
510.0, 0.0015049672048555631
511.0, 0.0013855276700556693
512.0, 0.0018109858925503075
513.0, 0.0018464325493832282
514.0, 0.0020442632346109515
515.0, 0.0018286945022561658
516.0, 0.0012117228031171003
517.0, 0.0013845402749707897
518.0, 0.001301715981461062
519.0, 0.0012520601986466095
520.0, 0.0013251067459170809
521.0, 0.0011673319386422978
522.0, 0.0006079403131601814
523.0, 0.0006775852932751694
524.0, 0.0002347962433554012
525.0, 7.821888464569915e-05
526.0, 0.00015892070818080854
527.0, 3.269147048200818e-05
528.0, 0.0002739679706563712
529.0, 0.001029914752038737
530.0, 0.0009290121509934417
531.0, 0.0008659656734236547
532.0, 0.0011197001412406502
533.0, 0.0012116116123599301
534.0, 0.0016377585368330448
535.0, 0.0009035331223034522
536.0, 0.0009238317667575936
537.0, 0.0012786718901274504
538.0, 0.0011371675092595869
539.0, 0.0013204284544026481
540.0, 0.0010627400837476889
541.0, 0.0015055395928012755
542.0, 0.0015387268233703342
543.0, 0.0012491657069450103
544.0, 0.0017292002920475174
545.0, 0.001676687884736449
546.0, 0.0016968510195129267
547.0, 0.0017958962570137444
548.0, 0.0019298726019338665
549.0, 0.0020410466298889604
550.0, 0.002081914691937465
551.0, 0.0026204767943416884
552.0, 0.0023403063996956627
553.0, 0.0022991970905526884
554.0, 0.002603977755318016
555.0, 0.002436303785374768
556.0, 0.0021457058485824403
557.0, 0.001778318522157365
558.0, 0.0022264770581218825
559.0, 0.0024038293730089693
560.0, 0.002042544490676252
561.0, 0.002543447567541389
562.0, 0.003419688733737594
563.0, 0.003160179683348061
564.0, 0.003124275930479497
565.0, 0.0033470695010468466
566.0, 0.0031045084635625275
567.0, 0.0029219516109476092
568.0, 0.002821142489446453
569.0, 0.0030712968116580865
570.0, 0.0029470327823024785
571.0, 0.002564979401885847
572.0, 0.002634933904578801
573.0, 0.002602346374999882
574.0, 0.00301596816689628
575.0, 0.0027153480939315247
576.0, 0.002260443092687479
577.0, 0.002298181799598992
578.0, 0.00225006257224989
579.0, 0.0019466501075619343
580.0, 0.0021928695219119404
581.0, 0.002355534548623308
582.0, 0.002365129982160429
583.0, 0.0023889467279715544
584.0, 0.0020993199110566586
585.0, 0.002224113755914876
586.0, 0.0025424376832929012
587.0, 0.002724783275480372
588.0, 0.0028495601462778337
589.0, 0.0030630636284410275
590.0, 0.0027617234846041773
591.0, 0.002935717140017961
592.0, 0.00272049753702402
593.0, 0.0025657943732477284
594.0, 0.002953367488587774
595.0, 0.003327849234728666
596.0, 0.0031858886973946516
597.0, 0.003513871947568036
598.0, 0.003684689480182116
599.0, 0.0036401527686684663
600.0, 0.003681570665373713
601.0, 0.0036923264605984957
602.0, 0.0034545946072860505
603.0, 0.003342540458701177
604.0, 0.0035601660885179643
605.0, 0.003906936332611351
606.0, 0.004063706475192656
607.0, 0.004201723824320103
608.0, 0.004381714784203005
609.0, 0.004579935401582433
610.0, 0.004847987623680051
611.0, 0.004926619668999277
612.0, 0.004796473856694791
613.0, 0.004713101572819121
614.0, 0.004659250756832099
615.0, 0.004768854176954217
616.0, 0.004851847025116822
617.0, 0.004834525588742679
618.0, 0.004921386930378118
619.0, 0.005173275395484146
620.0, 0.004774112050693578
621.0, 0.0042135343912393375
622.0, 0.0038623122485892283
623.0, 0.003750930063142705
624.0, 0.003756792998648222
625.0, 0.003763546063254387
626.0, 0.0035614775332282076
627.0, 0.0033886388776997517
628.0, 0.003268185382025859
629.0, 0.0029650765524361937
630.0, 0.0024716435216806283
631.0, 0.0025790238130419334
632.0, 0.0025300706542328555
633.0, 0.0025503527169614595
634.0, 0.0023106454357655426
635.0, 0.0017913872636218275
636.0, 0.0015822643946529686
637.0, 0.0013017134364276671
638.0, 0.0015644876393348334
639.0, 0.0014900276404595243
640.0, 0.0011517284610645497
641.0, 0.0010880187963900772
642.0, 0.001247861354720472
643.0, 0.0007701991343513709
644.0, 0.0003435665775409078
645.0, 0.00010970270742480029
646.0, 0.0003078397338476143
647.0, 0.0006639928002026994
648.0, 0.00046001406491235947
649.0, 0.0005850015315763298
650.0, 0.00021060057814418422
651.0, 0.00029956448841725086
652.0, 0.00026780979064216766
653.0, 0.00028183550792225897
654.0, 0.0004892191487911067
655.0, 0.00013485878045725946
656.0, 8.220285744038657e-05
657.0, 9.39094196618811e-05
658.0, 0.00010209539885445014
659.0, 1.0042105936583322e-05
660.0, 0.00010339320631121695
661.0, 6.204270153463957e-05
662.0, 0.0003187314109401424
663.0, 0.00013870566790214847
664.0, 4.130575598117377e-05
665.0, 0.0001731930686165422
666.0, 0.00048075886455463363
667.0, 0.0010002776061803467
668.0, 0.0002865150856279557
669.0, 3.71007234921689e-05
670.0, 4.953833261212131e-05
671.0, 0.0004169648875116217
672.0, 0.0008793724603228443
673.0, 0.0008544517060823895
674.0, 0.0009100612293034785
675.0, 0.001918582330397163
676.0, 0.0033610691220123993
677.0, 0.004366437012419803
678.0, 0.004719565078184225
679.0, 0.00582384398120082
680.0, 0.007718066006777572
681.0, 0.009580587402630956
682.0, 0.010271814590855846
683.0, 0.009513385521245976
684.0, 0.007781161829887911
685.0, 0.005628235982812509
686.0, 0.004542125096586158
687.0, 0.0035843445049710543
688.0, 0.0029906135808999514
689.0, 0.0028778896951667525
690.0, 0.0031535439127153768
691.0, 0.003897385440116059
692.0, 0.00502836671069014
693.0, 0.005299869631360772
694.0, 0.005744459307488406
695.0, 0.006800620867279214
696.0, 0.007802290775095247
697.0, 0.007854308745876141
698.0, 0.007594558683186789
699.0, 0.00832634631207121
700.0, 0.008719938119286948
701.0, 0.009233410659597378
702.0, 0.009935007434595078
703.0, 0.010177420487229112
704.0, 0.010880922340419347
705.0, 0.011349955955202098
706.0, 0.011783415766140705
707.0, 0.01202145845230356
708.0, 0.01153506115082144
709.0, 0.010345416832446134
710.0, 0.00941710182781335
711.0, 0.007603651690984533
712.0, 0.006049237422881268
713.0, 0.005406977748832632
714.0, 0.004866555255421356
715.0, 0.003823255003549838
716.0, 0.0027681813151071394
717.0, 0.002378329938673585
718.0, 0.0031910156108702755
719.0, 0.0029929751929374986
720.0, 0.0029691633489809005
721.0, 0.0036562034251094687
722.0, 0.0038103009015776237
723.0, 0.0033361261517736314
724.0, 0.0037767039145026136
725.0, 0.004046030886215362
726.0, 0.004035267948924382
727.0, 0.004152321964353271
728.0, 0.004404943194041992
729.0, 0.004417468702649777
730.0, 0.004992192983155708
731.0, 0.0049381065330957345
732.0, 0.0050495307334116534
733.0, 0.005381782889882292
734.0, 0.005692762007004412
735.0, 0.005956466693839142
736.0, 0.006331263579989158
737.0, 0.007046199701874725
738.0, 0.0077465674365992535
739.0, 0.008347850067436225
740.0, 0.008669408339633285
741.0, 0.009099023224769857
742.0, 0.010449027613611947
743.0, 0.010876753115759839
744.0, 0.011213472922886988
745.0, 0.010681579372924705
746.0, 0.009335048212859264
747.0, 0.008040589251448217
748.0, 0.007165928038075948
749.0, 0.005847556235547399
750.0, 0.006500355194331023
751.0, 0.006332553261118889
752.0, 0.00584327721278469
753.0, 0.005701992329255637
754.0, 0.005858579786866489
755.0, 0.00606400209805806
756.0, 0.005656156144370464
757.0, 0.005320052421977023
758.0, 0.005084116424039578
759.0, 0.005594171168561451
760.0, 0.006116418197467861
761.0, 0.005653060723121069
762.0, 0.005178639066335355
763.0, 0.004623357252877428
764.0, 0.005096236700587428
765.0, 0.004895045064397904
766.0, 0.0044750000163679155
767.0, 0.004582043466082656
768.0, 0.004699642203036151
769.0, 0.004746916376940449
770.0, 0.004453495965864542
771.0, 0.003868740145326895
772.0, 0.0037012629776091805
773.0, 0.003321919485536145
774.0, 0.0026674012628910867
775.0, 0.0029792639817090394
776.0, 0.002510751792848038
777.0, 0.002205364450350218
778.0, 0.002050293532425662
779.0, 0.0021101189651668256
780.0, 0.002250589223517199
781.0, 0.0021078488214504574
782.0, 0.001629497242365204
783.0, 0.0018416900742140984
784.0, 0.0021294579407819146
785.0, 0.0020180144407385726
786.0, 0.0017197721376359452
787.0, 0.00171349253607477
788.0, 0.001990038359507835
789.0, 0.0017863791033768534
790.0, 0.0013832353030717851
791.0, 0.001419573340570375
792.0, 0.0011204205873075383
793.0, 0.0008009515233321218
794.0, 0.0009438228957677632
795.0, 0.0011607073542585973
796.0, 0.0008428414592555756
797.0, 0.0005899149241002677
798.0, 0.0005397576009169345
799.0, 0.0006131563640225847
800.0, 0.0005279883050677285
801.0, 0.00029859762448861214
802.0, 0.00020546199545815296
803.0, 8.926209252170242e-05
804.0, 1.5463264678803933e-05
805.0, 8.455385915787659e-05
806.0, 6.215475318627386e-05
807.0, 0.00013598161546319
808.0, 0.00035965147875469306
809.0, 9.341159833089539e-05
810.0, 0.00018639029537692023
811.0, 0.00023243513266417424
812.0, 3.177918714800337e-05
813.0, 0.00010891511514597165
814.0, 0.0004177963278718504
815.0, 0.00042723347911195194
816.0, 0.00013202041933284465
817.0, 6.291812417930247e-05
818.0, 6.622564756695108e-05
819.0, 4.252312119694651e-05
820.0, 0.00020095477634605465
821.0, 0.00016631832288425483
822.0, 0.0001244462301304946
823.0, 0.0004067009720251148
824.0, 0.0003677109293371838
825.0, 0.0006150424051696889
826.0, 0.00028079869919250746
827.0, 0.0007157238109916763
828.0, 0.0007553598164580482
829.0, 0.00048341272466014354
830.0, 0.0013290676512966997
831.0, 0.0021123747034888867
832.0, 0.0026607570961744717
833.0, 0.0025245904067285243
834.0, 0.0026583991340554877
835.0, 0.003532789280100689
836.0, 0.004627107056654071
837.0, 0.005359037828091631
838.0, 0.005986829212393858
839.0, 0.007386831649725744
840.0, 0.00807583101627352
841.0, 0.009892144300847276
842.0, 0.01203612133195463
843.0, 0.01331502422222215
844.0, 0.014100053016932955
845.0, 0.015694296605915252
846.0, 0.01699645444347664
847.0, 0.016924214363880453
848.0, 0.016505455532866153
849.0, 0.015545179001437986
850.0, 0.014432887118372288
851.0, 0.013426098152375502
852.0, 0.01197074211477457
853.0, 0.010523645832147512
854.0, 0.00983624920450533
855.0, 0.009678491323927419
856.0, 0.008968843329448898
857.0, 0.007939885679971446
858.0, 0.007562336238743943
859.0, 0.008129779834510478
860.0, 0.00881066962272451
861.0, 0.010320378708623991
862.0, 0.012481645573096542
863.0, 0.01590451848696844
864.0, 0.020733727509899515
865.0, 0.027027779555129753
866.0, 0.033485903735649185
867.0, 0.035964604201571215
868.0, 0.033468030680765135
869.0, 0.026030135023856267
870.0, 0.017645491074900408
871.0, 0.010900129911397204
872.0, 0.006186526909137742
873.0, 0.003240482777551367
874.0, 0.0017508467627244577
875.0, 0.0008051210536238465
876.0, 0.00040160472438467205
877.0, 0.00014812566604727913
878.0, 1.6940669555408865e-05
879.0, 1.7196739842626158e-05
880.0, 6.385298442883017e-05
881.0, 0.00019016115278138498
882.0, 0.0001665201645443523
883.0, 0.0002616296133575044
884.0, 0.0003445917978689275
885.0, 0.0002020832500136048
886.0, 0.00026018000523000175
887.0, 0.00021469890157956934
888.0, 0.00022190218611039544
889.0, 0.0005662752965153494
890.0, 0.00034777474275984367
891.0, 0.0005924238580945011
892.0, 0.0005672665699279823
893.0, 0.0007517618451225326
894.0, 0.000750894180926214
895.0, 0.0006282443566650614
896.0, 0.0008690172220620686
897.0, 0.0013096096978385775
898.0, 0.0011063411114898424
899.0, 0.0017352805720781692
900.0, 0.001800330897272833
901.0, 0.002177914414403176
902.0, 0.002824865461120213
903.0, 0.0034121734549767287
904.0, 0.004269080593247077
905.0, 0.0055348926228331215
906.0, 0.0066168488447456205
907.0, 0.008973185348632992
908.0, 0.012759118446208566
909.0, 0.015602802714781894
910.0, 0.019076503211343052
911.0, 0.02277437444273187
912.0, 0.022283612443854177
913.0, 0.017764819579264665
914.0, 0.011442111106025853
915.0, 0.007421728706360805
916.0, 0.004941639686187384
917.0, 0.003647420974652278
918.0, 0.002700966934075762
919.0, 0.0017834567051680543
920.0, 0.0014775028305420602
921.0, 0.0015626121602637705
922.0, 0.0007927652829831549
923.0, 0.0005930200023455474
924.0, 0.000666015598324405
925.0, 0.0010449114812666111
926.0, 0.0011667342172968977
927.0, 0.0007711841606563967
928.0, 0.000506218090230834
929.0, 0.000540866528249215
930.0, 0.0008762654878816384
931.0, 0.0007654597677724148
932.0, 0.0009392189599752564
933.0, 0.0004590257019813833
934.0, 0.0016861835734840458
935.0, 0.003359965201428281
936.0, 0.0010487020078571597
937.0, 5.387811250814502e-05
938.0, 0.00043649023988402377
939.0, 0.00011689783653265885
940.0, 0.00011798939214562749
941.0, 0.00047458687926224785
942.0, 0.00030539794672215835
943.0, 2.66289119498169e-05
944.0, 0.00034720299011050987
945.0, 0.0011828764321413071
946.0, 0.0001071053511721747
947.0, 3.6637774881438415e-06
948.0, 0.00026652166883643034
949.0, 0.00011824141164172768
950.0, 5.085944347764373e-05
951.0, 0.0002393792567404188
952.0, 0.00016366250192136365
953.0, 0.0001427235319261556
954.0, 7.595843917720179e-05
955.0, 3.942127771112315e-05
956.0, 0.00015864985749540402
957.0, 0.00014620687831477737
958.0, 0.00011046228393029646
959.0, 0.00012788200233932292
960.0, 0.00012144043700388705
961.0, 0.0002920978345516733
962.0, 3.0619916724323066e-05
963.0, 0.0004477982423306347
964.0, 0.0006590072674316245
965.0, 0.0005403998886576374
966.0, 0.0006034075998860571
967.0, 0.000788013243099478
968.0, 0.0007671712385345988
969.0, 0.0009112233690385357
970.0, 0.00163047473051437
971.0, 0.0013728206616288909
972.0, 0.0017722048716814845
973.0, 0.0025213540959104597
974.0, 0.0032404860506453003
975.0, 0.0037968532351996356
976.0, 0.004654689864000598
977.0, 0.005939408819760415
978.0, 0.006405916642017846
979.0, 0.007122812398875986
980.0, 0.00885627359625217
981.0, 0.010150544358840417
982.0, 0.011436036402356435
983.0, 0.012221479785697662
984.0, 0.011626532891770364
985.0, 0.009898743160264886
986.0, 0.007915992422653699
987.0, 0.0057692813792688145
988.0, 0.0036160896533770515
989.0, 0.002384904273012024
990.0, 0.0018271878108630786
991.0, 0.0018601738220456808
992.0, 0.0014489262099491448
993.0, 0.0007208959021136428
994.0, 0.0006442724656092558
995.0, 0.0004205936880108443
996.0, 0.00039948779982839895
997.0, 0.0002517521109687432
998.0, 0.000127770728734095
999.0, 0.00020393316633282116
1000.0, 0.00015411458661649852
1001.0, 9.270189481745935e-05
1002.0, 0.00011703274415561342
1003.0, 0.0002489179143642757
1004.0, 0.0003207839969228487
1005.0, 7.041625988627874e-05
1006.0, 0.0004312899382325115
1007.0, 0.001638665210361015
1008.0, 0.0009149084657955696
1009.0, 3.3566657389836405e-05
1010.0, 0.000292688078524064
1011.0, 0.0005436875875494223
1012.0, 0.0002532009398822479
1013.0, 0.00023368418293641437
1014.0, 0.0002949600925905674
1015.0, 0.0004811600572171039
1016.0, 0.0008900648894660573
1017.0, 0.0007544789695170916
1018.0, 0.00048324337043782127
1019.0, 0.0005421855996982597
1020.0, 0.0007805644652922224
1021.0, 0.0010816765510580119
1022.0, 0.0010658260350709975
1023.0, 0.0014142967101888264
1024.0, 0.001888422652021666
1025.0, 0.002260197600874925
1026.0, 0.003091607740628509
1027.0, 0.004244813131290027
1028.0, 0.0057174173624282365
1029.0, 0.007078092125078963
1030.0, 0.007264288735074523
1031.0, 0.0065760968075881925
1032.0, 0.006123949301389199
1033.0, 0.006141542218879191
1034.0, 0.006751920056740686
1035.0, 0.008675760230409309
1036.0, 0.011395484913180376
1037.0, 0.015559049626324734
1038.0, 0.022720705725676468
1039.0, 0.03376685139242738
1040.0, 0.04970485924639557
1041.0, 0.07115012136027225
1042.0, 0.09461778818364534
1043.0, 0.12201479717326577
1044.0, 0.1547504116237186
1045.0, 0.19788882043361666
1046.0, 0.26225808489787006
1047.0, 0.3534852162481821
1048.0, 0.46593817149371036
1049.0, 0.6022409120824729
1050.0, 0.7857953633793325
1051.0, 0.9661675178557766
1052.0, 0.982088184396601
1053.0, 0.8234977688410756
1054.0, 0.6830811746678992
1055.0, 0.6176465131659384
1056.0, 0.5664811841669315
1057.0, 0.5266169646574366
1058.0, 0.5214089188001522
1059.0, 0.4257776678716827
1060.0, 0.2608154814162637
1061.0, 0.14465223198526123
1062.0, 0.08364564316380993
1063.0, 0.04941699405455421
1064.0, 0.02841174720498721
1065.0, 0.017343345783614895
1066.0, 0.012554454731834183
1067.0, 0.0099554685435987
1068.0, 0.008811235859976974
1069.0, 0.007400197770315116
1070.0, 0.007028283663618411
1071.0, 0.006858988867401661
1072.0, 0.0059687997147614994
1073.0, 0.005023981177393404
1074.0, 0.004200426215458632
1075.0, 0.0037340161704429303
1076.0, 0.0035953134830274654
1077.0, 0.0033306957045924216
1078.0, 0.0031585416372843155
1079.0, 0.0029452338665440963
1080.0, 0.0023971589650073977
1081.0, 0.002676339858737743
1082.0, 0.0028948735757803874
1083.0, 0.003149069416594209
1084.0, 0.0031534002390013866
1085.0, 0.0031794313147000034
1086.0, 0.0038972132067397487
1087.0, 0.0049061314780532335
1088.0, 0.005032802262546553
1089.0, 0.003963660390096373
1090.0, 0.0028021238521217175
1091.0, 0.0025415637736925477
1092.0, 0.0021056691023752794
1093.0, 0.0016026326233667125
1094.0, 0.0012718028626468917
1095.0, 0.0010939902570026526
1096.0, 0.0011367083816284918
1097.0, 0.0012619736569230747
1098.0, 0.0012146762109292843
1099.0, 0.0013919548991268632
1100.0, 0.0010940116511299613
1101.0, 0.0007355623583042094
1102.0, 0.0012286571906442827
1103.0, 0.0014032385970362852
1104.0, 0.0010424617041844006
1105.0, 0.001003194747557514
1106.0, 0.0010902221339217607
1107.0, 0.0006780648074472879
1108.0, 0.0004781435502510683
1109.0, 0.000716854494538916
1110.0, 0.00090573331149253
1111.0, 0.0009702022700330362
1112.0, 0.0006887972882375005
1113.0, 0.00037471947383371557
1114.0, 0.000413543615258075
1115.0, 0.00047967073669249755
1116.0, 0.00035439719594452634
1117.0, 0.0003332262903157384
1118.0, 0.0002679650402522848
1119.0, 7.198671885650382e-05
1120.0, 8.517308418952942e-06
1121.0, 0.0004982997306021934
1122.0, 1.6318577952298665e-05
1123.0, 4.1428463821214465e-05
1124.0, 0.0002170259080638684
1125.0, 9.416511318952883e-05
1126.0, 0.0002538344653183298
1127.0, 0.00030496371499862124
1128.0, 0.00030315372709460893
1129.0, 6.916771540047658e-05
1130.0, 0.00017099858978668992
1131.0, 6.655450024822617e-05
1132.0, 0.00035797911658165554
1133.0, 0.00012514122926350502
1134.0, 0.0002122777276984968
1135.0, 0.00020347656883830728
1136.0, 0.00010815022515008193
1137.0, 2.165866290968615e-05
1138.0, 0.00018167419313292626
1139.0, 0.0003983750554191495
1140.0, 0.0003831038554139301
1141.0, 7.840314296286456e-05
1142.0, 0.00011321515648818896
1143.0, 0.00017029550327803545
1144.0, 0.00027104205946603234
1145.0, 0.00021716821236451405
1146.0, 0.00022652502970582535
1147.0, 6.647910694153602e-05
1148.0, 2.643888197351458e-05
1149.0, 0.00032242170109837454
1150.0, 9.052085779552455e-05
1151.0, 0.0002731485160214967
1152.0, 0.0005788206870901941
1153.0, 0.0006731531797051968
1154.0, 0.0005988263193098746
1155.0, 0.0004655494001168907
1156.0, 0.0005198298354059185
1157.0, 0.0005560950102571911
1158.0, 0.00039456522523399794
1159.0, 0.00028934179613255293
1160.0, 0.0002537778151246469
1161.0, 0.0001118894436159095
1162.0, 0.000450211203999955
1163.0, 0.0002830255743875032
1164.0, 0.0006972848427342135
1165.0, 0.0003511336466628499
1166.0, 0.00022314589025410362
1167.0, 0.00028981082694972077
1168.0, 0.000370631502387215
1169.0, 0.0005493434340949581
1170.0, 0.0005939268026691961
1171.0, 0.00032660935193718393
1172.0, 0.0002629146076025474
1173.0, 0.0005257670480796395
1174.0, 0.0003145738240964593
1175.0, 0.0007137429789332388
1176.0, 0.000611893380691612
1177.0, 4.296362337601368e-05
1178.0, 0.00039587821162998974
1179.0, 0.0007485464325905664
1180.0, 0.0008358489339079613
1181.0, 0.0007118129262790681
1182.0, 0.0006666075620398775
1183.0, 0.0008788745682216685
1184.0, 0.0008192899543519416
1185.0, 0.0010040560106717308
1186.0, 0.0005657469320963775
1187.0, 0.0005274512805220639
1188.0, 0.0010754755957246632
1189.0, 0.0009423470220372842
1190.0, 0.0006185033685382362
1191.0, 0.0007384866594828626
1192.0, 0.0006731074296984136
1193.0, 0.0005160809470859189
1194.0, 0.0008044696824602493
1195.0, 0.0010988016380419476
1196.0, 0.0009260325445112077
1197.0, 0.0004434009731468587
1198.0, 0.0009557997538243957
1199.0, 0.0007866308359864701
1200.0, 0.0007911350545710556
1201.0, 0.0013432650755426582
1202.0, 0.0013090877566347137
1203.0, 0.0012894298290311642
1204.0, 0.0013481271692515617
1205.0, 0.0017842407378658898
1206.0, 0.002186066040545625
1207.0, 0.0020341894182718937
1208.0, 0.002465963467021989
1209.0, 0.0027097602647803746
1210.0, 0.0029325657517698892
1211.0, 0.003753549170401859
1212.0, 0.004545608425320146
1213.0, 0.005514468079372215
1214.0, 0.006580613385065059
1215.0, 0.0075854716693163704
1216.0, 0.009063871251264607
1217.0, 0.010426113783051291
1218.0, 0.011500844205325995
1219.0, 0.012846751761092337
1220.0, 0.014224248607571384
1221.0, 0.015305388957268852
1222.0, 0.015537225685354065
1223.0, 0.015609285512160538
1224.0, 0.015292265105495919
1225.0, 0.014369067495758937
1226.0, 0.013356546577691695
1227.0, 0.01423004610372814
1228.0, 0.012190412131430423
1229.0, 0.009582659612153993
1230.0, 0.00829189810123685
1231.0, 0.006816496087867871
1232.0, 0.005307434845275433
1233.0, 0.004306353854646916
1234.0, 0.004011424238368592
1235.0, 0.003456730739401164
1236.0, 0.003032924081068746
1237.0, 0.0025787594110334867
1238.0, 0.0022667970137569774
1239.0, 0.0018922499733029445
1240.0, 0.0015032862423544743
1241.0, 0.0014498316579398514
1242.0, 0.0011468736868819167
1243.0, 0.0005707266879629634
1244.0, 0.00044087766627832884
1245.0, 0.0007577147381896106
1246.0, 0.000774602837725659
1247.0, 0.0005802848620651448
1248.0, 0.0006505047412210295
1249.0, 0.0005924926338560265
1250.0, 0.000636988053650105
1251.0, 0.0008222061729859464
1252.0, 0.00048222957245648947
1253.0, 0.0009566755495429932
1254.0, 0.001278003582578959
1255.0, 0.0010281366894393136
1256.0, 0.0011117488642060649
1257.0, 0.0015155549811156
1258.0, 0.0021056028248568667
1259.0, 0.0027905486863326525
1260.0, 0.002717723735968078
1261.0, 0.0029977909026261463
1262.0, 0.003080281467657228
1263.0, 0.0033915220698935876
1264.0, 0.0036301243801900285
1265.0, 0.0033658753861954046
1266.0, 0.0031012699060090545
1267.0, 0.0029821093509476396
1268.0, 0.003080278856072589
1269.0, 0.0028630939328268957
1270.0, 0.0023424579524361387
1271.0, 0.0020709054713079337
1272.0, 0.001924972763369701
1273.0, 0.001576613421411999
1274.0, 0.0014235828367271512
1275.0, 0.0012030705433967886
1276.0, 0.0005720271984181407
1277.0, 0.0003042510627869969
1278.0, 6.460228694541882e-05
1279.0, 0.00016579713875114233
1280.0, 0.0007101600022043856
1281.0, 0.000785948524956445
1282.0, 0.0005127020547729364
1283.0, 0.0005148164817151327
1284.0, 0.00042720696889980513
1285.0, 0.00020977335021714122
1286.0, 2.7862703693951822e-05
1287.0, 0.00011884617341738934
1288.0, 0.0005690499358683128
1289.0, 0.0006196849976887103
1290.0, 0.0006514081708305443
1291.0, 0.00014742489882236975
1292.0, 0.0005657941479813766
1293.0, 0.0009174191993405241
1294.0, 0.000733590757653549
1295.0, 0.0007353677874247697
1296.0, 0.0006419402923482137
1297.0, 0.0002471546536104876
1298.0, 0.0001775174346340956
1299.0, 0.0001409536392638784
1300.0, 1.7854595423040915e-05
1301.0, 5.245697805365733e-06
1302, 0.0
1303, 0.0
1304, 0.0
1305, 0.0
1306, 0.0
1307, 0.0
1308, 0.0
1309, 0.0
1310, 0.0
1311, 0.0
1312, 0.0
1313, 0.0
1314, 0.0
1315, 0.0
1316, 0.0
1317, 0.0
1318, 0.0
1319, 0.0
1320, 0.0
1321, 0.0
1322, 0.0
1323, 0.0
1324, 0.0
1325, 0.0
1326, 0.0
1327, 0.0
1328, 0.0
1329, 0.0
1330, 0.0
1331, 0.0
1332, 0.0
1333, 0.0
1334, 0.0
1335, 0.0
1336, 0.0
1337, 0.0
1338, 0.0
1339, 0.0
1340, 0.0
1341, 0.0
1342, 0.0
1343, 0.0
1344, 0.0
1345, 0.0
1346, 0.0
1347, 0.0
1348, 0.0
1349, 0.0
1350, 0.0
1351, 0.0
1352, 0.0
1353, 0.0
1354, 0.0
1355, 0.0
1356, 0.0
1357, 0.0
1358, 0.0
1359, 0.0
1360, 0.0
1361, 0.0
1362, 0.0
1363, 0.0
1364, 0.0
1365, 0.0
1366, 0.0
1367, 0.0
1368, 0.0
1369, 0.0
1370, 0.0
1371, 0.0
1372, 0.0
1373, 0.0
1374, 0.0
1375, 0.0
1376, 0.0
1377, 0.0
1378, 0.0
1379, 0.0
1380, 0.0
1381, 0.0
1382, 0.0
1383, 0.0
1384, 0.0
1385, 0.0
1386, 0.0
1387, 0.0
1388, 0.0
1389, 0.0
1390, 0.0
1391, 0.0
1392, 0.0
1393, 0.0
1394, 0.0
1395, 0.0
1396, 0.0
1397, 0.0
1398, 0.0
1399, 0.0
1400, 0.0
1401, 0.0
1402, 0.0
1403, 0.0
1404, 0.0
1405, 0.0
1406, 0.0
1407, 0.0
1408, 0.0
1409, 0.0
1410, 0.0
1411, 0.0
1412, 0.0
1413, 0.0
1414, 0.0
1415, 0.0
1416, 0.0
1417, 0.0
1418, 0.0
1419, 0.0
1420, 0.0
1421, 0.0
1422, 0.0
1423, 0.0
1424, 0.0
1425, 0.0
1426, 0.0
1427, 0.0
1428, 0.0
1429, 0.0
1430, 0.0
1431, 0.0
1432, 0.0
1433, 0.0
1434, 0.0
1435, 0.0
1436, 0.0
1437, 0.0
1438, 0.0
1439, 0.0
1440, 0.0
1441, 0.0
1442, 0.0
1443, 0.0
1444, 0.0
1445, 0.0
1446, 0.0
1447, 0.0
1448, 0.0
1449, 0.0
1450, 0.0
1451, 0.0
1452, 0.0
1453, 0.0
1454, 0.0
1455, 0.0
1456, 0.0
1457, 0.0
1458, 0.0
1459, 0.0
1460, 0.0
1461, 0.0
1462, 0.0
1463, 0.0
1464, 0.0
1465, 0.0
1466, 0.0
1467, 0.0
1468, 0.0
1469, 0.0
1470, 0.0
1471, 0.0
1472, 0.0
1473, 0.0
1474, 0.0
1475, 0.0
1476, 0.0
1477, 0.0
1478, 0.0
1479, 0.0
1480, 0.0
1481, 0.0
1482, 0.0
1483, 0.0
1484, 0.0
1485, 0.0
1486, 0.0
1487, 0.0
1488, 0.0
1489, 0.0
1490, 0.0
1491, 0.0
1492, 0.0
1493, 0.0
1494, 0.0
1495, 0.0
1496, 0.0
1497, 0.0
1498, 0.0
1499, 0.0
1500, 0.0
1501, 0.0
1502, 0.0
1503, 0.0
1504, 0.0
1505, 0.0
1506, 0.0
1507, 0.0
1508, 0.0
1509, 0.0
1510, 0.0
1511, 0.0
1512, 0.0
1513, 0.0
1514, 0.0
1515, 0.0
1516, 0.0
1517, 0.0
1518, 0.0
1519, 0.0
1520, 0.0
1521, 0.0
1522, 0.0
1523, 0.0
1524, 0.0
1525, 0.0
1526, 0.0
1527, 0.0
1528, 0.0
1529, 0.0
1530, 0.0
1531, 0.0
1532, 0.0
1533, 0.0
1534, 0.0
1535, 0.0
1536, 0.0
1537, 0.0
1538, 0.0
1539, 0.0
1540, 0.0
1541, 0.0
1542, 0.0
1543, 0.0
1544, 0.0
1545, 0.0
1546, 0.0
1547, 0.0
1548, 0.0
1549, 0.0
1550, 0.0
1551, 0.0
1552, 0.0
1553, 0.0
1554, 0.0
1555, 0.0
1556, 0.0
1557, 0.0
1558, 0.0
1559, 0.0
1560, 0.0
1561, 0.0
1562, 0.0
1563, 0.0
1564, 0.0
1565, 0.0
1566, 0.0
1567, 0.0
1568, 0.0
1569, 0.0
1570, 0.0
1571, 0.0
1572, 0.0
1573, 0.0
1574, 0.0
1575, 0.0
1576, 0.0
1577, 0.0
1578, 0.0
1579, 0.0
1580, 0.0
1581, 0.0
1582, 0.0
1583, 0.0
1584, 0.0
1585, 0.0
1586, 0.0
1587, 0.0
1588, 0.0
1589, 0.0
1590, 0.0
1591, 0.0
1592, 0.0
1593, 0.0
1594, 0.0
1595, 0.0
1596, 0.0
1597, 0.0
1598, 0.0
1599, 0.0
