30, 0.0
31, 0.0
32, 0.0
33, 0.0
34, 0.0
35, 0.0
36, 0.0
37, 0.0
38, 0.0
39, 0.0
40, 0.0
41, 0.0
42, 0.0
43, 0.0
44, 0.0
45, 0.0
46, 0.0
47, 0.0
48, 0.0
49, 0.0
50, 0.0
51, 0.0
52, 0.0
53, 0.0
54, 0.0
55, 0.0
56, 0.0
57, 0.0
58, 0.0
59, 0.0
60, 0.0
61, 0.0
62, 0.0
63, 0.0
64, 0.0
65, 0.0
66, 0.0
67, 0.0
68, 0.0
69, 0.0
70, 0.0
71, 0.0
72, 0.0
73, 0.0
74, 0.0
75, 0.0
76, 0.0
77, 0.0
78, 0.0
79, 0.0
80, 0.0
81, 0.0
82, 0.0
83, 0.0
84, 0.0
85, 0.0
86, 0.0
87, 0.0
88, 0.0
89, 0.0
90, 0.0
91, 0.0
92, 0.0
93, 0.0
94, 0.0
95, 0.0
96, 0.0
97, 0.0
98, 0.0
99, 0.0
100, 0.0
101, 0.0
102, 0.0
103, 0.0
104, 0.0
105, 0.0
106, 0.0
107, 0.0
108, 0.0
109, 0.0
110, 0.0
111, 0.0
112, 0.0
113, 0.0
114, 0.0
115, 0.0
116, 0.0
117, 0.0
118, 0.0
119, 0.0
120, 0.0
121, 0.0
122, 0.0
123, 0.0
124, 0.0
125, 0.0
126, 0.0
127, 0.0
128, 0.0
129, 0.0
130, 0.0
131, 0.0
132, 0.0
133, 0.0
134, 0.0
135, 0.0
136, 0.0
137, 0.0
138, 0.0
139, 0.0
140, 0.0
141, 0.0
142, 0.0
143, 0.0
144, 0.0
145, 0.0
146, 0.0
147, 0.0
148, 0.0
149, 0.0
150, 0.0
151, 0.0
152, 0.0
153, 0.0
154, 0.0
155, 0.0
156, 0.0
157, 0.0
158, 0.0
159, 0.0
160, 0.0
161, 0.0
162, 0.0
163, 0.0
164, 0.0
165, 0.0
166, 0.0
167, 0.0
168, 0.0
169, 0.0
170, 0.0
171, 0.0
172, 0.0
173, 0.0
174, 0.0
175, 0.0
176, 0.0
177, 0.0
178.0, 0.0008118743763501501
179.0, 0.0018853087475955766
180.0, 0.006013245895967644
181.0, 0.007408630312904522
182.0, 0.011248085575735237
183.0, 0.018843905714937926
184.0, 0.023375718641238656
185.0, 0.035875450186433504
186.0, 0.0404478624353246
187.0, 0.03649634190728769
188.0, 0.03696223424065623
189.0, 0.04261490476191816
190.0, 0.046584018101746755
191.0, 0.047335110601806084
192.0, 0.04762725133058973
193.0, 0.05103551529177442
194.0, 0.04504526678477236
195.0, 0.03468775450590693
196.0, 0.03011559022085142
197.0, 0.0374510103607323
198.0, 0.03690642970819305
199.0, 0.03660781660603534
200.0, 0.03688500552586775
201.0, 0.03496345398533612
202.0, 0.03920133838523322
203.0, 0.04438178633042924
204.0, 0.04531410148253589
205.0, 0.0432270594421532
206.0, 0.04721608920401775
207.0, 0.0525365148597285
208.0, 0.05558959065879097
209.0, 0.05426653689480092
210.0, 0.04854712295942311
211.0, 0.04934528445559179
212.0, 0.04480407764056795
213.0, 0.04133717792219479
214.0, 0.045659286115168604
215.0, 0.04961129125549148
216.0, 0.05132647314134637
217.0, 0.052958827334576866
218.0, 0.053267014255625175
219.0, 0.04933244183755176
220.0, 0.05151671292276405
221.0, 0.0505659106615725
222.0, 0.04866769871593121
223.0, 0.05089366163289151
224.0, 0.05687745958405175
225.0, 0.04995066818526885
226.0, 0.045023190448151416
227.0, 0.049322227531167856
228.0, 0.051828499866759206
229.0, 0.05604073414867291
230.0, 0.05593671585806736
231.0, 0.05776441986249356
232.0, 0.0636065903314746
233.0, 0.05541824265389113
234.0, 0.05396946527018297
235.0, 0.051627990642198654
236.0, 0.04576137511906879
237.0, 0.044227862917254106
238.0, 0.03578763559540511
239.0, 0.030788818876209514
240.0, 0.025488853989463288
241.0, 0.016312677679919164
242.0, 0.02569545602276388
243.0, 0.020120756592513986
244.0, 0.015510655636050018
245.0, 0.018033780208278193
246.0, 0.015191454951578472
247.0, 0.02077593863139159
248.0, 0.019586943724142082
249.0, 0.015910644701747544
250.0, 0.017308605392611566
251.0, 0.01746344356858387
252.0, 0.01455946467046296
253.0, 0.01760092851744415
254.0, 0.02117494692024114
255.0, 0.01280091991654587
256.0, 0.023346959700176233
257.0, 0.021818558113198147
258.0, 0.014026176840274207
259.0, 0.011813573564500218
260.0, 0.009181203738072293
261.0, 0.010328787883897201
262.0, 0.009363911973110695
263.0, 0.008055579922037445
264.0, 0.011220947979431005
265.0, 0.005967924160128113
266.0, 0.010058611986544697
267.0, 0.011108210210942335
268.0, 0.004987266175732244
269.0, 0.009620695343326935
270.0, 0.0022556243673301276
271.0, 0.00793225586499838
272.0, 0.007809403640422123
273.0, 0.0101036303669314
274.0, 0.004539881444720095
275.0, 0.0050966019481155245
276.0, 0.011258178263791432
277.0, 0.015143235713516648
278.0, 0.009719242862337923
279.0, 0.007171212927784335
280.0, 0.005088378148244538
281.0, 0.001251772720963393
282.0, 0.005785399681987828
283.0, 0.003816884757791676
284.0, 0.0030778013010860747
285.0, 0.008284049460653368
286.0, 0.015487374670385143
287.0, 0.02068744383259682
288.0, 0.034144418168395044
289.0, 0.040587342658585976
290.0, 0.04096992748006089
291.0, 0.041460853576850566
292.0, 0.04478797346470841
293.0, 0.04386035755283021
294.0, 0.033944227129337
295.0, 0.02732959364828901
296.0, 0.030534036456570206
297.0, 0.02659108785965482
298.0, 0.023368790942546867
299.0, 0.02557997832248112
300.0, 0.029754151543674567
301.0, 0.027596508081219474
302.0, 0.012329106382007198
303.0, 0.014364458681341456
304.0, 0.013292371701972183
305.0, 0.0016767546710956325
306.0, 0.0011048405191395538
307.0, 0.009157191425009464
308.0, 0.01507171666037127
309.0, 0.01671246546402148
310.0, 0.015196185175153894
311.0, 0.011188548843389412
312.0, 0.006533193808391894
313.0, 0.003473925902940752
314.0, 0.004290937982128087
315.0, 0.007932720650789107
316.0, 0.006237865430336928
317.0, 0.0018193908924832264
318.0, 0.004317117882132677
319.0, 0.011590166095893407
320.0, 0.01332694095516058
321.0, 0.007482436902134461
322.0, 0.007351665389594606
323.0, 0.010242195948349278
324.0, 0.014294479002845834
325.0, 0.023516542175248158
326.0, 0.023261763162280888
327.0, 0.03264643371402974
328.0, 0.04225431872034544
329.0, 0.04199313885014987
330.0, 0.047925959721256566
331.0, 0.055118783380107894
332.0, 0.06897786914159416
333.0, 0.0843441493366403
334.0, 0.09209851523559597
335.0, 0.09308708114814422
336.0, 0.09182807270801233
337.0, 0.09404798817873028
338.0, 0.09947986308286023
339.0, 0.10257189703332929
340.0, 0.10490389524119524
341.0, 0.10105287104863053
342.0, 0.0944645058782143
343.0, 0.09336597432270125
344.0, 0.10272872909698506
345.0, 0.10447453704255658
346.0, 0.10302140951834646
347.0, 0.10875033758348047
348.0, 0.12105354477786459
349.0, 0.12185554259437688
350.0, 0.13075293979540478
351.0, 0.13348430517657983
352.0, 0.13036680808254208
353.0, 0.12984863821972606
354.0, 0.13140108162384606
355.0, 0.13443010871422945
356.0, 0.1319297589544969
357.0, 0.1262463822791912
358.0, 0.12030442646464981
359.0, 0.10349196297909195
360.0, 0.09742776237126129
361.0, 0.09035502714502959
362.0, 0.07907609211290365
363.0, 0.071027165882644
364.0, 0.07513196592355553
365.0, 0.06279907974480647
366.0, 0.05076881914791827
367.0, 0.04775841500321342
368.0, 0.045994799614627206
369.0, 0.04654274420612174
370.0, 0.042736449695590074
371.0, 0.04657893964855272
372.0, 0.05882598241428063
373.0, 0.06643178745214957
374.0, 0.07471105307534176
375.0, 0.08717813559434111
376.0, 0.10267610496342207
377.0, 0.12134472810788009
378.0, 0.14526653177306306
379.0, 0.1669678793511065
380.0, 0.18370522886905732
381.0, 0.19775034372254854
382.0, 0.21177711315607267
383.0, 0.22654724965567694
384.0, 0.2464441039925418
385.0, 0.25305335063458967
386.0, 0.2587369486059062
387.0, 0.27371457817284534
388.0, 0.28365408107181544
389.0, 0.2893635340067816
390.0, 0.2924204190762954
391.0, 0.2908944584924725
392.0, 0.28392280193108954
393.0, 0.2736778721149752
394.0, 0.25162481270492415
395.0, 0.22431339402622572
396.0, 0.19780848847561844
397.0, 0.17186551391021018
398.0, 0.1404531150877659
399.0, 0.10884437415609365
400.0, 0.09402911537522333
401.0, 0.07918820713495896
402.0, 0.052195753551347056
403.0, 0.03736389192182095
404.0, 0.025695437090297518
405.0, 0.021414741674402143
406.0, 0.018543084144891652
407.0, 0.011940096137910246
408.0, 0.008966872102338866
409.0, 0.0037043807129662253
410.0, 0.001831489514725743
411.0, 0.0037204254893958974
412.0, 0.0055764121283217415
413.0, 0.005070980775852896
414.0, 0.013892590479207144
415.0, 0.017529043038505873
416.0, 0.012469159213532094
417.0, 0.008543887841806205
418.0, 0.020363471853071878
419.0, 0.023369479336339875
420.0, 0.028905899966163866
421.0, 0.03922189745260634
422.0, 0.05180453382282464
423.0, 0.06646716843630665
424.0, 0.07340365173106053
425.0, 0.0808153000039302
426.0, 0.08447343784880816
427.0, 0.08914456887260154
428.0, 0.12042788600549695
429.0, 0.1232922893783598
430.0, 0.13004339330818776
431.0, 0.14210561689926926
432.0, 0.14857589366893503
433.0, 0.14548623371596434
434.0, 0.1533450133577275
435.0, 0.16412557381953752
436.0, 0.17259630954810445
437.0, 0.17904205489035935
438.0, 0.18581808413123393
439.0, 0.19755495450297703
440.0, 0.19795799136701142
441.0, 0.19780403483277043
442.0, 0.2006807592288951
443.0, 0.19654698035479198
444.0, 0.18054186386558344
445.0, 0.1730134385388895
446.0, 0.1645456204210051
447.0, 0.1517083203401401
448.0, 0.13968569617232623
449.0, 0.12124380285228976
450.0, 0.11076679170050893
451.0, 0.10277522852241389
452.0, 0.09626878399545655
453.0, 0.09168617720069983
454.0, 0.07511708588859414
455.0, 0.057093974413966984
456.0, 0.05094347673247932
457.0, 0.04793169644177179
458.0, 0.03910338044453328
459.0, 0.03963384737733007
460.0, 0.03879934541181983
461.0, 0.035422908490223205
462.0, 0.032798867854692194
463.0, 0.03335618772328514
464.0, 0.03579994393899521
465.0, 0.031681098783147274
466.0, 0.02810696583913775
467.0, 0.026883198885672283
468.0, 0.02471725558373565
469.0, 0.015693084353591544
470.0, 0.013929689269917594
471.0, 0.013447754474180649
472.0, 0.008955455937616222
473.0, 0.0016509768305808764
474.0, 0.001840410906065395
475.0, 0.002036332782508659
476.0, 0.007159099066982913
477.0, 0.011550232844506951
478.0, 0.010724514139647506
479.0, 0.007585310653409668
480.0, 0.009315127215562947
481.0, 0.0018546456432335923
482.0, 0.0008226599370204316
483.0, 0.002570198598383281
484.0, 0.00604553544567866
485.0, 0.005400060933895572
486.0, 0.0017623238897676472
487.0, 0.0031344963366631033
488.0, 0.004344733456896985
489.0, 0.002755059119073013
490.0, 0.0015602383853255907
491.0, 0.000358574033643018
492.0, 0.002608746139198978
493.0, 0.0023062773170986336
494.0, 0.0008127579263145754
495.0, 0.0020864071302939776
496.0, 0.0050774459142988535
497.0, 0.0056049702902794315
498.0, 0.00364751792186194
499.0, 0.007862236941903997
500.0, 0.0175724965384668
501.0, 0.018668900271485114
502.0, 0.010994888704807925
503.0, 0.011561881446339118
504.0, 0.009912323252677487
505.0, 0.006057868169139805
506.0, 0.016696487520674614
507.0, 0.019955879635702924
508.0, 0.012746764439118327
509.0, 0.010000299351958656
510.0, 0.01208623229637335
511.0, 0.012107309591255194
512.0, 0.01977160510091492
513.0, 0.014710969497633383
514.0, 0.010394746708778898
515.0, 0.016042777154175063
516.0, 0.020622297001217607
517.0, 0.007030852933270073
518.0, 0.01118640350177738
519.0, 0.013661348118450819
520.0, 0.01357178692066738
521.0, 0.01448991591041675
522.0, 0.016179955125349803
523.0, 0.014796165252208112
524.0, 0.017403357453178496
525.0, 0.016679581525889935
526.0, 0.01562988282173215
527.0, 0.018993714931017425
528.0, 0.019531689484661094
529.0, 0.021197270153928117
530.0, 0.016660152339118595
531.0, 0.015193019025273185
532.0, 0.019362821805874304
533.0, 0.02003728948054054
534.0, 0.016838197051553674
535.0, 0.02114855000432347
536.0, 0.01957501258928378
537.0, 0.013057763061501193
538.0, 0.009042286395155686
539.0, 0.010156827334062113
540.0, 0.010402693052749502
541.0, 0.00516110580066128
542.0, 0.0061257867169904915
543.0, 0.008315870665359331
544.0, 0.002690061145733378
545.0, 0.0019206945829696445
546.0, 0.001975596906864197
547.0, 0.0024199939835339353
548.0, 0.004700135286301954
549.0, 0.005887075470078624
550.0, 0.004875814499520956
551.0, 0.0029324276605316624
552.0, 0.000669483722835079
553.0, 0.0007495381511203899
554.0, 0.0010683140651798501
555.0, 0.002908795304487313
556.0, 0.0009623455594305173
557.0, 0.0025516068360602606
558.0, 0.002724567157101434
559.0, 0.005181144996277408
560.0, 0.0022657353249105994
561.0, 0.007764424449519846
562.0, 0.006698095005911261
563.0, 0.005751581390118202
564.0, 0.007973208997015983
565.0, 0.011445028087293571
566.0, 0.013864978476256343
567.0, 0.018002495427043675
568.0, 0.009563142110265094
569.0, 0.01081071100319049
570.0, 0.01663353451320536
571.0, 0.015317543280751363
572.0, 0.012262883712254116
573.0, 0.009496826101073698
574.0, 0.0076737480596689054
575.0, 0.005803688136135133
576.0, 0.0060036632672079435
577.0, 0.00847824100325095
578.0, 0.005439334847573696
579.0, 0.001956701618722397
580.0, 0.0015667878767414156
581.0, 0.0032232987568285567
582.0, 0.0075765088245611355
583.0, 0.015006482500818413
584.0, 0.021273044766445013
585.0, 0.01978866017080956
586.0, 0.019921921870547688
587.0, 0.02758059650327305
588.0, 0.03334201091884941
589.0, 0.02094606888808911
590.0, 0.017415626494556736
591.0, 0.023282633339772135
592.0, 0.015635606760876112
593.0, 0.010489411211031347
594.0, 0.020530761583343403
595.0, 0.013045152712704618
596.0, 0.011547168371066866
597.0, 0.010682889779958403
598.0, 0.008186268187235153
599.0, 0.0069894875064836865
600.0, 0.0073205284102400205
601.0, 0.002158095788005237
602.0, 0.005112658775402408
603.0, 0.013853774837642734
604.0, 0.010677099476639649
605.0, 0.001366973419062785
606.0, 0.006448892087134301
607.0, 0.005010932782333314
608.0, 0.013904442817012237
609.0, 0.01578982182570707
610.0, 0.013902896271651663
611.0, 0.015424322751955818
612.0, 0.015907458685874027
613.0, 0.015137334456018864
614.0, 0.015129138306852282
615.0, 0.011133648445814133
616.0, 0.007596696297669098
617.0, 0.010742847649268123
618.0, 0.018479781796261033
619.0, 0.00816672952554708
620.0, 0.001103309581110013
621.0, 0.0036098550006812727
622.0, 0.00801541011600314
623.0, 0.0067820006754895894
624.0, 0.002798090317172966
625.0, 0.006670505897476913
626.0, 0.013323292698199122
627.0, 0.012668301983334372
628.0, 0.011301247566619358
629.0, 0.016989822391733463
630.0, 0.019247648462332432
631.0, 0.0238957420613477
632.0, 0.020236312087493852
633.0, 0.017114687665230503
634.0, 0.019340950452218925
635.0, 0.022507040003544046
636.0, 0.021298757360861568
637.0, 0.021099576287750433
638.0, 0.022163199714778533
639.0, 0.01865698024445861
640.0, 0.010470269841745216
641.0, 0.0032946842848737713
642.0, 0.000874913739836042
643.0, 0.001969332487706116
644.0, 0.001182188060870534
645.0, 0.002100333774043649
646.0, 0.0020595338852598924
647.0, 0.007713294302465551
648.0, 0.012413154838736945
649.0, 0.015867535611486107
650.0, 0.016055628937712747
651.0, 0.014633694507258594
652.0, 0.016221833837911287
653.0, 0.021150381284658085
654.0, 0.021681951735474405
655.0, 0.020430013564847284
656.0, 0.013515963648776278
657.0, 0.013734465622662026
658.0, 0.0159885028890109
659.0, 0.011804070185862771
660.0, 0.020469513544596602
661.0, 0.017646262044941664
662.0, 0.014914275935453167
663.0, 0.014772681752387546
664.0, 0.019062648589705227
665.0, 0.024915392786849233
666.0, 0.02052560698903422
667.0, 0.015123612581385707
668.0, 0.015855645115824803
669.0, 0.02388261655537041
670.0, 0.032015952986178126
671.0, 0.03227493467012062
672.0, 0.025163953428274217
673.0, 0.022196556459294713
674.0, 0.032296863141866694
675.0, 0.03760070367026505
676.0, 0.036157792482367966
677.0, 0.03735262646196205
678.0, 0.04182158820359543
679.0, 0.03316693472700745
680.0, 0.03980960785907872
681.0, 0.04498524560306003
682.0, 0.04383680965439272
683.0, 0.04352366622999922
684.0, 0.04654763418011097
685.0, 0.04658201690167673
686.0, 0.04171072487609365
687.0, 0.033624934925718546
688.0, 0.03035393219266406
689.0, 0.03503582998184062
690.0, 0.0416897116686175
691.0, 0.04319771537879518
692.0, 0.03486871204291706
693.0, 0.040191496733998786
694.0, 0.04412244394242915
695.0, 0.036610632632858936
696.0, 0.02902260081766094
697.0, 0.03797652556264322
698.0, 0.027539909602795457
699.0, 0.03197266697909617
700.0, 0.03165138709293909
701.0, 0.025825317653785488
702.0, 0.02477819070350842
703.0, 0.018840804196782083
704.0, 0.017065214329878158
705.0, 0.019835186658043194
706.0, 0.015746508239466446
707.0, 0.010007244904742807
708.0, 0.011650333485547414
709.0, 0.019302979602760048
710.0, 0.019182058390260787
711.0, 0.02345986476250581
712.0, 0.023799146016230302
713.0, 0.020298248304630204
714.0, 0.016278852137829185
715.0, 0.012148166751309291
716.0, 0.006142180229027681
717.0, 0.00710118353178125
718.0, 0.0018902836096975418
719.0, 0.0028535857829459044
720.0, 0.0036730614952158597
721.0, 0.006196319278037681
722.0, 0.010804007262288352
723.0, 0.012161777367759351
724.0, 0.00035075752946777837
725.0, 0.00513381539699518
726.0, 0.005913442744546718
727.0, 0.007071340664126071
728.0, 0.007150738647828661
729.0, 0.012096655758294632
730.0, 0.0034282980581894083
731.0, 0.004695882413801348
732.0, 0.0010029873330065443
733.0, 0.002772447870192667
734.0, 0.00628523487367071
735.0, 0.015997212966433024
736.0, 0.011184391362966882
737.0, 0.008601851212547564
738.0, 0.011126426273955709
739.0, 0.01463202973249858
740.0, 0.01744496376315974
741.0, 0.018789745776474177
742.0, 0.011007377668155282
743.0, 0.020869556979469083
744.0, 0.02685496682849252
745.0, 0.03137665826813886
746.0, 0.04293467946148048
747.0, 0.05577873091239599
748.0, 0.05856680422756676
749.0, 0.06707957444935829
750.0, 0.06734901530765042
751.0, 0.07088100211167515
752.0, 0.07963694772070566
753.0, 0.08611883597831384
754.0, 0.08601203609636543
755.0, 0.09016488251078715
756.0, 0.09059469374295913
757.0, 0.09398417202429801
758.0, 0.09581408511810463
759.0, 0.0902390376771632
760.0, 0.08378137462538576
761.0, 0.08362820716811878
762.0, 0.06780289478431605
763.0, 0.07629714490795894
764.0, 0.07350840828133676
765.0, 0.06199874671880263
766.0, 0.050915934349713185
767.0, 0.03978711137770014
768.0, 0.030578282257056374
769.0, 0.027696856828662964
770.0, 0.019498203869225402
771.0, 0.01398717319528238
772.0, 0.013772437640062949
773.0, 0.012339850608464492
774.0, 0.005817724782396503
775.0, 0.0009427360195644679
776.0, 0.0028290460929896216
777.0, 0.0008807682473502886
778.0, 0.0010200424625768651
779.0, 0.005070716716809916
780.0, 0.00806636122812037
781.0, 0.011925160230008872
782.0, 0.006907730045616239
783.0, 0.014401851553565765
784.0, 0.016883975940783197
785.0, 0.010801331941752788
786.0, 0.003689532599364676
787.0, 0.0034796419876962554
788.0, 0.008854414837644818
789.0, 0.004236385581950372
790.0, 0.006214173608652551
791.0, 0.01400049818272439
792.0, 0.018930089819518565
793.0, 0.0236266786563479
794.0, 0.028678217631035768
795.0, 0.033621470483308304
796.0, 0.04194226155252887
797.0, 0.03962129169156485
798.0, 0.0404953366892261
799.0, 0.04529259261428808
800.0, 0.056731151861353905
801.0, 0.07638803647858042
802.0, 0.0921881301225661
803.0, 0.09827853727817384
804.0, 0.09747714829947543
805.0, 0.11217951753549293
806.0, 0.13488979084553276
807.0, 0.15662896394624976
808.0, 0.17692346090848368
809.0, 0.20148690584247483
810.0, 0.24240853117722594
811.0, 0.2649680237543833
812.0, 0.29531961937102946
813.0, 0.34111920760778414
814.0, 0.3953705303321606
815.0, 0.451699633967754
816.0, 0.5048118391646569
817.0, 0.558294658275339
818.0, 0.6118191064292112
819.0, 0.6840709121379736
820.0, 0.7613748563964937
821.0, 0.8406709791035348
822.0, 0.9198104637298957
823.0, 0.9691006889525335
824.0, 0.9981313156729505
825.0, 0.981252554601819
826.0, 0.9208862270073821
827.0, 0.8152402068943434
828.0, 0.6877696068717234
829.0, 0.5691992094259973
830.0, 0.47027907699793436
831.0, 0.40583894599005127
832.0, 0.34538737019361004
833.0, 0.31164181330073176
834.0, 0.2850502937114211
835.0, 0.2710913814830223
836.0, 0.2761943126612531
837.0, 0.27848378639293503
838.0, 0.28653909699466645
839.0, 0.2947792707737913
840.0, 0.32600630611468145
841.0, 0.3560531367003687
842.0, 0.39205161948671374
843.0, 0.4424661122286501
844.0, 0.4914149811292944
845.0, 0.5362741757924707
846.0, 0.5902379814094916
847.0, 0.6265006599982834
848.0, 0.6529397600639623
849.0, 0.6643601035944873
850.0, 0.6604336763476575
851.0, 0.6470084576554094
852.0, 0.6180581285966904
853.0, 0.5954720210833896
854.0, 0.5739437215488056
855.0, 0.5563980937965988
856.0, 0.5476941721823895
857.0, 0.5403707749145777
858.0, 0.5368256897797378
859.0, 0.5550045669310714
860.0, 0.5729982314772986
861.0, 0.6060115548465168
862.0, 0.6461907811563804
863.0, 0.690562365062613
864.0, 0.7257312361362338
865.0, 0.7420223181713144
866.0, 0.7331191345041272
867.0, 0.6817230401333794
868.0, 0.5913847313604117
869.0, 0.4762277713978713
870.0, 0.37195207495993765
871.0, 0.2911145542083963
872.0, 0.2318712809594424
873.0, 0.19055125107243207
874.0, 0.16253056419930548
875.0, 0.14680612496768827
876.0, 0.1338524140491139
877.0, 0.12880072300381015
878.0, 0.12641376162722576
879.0, 0.12568354449839664
880.0, 0.13082696533660867
881.0, 0.13913628172650994
882.0, 0.13487077621223248
883.0, 0.14300980048408055
884.0, 0.1517674936348157
885.0, 0.161990840339829
886.0, 0.17875571073559113
887.0, 0.19278988697350008
888.0, 0.20449130473710114
889.0, 0.23336959750656053
890.0, 0.2615647513548192
891.0, 0.28276452678142405
892.0, 0.3133375220509579
893.0, 0.35234161162954747
894.0, 0.39117113333094927
895.0, 0.43763430528109
896.0, 0.49744276708647284
897.0, 0.553114193083246
898.0, 0.6108743364893432
899.0, 0.6920108302815243
900.0, 0.7605296026314347
901.0, 0.8367652003549729
902.0, 0.8995297831418615
903.0, 0.9184480374155426
904.0, 0.9010021568472237
905.0, 0.8441159223414528
906.0, 0.7379780969128935
907.0, 0.6209386428016082
908.0, 0.5112663482119414
909.0, 0.4182539211993919
910.0, 0.3338272188909976
911.0, 0.2552649537075255
912.0, 0.19493155580661467
913.0, 0.14598383906685963
914.0, 0.10895006687109923
915.0, 0.0901546829920802
916.0, 0.07648808478657426
917.0, 0.06562197500998448
918.0, 0.05391107843418772
919.0, 0.041456604768684284
920.0, 0.03700778246216781
921.0, 0.032599739526479904
922.0, 0.02383398468191551
923.0, 0.017084789927143323
924.0, 0.018976061472504146
925.0, 0.013106754788927002
926.0, 0.006022119326921825
927.0, 0.007092698325783395
928.0, 0.0006854968299755361
929.0, 0.005005899284318127
930.0, 0.0014821559021769527
931.0, 0.006628327379582455
932.0, 0.006426410892804529
933.0, 0.010448630810312868
934.0, 0.011259187686163819
935.0, 0.00769664500071454
936.0, 0.019549399499520732
937.0, 0.018568161188276085
938.0, 0.012422265493651694
939.0, 0.006107529468133565
940.0, 0.00475693723664376
941.0, 0.007155439161218044
942.0, 0.008397632385845165
943.0, 0.005739420278966666
944.0, 0.0022730666246949306
945.0, 0.0025238857801326317
946.0, 0.009540450299810927
947.0, 0.009891563246734675
948.0, 0.00994111459469021
949.0, 0.004487507530196961
950.0, 0.0030459517358921444
951.0, 0.007718551144898749
952.0, 0.00606286822678803
953.0, 0.016112782530870225
954.0, 0.016229153863358884
955.0, 0.02590615952629042
956.0, 0.019609695662438885
957.0, 0.022184092843052023
958.0, 0.023615095868592492
959.0, 0.014235659861582761
960.0, 0.013505099450545448
961.0, 0.01688158513018336
962.0, 0.01554645669782504
963.0, 0.01886744754190728
964.0, 0.010433391050201109
965.0, 0.015427773160140023
966.0, 0.016324188693059197
967.0, 0.006974666490321854
968.0, 0.00939520040722385
969.0, 0.02588353588713747
970.0, 0.02297944104133336
971.0, 0.021938244657750204
972.0, 0.02488275991968415
973.0, 0.03334280753370885
974.0, 0.03485015655570242
975.0, 0.03285640755959049
976.0, 0.03248887092232283
977.0, 0.032196363072286474
978.0, 0.042110395878351574
979.0, 0.051323990104578894
980.0, 0.05442106384275431
981.0, 0.05612014041538143
982.0, 0.05115360613824394
983.0, 0.05113203706413657
984.0, 0.05219182591472544
985.0, 0.04751173541061328
986.0, 0.05153535859134519
987.0, 0.055485616895199465
988.0, 0.061235111611059594
989.0, 0.05453729643214727
990.0, 0.05595762872786489
991.0, 0.055490066940704304
992.0, 0.046879892404731664
993.0, 0.03902461598685884
994.0, 0.03489670068267225
995.0, 0.031076314981378108
996.0, 0.024527060594599238
997.0, 0.027047040386442213
998.0, 0.020410732006233723
999.0, 0.0078116571194810575
1000.0, 0.01431186673657707
1001.0, 0.024973369603988427
1002.0, 0.021409123328746973
1003.0, 0.01962490318383968
1004.0, 0.024516250811284376
1005.0, 0.03327661229823687
1006.0, 0.035985399160412615
1007.0, 0.02684755976799315
1008.0, 0.023856185718802964
1009.0, 0.02439205895216584
1010.0, 0.025246974189121755
1011.0, 0.02978200350155091
1012.0, 0.03323265742943922
1013.0, 0.032367851422256885
1014.0, 0.03612991007143603
1015.0, 0.032324571767177505
1016.0, 0.03045216484836795
1017.0, 0.02929479549640167
1018.0, 0.030520323365531815
1019.0, 0.035085709141418286
1020.0, 0.03751317989537556
1021.0, 0.03449989636923317
1022.0, 0.0319669194979699
1023.0, 0.027415615266231316
1024.0, 0.026688154924016102
1025.0, 0.022252012074172142
1026.0, 0.022692781335255298
1027.0, 0.023094634453233082
1028.0, 0.027343296678350712
1029.0, 0.02887666119976576
1030.0, 0.022024514390591284
1031.0, 0.033427969236856
1032.0, 0.028105814014238863
1033.0, 0.02840058062478387
1034.0, 0.027302443494910133
1035.0, 0.03648031328564255
1036.0, 0.03762444518524544
1037.0, 0.03190384851285182
1038.0, 0.030813403908395893
1039.0, 0.027783677105396903
1040.0, 0.013663341097804461
1041.0, 0.007270136966696683
1042.0, 0.010973870541226796
1043.0, 0.0044623032492594255
1044.0, 0.00518648233410213
1045.0, 0.0026715681341241975
1046.0, 0.0032808241225889966
1047.0, 0.009880723647860188
1048.0, 0.005719047222515148
1049.0, 0.0089480732930599
1050.0, 0.00905056485843873
1051.0, 0.017711246272062605
1052.0, 0.006825786836032188
1053.0, 0.015610377713439153
1054.0, 0.017787793211444018
1055.0, 0.016292898015146433
1056.0, 0.01640159852250607
1057.0, 0.015315291726896914
1058.0, 0.014903054524042694
1059.0, 0.004583535569840666
1060.0, 0.00844223522037313
1061.0, 0.0013180960169488177
1062.0, 0.004511341741136265
1063.0, 0.009272195733534863
1064.0, 0.01119806193130608
1065.0, 0.003870812729927827
1066.0, 0.0026569571444437293
1067.0, 0.0007034993429042782
1068.0, 0.001599000754970464
1069.0, 0.005755679159438129
1070.0, 0.003690509458744819
1071.0, 0.00460508555698548
1072.0, 0.0006761120902622754
1073.0, 0.00057833727302809
1074.0, 0.0017913191446733783
1075.0, 0.0075593844685107915
1076.0, 0.016901625838966088
1077.0, 0.014119639279936959
1078.0, 0.018609810337913264
1079.0, 0.011516193279996402
1080.0, 0.015409061673750779
1081.0, 0.019624805173221634
1082.0, 0.011823889557065198
1083.0, 0.018809003339275675
1084.0, 0.017647760523946784
1085.0, 0.016370311148859545
1086.0, 0.016066542293718927
1087.0, 0.00611781688599149
1088.0, 0.009634475493408574
1089.0, 0.014609921081123684
1090.0, 0.009071743508795936
1091.0, 0.009994702468888094
1092.0, 0.01737984821373699
1093.0, 0.02285136755594931
1094.0, 0.0189009642929944
1095.0, 0.01951341417408097
1096.0, 0.018942448660947315
1097.0, 0.011647985932950912
1098.0, 0.015824978362012965
1099.0, 0.012964958405154143
1100.0, 0.015600136101281479
1101.0, 0.007745704938352918
1102.0, 0.008623179841802164
1103.0, 0.005995764417499778
1104.0, 0.007723935139438082
1105.0, 0.011504358029448465
1106.0, 0.018122354429407468
1107.0, 0.021894853240591202
1108.0, 0.013840058536696467
1109.0, 0.019499982648754594
1110.0, 0.013351624088918237
1111.0, 0.010292974869996181
1112.0, 0.02353019608568692
1113.0, 0.01294543861958982
1114.0, 0.012386090002786936
1115.0, 0.01146716537926855
1116.0, 0.006168058238091611
1117.0, 0.005083048934934244
1118.0, 0.004708805736373839
1119.0, 0.009795421024175847
1120.0, 0.016233506996287762
1121.0, 0.016061558302072114
1122.0, 0.018260155335537966
1123.0, 0.01651825646071138
1124.0, 0.012737820812352073
1125.0, 0.007669641029195139
1126.0, 0.004763605676564694
1127.0, 0.011417613707875425
1128.0, 0.016582943112151978
1129.0, 0.00483141048670091
1130.0, 0.0010833810286013782
1131.0, 0.006071305011181111
1132.0, 8.970438472462074e-05
1133.0, 0.004512818785469922
1134.0, 0.010657926915652672
1135.0, 0.01625302109937114
1136.0, 0.014940251294615141
1137.0, 0.013982542372252913
1138.0, 0.017764456279728797
1139.0, 0.01947050334799612
1140.0, 0.01558026697293124
1141.0, 0.008425665191440475
1142.0, 0.014741719811035647
1143.0, 0.008319911510688114
1144.0, 0.00885416429747573
1145.0, 0.008294420708175631
1146.0, 0.007011885388343095
1147.0, 0.008777810361578323
1148.0, 0.012140921540334802
1149.0, 0.01630610255411552
1150.0, 0.018794285480549636
1151.0, 0.01631560470923893
1152.0, 0.017527161049523447
1153.0, 0.028480294877355396
1154.0, 0.021128862325722954
1155.0, 0.02119270406173375
1156.0, 0.02361115540970333
1157.0, 0.024198641566864146
1158.0, 0.019593088142308555
1159.0, 0.011492992312935272
1160.0, 0.007263911045715588
1161.0, 0.00882206560450093
1162.0, 0.00800867352572688
1163.0, 0.0028576704677448508
1164.0, 0.002174597237585203
1165.0, 0.002051512105942008
1166.0, 0.00785469517478203
1167.0, 0.012976461935109334
1168.0, 0.017540067734705775
1169.0, 0.013220935054425795
1170.0, 0.013887152398258608
1171.0, 0.01862479612162365
1172.0, 0.020517799911301506
1173.0, 0.018836542598527965
1174.0, 0.01157782248431909
1175.0, 0.004821950762453395
1176.0, 0.004957017527175147
1177.0, 0.008428238795072878
1178.0, 0.004225880049916128
1179.0, 0.0009067165230702449
1180.0, 0.004144971303921887
1181.0, 0.0005835172146114391
1182.0, 0.0035182911350146624
1183.0, 0.0005331417706875618
1184.0, 0.0010759420177142726
1185.0, 0.006991558340988503
1186.0, 0.010600810477674293
1187.0, 0.004893083292546237
1188.0, 0.006611466830110253
1189.0, 0.0019101326051495673
1190.0, 0.007103264081720841
1191.0, 0.0056159193330823235
1192.0, 0.0021575977278160455
1193.0, 0.002721487244191879
1194.0, 0.0028646072915246854
1195.0, 0.002372561345639164
1196.0, 0.00493240375471196
1197.0, 0.015181950859352596
1198.0, 0.021037366235590015
1199.0, 0.015543986396862284
1200.0, 0.01553912288316431
1201.0, 0.01661931170046266
1202.0, 0.011832219862684347
1203.0, 0.008634597506762105
1204.0, 0.00852913402763988
1205.0, 0.017631448558749457
1206.0, 0.021989429507583928
1207.0, 0.016874775845895064
1208.0, 0.01444222132379065
1209.0, 0.017624893752535592
1210.0, 0.018678128912004623
1211.0, 0.01947152322383807
1212.0, 0.020482863412158745
1213.0, 0.01913131489637517
1214.0, 0.02765433865589454
1215.0, 0.02076516281010359
1216.0, 0.02092914519581096
1217.0, 0.017227580088110338
1218.0, 0.012917454543836894
1219.0, 0.007478775681270859
1220.0, 0.0033712083176276144
1221.0, 0.005410050312542654
1222.0, 0.006308897954234481
1223.0, 0.0022665543743438567
1224.0, 0.005589044421963811
1225.0, 0.005305614683092184
1226.0, 0.011342028337052931
1227.0, 0.0002747469328450607
1228.0, 0.010279092530646948
1229.0, 0.005749775698530079
1230.0, 0.0029461345117125087
1231.0, 0.013452984610768293
1232.0, 0.015097132593166526
1233.0, 0.017791966878626383
1234.0, 0.025392714883856887
1235.0, 0.02295227437867444
1236.0, 0.011897315311753181
1237.0, 0.004626628056310562
1238.0, 0.019947018603635132
1239.0, 0.002429956889206387
1240.0, 0.005801679110745953
1241.0, 0.003448979116941564
1242.0, 0.011843654970914577
1243.0, 0.005669150495214104
1244.0, 0.003980395262381075
1245.0, 0.009442701907347344
1246.0, 0.006226966615591951
1247.0, 0.007674623918991371
1248.0, 0.015109111012836544
1249.0, 0.018368260712809746
1250.0, 0.026070838395411654
1251.0, 0.021984368704200802
1252.0, 0.03399400191266818
1253.0, 0.025783819665314442
1254.0, 0.02898537035414554
1255.0, 0.03061903912615215
1256.0, 0.02933613825208334
1257.0, 0.020465550618271405
1258.0, 0.02722884377178922
1259.0, 0.0285640668457887
1260.0, 0.016900051243916997
1261.0, 0.01156333363483773
1262.0, 0.014633910353008657
1263.0, 0.019250427875376477
1264.0, 0.023595583145775326
1265.0, 0.01878938367650883
1266.0, 0.02023105576250204
1267.0, 0.018771534108803813
1268.0, 0.028598579110339938
1269.0, 0.02932231040637252
1270.0, 0.03441541540316475
1271.0, 0.02568871075581013
1272.0, 0.02566934139704924
1273.0, 0.027462226187975912
1274.0, 0.017398725728189113
1275.0, 0.02169928792541606
1276.0, 0.01963215281917814
1277.0, 0.002822926395065519
1278.0, 0.009486037094132094
1279.0, 0.009768684263130746
1280.0, 0.014091770115719026
1281.0, 0.007211912988836296
1282.0, 0.009161341750285311
1283.0, 0.007143522154505554
1284.0, 0.0019315245566896477
1285.0, 0.0011698930097956248
1286.0, 0.007597540845277284
1287.0, 0.010002420601944012
1288.0, 0.007463503542735538
1289.0, 0.006104792408992677
1290.0, 0.004158104309705442
1291.0, 0.008921317231667718
1292.0, 0.01469239012680933
1293.0, 0.008056040521486781
1294.0, 0.005176672095043513
1295.0, 0.00987718274691283
1296.0, 0.010762462751053463
1297.0, 0.00564930043922325
1298.0, 0.018302004741946768
1299.0, 0.025191824206271713
1300.0, 0.020108210835633505
1301.0, 0.016550726983852418
1302.0, 0.014183785438716292
1303.0, 0.0003309345205418689
1304, 0.0
1305, 0.0
1306, 0.0
1307, 0.0
1308, 0.0
1309, 0.0
1310, 0.0
1311, 0.0
1312, 0.0
1313, 0.0
1314, 0.0
1315, 0.0
1316, 0.0
1317, 0.0
1318, 0.0
1319, 0.0
1320, 0.0
1321, 0.0
1322, 0.0
1323, 0.0
1324, 0.0
1325, 0.0
1326, 0.0
1327, 0.0
1328, 0.0
1329, 0.0
1330, 0.0
1331, 0.0
1332, 0.0
1333, 0.0
1334, 0.0
1335, 0.0
1336, 0.0
1337, 0.0
1338, 0.0
1339, 0.0
1340, 0.0
1341, 0.0
1342, 0.0
1343, 0.0
1344, 0.0
1345, 0.0
1346, 0.0
1347, 0.0
1348, 0.0
1349, 0.0
1350, 0.0
1351, 0.0
1352, 0.0
1353, 0.0
1354, 0.0
1355, 0.0
1356, 0.0
1357, 0.0
1358, 0.0
1359, 0.0
1360, 0.0
1361, 0.0
1362, 0.0
1363, 0.0
1364, 0.0
1365, 0.0
1366, 0.0
1367, 0.0
1368, 0.0
1369, 0.0
1370, 0.0
1371, 0.0
1372, 0.0
1373, 0.0
1374, 0.0
1375, 0.0
1376, 0.0
1377, 0.0
1378, 0.0
1379, 0.0
1380, 0.0
1381, 0.0
1382, 0.0
1383, 0.0
1384, 0.0
1385, 0.0
1386, 0.0
1387, 0.0
1388, 0.0
1389, 0.0
1390, 0.0
1391, 0.0
1392, 0.0
1393, 0.0
1394, 0.0
1395, 0.0
1396, 0.0
1397, 0.0
1398, 0.0
1399, 0.0
1400, 0.0
1401, 0.0
1402, 0.0
1403, 0.0
1404, 0.0
1405, 0.0
1406, 0.0
1407, 0.0
1408, 0.0
1409, 0.0
1410, 0.0
1411, 0.0
1412, 0.0
1413, 0.0
1414, 0.0
1415, 0.0
1416, 0.0
1417, 0.0
1418, 0.0
1419, 0.0
1420, 0.0
1421, 0.0
1422, 0.0
1423, 0.0
1424, 0.0
1425, 0.0
1426, 0.0
1427, 0.0
1428, 0.0
1429, 0.0
1430, 0.0
1431, 0.0
1432, 0.0
1433, 0.0
1434, 0.0
1435, 0.0
1436, 0.0
1437, 0.0
1438, 0.0
1439, 0.0
1440, 0.0
1441, 0.0
1442, 0.0
1443, 0.0
1444, 0.0
1445, 0.0
1446, 0.0
1447, 0.0
1448, 0.0
1449, 0.0
1450, 0.0
1451, 0.0
1452, 0.0
1453, 0.0
1454, 0.0
1455, 0.0
1456, 0.0
1457, 0.0
1458, 0.0
1459, 0.0
1460, 0.0
1461, 0.0
1462, 0.0
1463, 0.0
1464, 0.0
1465, 0.0
1466, 0.0
1467, 0.0
1468, 0.0
1469, 0.0
1470, 0.0
1471, 0.0
1472, 0.0
1473, 0.0
1474, 0.0
1475, 0.0
1476, 0.0
1477, 0.0
1478, 0.0
1479, 0.0
1480, 0.0
1481, 0.0
1482, 0.0
1483, 0.0
1484, 0.0
1485, 0.0
1486, 0.0
1487, 0.0
1488, 0.0
1489, 0.0
1490, 0.0
1491, 0.0
1492, 0.0
1493, 0.0
1494, 0.0
1495, 0.0
1496, 0.0
1497, 0.0
1498, 0.0
1499, 0.0
1500, 0.0
1501, 0.0
1502, 0.0
1503, 0.0
1504, 0.0
1505, 0.0
1506, 0.0
1507, 0.0
1508, 0.0
1509, 0.0
1510, 0.0
1511, 0.0
1512, 0.0
1513, 0.0
1514, 0.0
1515, 0.0
1516, 0.0
1517, 0.0
1518, 0.0
1519, 0.0
1520, 0.0
1521, 0.0
1522, 0.0
1523, 0.0
1524, 0.0
1525, 0.0
1526, 0.0
1527, 0.0
1528, 0.0
1529, 0.0
1530, 0.0
1531, 0.0
1532, 0.0
1533, 0.0
1534, 0.0
1535, 0.0
1536, 0.0
1537, 0.0
1538, 0.0
1539, 0.0
1540, 0.0
1541, 0.0
1542, 0.0
1543, 0.0
1544, 0.0
1545, 0.0
1546, 0.0
1547, 0.0
1548, 0.0
1549, 0.0
1550, 0.0
1551, 0.0
1552, 0.0
1553, 0.0
1554, 0.0
1555, 0.0
1556, 0.0
1557, 0.0
1558, 0.0
1559, 0.0
1560, 0.0
1561, 0.0
1562, 0.0
1563, 0.0
1564, 0.0
1565, 0.0
1566, 0.0
1567, 0.0
1568, 0.0
1569, 0.0
1570, 0.0
1571, 0.0
1572, 0.0
1573, 0.0
1574, 0.0
1575, 0.0
1576, 0.0
1577, 0.0
1578, 0.0
1579, 0.0
1580, 0.0
1581, 0.0
1582, 0.0
1583, 0.0
1584, 0.0
1585, 0.0
1586, 0.0
1587, 0.0
1588, 0.0
1589, 0.0
1590, 0.0
1591, 0.0
1592, 0.0
1593, 0.0
1594, 0.0
1595, 0.0
1596, 0.0
1597, 0.0
1598, 0.0
1599, 0.0
