30, 0.0
31, 0.0
32, 0.0
33, 0.0
34, 0.0
35, 0.0
36, 0.0
37, 0.0
38, 0.0
39, 0.0
40, 0.0
41, 0.0
42, 0.0
43, 0.0
44, 0.0
45, 0.0
46, 0.0
47, 0.0
48, 0.0
49, 0.0
50, 0.0
51, 0.0
52, 0.0
53, 0.0
54, 0.0
55, 0.0
56, 0.0
57, 0.0
58, 0.0
59, 0.0
60, 0.0
61, 0.0
62, 0.0
63, 0.0
64, 0.0
65, 0.0
66, 0.0
67, 0.0
68, 0.0
69, 0.0
70, 0.0
71, 0.0
72, 0.0
73, 0.0
74, 0.0
75, 0.0
76, 0.0
77, 0.0
78, 0.0
79, 0.0
80, 0.0
81, 0.0
82, 0.0
83, 0.0
84, 0.0
85, 0.0
86, 0.0
87, 0.0
88, 0.0
89, 0.0
90, 0.0
91, 0.0
92, 0.0
93, 0.0
94, 0.0
95, 0.0
96, 0.0
97, 0.0
98, 0.0
99, 0.0
100, 0.0
101, 0.0
102, 0.0
103, 0.0
104, 0.0
105, 0.0
106, 0.0
107, 0.0
108, 0.0
109, 0.0
110, 0.0
111, 0.0
112, 0.0
113, 0.0
114, 0.0
115, 0.0
116, 0.0
117, 0.0
118, 0.0
119, 0.0
120, 0.0
121, 0.0
122, 0.0
123, 0.0
124, 0.0
125, 0.0
126, 0.0
127, 0.0
128, 0.0
129, 0.0
130, 0.0
131, 0.0
132, 0.0
133, 0.0
134, 0.0
135, 0.0
136, 0.0
137, 0.0
138, 0.0
139, 0.0
140, 0.0
141, 0.0
142, 0.0
143, 0.0
144, 0.0
145, 0.0
146, 0.0
147, 0.0
148, 0.0
149, 0.0
150.0, 0.006199361478380143
151.0, 0.0006544412760702494
152.0, 0.013856379916704275
153.0, 0.027776932476515262
154.0, 0.05488348831079821
155.0, 0.08212236027848983
156.0, 0.10286376072218084
157.0, 0.1200994278537752
158.0, 0.14622565872044563
159.0, 0.19036895330612805
160.0, 0.24966904282802907
161.0, 0.317683071744107
162.0, 0.39833523493319883
163.0, 0.48966185274835944
164.0, 0.5881855989095829
165.0, 0.6783431631872863
166.0, 0.7325281211934449
167.0, 0.7500921403310491
168.0, 0.7340078672790281
169.0, 0.6850437410540255
170.0, 0.601360170330528
171.0, 0.5063476417260107
172.0, 0.4072298488094935
173.0, 0.3155546081511183
174.0, 0.24060522915550844
175.0, 0.17758453720396247
176.0, 0.13478358363860402
177.0, 0.0965813485902011
178.0, 0.06021754937322188
179.0, 0.05873949600141667
180.0, 0.052372227025111906
181.0, 0.049502086301953165
182.0, 0.05565324060411687
183.0, 0.06681199041978363
184.0, 0.07587961133613745
185.0, 0.08655756295847875
186.0, 0.10059697944836438
187.0, 0.11243700761831318
188.0, 0.11641293409788254
189.0, 0.12002256959615076
190.0, 0.12442449590362199
191.0, 0.12900910143182406
192.0, 0.1345450068764834
193.0, 0.13645422133919322
194.0, 0.1367003954808823
195.0, 0.1381344767196683
196.0, 0.14454001677776857
197.0, 0.15001449600749153
198.0, 0.15633313606657606
199.0, 0.1597616162930127
200.0, 0.1604438292499521
201.0, 0.16330680169235431
202.0, 0.1605528120724665
203.0, 0.1487030220285384
204.0, 0.1312989598404947
205.0, 0.1147764290706901
206.0, 0.10060282847761921
207.0, 0.08520615033214589
208.0, 0.06851431974888403
209.0, 0.04725329079641602
210.0, 0.033294085626714376
211.0, 0.019594653611358648
212.0, 0.01003224178753638
213.0, 0.00600878892499217
214.0, 0.0028856729978188663
215.0, 0.002106724182980015
216.0, 0.008519523625244555
217.0, 0.010961658206527716
218.0, 0.005521926640608814
219.0, 0.0015794493687421311
220.0, 0.013637035369337854
221.0, 0.030236889363337092
222.0, 0.04720123323555711
223.0, 0.06352968132815565
224.0, 0.08751899732126815
225.0, 0.11165136690673537
226.0, 0.13516907305477852
227.0, 0.15817672694390544
228.0, 0.1681675537036265
229.0, 0.1754376281429743
230.0, 0.17606963813491808
231.0, 0.16785062585839125
232.0, 0.15613562139870144
233.0, 0.1369588831628909
234.0, 0.11349190665071718
235.0, 0.08936774096024909
236.0, 0.06695744473587044
237.0, 0.0428184169585488
238.0, 0.024325185665548036
239.0, 0.011863219110415227
240.0, 0.0035595136741917418
241.0, 0.011403701673616373
242.0, 0.019131605971012204
243.0, 0.022005301619722157
244.0, 0.021964574140167552
245.0, 0.021278640362915793
246.0, 0.02322028461087512
247.0, 0.017575728012621777
248.0, 0.010003593002082362
249.0, 0.003597573498842665
250.0, 0.005149100579643719
251.0, 0.013424959131215065
252.0, 0.025489375622002017
253.0, 0.03772661533081424
254.0, 0.047406221169700696
255.0, 0.06419340795983257
256.0, 0.08138140272252031
257.0, 0.09766844999532728
258.0, 0.11564490548618107
259.0, 0.13858236411542835
260.0, 0.16164207079166473
261.0, 0.18489192920571776
262.0, 0.21087917204081905
263.0, 0.24102279098338975
264.0, 0.2728141484333129
265.0, 0.3036657283778894
266.0, 0.33699011944146057
267.0, 0.3734558513852241
268.0, 0.4113096302276499
269.0, 0.4495494589111809
270.0, 0.4907128612474584
271.0, 0.5337339433374348
272.0, 0.5760565373223336
273.0, 0.6156203657492932
274.0, 0.6616647066115733
275.0, 0.7042342231195554
276.0, 0.7444503098696358
277.0, 0.7873518611954426
278.0, 0.8312266126558883
279.0, 0.8657874621874487
280.0, 0.8959359262986939
281.0, 0.9244633180819892
282.0, 0.9494798939545792
283.0, 0.9717088494106922
284.0, 0.9889300886028874
285.0, 0.998360019401114
286.0, 0.9999900496156895
287.0, 0.9975141276556836
288.0, 0.9918217703663235
289.0, 0.9755342068677213
290.0, 0.9525438158481043
291.0, 0.9309714347850786
292.0, 0.9095890804565504
293.0, 0.8828450547249976
294.0, 0.8585082362510509
295.0, 0.8407682628740143
296.0, 0.8261729257087516
297.0, 0.8101079029065231
298.0, 0.7973922797438294
299.0, 0.7869140559637514
300.0, 0.7760637801093112
301.0, 0.763637976741583
302.0, 0.7570960501057453
303.0, 0.7534541650931927
304.0, 0.7466857081956305
305.0, 0.7364520717358297
306.0, 0.7332149552691414
307.0, 0.7239912510335015
308.0, 0.7087841945825207
309.0, 0.6890252935103474
310.0, 0.6647876928762674
311.0, 0.6371432126914425
312.0, 0.6058169509987754
313.0, 0.5743929065618477
314.0, 0.5434132312936407
315.0, 0.5088596304410221
316.0, 0.47080046880963294
317.0, 0.44567020910135097
318.0, 0.4248013830987262
319.0, 0.39878674662509217
320.0, 0.37608772916031724
321.0, 0.35922038632753345
322.0, 0.34109489038601626
323.0, 0.324544309239103
324.0, 0.3142752808924159
325.0, 0.3002744034167976
326.0, 0.2883032787219609
327.0, 0.27885646624613164
328.0, 0.2697831922151272
329.0, 0.25889129605925565
330.0, 0.247602385938709
331.0, 0.23678701910482722
332.0, 0.22754594116314444
333.0, 0.21917112355133855
334.0, 0.2080488092803346
335.0, 0.19677859559564115
336.0, 0.18842475512958762
337.0, 0.18061339096888612
338.0, 0.1715784146626954
339.0, 0.16493547948743995
340.0, 0.15674528205214866
341.0, 0.14892829634341517
342.0, 0.14170003059587005
343.0, 0.1335284917609167
344.0, 0.12312676215885675
345.0, 0.11635406654757055
346.0, 0.1103938149951571
347.0, 0.10332499721527053
348.0, 0.09533845676644816
349.0, 0.08663950103948082
350.0, 0.07971142285616767
351.0, 0.0737062573034914
352.0, 0.06702827227189023
353.0, 0.05960935562478623
354.0, 0.05482445016213115
355.0, 0.04827799326567749
356.0, 0.04378824176930306
357.0, 0.04137860901244477
358.0, 0.03543908686556447
359.0, 0.03316644961782211
360.0, 0.03021618634520516
361.0, 0.02796217175462047
362.0, 0.026980442587991236
363.0, 0.023975003770655957
364.0, 0.018780026235702404
365.0, 0.016434143590867152
366.0, 0.015574669199941011
367.0, 0.013926519202902209
368.0, 0.012118263684645018
369.0, 0.011037942816327601
370.0, 0.011741065400082506
371.0, 0.011237113547956453
372.0, 0.008037774901785874
373.0, 0.007841532522242622
374.0, 0.005378052361537116
375.0, 0.004166790723788784
376.0, 0.004057463487714139
377.0, 0.002904394114765604
378.0, 0.0010703364186075536
379.0, 0.0010130056120739729
380.0, 0.00044148268922663154
381.0, 0.00019076786691174454
382.0, 0.0033479537407529827
383.0, 0.0023424854438173215
384.0, 0.00244296769923971
385.0, 0.0022498499816448565
386.0, 0.0022548187664490267
387.0, 0.0035325101353662386
388.0, 0.002642042826826157
389.0, 0.001341079967809399
390.0, 0.002208050428660437
391.0, 0.004105109532966175
392.0, 0.004137361013221441
393.0, 0.001842090441335465
394.0, 0.001234587666335524
395.0, 0.002009574718653074
396.0, 0.003079994821195371
397.0, 0.003645587823486971
398.0, 0.0022881567692435616
399.0, 0.0025437271110328656
400.0, 0.0025349237181015952
401.0, 0.0017029304894197132
402.0, 0.0010281330787573668
403.0, 0.001102100116289982
404.0, 0.0010953998719779067
405.0, 0.0016737092296801553
406.0, 0.0020037183601040467
407.0, 0.0005825549663705911
408.0, 0.0014984417242568135
409.0, 0.001254129227422299
410.0, 0.0012507737151832865
411.0, 0.0016246401996543648
412.0, 0.0010384415499453564
413.0, 0.0022082765967441948
414.0, 0.0018083402623189468
415.0, 0.0018394270237081158
416.0, 0.0027767762538745975
417.0, 0.003170330679110833
418.0, 0.002444782963786188
419.0, 0.003452875968006318
420.0, 0.0035047464278916865
421.0, 0.00267282842342875
422.0, 0.0027757567881205596
423.0, 0.0034986845632385757
424.0, 0.0052140317207375496
425.0, 0.006249718631857913
426.0, 0.006888132822387265
427.0, 0.00798820515028135
428.0, 0.008668970862081899
429.0, 0.009343006834366386
430.0, 0.011084633986154675
431.0, 0.012884322034007033
432.0, 0.014036158043026393
433.0, 0.016786985905553435
434.0, 0.01947970228863903
435.0, 0.02302172824248999
436.0, 0.026230204180469858
437.0, 0.028662176410762824
438.0, 0.032920865835246546
439.0, 0.031791521618946966
440.0, 0.029152075378249837
441.0, 0.02642869762420089
442.0, 0.02296074671789805
443.0, 0.018932097948407365
444.0, 0.018179669624760253
445.0, 0.018923282707153072
446.0, 0.01965523903298069
447.0, 0.019590862555648618
448.0, 0.018669321710222085
449.0, 0.021527437694288366
450.0, 0.02267728784712263
451.0, 0.021103549909114845
452.0, 0.018597085301918646
453.0, 0.01758988833529651
454.0, 0.01332788642838726
455.0, 0.008911971282224334
456.0, 0.007155105057015446
457.0, 0.0064334322513979105
458.0, 0.004186997658701682
459.0, 0.004189691446026966
460.0, 0.004215182693731044
461.0, 0.003641558938324701
462.0, 0.003211783812478748
463.0, 0.0034530662284590276
464.0, 0.00457993208848192
465.0, 0.0029943430867398245
466.0, 0.0021614382291417957
467.0, 0.002099464143134905
468.0, 0.0016841915130563067
469.0, 0.0011034737176947825
470.0, 0.002455417006727585
471.0, 0.001691391171880145
472.0, 0.0015030784399609925
473.0, 0.0027735750162342044
474.0, 0.001473424539269492
475.0, 0.0004308197544211252
476.0, 0.0001727545369751275
477.0, 0.00038562060735158334
478.0, 0.0007267093904177759
479.0, 0.0008983559351877463
480.0, 0.0003015754025626944
481.0, 0.0002259561290849213
482.0, 0.0014104352494335778
483.0, 0.0021236509165349434
484.0, 0.0009923634961631937
485.0, 0.0006734808720832478
486.0, 0.0014076978329305373
487.0, 0.002746377407148736
488.0, 0.0021219348514823775
489.0, 0.0003300554698432098
490.0, 0.000697829007157375
491.0, 0.0008978487939639805
492.0, 0.002076961242682654
493.0, 0.0023836728791574373
494.0, 0.001248319079368712
495.0, 0.0008951136858933769
496.0, 0.0012910859157741577
497.0, 0.0014036134807606736
498.0, 0.000462531939486678
499.0, 0.0006873993293069273
500.0, 0.0003278911363494031
501.0, 0.0012790961065878405
502.0, 0.0012922852930475283
503.0, 0.0007280677188531432
504.0, 0.00013307310755517182
505.0, 0.0001419353865061942
506.0, 0.0010025836180550189
507.0, 0.0008206326149892434
508.0, 0.0005844307157793033
509.0, 0.0015194712577206032
510.0, 0.002426280485308007
511.0, 0.0010551550714611032
512.0, 0.0006197164706043021
513.0, 0.0009651344015440867
514.0, 0.0022625805740425172
515.0, 0.0026461191518852493
516.0, 0.0014004401765140707
517.0, 0.0016315381655044013
518.0, 0.0021674798014391533
519.0, 0.0005932913639986586
520.0, 0.00020408691066530382
521.0, 0.0018945644993006063
522.0, 0.0013532707945792192
523.0, 0.00151123531208057
524.0, 0.002427294555623535
525.0, 0.0037603724945453306
526.0, 0.0037679382797871264
527.0, 0.0020807479604002008
528.0, 0.0027250632366569287
529.0, 0.002845263087012572
530.0, 0.003240225771360507
531.0, 0.003114071365853439
532.0, 0.002371234133808293
533.0, 0.0030837461782201696
534.0, 0.0031216501560148726
535.0, 0.003052062968564431
536.0, 0.003034266893447512
537.0, 0.0032153275286871006
538.0, 0.003254789988973375
539.0, 0.001654585725620066
540.0, 0.0021869369838026474
541.0, 0.003222601841374132
542.0, 0.003551114969148934
543.0, 0.0034852090451627667
544.0, 0.0034987669149225847
545.0, 0.0020791789870162536
546.0, 0.0019213490747067652
547.0, 0.0020802450505673278
548.0, 0.0019131508400998772
549.0, 0.0016786319106165011
550.0, 0.002635911055031601
551.0, 0.002391319102658184
552.0, 0.002085921934912386
553.0, 0.0021305894134487965
554.0, 0.0018168235758946568
555.0, 0.00045697953055274566
556.0, 0.00018840380222527356
557.0, 0.0010806778066820388
558.0, 0.0007618529994611502
559.0, 0.00010138950510430158
560.0, 0.0005291494805697905
561.0, 0.0014102598135783467
562.0, 0.001007620396052894
563.0, 0.0011020278065927442
564.0, 0.00031148126306472144
565.0, 0.0005584190012634832
566.0, 0.000577333069956004
567.0, 0.0002491727132724123
568.0, 0.0010483327740651812
569.0, 0.0014451142233025207
570.0, 0.001346888046504478
571.0, 0.001603199869538879
572.0, 0.0020723030620040292
573.0, 5.108726264304594e-05
574.0, 0.00022905193338205622
575.0, 0.0002863236007709429
576.0, 0.000572328423591777
577.0, 0.0016774170091106708
578.0, 0.0007272959104411765
579.0, 0.0009640688254681078
580.0, 0.0015793648694893362
581.0, 0.0025355435658465674
582.0, 0.003688540506822691
583.0, 0.004012628958770518
584.0, 0.0026691004229319956
585.0, 0.0024509012335922143
586.0, 0.0023760280055876836
587.0, 0.0030580128934028054
588.0, 0.004739826686194573
589.0, 0.005444386028304958
590.0, 0.00662896780606732
591.0, 0.007512875702883065
592.0, 0.008115240090318422
593.0, 0.008935625125818143
594.0, 0.009961823608806429
595.0, 0.010293130337912362
596.0, 0.011545336733250084
597.0, 0.012293247649381063
598.0, 0.013531259077698499
599.0, 0.016025194814373377
600.0, 0.018896681249691693
601.0, 0.020100113684616623
602.0, 0.02199848856881804
603.0, 0.022470061757783915
604.0, 0.022538834125390456
605.0, 0.024187770200647073
606.0, 0.027127811038100566
607.0, 0.027391443659238738
608.0, 0.028373318693412957
609.0, 0.030078864592836388
610.0, 0.031377439825949906
611.0, 0.03214006965107347
612.0, 0.03314241327684085
613.0, 0.03433816871190213
614.0, 0.034621357565406165
615.0, 0.03576407146867592
616.0, 0.03741172247978838
617.0, 0.037892377505431146
618.0, 0.03708831462823479
619.0, 0.0391650856988511
620.0, 0.040913085550954555
621.0, 0.04013051828408406
622.0, 0.038682370710632165
623.0, 0.039331389506500315
624.0, 0.04215335700215902
625.0, 0.04205118611321825
626.0, 0.04102399610215522
627.0, 0.039680426628544326
628.0, 0.038412169430856194
629.0, 0.03785266194211368
630.0, 0.03773432733666729
631.0, 0.03635082163805486
632.0, 0.03505642570839765
633.0, 0.03422039978800647
634.0, 0.034172204058347866
635.0, 0.03447934144974752
636.0, 0.03256968330320778
637.0, 0.030281049865859663
638.0, 0.029207574512035935
639.0, 0.028707107669762782
640.0, 0.027766403035013643
641.0, 0.026695771724515757
642.0, 0.026515922478792742
643.0, 0.02439968330871408
644.0, 0.02278029683644386
645.0, 0.022070451226648073
646.0, 0.021415802480838166
647.0, 0.02040398945459889
648.0, 0.019722693815843132
649.0, 0.018677191287307656
650.0, 0.018054989661039928
651.0, 0.018477239286858006
652.0, 0.018598868790053447
653.0, 0.017358541390101272
654.0, 0.017867473893032202
655.0, 0.016319849959459343
656.0, 0.016699920161067937
657.0, 0.016749175525499035
658.0, 0.015165136835999874
659.0, 0.014349357881829108
660.0, 0.016305653132430212
661.0, 0.015764230873067466
662.0, 0.014001046918743884
663.0, 0.01362645144901318
664.0, 0.013304639561955274
665.0, 0.01156091225703405
666.0, 0.011936394068965244
667.0, 0.011040929569215664
668.0, 0.010463874792893691
669.0, 0.010289835594515155
670.0, 0.010184439975920324
671.0, 0.009807547390734061
672.0, 0.00889848109650526
673.0, 0.008444368212376234
674.0, 0.007037512144302726
675.0, 0.005819426439581146
676.0, 0.005281214211120973
677.0, 0.00476504336795021
678.0, 0.0038933658474070237
679.0, 0.002918936266899125
680.0, 0.003187099774393472
681.0, 0.0015415477372561679
682.0, 0.0004434681188783858
683.0, 0.0013351068782620483
684.0, 0.00017629737291436915
685.0, 0.00019134171227870733
686.0, 0.00038370005726160903
687.0, 0.0005586535421336483
688.0, 0.0007025658673862781
689.0, 0.0011767417175611306
690.0, 0.0012777640702015655
691.0, 0.0013386661352832508
692.0, 0.0007205963842712535
693.0, 0.0003515854781466755
694.0, 0.000487940179996392
695.0, 0.0005010189909917904
696.0, 0.001268664064751077
697.0, 0.00024777158378951845
698.0, 0.0013867744743392644
699.0, 0.0005348962906490764
700.0, 0.0003462995514207057
701.0, 0.001099266474431275
702.0, 0.001527203999267765
703.0, 0.0016196326621879128
704.0, 0.0006600231909447894
705.0, 0.00018453240299975835
706.0, 0.00011206198314585163
707.0, 5.187620030632254e-05
708.0, 0.001047465957652393
709.0, 0.0012677530638107116
710.0, 0.002130927401353385
711.0, 0.0024689467716738
712.0, 0.0035661181993246974
713.0, 0.004705613382276017
714.0, 0.004934574202814691
715.0, 0.004684418058745834
716.0, 0.0044239307550057025
717.0, 0.0039700766071174235
718.0, 0.004473452727596662
719.0, 0.006021342506615121
720.0, 0.008141544667009495
721.0, 0.010036949154314218
722.0, 0.010723867291208167
723.0, 0.011227257653459548
724.0, 0.013165587017893443
725.0, 0.01487663741118315
726.0, 0.016355348023147923
727.0, 0.017940064402351286
728.0, 0.018706386757857307
729.0, 0.018674286765574033
730.0, 0.020615940799284093
731.0, 0.022933515244293323
732.0, 0.024547087338726147
733.0, 0.02606454221880996
734.0, 0.02837369920789419
735.0, 0.03116505864644796
736.0, 0.03181516627416785
737.0, 0.03349177794443797
738.0, 0.03665636803818995
739.0, 0.039405670419062795
740.0, 0.04041532411387592
741.0, 0.041175015599887094
742.0, 0.044858643693310295
743.0, 0.05021227300556627
744.0, 0.05277278452449198
745.0, 0.05498509145918128
746.0, 0.05774536335263604
747.0, 0.059804597008844274
748.0, 0.06295008884117469
749.0, 0.06484521627027637
750.0, 0.06995547059426943
751.0, 0.07315743359575796
752.0, 0.07589297024802996
753.0, 0.07978458534859752
754.0, 0.08221112207774527
755.0, 0.08532054086620512
756.0, 0.0875382783011168
757.0, 0.09160643112332377
758.0, 0.09566102133967144
759.0, 0.09921273821377403
760.0, 0.1038107234228055
761.0, 0.1094726204461152
762.0, 0.1102483743808459
763.0, 0.10886341604397524
764.0, 0.11015858242352555
765.0, 0.11349863594429481
766.0, 0.1167715890176636
767.0, 0.11914583266355398
768.0, 0.11947667826533442
769.0, 0.11992255953963073
770.0, 0.12136059932788792
771.0, 0.12284272070607023
772.0, 0.12265728241920758
773.0, 0.12164086796456774
774.0, 0.1216775759795574
775.0, 0.11929700108760308
776.0, 0.11832993278270623
777.0, 0.11520811371519381
778.0, 0.11114837825823883
779.0, 0.10846031938123073
780.0, 0.10582286269485297
781.0, 0.10090698242608874
782.0, 0.10097393063113234
783.0, 0.09540363633702133
784.0, 0.09172144615582303
785.0, 0.0877868354932466
786.0, 0.0835418065081021
787.0, 0.08151427093330839
788.0, 0.07882883883133421
789.0, 0.07532502755314831
790.0, 0.0713897652274491
791.0, 0.0681046931002494
792.0, 0.06492593778402832
793.0, 0.0626685763127109
794.0, 0.06107140664122927
795.0, 0.056269459419191224
796.0, 0.05235279935704852
797.0, 0.049691823160194874
798.0, 0.04694990466623035
799.0, 0.04400769680691542
800.0, 0.041375333870902885
801.0, 0.039247520869663724
802.0, 0.03725565803275197
803.0, 0.03560463259588617
804.0, 0.03470269976592913
805.0, 0.03167452044447054
806.0, 0.02936116303143524
807.0, 0.028228517552716968
808.0, 0.02605747040589631
809.0, 0.02593257596438757
810.0, 0.02347010577654597
811.0, 0.020983569037953842
812.0, 0.02015500316074105
813.0, 0.019148128411508848
814.0, 0.017158267829657396
815.0, 0.015231697733070568
816.0, 0.013749381109331311
817.0, 0.014333409722447071
818.0, 0.013371154815879907
819.0, 0.012161975963980508
820.0, 0.01033623656840048
821.0, 0.008373622600916512
822.0, 0.00797608984114881
823.0, 0.007923133369267603
824.0, 0.00836301019276223
825.0, 0.007853863290788859
826.0, 0.006334632895789997
827.0, 0.00531843433100929
828.0, 0.004551566207319066
829.0, 0.0031866211901030333
830.0, 0.003293653702290795
831.0, 0.004253375948188923
832.0, 0.0027594417340969664
833.0, 0.002146505351035397
834.0, 0.002454225127999573
835.0, 0.00211945390274363
836.0, 0.0012820251252974838
837.0, 0.001189104183773048
838.0, 0.001287131417702992
839.0, 0.0018929690948781132
840.0, 0.001601548692856194
841.0, 8.792054046518325e-05
842.0, 0.0012603252034354981
843.0, 0.0007885694598075538
844.0, 0.001048304314712192
845.0, 0.001507539470715624
846.0, 0.001323306289226403
847.0, 0.00033549277212388946
848.0, 0.0003730625823595069
849.0, 0.00038098892221936676
850.0, 0.0006172799498394958
851.0, 0.0010593105962224227
852.0, 0.0004180883054601206
853.0, 0.00033412551194994793
854.0, 0.000385894340902084
855.0, 0.0007200977792183919
856.0, 0.0012208661592246362
857.0, 0.0013647109391793529
858.0, 2.23327148644255e-05
859.0, 6.56148799323414e-05
860.0, 0.00027687523343772195
861.0, 0.0003981148719812707
862.0, 0.0010282611898884
863.0, 0.0014124173209905332
864.0, 0.0006472458789788147
865.0, 0.0018380121588764706
866.0, 0.001126014267829981
867.0, 0.0017146334488299245
868.0, 0.0014100252978854696
869.0, 0.0011417917873617043
870.0, 0.0009376500403931262
871.0, 0.000791822369215681
872.0, 0.0010741887306487045
873.0, 0.0016516783566359033
874.0, 0.001027630272312073
875.0, 0.0004225885243904453
876.0, 0.0007779662959540591
877.0, 0.0007909984431108097
878.0, 0.0009646476726699309
879.0, 0.0012063907487344964
880.0, 0.001333498594029992
881.0, 0.001929423485933716
882.0, 0.0006675190163319414
883.0, 0.00027942092875458057
884.0, 0.0013571992995145255
885.0, 0.002839636174250916
886.0, 0.0030938215377506444
887.0, 0.0018868029016964425
888.0, 0.0011609538731999535
889.0, 0.0017950195550810193
890.0, 0.0008281795810628479
891.0, 0.0017774978512985601
892.0, 0.0025638792989473302
893.0, 0.002707874223371294
894.0, 0.002683496153577058
895.0, 0.002327013941859863
896.0, 0.0016249547987266697
897.0, 0.002577076711415174
898.0, 0.0025935045419963865
899.0, 0.0021858053195233894
900.0, 0.002830532546485516
901.0, 0.002369610991228537
902.0, 0.0010869788602571038
903.0, 0.0014263668935882619
904.0, 0.00257237801834281
905.0, 0.004259387864540814
906.0, 0.003029467652478176
907.0, 0.0033598887614895248
908.0, 0.0029802698624435634
909.0, 0.0021721245101276997
910.0, 0.002209034989591234
911.0, 0.002582889033821911
912.0, 0.0031285217778541713
913.0, 0.001910814579859214
914.0, 0.0006278990304406006
915.0, 0.001208228214413342
916.0, 0.0021662713260593167
917.0, 0.0025197784671485823
918.0, 0.0021662543587122078
919.0, 0.001228414115247657
920.0, 0.0009573143026440957
921.0, 0.000688405085225949
922.0, 0.0012966160367109028
923.0, 0.0020568118381973886
924.0, 0.0016375745844936624
925.0, 0.0010253757763352093
926.0, 0.0010750689403055988
927.0, 0.000989515704208819
928.0, 0.000846892357808991
929.0, 0.0006726328566738281
930.0, 0.00046343089296507143
931.0, 0.0010581022167807787
932.0, 0.0012306533475901688
933.0, 0.0006573199737524733
934.0, 0.0010675373376521705
935.0, 0.0005648833708809718
936.0, 0.0011850903846255258
937.0, 0.0018782294486204606
938.0, 0.0014020731837682163
939.0, 0.00025280699750539323
940.0, 0.0001772354005645072
941.0, 9.437683985496337e-05
942.0, 0.00028018441229268957
943.0, 0.00011242015254795659
944.0, 0.00010878207802208015
945.0, 0.0008655447017547452
946.0, 0.0006735347439728089
947.0, 0.0008866871433447783
948.0, 0.0016681839395679633
949.0, 0.0013971811532555451
950.0, 0.0008963215195202882
951.0, 0.0014859811310575315
952.0, 6.768150440671429e-05
953.0, 0.0007303439934096465
954.0, 0.001800575103388655
955.0, 0.002726673336331872
956.0, 0.0030051651450721385
957.0, 0.00364373172594498
958.0, 0.004946358630176305
959.0, 0.006216825837950452
960.0, 0.0076006848805135144
961.0, 0.009326329430469005
962.0, 0.01139154957375419
963.0, 0.013542415738154491
964.0, 0.01787848056407211
965.0, 0.021683600416301962
966.0, 0.025794352522136216
967.0, 0.031310395931016255
968.0, 0.03539860634516647
969.0, 0.03967528482704702
970.0, 0.04603166947239348
971.0, 0.05272417170365005
972.0, 0.06104027269493016
973.0, 0.06991197636712503
974.0, 0.07896392756290185
975.0, 0.08947892664560218
976.0, 0.10066669886369954
977.0, 0.10877603569552897
978.0, 0.11374389570057371
979.0, 0.11077967791793283
980.0, 0.10306892883228176
981.0, 0.09034774609891902
982.0, 0.07658461354400643
983.0, 0.0648867537920097
984.0, 0.05431900633197155
985.0, 0.043722404162212736
986.0, 0.03522252246414552
987.0, 0.030574827449620805
988.0, 0.025598510231579025
989.0, 0.022428745331298464
990.0, 0.018212914664950994
991.0, 0.014884636776635436
992.0, 0.013484874267094162
993.0, 0.011371613100529348
994.0, 0.008744704209341541
995.0, 0.0083195314707757
996.0, 0.008560896437717515
997.0, 0.006399185087534415
998.0, 0.0066021569827497345
999.0, 0.007114995295704439
1000.0, 0.006366346002407842
1001.0, 0.005809977179428942
1002.0, 0.006155482932797826
1003.0, 0.007265305557958379
1004.0, 0.0067180548179417545
1005.0, 0.00789388681937308
1006.0, 0.00867193762566632
1007.0, 0.01049601901140918
1008.0, 0.012069954485145425
1009.0, 0.01311853686708536
1010.0, 0.013066634126436893
1011.0, 0.009792682933350389
1012.0, 0.006798188795143306
1013.0, 0.006234751167516555
1014.0, 0.0030838206220440744
1015.0, 0.0011726807052234681
1016.0, 8.733329194325943e-05
1017.0, 0.0003386032332387796
1018.0, 0.0006508968535428421
1019.0, 0.00036456278787820405
1020.0, 0.0010705856413130172
1021.0, 0.0004365652688974837
1022.0, 0.0011903825317242176
1023.0, 0.00038185216148974596
1024.0, 0.0009616784464028062
1025.0, 0.0004662222854830321
1026.0, 0.0003362750817906818
1027.0, 0.0005347991577687441
1028.0, 0.0007050991911831624
1029.0, 8.906713442028441e-05
1030.0, 0.000726774622521739
1031.0, 0.00023439550691674543
1032.0, 0.000462676893738314
1033.0, 0.00035472817187880737
1034.0, 0.0009015358551331737
1035.0, 0.0007839449277106033
1036.0, 0.00018582522882619205
1037.0, 0.0003468922540466046
1038.0, 0.0006766080872197602
1039.0, 0.0008248067566388146
1040.0, 0.0005556641516988792
1041.0, 0.0008234018620141457
1042.0, 0.001618083561042264
1043.0, 0.0014472159085358676
1044.0, 0.0010846470180743166
1045.0, 0.0016176199832148126
1046.0, 0.002715559818617304
1047.0, 0.0031261713837900476
1048.0, 0.0025362810958660677
1049.0, 0.0033366579744971547
1050.0, 0.0037615871672047325
1051.0, 0.004284405426510809
1052.0, 0.0041182275058662884
1053.0, 0.0039823623448797365
1054.0, 0.00434937661242189
1055.0, 0.004433346250824973
1056.0, 0.004111135816878073
1057.0, 0.0044629500778732125
1058.0, 0.005291039433389226
1059.0, 0.004354418734875962
1060.0, 0.004282528980108115
1061.0, 0.004924054254322849
1062.0, 0.006673182053062526
1063.0, 0.005821866929203529
1064.0, 0.005120836336557135
1065.0, 0.005220335726833636
1066.0, 0.003295044560217783
1067.0, 0.0032155242539503065
1068.0, 0.002446972980916555
1069.0, 0.001632007800293685
1070.0, 0.002634935114701342
1071.0, 0.0033572842927392854
1072.0, 0.002141515109590107
1073.0, 0.0012574393536058668
1074.0, 0.001137086151504676
1075.0, 0.0009512983772765665
1076.0, 0.0010216526417045212
1077.0, 0.0012134184701141342
1078.0, 0.0022982606901324983
1079.0, 0.0012559251936856881
1080.0, 0.0004289435510769499
1081.0, 0.0007913483547179953
1082.0, 0.0017000011510013174
1083.0, 0.0011915529537025952
1084.0, 0.000268958118956712
1085.0, 0.00019866317562367393
1086.0, 0.0010174963276696602
1087.0, 0.002269078267382115
1088.0, 0.00041757150236429284
1089.0, 0.00014701622376765488
1090.0, 0.0004897495366705236
1091.0, 0.00030439974265743854
1092.0, 0.00016340966518397755
1093.0, 0.0009726267561468248
1094.0, 0.0016604730466434176
1095.0, 0.0016503326614150902
1096.0, 0.0017330201235126418
1097.0, 0.0024014741515952297
1098.0, 0.0004421320338362654
1099.0, 0.0002981287595080074
1100.0, 0.0007166919802488948
1101.0, 0.000985522589986652
1102.0, 0.001321890848835845
1103.0, 0.0017738835116131407
1104.0, 0.0021534490519877197
1105.0, 0.0015422418941355843
1106.0, 0.00025076362057008115
1107.0, 0.0002988157811946163
1108.0, 0.002226862857208318
1109.0, 0.0016493988725805
1110.0, 0.0005287133599582932
1111.0, 0.0003095675548573415
1112.0, 0.0004979326194886325
1113.0, 0.0008949096397989386
1114.0, 0.001471044669357741
1115.0, 0.0013360767772109734
1116.0, 0.00092810623561892
1117.0, 0.0015790622887891
1118.0, 0.0002522568839110721
1119.0, 0.0008078035324836179
1120.0, 0.0008808444972758996
1121.0, 0.0014752556669411913
1122.0, 0.0021387764903951756
1123.0, 0.001623212530702104
1124.0, 0.001482908491865055
1125.0, 0.0009295566944719364
1126.0, 0.00012790636558788901
1127.0, 0.001518377722420797
1128.0, 0.0022329027049782816
1129.0, 0.0027447332078125047
1130.0, 0.002948826597296179
1131.0, 0.0035011894025443295
1132.0, 0.004092056611045661
1133.0, 0.004871416296953541
1134.0, 0.0038023542295325123
1135.0, 0.002996586922511148
1136.0, 0.004078891495823706
1137.0, 0.004905417858785606
1138.0, 0.004276353243237592
1139.0, 0.003285876214446651
1140.0, 0.002975951512685793
1141.0, 0.0027760133120610583
1142.0, 0.002338763504318563
1143.0, 0.0038649532833877737
1144.0, 0.004384005475890335
1145.0, 0.004231854368950902
1146.0, 0.004092927921235586
1147.0, 0.003825652346685564
1148.0, 0.004000043396426943
1149.0, 0.00462166151216268
1150.0, 0.004590467714263356
1151.0, 0.005080280148266494
1152.0, 0.005915460506949104
1153.0, 0.004122948690349152
1154.0, 0.004526483692112494
1155.0, 0.005716401572349958
1156.0, 0.005588491919319375
1157.0, 0.005500491869571587
1158.0, 0.006207598963932443
1159.0, 0.005884494905437607
1160.0, 0.004501005830632587
1161.0, 0.004130904026849904
1162.0, 0.004289962717210934
1163.0, 0.003938995258237602
1164.0, 0.0027913849775861688
1165.0, 0.0020165266918025105
1166.0, 0.0038260860591299633
1167.0, 0.003663438116596224
1168.0, 0.002272552821267306
1169.0, 0.0017311306209872432
1170.0, 0.002031006360740523
1171.0, 0.002332582812680677
1172.0, 0.0012933419108313812
1173.0, 0.0016768655735436137
1174.0, 0.0025460126350373346
1175.0, 0.0030299098070843493
1176.0, 0.002198594934562876
1177.0, 0.0019464852905696176
1178.0, 0.001452434324321481
1179.0, 0.000851262923639897
1180.0, 6.518379720953029e-05
1181.0, 0.0003439327467493446
1182.0, 0.0012983592469681972
1183.0, 0.0030838991200852844
1184.0, 0.001542526783314668
1185.0, 0.0018258796043552144
1186.0, 0.0008397095452937326
1187.0, 0.0017099165653461795
1188.0, 0.0022571624135265906
1189.0, 0.001970847893774727
1190.0, 0.002263835081652927
1191.0, 0.0013541558088307046
1192.0, 0.001026445816012875
1193.0, 0.002183462593951142
1194.0, 0.0024247188126763717
1195.0, 0.0017696654522115272
1196.0, 0.0010883930447554138
1197.0, 0.0010109296671867967
1198.0, 0.0012131600975802642
1199.0, 0.0005761941968384807
1200.0, 5.867962767608251e-05
1201.0, 0.0003645734082956641
1202.0, 0.0004401523403722568
1203.0, 0.0008545457181775691
1204.0, 0.0012966419241433795
1205.0, 0.000836948878009332
1206.0, 0.00031780743226835655
1207.0, 0.001103263481924344
1208.0, 0.002201251362947643
1209.0, 0.0020560382667907306
1210.0, 0.0023503453395756035
1211.0, 0.0015972487164681067
1212.0, 0.00036534814751634206
1213.0, 0.0016388781082452035
1214.0, 0.0017844547534821896
1215.0, 0.0013518683958865575
1216.0, 0.0012324732114077333
1217.0, 0.0018163527400375308
1218.0, 0.0022224225594929363
1219.0, 0.0017119923648521358
1220.0, 0.0022596475907943458
1221.0, 0.0020469164818697786
1222.0, 0.0012671878293533782
1223.0, 0.0013188182613609136
1224.0, 0.0010613872319134889
1225.0, 0.0015635743450710506
1226.0, 0.002241701912685524
1227.0, 0.0010561512419519769
1228.0, 0.00031672215278361206
1229.0, 0.0001850739446794834
1230.0, 0.0008748187517103996
1231.0, 0.0010582780065681238
1232.0, 0.0010595082738936448
1233.0, 0.001470985656560968
1234.0, 0.0008094542298200078
1235.0, 0.0005537942486658898
1236.0, 0.0004989351083488733
1237.0, 0.0008520362706893436
1238.0, 0.00028516584890611113
1239.0, 0.000748515276556545
1240.0, 0.0014164386293215587
1241.0, 0.0003644581625937475
1242.0, 0.0006861243320202015
1243.0, 0.0002379003421250457
1244.0, 0.00021561137679151695
1245.0, 1.6744213806258953e-05
1246.0, 0.0003257966312591281
1247.0, 0.0005291338917706769
1248.0, 0.0008719199610476486
1249.0, 0.0005932866778595332
1250.0, 0.0016196486110608588
1251.0, 0.0007821649530218194
1252.0, 0.001766848654723717
1253.0, 0.0006632660033470564
1254.0, 0.0006344540237948961
1255.0, 0.001139749571443804
1256.0, 0.001624887794378845
1257.0, 0.0021308325128130997
1258.0, 0.0019721805611920885
1259.0, 0.0015518484048327723
1260.0, 0.0006989163281985535
1261.0, 0.0018164321131600015
1262.0, 0.0025419021156614504
1263.0, 0.001459806032084452
1264.0, 0.0012910229822459343
1265.0, 0.0027583576948470787
1266.0, 0.002434449020672357
1267.0, 0.0016004783677824397
1268.0, 0.0013294138177453148
1269.0, 0.0018618478021993608
1270.0, 0.0020780646672814425
1271.0, 0.0015819419146546549
1272.0, 0.001213881410341803
1273.0, 0.0010657005615657396
1274.0, 0.000990647528914235
1275.0, 0.001702868827871583
1276.0, 0.0021424788227455954
1277.0, 0.0008829061838613592
1278.0, 0.0005473029869598575
1279.0, 0.0004267061722853725
1280.0, 0.001506535203243889
1281.0, 0.0017957013741463723
1282.0, 0.0016213766026232617
1283.0, 0.0011929867974956817
1284.0, 0.0011091381110088405
1285.0, 0.0009147745193528229
1286.0, 0.0011312325899993242
1287.0, 0.0015210982284579034
1288.0, 0.000726636622376952
1289.0, 0.0015826553297529603
1290.0, 0.001326135864237294
1291.0, 0.001638736502911773
1292.0, 0.001019447393390585
1293.0, 0.0005422607027901909
1294.0, 0.00031529792567596397
1295.0, 0.00027431265287722486
1296.0, 0.001030857105621944
1297.0, 0.0018605394476666525
1298.0, 0.001038957723762915
1299.0, 0.0008291145247073371
1300.0, 0.00047123288128049994
1301.0, 0.0010659810357692239
1302.0, 0.0020070121240501684
1303.0, 0.00046340728493334427
1304.0, 0.0026808938029122364
1305.0, 0.0008113357382387168
1306, 0.0
1307, 0.0
1308, 0.0
1309, 0.0
1310, 0.0
1311, 0.0
1312, 0.0
1313, 0.0
1314, 0.0
1315, 0.0
1316, 0.0
1317, 0.0
1318, 0.0
1319, 0.0
1320, 0.0
1321, 0.0
1322, 0.0
1323, 0.0
1324, 0.0
1325, 0.0
1326, 0.0
1327, 0.0
1328, 0.0
1329, 0.0
1330, 0.0
1331, 0.0
1332, 0.0
1333, 0.0
1334, 0.0
1335, 0.0
1336, 0.0
1337, 0.0
1338, 0.0
1339, 0.0
1340, 0.0
1341, 0.0
1342, 0.0
1343, 0.0
1344, 0.0
1345, 0.0
1346, 0.0
1347, 0.0
1348, 0.0
1349, 0.0
1350, 0.0
1351, 0.0
1352, 0.0
1353, 0.0
1354, 0.0
1355, 0.0
1356, 0.0
1357, 0.0
1358, 0.0
1359, 0.0
1360, 0.0
1361, 0.0
1362, 0.0
1363, 0.0
1364, 0.0
1365, 0.0
1366, 0.0
1367, 0.0
1368, 0.0
1369, 0.0
1370, 0.0
1371, 0.0
1372, 0.0
1373, 0.0
1374, 0.0
1375, 0.0
1376, 0.0
1377, 0.0
1378, 0.0
1379, 0.0
1380, 0.0
1381, 0.0
1382, 0.0
1383, 0.0
1384, 0.0
1385, 0.0
1386, 0.0
1387, 0.0
1388, 0.0
1389, 0.0
1390, 0.0
1391, 0.0
1392, 0.0
1393, 0.0
1394, 0.0
1395, 0.0
1396, 0.0
1397, 0.0
1398, 0.0
1399, 0.0
1400, 0.0
1401, 0.0
1402, 0.0
1403, 0.0
1404, 0.0
1405, 0.0
1406, 0.0
1407, 0.0
1408, 0.0
1409, 0.0
1410, 0.0
1411, 0.0
1412, 0.0
1413, 0.0
1414, 0.0
1415, 0.0
1416, 0.0
1417, 0.0
1418, 0.0
1419, 0.0
1420, 0.0
1421, 0.0
1422, 0.0
1423, 0.0
1424, 0.0
1425, 0.0
1426, 0.0
1427, 0.0
1428, 0.0
1429, 0.0
1430, 0.0
1431, 0.0
1432, 0.0
1433, 0.0
1434, 0.0
1435, 0.0
1436, 0.0
1437, 0.0
1438, 0.0
1439, 0.0
1440, 0.0
1441, 0.0
1442, 0.0
1443, 0.0
1444, 0.0
1445, 0.0
1446, 0.0
1447, 0.0
1448, 0.0
1449, 0.0
1450, 0.0
1451, 0.0
1452, 0.0
1453, 0.0
1454, 0.0
1455, 0.0
1456, 0.0
1457, 0.0
1458, 0.0
1459, 0.0
1460, 0.0
1461, 0.0
1462, 0.0
1463, 0.0
1464, 0.0
1465, 0.0
1466, 0.0
1467, 0.0
1468, 0.0
1469, 0.0
1470, 0.0
1471, 0.0
1472, 0.0
1473, 0.0
1474, 0.0
1475, 0.0
1476, 0.0
1477, 0.0
1478, 0.0
1479, 0.0
1480, 0.0
1481, 0.0
1482, 0.0
1483, 0.0
1484, 0.0
1485, 0.0
1486, 0.0
1487, 0.0
1488, 0.0
1489, 0.0
1490, 0.0
1491, 0.0
1492, 0.0
1493, 0.0
1494, 0.0
1495, 0.0
1496, 0.0
1497, 0.0
1498, 0.0
1499, 0.0
1500, 0.0
1501, 0.0
1502, 0.0
1503, 0.0
1504, 0.0
1505, 0.0
1506, 0.0
1507, 0.0
1508, 0.0
1509, 0.0
1510, 0.0
1511, 0.0
1512, 0.0
1513, 0.0
1514, 0.0
1515, 0.0
1516, 0.0
1517, 0.0
1518, 0.0
1519, 0.0
1520, 0.0
1521, 0.0
1522, 0.0
1523, 0.0
1524, 0.0
1525, 0.0
1526, 0.0
1527, 0.0
1528, 0.0
1529, 0.0
1530, 0.0
1531, 0.0
1532, 0.0
1533, 0.0
1534, 0.0
1535, 0.0
1536, 0.0
1537, 0.0
1538, 0.0
1539, 0.0
1540, 0.0
1541, 0.0
1542, 0.0
1543, 0.0
1544, 0.0
1545, 0.0
1546, 0.0
1547, 0.0
1548, 0.0
1549, 0.0
1550, 0.0
1551, 0.0
1552, 0.0
1553, 0.0
1554, 0.0
1555, 0.0
1556, 0.0
1557, 0.0
1558, 0.0
1559, 0.0
1560, 0.0
1561, 0.0
1562, 0.0
1563, 0.0
1564, 0.0
1565, 0.0
1566, 0.0
1567, 0.0
1568, 0.0
1569, 0.0
1570, 0.0
1571, 0.0
1572, 0.0
1573, 0.0
1574, 0.0
1575, 0.0
1576, 0.0
1577, 0.0
1578, 0.0
1579, 0.0
1580, 0.0
1581, 0.0
1582, 0.0
1583, 0.0
1584, 0.0
1585, 0.0
1586, 0.0
1587, 0.0
1588, 0.0
1589, 0.0
1590, 0.0
1591, 0.0
1592, 0.0
1593, 0.0
1594, 0.0
1595, 0.0
1596, 0.0
1597, 0.0
1598, 0.0
1599, 0.0
