30, 0.0
31, 0.0
32, 0.0
33, 0.0
34, 0.0
35, 0.0
36, 0.0
37, 0.0
38, 0.0
39, 0.0
40, 0.0
41, 0.0
42, 0.0
43, 0.0
44, 0.0
45, 0.0
46, 0.0
47, 0.0
48, 0.0
49, 0.0
50, 0.0
51, 0.0
52, 0.0
53, 0.0
54, 0.0
55, 0.0
56, 0.0
57, 0.0
58, 0.0
59, 0.0
60, 0.0
61, 0.0
62, 0.0
63, 0.0
64, 0.0
65, 0.0
66, 0.0
67, 0.0
68, 0.0
69, 0.0
70, 0.0
71, 0.0
72, 0.0
73, 0.0
74, 0.0
75, 0.0
76, 0.0
77, 0.0
78, 0.0
79, 0.0
80, 0.0
81, 0.0
82, 0.0
83, 0.0
84, 0.0
85, 0.0
86, 0.0
87, 0.0
88, 0.0
89, 0.0
90, 0.0
91, 0.0
92, 0.0
93, 0.0
94, 0.0
95, 0.0
96, 0.0
97, 0.0
98, 0.0
99, 0.0
100, 0.0
101, 0.0
102, 0.0
103, 0.0
104, 0.0
105, 0.0
106, 0.0
107, 0.0
108, 0.0
109, 0.0
110, 0.0
111, 0.0
112, 0.0
113, 0.0
114, 0.0
115, 0.0
116, 0.0
117, 0.0
118, 0.0
119, 0.0
120, 0.0
121, 0.0
122, 0.0
123, 0.0
124, 0.0
125, 0.0
126, 0.0
127, 0.0
128, 0.0
129, 0.0
130, 0.0
131, 0.0
132, 0.0
133, 0.0
134, 0.0
135, 0.0
136, 0.0
137, 0.0
138, 0.0
139, 0.0
140, 0.0
141, 0.0
142, 0.0
143, 0.0
144, 0.0
145, 0.0
146, 0.0
147, 0.0
148, 0.0
149, 0.0
150, 0.0
151, 0.0
152, 0.0
153, 0.0
154, 0.0
155, 0.0
156, 0.0
157, 0.0
158, 0.0
159, 0.0
160, 0.0
161, 0.0
162, 0.0
163, 0.0
164, 0.0
165, 0.0
166, 0.0
167, 0.0
168, 0.0
169, 0.0
170, 0.0
171, 0.0
172, 0.0
173, 0.0
174, 0.0
175, 0.0
176, 0.0
177, 0.0
178, 0.0
179, 0.0
180, 0.0
181, 0.0
182, 0.0
183, 0.0
184, 0.0
185, 0.0
186, 0.0
187, 0.0
188, 0.0
189, 0.0
190, 0.0
191.0, 0.003705090156779714
192.0, 0.02172631115238609
193.0, 0.03922005872150786
194.0, 0.04828198190510926
195.0, 0.048992378170510616
196.0, 0.039482057507366594
197.0, 0.028661087916667827
198.0, 0.019351587829520414
199.0, 0.010955785766641779
200.0, 0.006680372136020606
201.0, 0.007120269694813717
202.0, 0.010628216979894519
203.0, 0.015435256100890353
204.0, 0.020829615415872076
205.0, 0.026645347973465964
206.0, 0.03280481833213538
207.0, 0.03840679863135394
208.0, 0.042359882315447746
209.0, 0.0471484375061117
210.0, 0.057380213889931565
211.0, 0.07342511522170835
212.0, 0.09399546136870844
213.0, 0.11818730665021701
214.0, 0.14866186428241282
215.0, 0.17326575440453948
216.0, 0.189706216242958
217.0, 0.20524733303880363
218.0, 0.21115150409392988
219.0, 0.19577990063551048
220.0, 0.16729009023950298
221.0, 0.13663306238513337
222.0, 0.10761838922465866
223.0, 0.0821374998711091
224.0, 0.06369286925218386
225.0, 0.05292531241538579
226.0, 0.047389461139000874
227.0, 0.048937743165126064
228.0, 0.05321458197805735
229.0, 0.05662638542795599
230.0, 0.057234399203332974
231.0, 0.05567166926493978
232.0, 0.0508714169262695
233.0, 0.03942091266288244
234.0, 0.023106761686039805
235.0, 0.008326392206319028
236.0, 0.0028666981362870676
237.0, 0.0005596419649396942
238.0, 0.001351284870829251
239.0, 0.00631867674589927
240.0, 0.010427836548430386
241.0, 0.01779572525304225
242.0, 0.024767995616876072
243.0, 0.030158192698877036
244.0, 0.03669477804814906
245.0, 0.040998342364467505
246.0, 0.04646178617274894
247.0, 0.052213129486099005
248.0, 0.05626134518725015
249.0, 0.062177416166593724
250.0, 0.07287267558764567
251.0, 0.08644588915574555
252.0, 0.10122586182176832
253.0, 0.11645736315508246
254.0, 0.13286561886313883
255.0, 0.14625188094340502
256.0, 0.15618157249457526
257.0, 0.16166658865830702
258.0, 0.15814943429064984
259.0, 0.1445786815933341
260.0, 0.12535893900836426
261.0, 0.10438437355514785
262.0, 0.08437506416884406
263.0, 0.07105689692164628
264.0, 0.06120158138979218
265.0, 0.05447776023880644
266.0, 0.0507600257722537
267.0, 0.04840140975080871
268.0, 0.046799976433688543
269.0, 0.04212765115148359
270.0, 0.037366112573275954
271.0, 0.037279004504752224
272.0, 0.03646988101476597
273.0, 0.03744292117259515
274.0, 0.041205702774687616
275.0, 0.04650992262719718
276.0, 0.05120057866042651
277.0, 0.056514709144801036
278.0, 0.05629103087037436
279.0, 0.05401552967946028
280.0, 0.054225617691220904
281.0, 0.052753304582071676
282.0, 0.04744941608867127
283.0, 0.04416919230477926
284.0, 0.045772362788048734
285.0, 0.05036012732811742
286.0, 0.05345163856391283
287.0, 0.058410975198416044
288.0, 0.06255630781521179
289.0, 0.0644077620063944
290.0, 0.06762401098155411
291.0, 0.06937169324372075
292.0, 0.06974428004879658
293.0, 0.07047082812676937
294.0, 0.07254298593150856
295.0, 0.07373138129454812
296.0, 0.073844800090664
297.0, 0.07380220840819873
298.0, 0.07391947807833724
299.0, 0.07371205180744732
300.0, 0.07234973134369134
301.0, 0.07226852996203417
302.0, 0.07029498892040331
303.0, 0.06451680095644069
304.0, 0.056708400107401635
305.0, 0.0453402123569688
306.0, 0.03504190948183626
307.0, 0.027197571494412785
308.0, 0.02048656868411243
309.0, 0.013619472675166605
310.0, 0.009497651891250602
311.0, 0.006347675242814474
312.0, 0.0037994796597406867
313.0, 0.0026106479690454513
314.0, 0.0008927310145242207
315.0, 0.00031069751924329373
316.0, 0.0005193865896073923
317.0, 0.0012617632346216922
318.0, 0.0005671649287818346
319.0, 0.0002585984532818607
320.0, 0.0003015960343202375
321.0, 0.0012708943245544162
322.0, 0.002157884527386356
323.0, 0.001127558394939554
324.0, 0.002075130450217909
325.0, 0.004134454668731964
326.0, 0.004593733366279125
327.0, 0.004903365607963331
328.0, 0.007966202859949811
329.0, 0.003954821410944
330.0, 0.0026934395832200484
331.0, 0.005299132322156979
332.0, 0.00592729668066499
333.0, 0.007982700201690935
334.0, 0.005676113426847611
335.0, 0.001953506042915213
336.0, 0.00015881685326856647
337.0, 0.00036541666035161825
338.0, 0.0035096308494327474
339.0, 0.005305686283444019
340.0, 0.008489895069075312
341.0, 0.013216213212473203
342.0, 0.010624260252610164
343.0, 0.011881833067156922
344.0, 0.014704526546679843
345.0, 0.01889169349170672
346.0, 0.025684310902037197
347.0, 0.034671263998341445
348.0, 0.043957724692875094
349.0, 0.05549335863815511
350.0, 0.06977242876283114
351.0, 0.08555247218343447
352.0, 0.10172462930494121
353.0, 0.1175351528621719
354.0, 0.13444389815720262
355.0, 0.15287078577642435
356.0, 0.17297225558097107
357.0, 0.19811821094538262
358.0, 0.22119008680807292
359.0, 0.2451776641795521
360.0, 0.27202339098746003
361.0, 0.29957675380280413
362.0, 0.3270813613749499
363.0, 0.3639264950947355
364.0, 0.40893223382609384
365.0, 0.458476377210449
366.0, 0.5105082300829905
367.0, 0.5659502756921565
368.0, 0.6275051702093493
369.0, 0.6849510884547501
370.0, 0.7328688896398814
371.0, 0.781408998733485
372.0, 0.8235349006331218
373.0, 0.8613279917921131
374.0, 0.8902128432872827
375.0, 0.9075977472740583
376.0, 0.9188909272444041
377.0, 0.9207016953444425
378.0, 0.9134689229094876
379.0, 0.8957469171453417
380.0, 0.8650826152792377
381.0, 0.8198511990549451
382.0, 0.7635353032440612
383.0, 0.7026681652046035
384.0, 0.6412740796458745
385.0, 0.5845066222326216
386.0, 0.5421637243309567
387.0, 0.507887582910497
388.0, 0.4773981353849336
389.0, 0.44794604758019757
390.0, 0.4167855874032402
391.0, 0.3773562339288719
392.0, 0.3391645918108611
393.0, 0.3039681016478663
394.0, 0.2719718231572838
395.0, 0.24528038759329657
396.0, 0.22902051384318117
397.0, 0.21992343895763025
398.0, 0.21362390616316287
399.0, 0.21080779948825684
400.0, 0.21321735978788778
401.0, 0.2130544018633427
402.0, 0.21865794220714962
403.0, 0.22472471175468042
404.0, 0.23103340592848493
405.0, 0.24189639460533954
406.0, 0.2553829934744748
407.0, 0.273716131250162
408.0, 0.2942046467960013
409.0, 0.3168241356256785
410.0, 0.34230105467369215
411.0, 0.3647600602382395
412.0, 0.37870137021981604
413.0, 0.37969241985072233
414.0, 0.3687194752968451
415.0, 0.3482019623562852
416.0, 0.3165843179146421
417.0, 0.27498948327060757
418.0, 0.23162816071949835
419.0, 0.19064807755296362
420.0, 0.1533427498739395
421.0, 0.12292124090300938
422.0, 0.09501963241542204
423.0, 0.07269412998210759
424.0, 0.055276101194120394
425.0, 0.040063064526830124
426.0, 0.026580135367214555
427.0, 0.018387579653937888
428.0, 0.011675476089889798
429.0, 0.005312636123102024
430.0, 0.0009356363329360094
431.0, 0.00033016207327528975
432.0, 0.0034599424930211726
433.0, 0.0036107646621840145
434.0, 0.001830207502254891
435.0, 0.0010943317072770803
436.0, 0.002347312240932678
437.0, 0.00768874441121048
438.0, 0.012389967155721186
439.0, 0.016984260824261643
440.0, 0.023386924001550017
441.0, 0.03246892335379267
442.0, 0.0399139681340786
443.0, 0.04576095952225432
444.0, 0.05434059363443435
445.0, 0.06574914434836311
446.0, 0.07463129047262392
447.0, 0.08708405237600363
448.0, 0.10376928775580778
449.0, 0.11993385497995313
450.0, 0.1335773579805122
451.0, 0.1466573042117453
452.0, 0.15701743990210582
453.0, 0.16636996449930627
454.0, 0.1704372281684684
455.0, 0.16701961914418847
456.0, 0.15852707854114526
457.0, 0.1475352157573305
458.0, 0.13273444134969337
459.0, 0.11638579085253963
460.0, 0.09949427230782011
461.0, 0.08220249867311075
462.0, 0.0667568328807933
463.0, 0.053686277030638864
464.0, 0.043555429999953106
465.0, 0.034857885335727645
466.0, 0.025792079111338476
467.0, 0.01577938672537317
468.0, 0.007725563436728349
469.0, 0.003315603809073927
470.0, 0.0015770655094557123
471.0, 0.006457559722626454
472.0, 0.009195303333068786
473.0, 0.009015896823313684
474.0, 0.00920513465942626
475.0, 0.008075896919483657
476.0, 0.0048617840635454875
477.0, 0.0011992408628609184
478.0, 0.00808959617413886
479.0, 0.01713106121765964
480.0, 0.027768616731890274
481.0, 0.041922966442408026
482.0, 0.059243494855327636
483.0, 0.07753753339300476
484.0, 0.09867062536706181
485.0, 0.11724762563040082
486.0, 0.13117047302745774
487.0, 0.1407645797500602
488.0, 0.14582325313302527
489.0, 0.14186947078777562
490.0, 0.13480758033172557
491.0, 0.12887021846797497
492.0, 0.12502505142814718
493.0, 0.12170488322616549
494.0, 0.12056677021873458
495.0, 0.12078926806500519
496.0, 0.1202639222745444
497.0, 0.11631788247935325
498.0, 0.10856819903586648
499.0, 0.10206563461419409
500.0, 0.09324137602099461
501.0, 0.07993930157836614
502.0, 0.06951446766420108
503.0, 0.06646452040463138
504.0, 0.057031271598419794
505.0, 0.05112544288591203
506.0, 0.047356767104770804
507.0, 0.04407705555215865
508.0, 0.042096924549499856
509.0, 0.04454798897464406
510.0, 0.04740344091194317
511.0, 0.047804081492704396
512.0, 0.04935381426073566
513.0, 0.05176810747434763
514.0, 0.05177428140400696
515.0, 0.05203159643227636
516.0, 0.052369511625184224
517.0, 0.05010499769442599
518.0, 0.04607918953084814
519.0, 0.04211356948302122
520.0, 0.03819335790024548
521.0, 0.03299570010350529
522.0, 0.02798149519158639
523.0, 0.025443699240728916
524.0, 0.02387885217157167
525.0, 0.019526059377227067
526.0, 0.016457240109088788
527.0, 0.015925038784315684
528.0, 0.013823849228882057
529.0, 0.010332213749561572
530.0, 0.008141902973316614
531.0, 0.006660495434325387
532.0, 0.004618271565863273
533.0, 0.004335817702271285
534.0, 0.006666310466735233
535.0, 0.008857135502055007
536.0, 0.007014342937972998
537.0, 0.009851124122169732
538.0, 0.011329841055789156
539.0, 0.011900259427364042
540.0, 0.014392776134064462
541.0, 0.01895684944731365
542.0, 0.021497625439421787
543.0, 0.025818945491075863
544.0, 0.02918433738528331
545.0, 0.032202961486069236
546.0, 0.03522757707116168
547.0, 0.03685994338057249
548.0, 0.03950494119256066
549.0, 0.04465597551599892
550.0, 0.051731876360343924
551.0, 0.05946471603744447
552.0, 0.06872978645154781
553.0, 0.08372645017878828
554.0, 0.10200766763387764
555.0, 0.1253325104166915
556.0, 0.15429595186906436
557.0, 0.18804955131299644
558.0, 0.22692053291052966
559.0, 0.2746423040428398
560.0, 0.32745111006290023
561.0, 0.3889794027681743
562.0, 0.45726830141450886
563.0, 0.5315138257557357
564.0, 0.6175260495392637
565.0, 0.7060701547652374
566.0, 0.7953046270569716
567.0, 0.8796465522079499
568.0, 0.9486134828172574
569.0, 0.9915345207693816
570.0, 0.9957495258670488
571.0, 0.9447751234887222
572.0, 0.8539013506729336
573.0, 0.7445217029097839
574.0, 0.6326096653688361
575.0, 0.5268493323308565
576.0, 0.43896665141320795
577.0, 0.36641210017341064
578.0, 0.3064807315680131
579.0, 0.2588692581590036
580.0, 0.22154084782338596
581.0, 0.1884711184597997
582.0, 0.16184958868670624
583.0, 0.14005726520950143
584.0, 0.12210451340497391
585.0, 0.10713780641586887
586.0, 0.09402024235898532
587.0, 0.08305581508104136
588.0, 0.07118481542248463
589.0, 0.06083588438644602
590.0, 0.052721037886052535
591.0, 0.0464800774484266
592.0, 0.040821720523937524
593.0, 0.03411501247598949
594.0, 0.029773387064471028
595.0, 0.025707198729096405
596.0, 0.021492294775525903
597.0, 0.017824712478483877
598.0, 0.01419320354692553
599.0, 0.012607859857159806
600.0, 0.010590867416566717
601.0, 0.008645380543581103
602.0, 0.007228471335673726
603.0, 0.005996136484001292
604.0, 0.004577437337809296
605.0, 0.005000081998746319
606.0, 0.00259804840579024
607.0, 0.0002436883452619144
608.0, 1.557489116364647e-05
609.0, 5.125852177463386e-05
610.0, 0.00048267004529936445
611.0, 0.0012537487650754286
612.0, 0.0008319839397581453
613.0, 0.001963892120270657
614.0, 0.003767914780512131
615.0, 0.002200716047978192
616.0, 0.0025861310559817286
617.0, 0.0026353142363415584
618.0, 0.0018339891734261429
619.0, 0.0013620423045075393
620.0, 0.0019045167336809088
621.0, 0.002295835691024941
622.0, 0.00036755152277513625
623.0, 5.897127557107564e-05
624.0, 0.0009865942098566
625.0, 0.0015730614772600704
626.0, 0.0004448490328585128
627.0, 0.0018993791563757135
628.0, 0.0005674125688492917
629.0, 0.0004199439144296751
630.0, 0.003059486337756822
631.0, 0.002285603632740817
632.0, 0.000863496528754223
633.0, 0.0002180758108783835
634.0, 0.0002219959032618548
635.0, 0.0012545378505531596
636.0, 0.0010975894158201881
637.0, 0.00010944578882596836
638.0, 0.0001840703995632872
639.0, 0.002108191062942796
640.0, 0.00020732010342789533
641.0, 0.0006679008323141273
642.0, 0.0016874492174763424
643.0, 0.0014379718477460703
644.0, 0.0020166554705262135
645.0, 0.005752239362981132
646.0, 0.0022895041981302227
647.0, 0.00735600303260428
648.0, 0.010220772658256527
649.0, 0.008667563541904412
650.0, 0.00845055478090622
651.0, 0.009169973510633148
652.0, 0.009133056735882146
653.0, 0.011049148175831717
654.0, 0.012287876169703298
655.0, 0.012500243890282849
656.0, 0.013410408335997012
657.0, 0.015771911488848482
658.0, 0.017743587050172767
659.0, 0.020175888687383292
660.0, 0.021846464565485984
661.0, 0.02418077969596597
662.0, 0.028142657301427454
663.0, 0.03128063372161517
664.0, 0.03398052878907567
665.0, 0.03696680739342426
666.0, 0.03904670874538219
667.0, 0.04194776093575327
668.0, 0.04524971586488945
669.0, 0.0441314140434357
670.0, 0.04485595321402802
671.0, 0.04136336897229281
672.0, 0.03486357707309423
673.0, 0.030432301115933067
674.0, 0.02811120539050309
675.0, 0.02381571261025861
676.0, 0.018104754358762274
677.0, 0.014874243057103394
678.0, 0.012975708572969747
679.0, 0.011900300933459614
680.0, 0.011024154140230941
681.0, 0.009265073646055952
682.0, 0.009338450249544751
683.0, 0.008995901815244019
684.0, 0.007029142706041385
685.0, 0.005919092492971235
686.0, 0.006847302217456424
687.0, 0.008137673616285809
688.0, 0.010219375386221752
689.0, 0.009179492152249242
690.0, 0.01088561951216983
691.0, 0.012609251949117946
692.0, 0.012844242240296629
693.0, 0.013232727386497597
694.0, 0.014345713230408919
695.0, 0.01392925786032943
696.0, 0.014327175249973598
697.0, 0.015954683963085792
698.0, 0.016995686812526566
699.0, 0.01679224282665399
700.0, 0.016797484391883964
701.0, 0.016549578439225512
702.0, 0.016305192608562672
703.0, 0.016857627883526356
704.0, 0.016113537048886625
705.0, 0.014633671391427863
706.0, 0.015177656550153995
707.0, 0.013553866497336189
708.0, 0.01121559703455631
709.0, 0.010477684777433846
710.0, 0.009237735537999739
711.0, 0.0069133786609796065
712.0, 0.005303138541465141
713.0, 0.004184603841153155
714.0, 0.003652014042590356
715.0, 0.004000812343576049
716.0, 0.003223891933918725
717.0, 0.0032196611723599006
718.0, 0.004456941960236266
719.0, 0.0029839288049686185
720.0, 0.003939180611316331
721.0, 0.00430930060947343
722.0, 0.006959838024279571
723.0, 0.00794689464254762
724.0, 0.0070364498508904165
725.0, 0.008760987078394906
726.0, 0.007938295706959846
727.0, 0.008240715624250078
728.0, 0.008534179724274255
729.0, 0.008025803016167449
730.0, 0.007719899934812665
731.0, 0.008282500775348074
732.0, 0.009301413917844633
733.0, 0.00961964520682866
734.0, 0.011379853688467742
735.0, 0.011475925985509472
736.0, 0.010690818112784002
737.0, 0.010445218755743573
738.0, 0.009783041345237716
739.0, 0.009003407810389632
740.0, 0.010972441571636493
741.0, 0.010158979147800527
742.0, 0.0095662411481562
743.0, 0.00959248272399055
744.0, 0.00909731766507052
745.0, 0.010585062243439395
746.0, 0.010203672857440201
747.0, 0.010285071724971997
748.0, 0.010070853530452473
749.0, 0.008169433376740894
750.0, 0.006020322640811811
751.0, 0.006458739474157183
752.0, 0.008091794890968706
753.0, 0.010870282683145377
754.0, 0.009234923907830608
755.0, 0.007277425641633704
756.0, 0.006353417936666223
757.0, 0.005591278660583526
758.0, 0.0065026690679980586
759.0, 0.005658364091233116
760.0, 0.006432478867583713
761.0, 0.007030298883683215
762.0, 0.0071333737164473495
763.0, 0.007483946251085043
764.0, 0.007668110775483162
765.0, 0.006106841887877913
766.0, 0.006846653863292196
767.0, 0.005640490186339312
768.0, 0.005534916218214291
769.0, 0.008190053537024178
770.0, 0.00906277233163615
771.0, 0.0052574650885973155
772.0, 0.005158562047973498
773.0, 0.005084222064753561
774.0, 0.00574370115779557
775.0, 0.004613382286016157
776.0, 0.003868672021768326
777.0, 0.004828809463560371
778.0, 0.003912329141645285
779.0, 0.0029845263598293204
780.0, 0.0026730942434132414
781.0, 0.0013306559129145274
782.0, 0.0005434544234639496
783.0, 0.000790714953531574
784.0, 0.0010345146245523908
785.0, 0.0018156721077155927
786.0, 0.005776285498742916
787.0, 0.0007775942059671659
788.0, 0.0005599403372704858
789.0, 0.0002484666264322938
790.0, 0.0006844426775859718
791.0, 0.000702191626296907
792.0, 0.00016984645580866607
793.0, 0.001650377087796335
794.0, 0.0030188662126640576
795.0, 0.00224984086969655
796.0, 0.002139133292639799
797.0, 0.00352687427614974
798.0, 0.004384911173121983
799.0, 0.0038671226177930756
800.0, 0.002935105062575762
801.0, 0.0033494833156863806
802.0, 0.003950793731099496
803.0, 0.0037562529413108577
804.0, 0.0029686471262057347
805.0, 0.0026507148338091144
806.0, 0.004507980990745604
807.0, 0.006116990690833427
808.0, 0.006620081339187979
809.0, 0.006780150052492536
810.0, 0.006053464087373374
811.0, 0.005372267555112179
812.0, 0.006015601439905165
813.0, 0.0060028938976051235
814.0, 0.006287379821948494
815.0, 0.007484821842867435
816.0, 0.008062225490673175
817.0, 0.008177211909679046
818.0, 0.009423731244569569
819.0, 0.011747455256941338
820.0, 0.012350315241986284
821.0, 0.013443986534632362
822.0, 0.013919252841839683
823.0, 0.013562910592103255
824.0, 0.012673004319907056
825.0, 0.011609692907530939
826.0, 0.011115392525729474
827.0, 0.012928777157994387
828.0, 0.00931953170821452
829.0, 0.00945318221529613
830.0, 0.008931452816100445
831.0, 0.008153688659174844
832.0, 0.007422170450138047
833.0, 0.006052670027461674
834.0, 0.006291176972220762
835.0, 0.00836821762949949
836.0, 0.007254880871104493
837.0, 0.008462568952659552
838.0, 0.00855500838727341
839.0, 0.008203303284189419
840.0, 0.009454176247793492
841.0, 0.008482627360241713
842.0, 0.007532623891074174
843.0, 0.006536513547395873
844.0, 0.0067596229472591035
845.0, 0.006303627196847916
846.0, 0.007099213931937508
847.0, 0.008174972355510273
848.0, 0.004833567767120095
849.0, 0.0029785375287850455
850.0, 0.0016983069899915693
851.0, 0.0008908478681585281
852.0, 0.0006833602965133371
853.0, 0.0002811817609062671
854.0, 0.00026189289439216233
855.0, 0.0002629490000030857
856.0, 0.0006507839414373222
857.0, 0.0020390983110861903
858.0, 0.0012638312517645452
859.0, 0.00147607435722715
860.0, 0.0016285959614350976
861.0, 0.0007727463225674509
862.0, 0.0013708250924120188
863.0, 0.00035165995742038965
864.0, 0.0005381454995891376
865.0, 0.000546577713476577
866.0, 0.0015420590172599412
867.0, 0.001425938052656863
868.0, 0.0009204400711012538
869.0, 0.0009773864697354745
870.0, 0.00042231832432862145
871.0, 0.0008044384892919825
872.0, 0.0014370620276793519
873.0, 0.001924574364808923
874.0, 0.0016082844770148347
875.0, 0.0023917534797684306
876.0, 0.0035421198377407915
877.0, 0.0032906677744484964
878.0, 0.00212677717519062
879.0, 0.004007153854427058
880.0, 0.004960256350144946
881.0, 0.003168120471965237
882.0, 0.003179289751830736
883.0, 0.0025571307674956043
884.0, 0.0008358357009477604
885.0, 0.0018410956133281787
886.0, 0.001588843740489831
887.0, 0.001069886155411723
888.0, 0.001146065742259439
889.0, 0.0035484439765262263
890.0, 0.004046895406197821
891.0, 0.0038002698273501404
892.0, 0.004984022156832343
893.0, 0.008129715539216115
894.0, 0.01402308921553243
895.0, 0.015156646929640818
896.0, 0.018844521701948433
897.0, 0.024442417282241814
898.0, 0.029910322893667993
899.0, 0.03507821948821224
900.0, 0.04056051816255961
901.0, 0.046149577708672486
902.0, 0.0529616815495917
903.0, 0.054497089618173296
904.0, 0.05516799490113368
905.0, 0.05354790762863207
906.0, 0.0501417627200248
907.0, 0.04588746972129629
908.0, 0.04114759301903169
909.0, 0.03957194581414293
910.0, 0.04025430319266322
911.0, 0.04287370860889554
912.0, 0.044573098475239985
913.0, 0.04757984707337892
914.0, 0.051401290332208624
915.0, 0.05377844853491432
916.0, 0.05394227415991467
917.0, 0.05099090076360956
918.0, 0.04265330572284463
919.0, 0.03444961001789536
920.0, 0.027348758357969516
921.0, 0.02373780360968209
922.0, 0.0215094033189409
923.0, 0.018225081584497066
924.0, 0.015914393471419878
925.0, 0.017946065181033373
926.0, 0.02130735663078428
927.0, 0.022532879111849743
928.0, 0.027508009342761205
929.0, 0.035511829863566526
930.0, 0.04342386671717974
931.0, 0.05192777442152354
932.0, 0.06300488181443466
933.0, 0.07484312847048101
934.0, 0.08862490967065521
935.0, 0.09908334093775735
936.0, 0.10870263789380046
937.0, 0.11669638090569445
938.0, 0.12404850094113842
939.0, 0.13241846894890794
940.0, 0.14191576221250146
941.0, 0.1544412976026841
942.0, 0.16808332965931733
943.0, 0.18554753352789943
944.0, 0.20824063688931427
945.0, 0.23489997999761814
946.0, 0.26333932241450786
947.0, 0.2940395558446305
948.0, 0.3288478947831162
949.0, 0.3655146503902219
950.0, 0.4055833263903187
951.0, 0.4482166000156827
952.0, 0.4955612280051268
953.0, 0.5486557506915792
954.0, 0.6051251155844816
955.0, 0.6620487059425999
956.0, 0.7186149776148896
957.0, 0.7733528231613246
958.0, 0.819906557466811
959.0, 0.8528259019936307
960.0, 0.8677494513720293
961.0, 0.8637715413638735
962.0, 0.8392931963253428
963.0, 0.7966952019130045
964.0, 0.7439726478054224
965.0, 0.6898843385144631
966.0, 0.6359900655737769
967.0, 0.5908170665980014
968.0, 0.5609433953298233
969.0, 0.5378673052309594
970.0, 0.5231057380404347
971.0, 0.5202931434240552
972.0, 0.5270836106957514
973.0, 0.5407312690846893
974.0, 0.5636398340419977
975.0, 0.592954986952568
976.0, 0.6312709751947185
977.0, 0.669568011655999
978.0, 0.7078481522626003
979.0, 0.7418425288977379
980.0, 0.7666997142599368
981.0, 0.7785288796028014
982.0, 0.7778784668271563
983.0, 0.7758205298909412
984.0, 0.7585932851174447
985.0, 0.7417798654762014
986.0, 0.7277566809171565
987.0, 0.7059831353292438
988.0, 0.6795566479989835
989.0, 0.6487221134410538
990.0, 0.6080780843705524
991.0, 0.5612829026662401
992.0, 0.5047734452386269
993.0, 0.44453422548731797
994.0, 0.38394386021077265
995.0, 0.32961639966867956
996.0, 0.28296638782895156
997.0, 0.2442540633269712
998.0, 0.21182115847415495
999.0, 0.1844199358791811
1000.0, 0.16795364635984347
1001.0, 0.15208542052466514
1002.0, 0.1350882904953876
1003.0, 0.11721927292203507
1004.0, 0.09869057729087889
1005.0, 0.08100237059552584
1006.0, 0.06657736948910654
1007.0, 0.05637705246718999
1008.0, 0.04941449296905904
1009.0, 0.046594752824785896
1010.0, 0.046634478105190856
1011.0, 0.0439910725863724
1012.0, 0.04423391567235544
1013.0, 0.0474415058952013
1014.0, 0.04954435985145719
1015.0, 0.05105132545236652
1016.0, 0.053576318759302695
1017.0, 0.05603570350067391
1018.0, 0.05968226214191238
1019.0, 0.0629822948659342
1020.0, 0.05795670648606747
1021.0, 0.05228762452959291
1022.0, 0.04566658464988596
1023.0, 0.03751314055226982
1024.0, 0.029382551965310092
1025.0, 0.02348611627999176
1026.0, 0.020591502450808718
1027.0, 0.017714202311642068
1028.0, 0.01320848271030658
1029.0, 0.011430296587135553
1030.0, 0.009293052676096867
1031.0, 0.007534569448650015
1032.0, 0.005073486593982968
1033.0, 0.003234854687057499
1034.0, 0.0032892720827673062
1035.0, 0.002838787750656209
1036.0, 0.0009194379320909334
1037.0, 0.0008022396949498883
1038.0, 0.003070287761173915
1039.0, 0.004909357957246934
1040.0, 0.0040822013658011235
1041.0, 0.003641575795315326
1042.0, 0.004614455734446191
1043.0, 0.0044893153357657535
1044.0, 0.003055056036019191
1045.0, 0.00392030008654472
1046.0, 0.004034544685589412
1047.0, 0.005655828493559592
1048.0, 0.0038025333845702045
1049.0, 0.0038954553969912
1050.0, 0.00392659719908634
1051.0, 0.003898093921308544
1052.0, 0.003551235126420035
1053.0, 0.001822529157486731
1054.0, 0.0014635034542964552
1055.0, 0.003083217615611391
1056.0, 0.0013716205757894162
1057.0, 0.0011908085823244027
1058.0, 0.0028127308491735802
1059.0, 0.004341112545479677
1060.0, 0.005916432040731467
1061.0, 0.00913702334839456
1062.0, 0.012480180416887372
1063.0, 0.014647158966661163
1064.0, 0.017737577302172035
1065.0, 0.018609291993884555
1066.0, 0.01778826300546541
1067.0, 0.018761684092024982
1068.0, 0.019716316464495794
1069.0, 0.01896852432161333
1070.0, 0.017907980851278482
1071.0, 0.017478223661295915
1072.0, 0.017625332601558238
1073.0, 0.017892028507124024
1074.0, 0.01757339920978209
1075.0, 0.019752146735089147
1076.0, 0.020460748179285056
1077.0, 0.021599573859638222
1078.0, 0.02093123239810784
1079.0, 0.01968622831772116
1080.0, 0.019843445478021058
1081.0, 0.019063728381761035
1082.0, 0.01786485636439603
1083.0, 0.019653983482227647
1084.0, 0.019767475250784167
1085.0, 0.018958463927588258
1086.0, 0.01930214044064507
1087.0, 0.015855072037387986
1088.0, 0.0159640454322703
1089.0, 0.015706729403395295
1090.0, 0.014320953998290739
1091.0, 0.013766972810095335
1092.0, 0.014488365889084366
1093.0, 0.014993917207157696
1094.0, 0.012948821660001962
1095.0, 0.01579270676387096
1096.0, 0.014304059919259976
1097.0, 0.01503265676350289
1098.0, 0.015781486143113796
1099.0, 0.017405302732541216
1100.0, 0.02085680802966672
1101.0, 0.022622997641427972
1102.0, 0.02318083790945263
1103.0, 0.026963713300680994
1104.0, 0.030606256023140672
1105.0, 0.03390077388611183
1106.0, 0.03676893563591141
1107.0, 0.039578640567279874
1108.0, 0.042755982300462105
1109.0, 0.048554592720129984
1110.0, 0.05392536223724255
1111.0, 0.059136083327561956
1112.0, 0.06320008697366603
1113.0, 0.06441319394655687
1114.0, 0.067273840005361
1115.0, 0.07074003666755728
1116.0, 0.06636663810214409
1117.0, 0.0654302059769087
1118.0, 0.06245494868362265
1119.0, 0.05850286158556411
1120.0, 0.056694247416152976
1121.0, 0.054721361136452124
1122.0, 0.054166858315161104
1123.0, 0.053526723936904406
1124.0, 0.049182419417579504
1125.0, 0.048864471306467455
1126.0, 0.05023382749244823
1127.0, 0.05436769772423925
1128.0, 0.05766804220614398
1129.0, 0.061901372121329123
1130.0, 0.06797072687949764
1131.0, 0.0742403979922456
1132.0, 0.0841807417585424
1133.0, 0.09613837836857983
1134.0, 0.1077914940364831
1135.0, 0.1231786164803596
1136.0, 0.13976701970522792
1137.0, 0.15349347086719592
1138.0, 0.1656530522593889
1139.0, 0.17742606694210813
1140.0, 0.18337946179175268
1141.0, 0.185095833142222
1142.0, 0.18035595814107938
1143.0, 0.1679110729869296
1144.0, 0.15125323466956964
1145.0, 0.13397913992658908
1146.0, 0.11684102030621532
1147.0, 0.10058582350201943
1148.0, 0.08440181387788641
1149.0, 0.07318515409559397
1150.0, 0.060213479656257014
1151.0, 0.05027008355357623
1152.0, 0.043834772481499445
1153.0, 0.037558233834858984
1154.0, 0.03299318697549742
1155.0, 0.030408107279453554
1156.0, 0.026641387952799002
1157.0, 0.021607183895162283
1158.0, 0.018171796549514212
1159.0, 0.016410506804700985
1160.0, 0.011925866355743466
1161.0, 0.01334014763895621
1162.0, 0.014033500279468605
1163.0, 0.010331068138173085
1164.0, 0.006939143564712228
1165.0, 0.005060895401224759
1166.0, 0.0043834647370212055
1167.0, 0.003858875981152227
1168.0, 0.0023964978229032946
1169.0, 0.001302792935447999
1170.0, 0.0006588863201854074
1171.0, 0.0022518228350920586
1172.0, 0.0030716409558325156
1173.0, 0.002115241626477068
1174.0, 0.00160968604009338
1175.0, 0.002213106237105973
1176.0, 0.0017426473351732914
1177.0, 0.00093616786700717
1178.0, 4.711352116790456e-05
1179.0, 0.0003133709554784585
1180.0, 0.0012010738366771301
1181.0, 0.00023698023279833814
1182.0, 0.0011926303576355376
1183.0, 0.0011375069373846815
1184.0, 0.002001632755260001
1185.0, 0.0009732538557722563
1186.0, 0.0012638415217742802
1187.0, 0.0008233419335335022
1188.0, 0.0009240126239602659
1189.0, 0.0012884351526330205
1190.0, 0.0004040713158420967
1191.0, 0.00026015591854183974
1192.0, 0.0017696772847001288
1193.0, 0.002309456879915303
1194.0, 0.0027552115700577207
1195.0, 0.00401335406503643
1196.0, 0.006157426568394064
1197.0, 0.007527903349782545
1198.0, 0.009641544454784358
1199.0, 0.009139982582914485
1200.0, 0.009414758409002508
1201.0, 0.009668677258108788
1202.0, 0.009897211182995963
1203.0, 0.011240579533210908
1204.0, 0.010796692794450361
1205.0, 0.008463454289099885
1206.0, 0.009950172931586714
1207.0, 0.00875896230139376
1208.0, 0.009245402541304319
1209.0, 0.008288950408240571
1210.0, 0.008555175216435527
1211.0, 0.008470336775590202
1212.0, 0.006253358178296549
1213.0, 0.008463222070955916
1214.0, 0.00979699173211165
1215.0, 0.008211306577145028
1216.0, 0.007586538905029956
1217.0, 0.005897704723196723
1218.0, 0.004553889836609477
1219.0, 0.007346232885885792
1220.0, 0.005532858624949874
1221.0, 0.005304035878048864
1222.0, 0.005743749822307258
1223.0, 0.0061641325285672335
1224.0, 0.007223020129129842
1225.0, 0.008079386419765326
1226.0, 0.008480551405718408
1227.0, 0.0076852580377389
1228.0, 0.0065976669492870225
1229.0, 0.005703086114757209
1230.0, 0.005699296335265815
1231.0, 0.008541294106512403
1232.0, 0.007342976436109679
1233.0, 0.008239455289149883
1234.0, 0.008145845530859461
1235.0, 0.009186682621640019
1236.0, 0.006941874496912425
1237.0, 0.0061177110526742465
1238.0, 0.0038948279537100523
1239.0, 0.0034532614147905244
1240.0, 0.0035832680851536685
1241.0, 0.003364087919383691
1242.0, 0.0032546625380258246
1243.0, 0.002411743256230551
1244.0, 0.0014253457587282302
1245.0, 0.0005646477504425487
1246.0, 0.0001233351339343471
1247.0, 0.0009961297133876336
1248.0, 0.00023039805799195877
1249.0, 0.000614760795286312
1250.0, 0.00035553148343897014
1251.0, 0.0017578050916582223
1252.0, 0.0006508845322060835
1253.0, 0.0006905493143336878
1254.0, 0.00034316242123025954
1255.0, 0.0006403962124262146
1256.0, 0.0005765648152182562
1257.0, 0.0019991011608206464
1258.0, 0.0029320228623167157
1259.0, 0.003544829517670918
1260.0, 0.0027969059671950035
1261.0, 0.0029048272483321717
1262.0, 0.004308014311929264
1263.0, 0.004772411684007412
1264.0, 0.005725480494583072
1265.0, 0.005243415520988555
1266.0, 0.0044176633431611025
1267.0, 0.005428394453811291
1268.0, 0.006310986102727894
1269.0, 0.00641633346228982
1270.0, 0.006671545403027071
1271.0, 0.005487610246448861
1272.0, 0.0036438430353729952
1273.0, 0.0056908500050582185
1274.0, 0.004472904978863684
1275.0, 0.006334895110907516
1276.0, 0.004766033048460312
1277.0, 0.00431535407390493
1278.0, 0.002108369403348639
1279.0, 0.002154419862539845
1280.0, 0.001107679018415472
1281.0, 0.0016069686725320746
1282.0, 0.0024059333391395336
1283.0, 0.002346074895665661
1284.0, 0.002632300505975507
1285.0, 0.0023809704613642745
1286.0, 0.0005623000757365007
1287.0, 0.0006637458094131219
1288.0, 0.0019035624969580976
1289.0, 0.0013710821699136
1290.0, 0.0005076000926743896
1291.0, 0.003069477895349177
1292.0, 0.0020567874658746037
1293.0, 0.0050852774883775155
1294.0, 0.005624051799484566
1295.0, 0.006065322643491202
1296.0, 0.0063241177308197925
1297.0, 0.006229008419688629
1298.0, 0.00733875694992991
1299.0, 0.00621476952652071
1300.0, 0.0035691767999727364
1301.0, 0.001566789976768262
1302, 0.0
1303, 0.0
1304, 0.0
1305, 0.0
1306, 0.0
1307, 0.0
1308, 0.0
1309, 0.0
1310, 0.0
1311, 0.0
1312, 0.0
1313, 0.0
1314, 0.0
1315, 0.0
1316, 0.0
1317, 0.0
1318, 0.0
1319, 0.0
1320, 0.0
1321, 0.0
1322, 0.0
1323, 0.0
1324, 0.0
1325, 0.0
1326, 0.0
1327, 0.0
1328, 0.0
1329, 0.0
1330, 0.0
1331, 0.0
1332, 0.0
1333, 0.0
1334, 0.0
1335, 0.0
1336, 0.0
1337, 0.0
1338, 0.0
1339, 0.0
1340, 0.0
1341, 0.0
1342, 0.0
1343, 0.0
1344, 0.0
1345, 0.0
1346, 0.0
1347, 0.0
1348, 0.0
1349, 0.0
1350, 0.0
1351, 0.0
1352, 0.0
1353, 0.0
1354, 0.0
1355, 0.0
1356, 0.0
1357, 0.0
1358, 0.0
1359, 0.0
1360, 0.0
1361, 0.0
1362, 0.0
1363, 0.0
1364, 0.0
1365, 0.0
1366, 0.0
1367, 0.0
1368, 0.0
1369, 0.0
1370, 0.0
1371, 0.0
1372, 0.0
1373, 0.0
1374, 0.0
1375, 0.0
1376, 0.0
1377, 0.0
1378, 0.0
1379, 0.0
1380, 0.0
1381, 0.0
1382, 0.0
1383, 0.0
1384, 0.0
1385, 0.0
1386, 0.0
1387, 0.0
1388, 0.0
1389, 0.0
1390, 0.0
1391, 0.0
1392, 0.0
1393, 0.0
1394, 0.0
1395, 0.0
1396, 0.0
1397, 0.0
1398, 0.0
1399, 0.0
1400, 0.0
1401, 0.0
1402, 0.0
1403, 0.0
1404, 0.0
1405, 0.0
1406, 0.0
1407, 0.0
1408, 0.0
1409, 0.0
1410, 0.0
1411, 0.0
1412, 0.0
1413, 0.0
1414, 0.0
1415, 0.0
1416, 0.0
1417, 0.0
1418, 0.0
1419, 0.0
1420, 0.0
1421, 0.0
1422, 0.0
1423, 0.0
1424, 0.0
1425, 0.0
1426, 0.0
1427, 0.0
1428, 0.0
1429, 0.0
1430, 0.0
1431, 0.0
1432, 0.0
1433, 0.0
1434, 0.0
1435, 0.0
1436, 0.0
1437, 0.0
1438, 0.0
1439, 0.0
1440, 0.0
1441, 0.0
1442, 0.0
1443, 0.0
1444, 0.0
1445, 0.0
1446, 0.0
1447, 0.0
1448, 0.0
1449, 0.0
1450, 0.0
1451, 0.0
1452, 0.0
1453, 0.0
1454, 0.0
1455, 0.0
1456, 0.0
1457, 0.0
1458, 0.0
1459, 0.0
1460, 0.0
1461, 0.0
1462, 0.0
1463, 0.0
1464, 0.0
1465, 0.0
1466, 0.0
1467, 0.0
1468, 0.0
1469, 0.0
1470, 0.0
1471, 0.0
1472, 0.0
1473, 0.0
1474, 0.0
1475, 0.0
1476, 0.0
1477, 0.0
1478, 0.0
1479, 0.0
1480, 0.0
1481, 0.0
1482, 0.0
1483, 0.0
1484, 0.0
1485, 0.0
1486, 0.0
1487, 0.0
1488, 0.0
1489, 0.0
1490, 0.0
1491, 0.0
1492, 0.0
1493, 0.0
1494, 0.0
1495, 0.0
1496, 0.0
1497, 0.0
1498, 0.0
1499, 0.0
1500, 0.0
1501, 0.0
1502, 0.0
1503, 0.0
1504, 0.0
1505, 0.0
1506, 0.0
1507, 0.0
1508, 0.0
1509, 0.0
1510, 0.0
1511, 0.0
1512, 0.0
1513, 0.0
1514, 0.0
1515, 0.0
1516, 0.0
1517, 0.0
1518, 0.0
1519, 0.0
1520, 0.0
1521, 0.0
1522, 0.0
1523, 0.0
1524, 0.0
1525, 0.0
1526, 0.0
1527, 0.0
1528, 0.0
1529, 0.0
1530, 0.0
1531, 0.0
1532, 0.0
1533, 0.0
1534, 0.0
1535, 0.0
1536, 0.0
1537, 0.0
1538, 0.0
1539, 0.0
1540, 0.0
1541, 0.0
1542, 0.0
1543, 0.0
1544, 0.0
1545, 0.0
1546, 0.0
1547, 0.0
1548, 0.0
1549, 0.0
1550, 0.0
1551, 0.0
1552, 0.0
1553, 0.0
1554, 0.0
1555, 0.0
1556, 0.0
1557, 0.0
1558, 0.0
1559, 0.0
1560, 0.0
1561, 0.0
1562, 0.0
1563, 0.0
1564, 0.0
1565, 0.0
1566, 0.0
1567, 0.0
1568, 0.0
1569, 0.0
1570, 0.0
1571, 0.0
1572, 0.0
1573, 0.0
1574, 0.0
1575, 0.0
1576, 0.0
1577, 0.0
1578, 0.0
1579, 0.0
1580, 0.0
1581, 0.0
1582, 0.0
1583, 0.0
1584, 0.0
1585, 0.0
1586, 0.0
1587, 0.0
1588, 0.0
1589, 0.0
1590, 0.0
1591, 0.0
1592, 0.0
1593, 0.0
1594, 0.0
1595, 0.0
1596, 0.0
1597, 0.0
1598, 0.0
1599, 0.0
