30, 0.0
31, 0.0
32, 0.0
33, 0.0
34, 0.0
35, 0.0
36, 0.0
37, 0.0
38, 0.0
39, 0.0
40, 0.0
41, 0.0
42, 0.0
43, 0.0
44, 0.0
45, 0.0
46, 0.0
47, 0.0
48, 0.0
49, 0.0
50, 0.0
51, 0.0
52, 0.0
53, 0.0
54, 0.0
55, 0.0
56, 0.0
57, 0.0
58, 0.0
59, 0.0
60, 0.0
61, 0.0
62, 0.0
63, 0.0
64, 0.0
65, 0.0
66, 0.0
67, 0.0
68, 0.0
69, 0.0
70, 0.0
71, 0.0
72, 0.0
73, 0.0
74, 0.0
75, 0.0
76, 0.0
77, 0.0
78, 0.0
79, 0.0
80, 0.0
81, 0.0
82, 0.0
83, 0.0
84, 0.0
85, 0.0
86, 0.0
87, 0.0
88, 0.0
89, 0.0
90, 0.0
91, 0.0
92, 0.0
93, 0.0
94, 0.0
95, 0.0
96, 0.0
97, 0.0
98, 0.0
99, 0.0
100, 0.0
101, 0.0
102, 0.0
103, 0.0
104, 0.0
105, 0.0
106, 0.0
107, 0.0
108, 0.0
109, 0.0
110, 0.0
111, 0.0
112, 0.0
113, 0.0
114, 0.0
115, 0.0
116, 0.0
117, 0.0
118, 0.0
119, 0.0
120, 0.0
121, 0.0
122, 0.0
123, 0.0
124, 0.0
125, 0.0
126, 0.0
127, 0.0
128, 0.0
129, 0.0
130, 0.0
131, 0.0
132, 0.0
133, 0.0
134, 0.0
135, 0.0
136, 0.0
137, 0.0
138, 0.0
139, 0.0
140, 0.0
141, 0.0
142, 0.0
143, 0.0
144, 0.0
145, 0.0
146, 0.0
147, 0.0
148, 0.0
149, 0.0
150, 0.0
151, 0.0
152, 0.0
153, 0.0
154, 0.0
155, 0.0
156, 0.0
157, 0.0
158, 0.0
159, 0.0
160, 0.0
161, 0.0
162, 0.0
163, 0.0
164, 0.0
165, 0.0
166, 0.0
167, 0.0
168, 0.0
169, 0.0
170, 0.0
171, 0.0
172, 0.0
173, 0.0
174, 0.0
175, 0.0
176, 0.0
177, 0.0
178, 0.0
179, 0.0
180, 0.0
181, 0.0
182, 0.0
183, 0.0
184, 0.0
185, 0.0
186, 0.0
187, 0.0
188, 0.0
189, 0.0
190, 0.0
191, 0.0
192, 0.0
193, 0.0
194.0, 0.00028721358568779137
195.0, 0.0037025814240819574
196.0, 0.002257373860426865
197.0, 0.0003181949985011397
198.0, 0.00044288849812826076
199.0, 0.004305892901007949
200.0, 0.0037381980583996483
201.0, 0.005964254687302354
202.0, 0.011021334469753086
203.0, 0.017322277274577427
204.0, 0.025468986293564852
205.0, 0.036196952437581136
206.0, 0.04685502923838589
207.0, 0.05596790281148431
208.0, 0.06345771571348409
209.0, 0.0684908373219692
210.0, 0.07738753013223496
211.0, 0.09051350991399641
212.0, 0.10550122070883737
213.0, 0.11814365199019894
214.0, 0.12851839475354335
215.0, 0.13629147881772544
216.0, 0.1436704354284709
217.0, 0.15413946557665603
218.0, 0.15147611906837755
219.0, 0.1463526660680011
220.0, 0.13612682376843632
221.0, 0.11395766959510398
222.0, 0.09854116706571725
223.0, 0.08666405045433982
224.0, 0.07628659027198104
225.0, 0.06773023928308892
226.0, 0.06385650671432481
227.0, 0.05707158365069157
228.0, 0.05211897228405968
229.0, 0.0504169328100642
230.0, 0.048442145860398536
231.0, 0.04089155853175369
232.0, 0.03327454265920446
233.0, 0.023571414552002286
234.0, 0.01211508391355382
235.0, 0.008688642047886665
236.0, 0.0038255710561385277
237.0, 0.007957963959549355
238.0, 0.0028428733264015266
239.0, 0.0010279073236261786
240.0, 0.005242986972749445
241.0, 0.00615514780394656
242.0, 0.008221083843896594
243.0, 0.017420012196650698
244.0, 0.027035648477527586
245.0, 0.034999498540336224
246.0, 0.046114755868696365
247.0, 0.05656353109149855
248.0, 0.05687852612308813
249.0, 0.06830877407368909
250.0, 0.08236106308469401
251.0, 0.09332774952784838
252.0, 0.10113827464780321
253.0, 0.11861121653876118
254.0, 0.1277440350500214
255.0, 0.13658971931891692
256.0, 0.14766754196746362
257.0, 0.1546651298952342
258.0, 0.16408503854261258
259.0, 0.16636753529006407
260.0, 0.16598499468935973
261.0, 0.16663919516831993
262.0, 0.15822922747335452
263.0, 0.14930907424372966
264.0, 0.1355073635326254
265.0, 0.11766254846889664
266.0, 0.10271114404152687
267.0, 0.10035825545498783
268.0, 0.08957823045825822
269.0, 0.07527338626770094
270.0, 0.06769408798297669
271.0, 0.0659640360002679
272.0, 0.05786846634132648
273.0, 0.05352118958408643
274.0, 0.05174093179114267
275.0, 0.04520260022162471
276.0, 0.04540583308773853
277.0, 0.044920425136619126
278.0, 0.04610313103703423
279.0, 0.04927074084897993
280.0, 0.048486648037959296
281.0, 0.04975416744271245
282.0, 0.051735731301122745
283.0, 0.05241059297846835
284.0, 0.05280207788331249
285.0, 0.05785347398436228
286.0, 0.062074689330838075
287.0, 0.0709223098640195
288.0, 0.08150158371033409
289.0, 0.08399635003871783
290.0, 0.09284259849660755
291.0, 0.10088654547950794
292.0, 0.10629922326767972
293.0, 0.11164782938472136
294.0, 0.1210533524506639
295.0, 0.12214874098892783
296.0, 0.12498728734968141
297.0, 0.1269047289652533
298.0, 0.11915497249355202
299.0, 0.1148472952041792
300.0, 0.11261904890505638
301.0, 0.11119268882988717
302.0, 0.1058648385432498
303.0, 0.08930508780957395
304.0, 0.07745371898043948
305.0, 0.06523119871024455
306.0, 0.058115120877703055
307.0, 0.057997573826291615
308.0, 0.047690144651430684
309.0, 0.04312289712199566
310.0, 0.04053165702442434
311.0, 0.03558035300639512
312.0, 0.02965942250316431
313.0, 0.028148100685429823
314.0, 0.027970038803023105
315.0, 0.02661234364572924
316.0, 0.02539857893975612
317.0, 0.02886984748762206
318.0, 0.02483795660807931
319.0, 0.023076037893678385
320.0, 0.021486034137654555
321.0, 0.01652842625152414
322.0, 0.015343421558504376
323.0, 0.013492151305296393
324.0, 0.01177652060748141
325.0, 0.011769722230494998
326.0, 0.012900600662249812
327.0, 0.0071142754334126085
328.0, 0.0040270503699201534
329.0, 0.005121473242066763
330.0, 0.00761402521252382
331.0, 0.007235093222158792
332.0, 0.0020893507308858963
333.0, 0.0032357179581516465
334.0, 0.0004544615392190442
335.0, 0.0009217159248551982
336.0, 0.0005646808544259206
337.0, 0.007800722344369696
338.0, 0.01036588221100112
339.0, 0.005086997978426145
340.0, 0.0004885463041255177
341.0, 0.0035695467936211187
342.0, 0.0023231690617928086
343.0, 0.00027190827190778596
344.0, 0.0006635660487139792
345.0, 0.0007767240521720761
346.0, 0.007843761020816204
347.0, 0.013786431940469811
348.0, 0.016718028988249835
349.0, 0.021209719246116476
350.0, 0.031497762537198264
351.0, 0.038150255057665124
352.0, 0.044152020102729596
353.0, 0.05695796929053974
354.0, 0.07399229620658984
355.0, 0.08024685744893574
356.0, 0.0927938643826393
357.0, 0.1099753846386701
358.0, 0.12389692702484036
359.0, 0.1346138760753046
360.0, 0.16074492607433918
361.0, 0.18657193926637375
362.0, 0.20777836835558075
363.0, 0.2318196757023716
364.0, 0.26542255533637854
365.0, 0.29476752712059634
366.0, 0.3218828676122657
367.0, 0.3523842598719918
368.0, 0.3805841169328947
369.0, 0.39410310485573086
370.0, 0.41622807369886716
371.0, 0.4387644718824679
372.0, 0.4533508748295506
373.0, 0.46419047868678726
374.0, 0.4871490461511697
375.0, 0.5051104114912185
376.0, 0.5166994427008521
377.0, 0.5317846882361236
378.0, 0.5477879299148126
379.0, 0.5438183133744792
380.0, 0.537418734124332
381.0, 0.5215675725559741
382.0, 0.49744271576706356
383.0, 0.4663210962687563
384.0, 0.41968639288188847
385.0, 0.3682761081578614
386.0, 0.3310184637892893
387.0, 0.30527675833774065
388.0, 0.28022601410920267
389.0, 0.2531662139509654
390.0, 0.22869067676510532
391.0, 0.21811471693592188
392.0, 0.20818890599526207
393.0, 0.1870816689120783
394.0, 0.1778522734432321
395.0, 0.16389626863214046
396.0, 0.15648263921286631
397.0, 0.15256897538560868
398.0, 0.1422712333635716
399.0, 0.14036162003758454
400.0, 0.12490097914172629
401.0, 0.11170725395650888
402.0, 0.10401278591385715
403.0, 0.09600104708728088
404.0, 0.09533257647734891
405.0, 0.08601974866157806
406.0, 0.07738725929685843
407.0, 0.07222863030155757
408.0, 0.06514683190338968
409.0, 0.06403704982585044
410.0, 0.06286758397118321
411.0, 0.06385543528911324
412.0, 0.06393197254435609
413.0, 0.05770506956971236
414.0, 0.05722217684461365
415.0, 0.05588908503270165
416.0, 0.04913119055601471
417.0, 0.038558199032784894
418.0, 0.0305032766785917
419.0, 0.03202018378421995
420.0, 0.025248721511324082
421.0, 0.01409131097091926
422.0, 0.00435920630457469
423.0, 0.0025578954372397675
424.0, 0.002284427074333763
425.0, 0.010623545114160205
426.0, 0.009266152096321166
427.0, 0.0012722503650944253
428.0, 0.003866663582601941
429.0, 0.0013118973230088434
430.0, 0.0023994857800499927
431.0, 0.002443301327001709
432.0, 0.002372064758304702
433.0, 0.007223310931816192
434.0, 0.007827845494366806
435.0, 0.021925287467508665
436.0, 0.03161066189591476
437.0, 0.03283334150922282
438.0, 0.038830154274576076
439.0, 0.05494294836106057
440.0, 0.06857925912484125
441.0, 0.08217327394005951
442.0, 0.09557422618472897
443.0, 0.10702006776330969
444.0, 0.12344123076906124
445.0, 0.1440813420002903
446.0, 0.1602784959731644
447.0, 0.17600232833093535
448.0, 0.19911321495908696
449.0, 0.22261431335251877
450.0, 0.23719438517866478
451.0, 0.24867469189349412
452.0, 0.25859451183626375
453.0, 0.2659671778737454
454.0, 0.2748174304499017
455.0, 0.27817267323768446
456.0, 0.2736509186652248
457.0, 0.2645955504933106
458.0, 0.2554488982463814
459.0, 0.24499528811176954
460.0, 0.23605491382481616
461.0, 0.22249350742924207
462.0, 0.2080802356287965
463.0, 0.19606499093374108
464.0, 0.1827396169525017
465.0, 0.17231652224742522
466.0, 0.15822622243602907
467.0, 0.14082281184645162
468.0, 0.12270093931777182
469.0, 0.10738268255882855
470.0, 0.09801559227705907
471.0, 0.09132784925488173
472.0, 0.0822814947888489
473.0, 0.07272965867553258
474.0, 0.07002879819746409
475.0, 0.07151415097697567
476.0, 0.07979415405824446
477.0, 0.09008787969920744
478.0, 0.09643666165281717
479.0, 0.10070266896454313
480.0, 0.12295096044481892
481.0, 0.1392392380283929
482.0, 0.1587569036669695
483.0, 0.18142348562170485
484.0, 0.2012921812183378
485.0, 0.22296638411507747
486.0, 0.24010118428053961
487.0, 0.25020373438031773
488.0, 0.2539782538880318
489.0, 0.25188538206700345
490.0, 0.2417918781722137
491.0, 0.22587124031818676
492.0, 0.21506366104394734
493.0, 0.19971680620599339
494.0, 0.18043430345332284
495.0, 0.17583549683202507
496.0, 0.16107880397840282
497.0, 0.14728300333442465
498.0, 0.1352010567633789
499.0, 0.11873881828225721
500.0, 0.09677236135301227
501.0, 0.0840115287175053
502.0, 0.07113572956696275
503.0, 0.05198365915295096
504.0, 0.036155344963771575
505.0, 0.03174362805699186
506.0, 0.019181940408581094
507.0, 0.011121713535766443
508.0, 0.006592788484184594
509.0, 0.005388167779991946
510.0, 0.004268187960993023
511.0, 0.0033497609779893273
512.0, 0.004193067422381274
513.0, 0.005235018769938239
514.0, 0.0021170440508002063
515.0, 0.0021342142079929013
516.0, 0.0018210951082756376
517.0, 0.0009414183317472894
518.0, 0.00028790497689802635
519.0, 0.0038356960230116117
520.0, 0.00464724666270923
521.0, 0.00048353441072390983
522.0, 0.0018251678786331293
523.0, 0.0016584877947029885
524.0, 0.011716119465710391
525.0, 0.01452204117839394
526.0, 0.0068399335464308444
527.0, 0.006507466241349549
528.0, 0.007546742043552164
529.0, 0.011518509303804549
530.0, 0.013242310712115441
531.0, 0.012840900869867266
532.0, 0.013750511221222757
533.0, 0.00255452925818682
534.0, 0.0019416763984699491
535.0, 0.0007526595413147102
536.0, 0.007004610566257363
537.0, 0.015408498395174339
538.0, 0.014092602815350363
539.0, 0.013393969364635508
540.0, 0.010512110897086471
541.0, 0.01277248928644643
542.0, 0.02227518891927901
543.0, 0.0306645535966496
544.0, 0.038240062909382845
545.0, 0.04193904713890357
546.0, 0.04489646280308105
547.0, 0.04900980909997829
548.0, 0.05566092031496412
549.0, 0.07130027030341446
550.0, 0.08883385738957446
551.0, 0.10491919004210482
552.0, 0.1269397615408074
553.0, 0.1583181182528863
554.0, 0.19180278320053723
555.0, 0.2308736100262354
556.0, 0.2757884813826054
557.0, 0.3302391345381768
558.0, 0.3883249368705214
559.0, 0.4475278819555822
560.0, 0.5270162829871357
561.0, 0.6025704770347993
562.0, 0.6781190444105503
563.0, 0.7495877246792717
564.0, 0.8160230178655418
565.0, 0.8842837207021428
566.0, 0.9403065941396296
567.0, 0.9854024001783179
568.0, 0.997395579569903
569.0, 0.9705492898853234
570.0, 0.9152590117979481
571.0, 0.8355895200814475
572.0, 0.7437206407084125
573.0, 0.6406126213000485
574.0, 0.5445829530900774
575.0, 0.4639596976189828
576.0, 0.3924238463662595
577.0, 0.3351150118300878
578.0, 0.29290483033068393
579.0, 0.2561710646236565
580.0, 0.22416306170183062
581.0, 0.19708542764842488
582.0, 0.16586864670183465
583.0, 0.14490928851160995
584.0, 0.1253149356758354
585.0, 0.10992489494627657
586.0, 0.09826458016658153
587.0, 0.08592526221040413
588.0, 0.08274173884980661
589.0, 0.07146389842523576
590.0, 0.0591354673796255
591.0, 0.04844816295459731
592.0, 0.04107255506547321
593.0, 0.038267585319262845
594.0, 0.027057154671648063
595.0, 0.03003346742899174
596.0, 0.02829056617244607
597.0, 0.0236658968468835
598.0, 0.026051577047388197
599.0, 0.02058920084290718
600.0, 0.015450939333998949
601.0, 0.017762685933256087
602.0, 0.01747673333503029
603.0, 0.014129416846920421
604.0, 0.014758760287140332
605.0, 0.00959768761179486
606.0, 0.008716109958149672
607.0, 0.008131418244202536
608.0, 0.005753267900139938
609.0, 0.0014350028093706724
610.0, 0.003417865854560397
611.0, 0.003268705120795529
612.0, 0.0031230620386907383
613.0, 0.0038231464042663846
614.0, 0.004166544352903236
615.0, 0.0013881566004597188
616.0, 0.003331736425686558
617.0, 0.002988067524540225
618.0, 0.0031013283154251656
619.0, 0.0028659750389795173
620.0, 0.006067879189507328
621.0, 0.0003949442509008688
622.0, 0.003899057546649611
623.0, 0.0020305850271681827
624.0, 0.0019144497308802514
625.0, 0.0037854783164885863
626.0, 0.0015038008642205632
627.0, 0.006675766766469022
628.0, 0.0027232110439427944
629.0, 0.011061135388179032
630.0, 0.004698002345395941
631.0, 0.0027680852034661745
632.0, 0.0019495848646804144
633.0, 0.0012379100978949706
634.0, 0.006400870730567532
635.0, 0.001732152123916822
636.0, 0.002141419384997944
637.0, 0.0047073142390783975
638.0, 0.004780433742307402
639.0, 0.008333353208803518
640.0, 0.010320408194298433
641.0, 0.006403193544431239
642.0, 0.0061334694466345105
643.0, 0.0074048075364526655
644.0, 0.006030819150491134
645.0, 0.00623839479807413
646.0, 0.009948187403180445
647.0, 0.013386662508456408
648.0, 0.017320883617410333
649.0, 0.019345063943218284
650.0, 0.019090136098189728
651.0, 0.0212587265077599
652.0, 0.020033695442758615
653.0, 0.021315934797372506
654.0, 0.027138290130513273
655.0, 0.03238557017680333
656.0, 0.03172921355222639
657.0, 0.02627467078040279
658.0, 0.02977071234635497
659.0, 0.03612206456794736
660.0, 0.04103348281040419
661.0, 0.049425421567549165
662.0, 0.05541551084508595
663.0, 0.042663641876286136
664.0, 0.056538694636031436
665.0, 0.05973140231187106
666.0, 0.06262334117602199
667.0, 0.06569072352021257
668.0, 0.06164896755448833
669.0, 0.058844402707340135
670.0, 0.04830074082043421
671.0, 0.04768077189325052
672.0, 0.04674963450998495
673.0, 0.043088612734988846
674.0, 0.040105518181551746
675.0, 0.031612676148660444
676.0, 0.023266677221730654
677.0, 0.0184223563528605
678.0, 0.024453267413734363
679.0, 0.025662595635138504
680.0, 0.015221605417489579
681.0, 0.018110255031584505
682.0, 0.022919517899983165
683.0, 0.02153354647366671
684.0, 0.022820379889110214
685.0, 0.02348360313313265
686.0, 0.020535687287800888
687.0, 0.021769885393608825
688.0, 0.031023006167251326
689.0, 0.03170596860127557
690.0, 0.031396923595586344
691.0, 0.034140125530964655
692.0, 0.03426656360071823
693.0, 0.02928427560348322
694.0, 0.04057103279969562
695.0, 0.03189934812151385
696.0, 0.03210232499738426
697.0, 0.033641538281506095
698.0, 0.03204091877592018
699.0, 0.037886097578412714
700.0, 0.027595185657895985
701.0, 0.02918442911308503
702.0, 0.02287456683610153
703.0, 0.019842135402925228
704.0, 0.022028794222679993
705.0, 0.015461532922480536
706.0, 0.01357327677261362
707.0, 0.024443322493940742
708.0, 0.021994672056218943
709.0, 0.011149823342497651
710.0, 0.0067390598053107395
711.0, 0.012827550612424637
712.0, 0.016345757510674488
713.0, 0.006564614782248472
714.0, 0.0021700187134388225
715.0, 0.0047385608284696915
716.0, 0.008804449958652868
717.0, 0.01007657025562696
718.0, 0.008544829865589985
719.0, 0.007158050484639195
720.0, 0.0014884774666878756
721.0, 0.009206363181584163
722.0, 0.009247753463211668
723.0, 0.002979586111661725
724.0, 0.0004567410137635552
725.0, 0.0040552924159585535
726.0, 0.008289816119013683
727.0, 0.006850455105194842
728.0, 0.001597031883918309
729.0, 0.0015703613686841049
730.0, 0.00249697403393667
731.0, 0.003797252353205408
732.0, 0.0019562661076409403
733.0, 0.00045532415149164107
734.0, 0.0016018345846533365
735.0, 0.00010753009092037187
736.0, 0.00044851512086851336
737.0, 0.007089911530808259
738.0, 0.008292974134907908
739.0, 0.009167435568901048
740.0, 0.009368247970780744
741.0, 0.009142013063578156
742.0, 0.010255669471532258
743.0, 0.011783882577035028
744.0, 0.007204967181660521
745.0, 0.0031176157208787133
746.0, 0.001857323626807279
747.0, 0.00032942737462325405
748.0, 0.0001517679374915097
749.0, 0.00262948130527742
750.0, 0.004511444155893387
751.0, 0.00256367804401508
752.0, 0.0018603046904305035
753.0, 0.005041205005828598
754.0, 0.010480570513533146
755.0, 0.0118554367260683
756.0, 0.006727524645872468
757.0, 0.006438339950220179
758.0, 0.013663907335425803
759.0, 0.010664430470626835
760.0, 0.007152664200716899
761.0, 0.007161068782171386
762.0, 0.006098083467155876
763.0, 0.00762483384966439
764.0, 0.010869406321022058
765.0, 0.0040857973473169456
766.0, 0.006795512325094747
767.0, 0.009550140450724704
768.0, 0.00346306788794768
769.0, 0.00040119751482925643
770.0, 0.004842454929527452
771.0, 0.008727076778142315
772.0, 0.004295728228992848
773.0, 0.004525621919274244
774.0, 0.010781978940489469
775.0, 0.013928313079472865
776.0, 0.009635817616109271
777.0, 0.010658735171122558
778.0, 0.010368975442184576
779.0, 0.009912250069246382
780.0, 0.006728690282730243
781.0, 0.006304586363167472
782.0, 0.012027766069689062
783.0, 0.006296643296570079
784.0, 0.00544050638964348
785.0, 0.004854439540787978
786.0, 0.006989773881879513
787.0, 0.008663190682857758
788.0, 0.007668380661714732
789.0, 0.009122701444037661
790.0, 0.019477490330130454
791.0, 0.011208258703710332
792.0, 0.013802098858622377
793.0, 0.014960716584310838
794.0, 0.013984806803247249
795.0, 0.016675613008507697
796.0, 0.01487203232275694
797.0, 0.014831537416600728
798.0, 0.009744225712394725
799.0, 0.014886353842091965
800.0, 0.016602083105420423
801.0, 0.014399941777960227
802.0, 0.01812222444496911
803.0, 0.021566447288456317
804.0, 0.013963071686586417
805.0, 0.017499810178061435
806.0, 0.015405832321568886
807.0, 0.016015434438564943
808.0, 0.023072435013426144
809.0, 0.02467483480080809
810.0, 0.020014425501449776
811.0, 0.016617748480904405
812.0, 0.019066217026541765
813.0, 0.022475286231083677
814.0, 0.02215407799695068
815.0, 0.017976150514793534
816.0, 0.014812690855396042
817.0, 0.01833736038826743
818.0, 0.012541146434960588
819.0, 0.017915301449668825
820.0, 0.017086864321274875
821.0, 0.013358656910421745
822.0, 0.014732848604883393
823.0, 0.016905359812007546
824.0, 0.01594515109639097
825.0, 0.01363753424695268
826.0, 0.014541734160626058
827.0, 0.018054670720244408
828.0, 0.016767270213458474
829.0, 0.012437249924995557
830.0, 0.01437995777924978
831.0, 0.01755027046676293
832.0, 0.014859882277593882
833.0, 0.007876641131402514
834.0, 0.00785997490404383
835.0, 0.009936966967836035
836.0, 0.011564954538885635
837.0, 0.01634623313665201
838.0, 0.015568426555319885
839.0, 0.0077339800454436095
840.0, 0.005685236350051783
841.0, 0.008468871974987078
842.0, 0.008994360271544467
843.0, 0.004586067793636185
844.0, 0.0002862729504324351
845.0, 0.001875762891097245
846.0, 0.0037569026812799638
847.0, 0.0012976074048125794
848.0, 0.0018981805243814993
849.0, 0.0005927297567589981
850.0, 0.0006269094687199883
851.0, 0.0008752059121568709
852.0, 0.0046350670823145645
853.0, 0.008972741470226227
854.0, 0.002887340590766092
855.0, 0.00447085263386836
856.0, 0.0003057756766148413
857.0, 0.003962771645585776
858.0, 0.003354853628977682
859.0, 0.005718032800502717
860.0, 0.004012119683673259
861.0, 0.001397898808846973
862.0, 0.004099604072988951
863.0, 0.0026608631313428887
864.0, 0.002514709402116913
865.0, 0.009171093591578394
866.0, 0.008340817406374304
867.0, 0.003732709284620419
868.0, 0.0021533372564551466
869.0, 0.0064535187051077796
870.0, 0.005538611856280271
871.0, 0.0002661269192916909
872.0, 0.0029557242437786803
873.0, 0.007037444913814031
874.0, 0.0020987997784057224
875.0, 0.003737754270983396
876.0, 0.0011854273917654816
877.0, 0.0029408345810017565
878.0, 0.006054220333562747
879.0, 0.0014705346725836694
880.0, 0.0020073090045138204
881.0, 0.001344467748330853
882.0, 0.004792153557573996
883.0, 0.007275986374443386
884.0, 0.013780155262934796
885.0, 0.02023067689629809
886.0, 0.021608919793464847
887.0, 0.021307401568137763
888.0, 0.023982225362963912
889.0, 0.01944790055904503
890.0, 0.031904349126820525
891.0, 0.0488793683420637
892.0, 0.05041995192769102
893.0, 0.04967574830471065
894.0, 0.061098648557170815
895.0, 0.0773951889812818
896.0, 0.08441582265248788
897.0, 0.09653456840518869
898.0, 0.1070787958521844
899.0, 0.11587854000440816
900.0, 0.12277474039748175
901.0, 0.1366867014465848
902.0, 0.15747574177871346
903.0, 0.16766542429905207
904.0, 0.1667293808948381
905.0, 0.17901718953402035
906.0, 0.18684237067360862
907.0, 0.1943366568745534
908.0, 0.20225555802099754
909.0, 0.204617776775041
910.0, 0.2048995928723822
911.0, 0.21576374992679542
912.0, 0.21998118822116902
913.0, 0.2180738667578265
914.0, 0.21625981570552152
915.0, 0.2126303694641206
916.0, 0.1996286368482266
917.0, 0.17756673381037053
918.0, 0.1522847887564426
919.0, 0.12557010135365218
920.0, 0.11099535852050896
921.0, 0.0949032389663161
922.0, 0.06881460170590367
923.0, 0.05042968497837237
924.0, 0.04232766918559251
925.0, 0.03589746734376044
926.0, 0.032217334550812264
927.0, 0.03582727036156503
928.0, 0.03909985906642473
929.0, 0.05165216451638682
930.0, 0.05620483501328834
931.0, 0.06085766807905561
932.0, 0.07834102541857235
933.0, 0.09596551935091921
934.0, 0.10085617298793303
935.0, 0.11944920278285222
936.0, 0.132831370683654
937.0, 0.15597466481845917
938.0, 0.1718640082293443
939.0, 0.18813381278802424
940.0, 0.21509568679000174
941.0, 0.2445568234386227
942.0, 0.2648050277244101
943.0, 0.2972692979651645
944.0, 0.32208163395150463
945.0, 0.3567344492748521
946.0, 0.38725698963798894
947.0, 0.4213910578621056
948.0, 0.45726365197081925
949.0, 0.48257536537875245
950.0, 0.5013911125545566
951.0, 0.5224375372833258
952.0, 0.5403408557821648
953.0, 0.5611221982524748
954.0, 0.5789948969104408
955.0, 0.5911297439679956
956.0, 0.5980483663742995
957.0, 0.6066305785987823
958.0, 0.6214181995907299
959.0, 0.6227849051597154
960.0, 0.6330914345433861
961.0, 0.635466203148054
962.0, 0.6301186762148129
963.0, 0.6325620968810655
964.0, 0.6427336760948094
965.0, 0.643586708407588
966.0, 0.6305469644351843
967.0, 0.6400184929008041
968.0, 0.6410652179094812
969.0, 0.6519442703665717
970.0, 0.6509062905715968
971.0, 0.6623641581271363
972.0, 0.6827040512779253
973.0, 0.6950052079666292
974.0, 0.7043367436617589
975.0, 0.7070090465178668
976.0, 0.701603760404565
977.0, 0.6919105610225713
978.0, 0.6713366816016557
979.0, 0.643085655244156
980.0, 0.6235564384208846
981.0, 0.6003638873699956
982.0, 0.5618689194326971
983.0, 0.539111645186238
984.0, 0.5032136555953057
985.0, 0.471900463521412
986.0, 0.44105717457591653
987.0, 0.40833135742472876
988.0, 0.3810911655534969
989.0, 0.35763182856335524
990.0, 0.3290088513277205
991.0, 0.2940688346274438
992.0, 0.2586404157028588
993.0, 0.23035445541091293
994.0, 0.19434080281575183
995.0, 0.1775318327404936
996.0, 0.1557540763360334
997.0, 0.13339783413105574
998.0, 0.11835957310572894
999.0, 0.0995813450612669
1000.0, 0.08706759754645098
1001.0, 0.07930210663212252
1002.0, 0.07522800749850161
1003.0, 0.06719257971349966
1004.0, 0.05742744246265519
1005.0, 0.05001747058408597
1006.0, 0.04777604262836227
1007.0, 0.046925855263968946
1008.0, 0.04311723189842864
1009.0, 0.04718014663173346
1010.0, 0.04830987018695476
1011.0, 0.05221908977378834
1012.0, 0.062418361453150606
1013.0, 0.06404428113814617
1014.0, 0.067093630214789
1015.0, 0.0746634525794723
1016.0, 0.07657632226971212
1017.0, 0.07536660683529929
1018.0, 0.07792285919333035
1019.0, 0.06744418050561456
1020.0, 0.05933360686495056
1021.0, 0.04873377292161172
1022.0, 0.03899382550386821
1023.0, 0.03456830937054078
1024.0, 0.03265980940574198
1025.0, 0.024445925423468736
1026.0, 0.01124677897078846
1027.0, 0.013658621500187708
1028.0, 0.0077018453117053964
1029.0, 0.007520246945610309
1030.0, 0.0022589590074309045
1031.0, 0.0025661651783357373
1032.0, 0.002871844456138801
1033.0, 0.003937014192744291
1034.0, 0.001514355038695584
1035.0, 0.00446907001715169
1036.0, 0.006555624199586991
1037.0, 0.003698123917365213
1038.0, 0.007265329490775287
1039.0, 0.01147137000479435
1040.0, 0.0035848005326124754
1041.0, 0.0008658435111885709
1042.0, 0.0029590133475233685
1043.0, 0.003523714106608978
1044.0, 0.0115256313295434
1045.0, 0.0019388030203590697
1046.0, 0.00040890569748960567
1047.0, 0.0031327768282438813
1048.0, 0.005447470760117526
1049.0, 0.005784453332943798
1050.0, 0.004958262848479097
1051.0, 0.0019703558732601344
1052.0, 0.003234339758415988
1053.0, 0.000936199742642684
1054.0, 0.0020240471322933427
1055.0, 0.0007822837744055062
1056.0, 0.0025832518353060482
1057.0, 0.004010315322532456
1058.0, 0.0007175584359811647
1059.0, 0.0036601435063530682
1060.0, 0.0026497148657115173
1061.0, 0.008177522294277038
1062.0, 0.01033186890776837
1063.0, 0.0074407396718738274
1064.0, 0.011761382103587995
1065.0, 0.0023180540040389627
1066.0, 0.0026168778095606764
1067.0, 0.011004914169955795
1068.0, 0.020676366219768073
1069.0, 0.02267817578421381
1070.0, 0.013646081318442912
1071.0, 0.008186720744910708
1072.0, 0.015089615535352414
1073.0, 0.01043716846582169
1074.0, 0.016376572366947624
1075.0, 0.021047225971386266
1076.0, 0.011914834780289433
1077.0, 0.016924053746139686
1078.0, 0.02922333591886196
1079.0, 0.032326265252291354
1080.0, 0.028631906928336632
1081.0, 0.023837025418337036
1082.0, 0.03327591403500181
1083.0, 0.030332314979817095
1084.0, 0.037321885022124045
1085.0, 0.04570695662267074
1086.0, 0.04239085900953587
1087.0, 0.039561042114130134
1088.0, 0.043653833858811796
1089.0, 0.046338897317679394
1090.0, 0.044512821937471816
1091.0, 0.04673855762166468
1092.0, 0.04712472778936656
1093.0, 0.05579899838837845
1094.0, 0.05372708480286824
1095.0, 0.050436033214817905
1096.0, 0.05288128516816913
1097.0, 0.05992085235646179
1098.0, 0.06254438745804014
1099.0, 0.0637092896915938
1100.0, 0.07567142608763879
1101.0, 0.08785841927006725
1102.0, 0.08562085659959488
1103.0, 0.08839299037391898
1104.0, 0.10038936374255159
1105.0, 0.11973829535134503
1106.0, 0.13232613530625148
1107.0, 0.1354808907249606
1108.0, 0.13455175207777373
1109.0, 0.1387564451538727
1110.0, 0.14991295287095766
1111.0, 0.1543227415844712
1112.0, 0.15755598968818738
1113.0, 0.16389120521951442
1114.0, 0.16365244727474776
1115.0, 0.16544342229162293
1116.0, 0.16270648035900365
1117.0, 0.1590682455724047
1118.0, 0.15650421592762337
1119.0, 0.1534522825158704
1120.0, 0.1510839054824872
1121.0, 0.14678067375963524
1122.0, 0.1442351911579481
1123.0, 0.13185910048613084
1124.0, 0.13438528142644748
1125.0, 0.12611495788673707
1126.0, 0.12659015185468764
1127.0, 0.13352256279194671
1128.0, 0.1340037834858887
1129.0, 0.13321933471303024
1130.0, 0.14367734381723832
1131.0, 0.1543608494690042
1132.0, 0.15234892434503441
1133.0, 0.1718262126993779
1134.0, 0.18733641113116273
1135.0, 0.1920457698725834
1136.0, 0.19713203656528128
1137.0, 0.20341967963109903
1138.0, 0.21056878541378193
1139.0, 0.21489489837250042
1140.0, 0.2191103317116289
1141.0, 0.2212405474632631
1142.0, 0.19974280535794584
1143.0, 0.18317839809295405
1144.0, 0.1756653268019102
1145.0, 0.14981322939379804
1146.0, 0.13601553295098132
1147.0, 0.115506653344654
1148.0, 0.10189416109821693
1149.0, 0.09112142933256519
1150.0, 0.07964526875884896
1151.0, 0.07899110088759659
1152.0, 0.07844571664804262
1153.0, 0.059273265490176426
1154.0, 0.055978563147771304
1155.0, 0.0537223042440807
1156.0, 0.04760024717175394
1157.0, 0.03829165154574396
1158.0, 0.033094594417871354
1159.0, 0.029456027854100432
1160.0, 0.03238323588296512
1161.0, 0.034952389441939354
1162.0, 0.03025566077966711
1163.0, 0.027484672251114624
1164.0, 0.017584234283883594
1165.0, 0.017036375421634355
1166.0, 0.014359298930760168
1167.0, 0.011870337892266216
1168.0, 0.005794544075774272
1169.0, 0.008519689984971946
1170.0, 0.013409646634993598
1171.0, 0.014969544591452983
1172.0, 0.013394505034827588
1173.0, 0.014363544080469113
1174.0, 0.016695946108310843
1175.0, 0.007624045373010112
1176.0, 0.006370264832749796
1177.0, 0.009007641338358473
1178.0, 0.0016811421096279621
1179.0, 0.005987711409917468
1180.0, 0.00386170740540206
1181.0, 0.004295190137164227
1182.0, 0.008063536478834576
1183.0, 0.01010781638741105
1184.0, 0.009201885388054637
1185.0, 0.006107422026173618
1186.0, 0.0040238156787103735
1187.0, 0.001648983352669533
1188.0, 0.008594768360655543
1189.0, 0.009320602213284322
1190.0, 0.0064167365406105955
1191.0, 0.008296675181844855
1192.0, 0.007872526626237572
1193.0, 0.005306924122840036
1194.0, 0.0020647019214930806
1195.0, 0.00042947594433473423
1196.0, 0.0007437674936642364
1197.0, 0.002921566746797332
1198.0, 0.00016294165915928748
1199.0, 0.0008134654084998391
1200.0, 0.004190111577871942
1201.0, 0.0019509203074555203
1202.0, 0.007947658736183907
1203.0, 0.0033597079555637444
1204.0, 0.0018753477475436527
1205.0, 0.0026145148438391995
1206.0, 0.00013551606778463665
1207.0, 0.0018262669313259066
1208.0, 0.007165223654098027
1209.0, 0.00523836697579651
1210.0, 0.010863605095712962
1211.0, 0.0033047422327119095
1212.0, 0.004061824022308429
1213.0, 0.0024163621254057357
1214.0, 0.006868754061821055
1215.0, 0.004335211684185936
1216.0, 0.00023218774139462808
1217.0, 0.0009531441848931448
1218.0, 0.0010009255773725152
1219.0, 0.00618273157990599
1220.0, 0.00939635137862137
1221.0, 0.004811691174744003
1222.0, 0.002258899993250244
1223.0, 0.0021141645318507856
1224.0, 0.005188868462226756
1225.0, 0.003733683745087617
1226.0, 0.0047803990472410985
1227.0, 0.005737124923246044
1228.0, 0.005644047212335438
1229.0, 0.0036774248414059405
1230.0, 0.009739138680246248
1231.0, 0.014844201927680914
1232.0, 0.015071770586896568
1233.0, 0.010825414901509869
1234.0, 0.0031908909492451
1235.0, 0.0005721074499071611
1236.0, 0.006584272317895123
1237.0, 0.0022781662996689727
1238.0, 0.000751262269551734
1239.0, 0.008634421863364206
1240.0, 0.008516439531330584
1241.0, 0.00814190802968021
1242.0, 0.011842922849993777
1243.0, 0.010328590623488567
1244.0, 0.005460930627287663
1245.0, 0.004767008824690742
1246.0, 0.0090131623388534
1247.0, 0.015110333785021933
1248.0, 0.011125740885927361
1249.0, 0.015459956353443643
1250.0, 0.010494697383904265
1251.0, 0.0020619604546064257
1252.0, 0.009855426209797092
1253.0, 0.00976428766292487
1254.0, 0.006287305078801791
1255.0, 0.013189787808401994
1256.0, 0.012150454916855905
1257.0, 0.005884138196981637
1258.0, 0.012610779145848563
1259.0, 0.020459904121065
1260.0, 0.015247432633468878
1261.0, 0.012243584851759854
1262.0, 0.02087968600770969
1263.0, 0.010957945881249903
1264.0, 0.008992643394856665
1265.0, 0.00979419758337337
1266.0, 0.014642218754345961
1267.0, 0.011627155867521213
1268.0, 0.008196548587137796
1269.0, 0.006585766777221203
1270.0, 0.0023787420253658063
1271.0, 0.0034398242785427524
1272.0, 0.009427844194422884
1273.0, 0.009671808762797336
1274.0, 0.005384002036772988
1275.0, 0.011129032902509826
1276.0, 0.011850795620980542
1277.0, 0.007830899851846746
1278.0, 0.014354095233301632
1279.0, 0.004870376538046773
1280.0, 0.0022193067807883943
1281.0, 0.014243064950420915
1282.0, 0.013579339947208549
1283.0, 0.010267412538579634
1284.0, 0.012810644838261259
1285.0, 0.00739338143219527
1286.0, 0.004156219985217518
1287.0, 0.009915359090168992
1288.0, 0.0013340808589079314
1289.0, 0.008845392330260281
1290.0, 0.012361853287789916
1291.0, 0.010779444596334661
1292.0, 0.016080227605270885
1293.0, 0.0032838892964240866
1294.0, 0.007490385522560722
1295.0, 0.008932656855993246
1296.0, 0.01672340708408442
1297.0, 0.013505599896161248
1298.0, 0.005335172275959833
1299.0, 0.010456943583893579
1300.0, 0.01088561199349875
1301.0, 0.00042918562863246054
1302.0, 0.007250017621248375
1303.0, 0.017288295002966997
1304.0, 0.006476013203871788
1305.0, 0.01226237965143003
1306.0, 0.007293728643738928
1307.0, 0.003941778241536259
1308.0, 0.0013366422043273878
1309.0, 0.0041864622890121295
1310.0, 0.010429692423687355
1311.0, 0.010829034227786832
1312.0, 0.005749464847003759
1313.0, 0.003100460932621461
1314.0, 0.006106333963746796
1315.0, 0.0059496272910719876
1316.0, 0.004019367121319245
1317, 0.0
1318, 0.0
1319, 0.0
1320, 0.0
1321, 0.0
1322, 0.0
1323, 0.0
1324, 0.0
1325, 0.0
1326, 0.0
1327, 0.0
1328, 0.0
1329, 0.0
1330, 0.0
1331, 0.0
1332, 0.0
1333, 0.0
1334, 0.0
1335, 0.0
1336, 0.0
1337, 0.0
1338, 0.0
1339, 0.0
1340, 0.0
1341, 0.0
1342, 0.0
1343, 0.0
1344, 0.0
1345, 0.0
1346, 0.0
1347, 0.0
1348, 0.0
1349, 0.0
1350, 0.0
1351, 0.0
1352, 0.0
1353, 0.0
1354, 0.0
1355, 0.0
1356, 0.0
1357, 0.0
1358, 0.0
1359, 0.0
1360, 0.0
1361, 0.0
1362, 0.0
1363, 0.0
1364, 0.0
1365, 0.0
1366, 0.0
1367, 0.0
1368, 0.0
1369, 0.0
1370, 0.0
1371, 0.0
1372, 0.0
1373, 0.0
1374, 0.0
1375, 0.0
1376, 0.0
1377, 0.0
1378, 0.0
1379, 0.0
1380, 0.0
1381, 0.0
1382, 0.0
1383, 0.0
1384, 0.0
1385, 0.0
1386, 0.0
1387, 0.0
1388, 0.0
1389, 0.0
1390, 0.0
1391, 0.0
1392, 0.0
1393, 0.0
1394, 0.0
1395, 0.0
1396, 0.0
1397, 0.0
1398, 0.0
1399, 0.0
1400, 0.0
1401, 0.0
1402, 0.0
1403, 0.0
1404, 0.0
1405, 0.0
1406, 0.0
1407, 0.0
1408, 0.0
1409, 0.0
1410, 0.0
1411, 0.0
1412, 0.0
1413, 0.0
1414, 0.0
1415, 0.0
1416, 0.0
1417, 0.0
1418, 0.0
1419, 0.0
1420, 0.0
1421, 0.0
1422, 0.0
1423, 0.0
1424, 0.0
1425, 0.0
1426, 0.0
1427, 0.0
1428, 0.0
1429, 0.0
1430, 0.0
1431, 0.0
1432, 0.0
1433, 0.0
1434, 0.0
1435, 0.0
1436, 0.0
1437, 0.0
1438, 0.0
1439, 0.0
1440, 0.0
1441, 0.0
1442, 0.0
1443, 0.0
1444, 0.0
1445, 0.0
1446, 0.0
1447, 0.0
1448, 0.0
1449, 0.0
1450, 0.0
1451, 0.0
1452, 0.0
1453, 0.0
1454, 0.0
1455, 0.0
1456, 0.0
1457, 0.0
1458, 0.0
1459, 0.0
1460, 0.0
1461, 0.0
1462, 0.0
1463, 0.0
1464, 0.0
1465, 0.0
1466, 0.0
1467, 0.0
1468, 0.0
1469, 0.0
1470, 0.0
1471, 0.0
1472, 0.0
1473, 0.0
1474, 0.0
1475, 0.0
1476, 0.0
1477, 0.0
1478, 0.0
1479, 0.0
1480, 0.0
1481, 0.0
1482, 0.0
1483, 0.0
1484, 0.0
1485, 0.0
1486, 0.0
1487, 0.0
1488, 0.0
1489, 0.0
1490, 0.0
1491, 0.0
1492, 0.0
1493, 0.0
1494, 0.0
1495, 0.0
1496, 0.0
1497, 0.0
1498, 0.0
1499, 0.0
1500, 0.0
1501, 0.0
1502, 0.0
1503, 0.0
1504, 0.0
1505, 0.0
1506, 0.0
1507, 0.0
1508, 0.0
1509, 0.0
1510, 0.0
1511, 0.0
1512, 0.0
1513, 0.0
1514, 0.0
1515, 0.0
1516, 0.0
1517, 0.0
1518, 0.0
1519, 0.0
1520, 0.0
1521, 0.0
1522, 0.0
1523, 0.0
1524, 0.0
1525, 0.0
1526, 0.0
1527, 0.0
1528, 0.0
1529, 0.0
1530, 0.0
1531, 0.0
1532, 0.0
1533, 0.0
1534, 0.0
1535, 0.0
1536, 0.0
1537, 0.0
1538, 0.0
1539, 0.0
1540, 0.0
1541, 0.0
1542, 0.0
1543, 0.0
1544, 0.0
1545, 0.0
1546, 0.0
1547, 0.0
1548, 0.0
1549, 0.0
1550, 0.0
1551, 0.0
1552, 0.0
1553, 0.0
1554, 0.0
1555, 0.0
1556, 0.0
1557, 0.0
1558, 0.0
1559, 0.0
1560, 0.0
1561, 0.0
1562, 0.0
1563, 0.0
1564, 0.0
1565, 0.0
1566, 0.0
1567, 0.0
1568, 0.0
1569, 0.0
1570, 0.0
1571, 0.0
1572, 0.0
1573, 0.0
1574, 0.0
1575, 0.0
1576, 0.0
1577, 0.0
1578, 0.0
1579, 0.0
1580, 0.0
1581, 0.0
1582, 0.0
1583, 0.0
1584, 0.0
1585, 0.0
1586, 0.0
1587, 0.0
1588, 0.0
1589, 0.0
1590, 0.0
1591, 0.0
1592, 0.0
1593, 0.0
1594, 0.0
1595, 0.0
1596, 0.0
1597, 0.0
1598, 0.0
1599, 0.0
