30, 0.0
31, 0.0
32, 0.0
33, 0.0
34, 0.0
35, 0.0
36, 0.0
37, 0.0
38, 0.0
39, 0.0
40, 0.0
41, 0.0
42, 0.0
43, 0.0
44, 0.0
45, 0.0
46, 0.0
47, 0.0
48, 0.0
49, 0.0
50, 0.0
51, 0.0
52, 0.0
53, 0.0
54, 0.0
55, 0.0
56, 0.0
57, 0.0
58, 0.0
59, 0.0
60, 0.0
61, 0.0
62, 0.0
63, 0.0
64, 0.0
65, 0.0
66, 0.0
67, 0.0
68, 0.0
69, 0.0
70, 0.0
71, 0.0
72, 0.0
73, 0.0
74, 0.0
75, 0.0
76, 0.0
77, 0.0
78, 0.0
79, 0.0
80, 0.0
81, 0.0
82, 0.0
83, 0.0
84, 0.0
85, 0.0
86, 0.0
87, 0.0
88, 0.0
89, 0.0
90, 0.0
91, 0.0
92, 0.0
93, 0.0
94, 0.0
95, 0.0
96, 0.0
97, 0.0
98, 0.0
99, 0.0
100, 0.0
101, 0.0
102, 0.0
103, 0.0
104, 0.0
105, 0.0
106, 0.0
107, 0.0
108, 0.0
109, 0.0
110, 0.0
111, 0.0
112, 0.0
113, 0.0
114, 0.0
115, 0.0
116, 0.0
117, 0.0
118, 0.0
119.0, 0.00046358385388480054
120.0, 0.0007774775614906227
121.0, 0.004198893795201697
122.0, 0.012011337560865138
123.0, 0.017692155143153428
124.0, 0.0209024054907428
125.0, 0.021584646300993666
126.0, 0.01632561327513641
127.0, 0.011726273897823679
128.0, 0.007750314292053037
129.0, 0.0020525251678796827
130.0, 0.002401373980147978
131.0, 0.0012701811533649273
132.0, 0.0009513533151630161
133.0, 0.0014091407336917123
134.0, 0.0034035749958299735
135.0, 0.006371103469178311
136.0, 0.011481232291096988
137.0, 0.019687880851509177
138.0, 0.03016666548864653
139.0, 0.04057259568688061
140.0, 0.05020984158949952
141.0, 0.060057525335493474
142.0, 0.07284971370840775
143.0, 0.08513708018806447
144.0, 0.09559532879155862
145.0, 0.10268844285201535
146.0, 0.10308861725364074
147.0, 0.1067938082323544
148.0, 0.10876286262792961
149.0, 0.10838750650760544
150.0, 0.11064150150194736
151.0, 0.11180831388534536
152.0, 0.11208424798334102
153.0, 0.11128648168751162
154.0, 0.10947477449464213
155.0, 0.10915079393776553
156.0, 0.10722069728474055
157.0, 0.10360554047487622
158.0, 0.09939588412575796
159.0, 0.09474943896038969
160.0, 0.09270329609236132
161.0, 0.08991973826794473
162.0, 0.08592760757831468
163.0, 0.08346402660711777
164.0, 0.07940700312009526
165.0, 0.0755565059078194
166.0, 0.0724170612917256
167.0, 0.07023900095212426
168.0, 0.0712928561773085
169.0, 0.07141159181302802
170.0, 0.06797851492761403
171.0, 0.062439077485025016
172.0, 0.060193549998035924
173.0, 0.058657585618772975
174.0, 0.06035763843745026
175.0, 0.06460023355219502
176.0, 0.06880723812315978
177.0, 0.08243103860008416
178.0, 0.09456953317047409
179.0, 0.10441311741102847
180.0, 0.11550848702048441
181.0, 0.12753261454337214
182.0, 0.13855657164930676
183.0, 0.1500538674735774
184.0, 0.1617639919315144
185.0, 0.1697440089554969
186.0, 0.17994851538684528
187.0, 0.18993545092428896
188.0, 0.1976458454207536
189.0, 0.20243584132364148
190.0, 0.20454664811654127
191.0, 0.2081276997732542
192.0, 0.21135730963484417
193.0, 0.21310588398886185
194.0, 0.21983137041516787
195.0, 0.22453873658870638
196.0, 0.2286755795908965
197.0, 0.2340973112940074
198.0, 0.24003257399151404
199.0, 0.24566918229559953
200.0, 0.2484366758867263
201.0, 0.25060486317493286
202.0, 0.25539587880594466
203.0, 0.255076735265325
204.0, 0.25713721279386603
205.0, 0.26041726102874413
206.0, 0.2633143684629586
207.0, 0.26768985681302293
208.0, 0.2719025252301285
209.0, 0.2723184752031125
210.0, 0.27366554071692395
211.0, 0.28204188764482174
212.0, 0.2846760904395176
213.0, 0.2840100940757904
214.0, 0.2790956723778636
215.0, 0.2706814100135918
216.0, 0.2635379630871
217.0, 0.25305244984246994
218.0, 0.24220281224176587
219.0, 0.23292432945053274
220.0, 0.22566164672673872
221.0, 0.22120057355022268
222.0, 0.21775809758808917
223.0, 0.21595078856773892
224.0, 0.21633061332314352
225.0, 0.2176358850605451
226.0, 0.21782910632008853
227.0, 0.21613111876240776
228.0, 0.21327430068957162
229.0, 0.21057848482094046
230.0, 0.2079614052330225
231.0, 0.2042319608216212
232.0, 0.19906198731622782
233.0, 0.1927586779913563
234.0, 0.18567285065984687
235.0, 0.1796089484558846
236.0, 0.17538813979220882
237.0, 0.17183342557691644
238.0, 0.16713503002716998
239.0, 0.1590588218064259
240.0, 0.15174971132693116
241.0, 0.14471318622922477
242.0, 0.13641089607260976
243.0, 0.12557516666687066
244.0, 0.11302070634578998
245.0, 0.09756141761481503
246.0, 0.08046057019231814
247.0, 0.06430558626745622
248.0, 0.04705974702669364
249.0, 0.03392193398074091
250.0, 0.021888541276211666
251.0, 0.011460225008415434
252.0, 0.008879907354476434
253.0, 0.00427819533166833
254.0, 0.002461803379885141
255.0, 0.0034692304739061598
256.0, 0.004057669038606773
257.0, 0.004041604797878935
258.0, 0.0013586544654869005
259.0, 0.001942494397220666
260.0, 0.003956635970901017
261.0, 0.0021295837363176835
262.0, 0.0038491776634073677
263.0, 0.0031206047525982957
264.0, 0.0011594909532192175
265.0, 0.00044303157498456466
266.0, 0.0009303673963121336
267.0, 0.000551116721450647
268.0, 0.0005189713986488287
269.0, 0.000895872453579653
270.0, 0.001895125680613186
271.0, 0.0027800045296426995
272.0, 0.005151633601923128
273.0, 0.008743714832267591
274.0, 0.012532892570423865
275.0, 0.015294856025721238
276.0, 0.01806988331078981
277.0, 0.02177268665288624
278.0, 0.02749516632546285
279.0, 0.03444647222322384
280.0, 0.039209261218019736
281.0, 0.04320722586359778
282.0, 0.049006608003328025
283.0, 0.0567477214840727
284.0, 0.06446028429087602
285.0, 0.06814664873375603
286.0, 0.07536586029624953
287.0, 0.08292451652219285
288.0, 0.08839250400723131
289.0, 0.09355110800790893
290.0, 0.10098899624906794
291.0, 0.10824524559776587
292.0, 0.11139616322499102
293.0, 0.1105350089485547
294.0, 0.11067254946425456
295.0, 0.10581563564883631
296.0, 0.10192104669040812
297.0, 0.09400415483344302
298.0, 0.07759979593801805
299.0, 0.06543965711407995
300.0, 0.04983002380308289
301.0, 0.03594452025286125
302.0, 0.02527652402132567
303.0, 0.015434500219400295
304.0, 0.00997594988890825
305.0, 0.0037011526895357567
306.0, 0.00016379179032221744
307.0, 0.00015136542669581972
308.0, 0.0006952554925161113
309.0, 0.001998442184754363
310.0, 0.0004888915704002613
311.0, 0.0027457394910308168
312.0, 0.0052616161642866045
313.0, 0.0048347576915210595
314.0, 0.0032996905148783688
315.0, 0.003199339065922392
316.0, 0.0034432651012647926
317.0, 0.0020476673338259027
318.0, 0.00036690928764622607
319.0, 0.0014778706049637794
320.0, 0.003120310494948717
321.0, 0.0035502633429949446
322.0, 0.0021573706232116212
323.0, 0.0008775569298830302
324.0, 0.0006996149310746159
325.0, 0.0007748454699164953
326.0, 0.00038408939929745274
327.0, 0.0011705861767623267
328.0, 0.002769108254401533
329.0, 0.003912879962121523
330.0, 0.0039953828392776634
331.0, 0.004595348288291762
332.0, 0.007500306027997241
333.0, 0.00818297499339871
334.0, 0.007951550408749885
335.0, 0.004734688316500876
336.0, 0.0011403280359043146
337.0, 0.0038065122048264667
338.0, 0.005773811833383052
339.0, 0.009263816460107835
340.0, 0.0126654433135348
341.0, 0.015015295062000916
342.0, 0.01849390979353815
343.0, 0.02223053343376073
344.0, 0.025698685251612063
345.0, 0.027149563518397993
346.0, 0.026344922807346013
347.0, 0.025988414246464253
348.0, 0.024928722553854737
349.0, 0.024140629982989558
350.0, 0.02403981574169876
351.0, 0.024456996803584742
352.0, 0.02489421394494615
353.0, 0.02743014952750057
354.0, 0.029548774021469684
355.0, 0.03229378619672662
356.0, 0.037452577750414155
357.0, 0.04230956671403583
358.0, 0.04650187918041311
359.0, 0.049505167020589186
360.0, 0.05439668661533626
361.0, 0.06173947063390588
362.0, 0.06458890848378587
363.0, 0.06744603976776811
364.0, 0.0695947687263137
365.0, 0.07219843627778963
366.0, 0.07582403400041908
367.0, 0.07693992500740993
368.0, 0.07861851609967542
369.0, 0.08430259142916034
370.0, 0.08961683406889075
371.0, 0.09100988574535065
372.0, 0.0944811498550031
373.0, 0.09847678966566892
374.0, 0.10364144582840248
375.0, 0.11017249482464304
376.0, 0.11698130328183427
377.0, 0.11992189499050734
378.0, 0.1255958239632546
379.0, 0.13413459823386195
380.0, 0.14284285859506515
381.0, 0.1494751474675924
382.0, 0.16014271900158017
383.0, 0.1714616312380757
384.0, 0.1820098520587493
385.0, 0.192040888148507
386.0, 0.20200114779093264
387.0, 0.21090735721303142
388.0, 0.21698051606638058
389.0, 0.21635988870176928
390.0, 0.21060787701992645
391.0, 0.20252848982662391
392.0, 0.19011898758065443
393.0, 0.16976362045941498
394.0, 0.14999034756138052
395.0, 0.13145547610796374
396.0, 0.11329501473276642
397.0, 0.09751872492519043
398.0, 0.0810176367574902
399.0, 0.06886302953995409
400.0, 0.06130142217579289
401.0, 0.055264523885096846
402.0, 0.04749440747624087
403.0, 0.041429154044643306
404.0, 0.03531893309712468
405.0, 0.03110067158634314
406.0, 0.029000032411854133
407.0, 0.025911702379369937
408.0, 0.021605849075768783
409.0, 0.016806089261621256
410.0, 0.014479148382927546
411.0, 0.014546435644577829
412.0, 0.01373648279232012
413.0, 0.010368419225475002
414.0, 0.008655259763969487
415.0, 0.00888865437746805
416.0, 0.009238369650691074
417.0, 0.008251831791691165
418.0, 0.008762431661364178
419.0, 0.006306099458648452
420.0, 0.005822066605615078
421.0, 0.007203162898223051
422.0, 0.007284359734278485
423.0, 0.007608200601877125
424.0, 0.0066029096653049376
425.0, 0.00669951435217607
426.0, 0.007339355114410708
427.0, 0.008325088080960538
428.0, 0.011399544115276107
429.0, 0.009448571406515682
430.0, 0.009040484425376766
431.0, 0.009499366079109442
432.0, 0.010175863505355676
433.0, 0.012926439590885776
434.0, 0.012667001456083089
435.0, 0.015720107463633334
436.0, 0.018722519480513542
437.0, 0.01984913594080247
438.0, 0.02112764094120523
439.0, 0.02391201151848373
440.0, 0.028034458432196842
441.0, 0.031202396162757558
442.0, 0.033486843613718474
443.0, 0.03600934786449224
444.0, 0.03880604552805798
445.0, 0.04264928539490652
446.0, 0.04818147187918446
447.0, 0.0534911765172188
448.0, 0.05750717062368882
449.0, 0.061332188960895206
450.0, 0.06657982578186897
451.0, 0.07102535714056556
452.0, 0.07654869437889714
453.0, 0.08212305760795478
454.0, 0.08566654255780397
455.0, 0.09309667509789175
456.0, 0.09852007612274588
457.0, 0.10470347728442606
458.0, 0.11084179618568078
459.0, 0.114767774076719
460.0, 0.11904824481992383
461.0, 0.12258716804334775
462.0, 0.1257976061132454
463.0, 0.12820483180484415
464.0, 0.12988605612925952
465.0, 0.13182847607389916
466.0, 0.13309498748760681
467.0, 0.1324646843017658
468.0, 0.13113935013975253
469.0, 0.13031942751542092
470.0, 0.12930149910296515
471.0, 0.12411958239811384
472.0, 0.12059002169862625
473.0, 0.11671859263198359
474.0, 0.1113506442196644
475.0, 0.10498707393663734
476.0, 0.0994210917571574
477.0, 0.09209045657019531
478.0, 0.08068030130609995
479.0, 0.07359061528720737
480.0, 0.06952650619302785
481.0, 0.06038901977035757
482.0, 0.053659669278759065
483.0, 0.04582078578675431
484.0, 0.040306022210907864
485.0, 0.035910691175480666
486.0, 0.030796672949116276
487.0, 0.026273540516592184
488.0, 0.021895973822569526
489.0, 0.018053524082162018
490.0, 0.014748053424474454
491.0, 0.0126203279601725
492.0, 0.011706503164484261
493.0, 0.009737919614409092
494.0, 0.007748439271291304
495.0, 0.004840054247462538
496.0, 0.003071113553979718
497.0, 0.0030097151025043323
498.0, 0.002544920462727484
499.0, 0.0026168905985068393
500.0, 0.001223727548356039
501.0, 0.0012455938340690351
502.0, 0.0008231087963145303
503.0, 0.0011531064718383122
504.0, 0.0027303875203442836
505.0, 0.0032530055874271852
506.0, 0.004426620543637669
507.0, 0.003540219403959296
508.0, 0.004918871812649178
509.0, 0.003873719599965623
510.0, 0.005022549068177962
511.0, 0.004125281539898397
512.0, 0.004731039258891777
513.0, 0.00500583845710036
514.0, 0.004343687755935916
515.0, 0.004279662467911101
516.0, 0.00374926212037311
517.0, 0.003132201584445788
518.0, 0.0024923642722117644
519.0, 0.0008074084241918222
520.0, 0.0017548611205353841
521.0, 0.0022998731336056214
522.0, 0.004058721441418957
523.0, 0.006961306896110367
524.0, 0.008495461262344538
525.0, 0.009655168720219457
526.0, 0.01400176421473463
527.0, 0.018329965601663917
528.0, 0.02002826033896248
529.0, 0.02210928222514024
530.0, 0.023747266976229028
531.0, 0.024909647564314696
532.0, 0.027599348047884057
533.0, 0.02749952090297065
534.0, 0.029193438113860663
535.0, 0.028831487570128288
536.0, 0.02756328133548804
537.0, 0.027616780864292607
538.0, 0.025986665188670117
539.0, 0.023130533786062196
540.0, 0.020759943427282507
541.0, 0.019928299789251733
542.0, 0.020447813146438454
543.0, 0.021000620677949493
544.0, 0.02070889657940797
545.0, 0.02268214699522421
546.0, 0.022772223487404382
547.0, 0.021680497391917915
548.0, 0.02371528683028953
549.0, 0.029860640639498275
550.0, 0.03030394324360704
551.0, 0.03412115417294156
552.0, 0.038644377767047
553.0, 0.042914049124167776
554.0, 0.04704910011864312
555.0, 0.05083251359369219
556.0, 0.0545690159864587
557.0, 0.06119790256916484
558.0, 0.0685931390655728
559.0, 0.0759064770229412
560.0, 0.08281862933734825
561.0, 0.08905667541477483
562.0, 0.09897136501342925
563.0, 0.10919845774345716
564.0, 0.11871110655829047
565.0, 0.12950260567110983
566.0, 0.14105198978583555
567.0, 0.14973655666628402
568.0, 0.16223738074840996
569.0, 0.17569539486401278
570.0, 0.18760514041349505
571.0, 0.1997316723406483
572.0, 0.2130738556196069
573.0, 0.2248649688855925
574.0, 0.2368758874074479
575.0, 0.2530774969375697
576.0, 0.2651379660037843
577.0, 0.2757652064771064
578.0, 0.288838671931179
579.0, 0.30076898350952097
580.0, 0.3090818122733692
581.0, 0.3218520799687933
582.0, 0.3313406131686297
583.0, 0.3372583634491794
584.0, 0.3430673762127384
585.0, 0.3490719794222854
586.0, 0.3563815219213115
587.0, 0.36121075079914416
588.0, 0.3636696482388328
589.0, 0.3651173806053558
590.0, 0.365889717121967
591.0, 0.36515602085420473
592.0, 0.3618179106690414
593.0, 0.3560234039867953
594.0, 0.35053541334649435
595.0, 0.3433708099964159
596.0, 0.3336222680227221
597.0, 0.32416331800071446
598.0, 0.3138345109320444
599.0, 0.29905810073843764
600.0, 0.2818564586912704
601.0, 0.26473769415216664
602.0, 0.24807673949628498
603.0, 0.23070610469570593
604.0, 0.21179325289804785
605.0, 0.19505014139262628
606.0, 0.17445592788155184
607.0, 0.15457324114876012
608.0, 0.13687181863117184
609.0, 0.11890957615096226
610.0, 0.10437814116380376
611.0, 0.09194588760004217
612.0, 0.07696490282889645
613.0, 0.06427585835719422
614.0, 0.05398846995876448
615.0, 0.044270316246136796
616.0, 0.03732721029720103
617.0, 0.029590665638480198
618.0, 0.022076359199019964
619.0, 0.01592092171682012
620.0, 0.011018714237614021
621.0, 0.007125899827035529
622.0, 0.00438976472713044
623.0, 0.0019520656170964774
624.0, 0.001123144425594324
625.0, 0.0006707559986286327
626.0, 0.0014177985807260886
627.0, 0.0014278435554588346
628.0, 0.0037714440524716348
629.0, 0.005884356655801581
630.0, 0.01033926603824817
631.0, 0.014266954596361864
632.0, 0.019172178972986224
633.0, 0.025716946282847333
634.0, 0.03331160769860296
635.0, 0.04184669208484371
636.0, 0.049293679939135505
637.0, 0.06046334401106659
638.0, 0.07279519953915396
639.0, 0.0853149551062576
640.0, 0.09961869773029854
641.0, 0.11635821256971607
642.0, 0.1325789622906156
643.0, 0.15268543366627918
644.0, 0.17511820604156836
645.0, 0.19904049250126768
646.0, 0.22537936175008372
647.0, 0.2552776428645745
648.0, 0.28836340423524476
649.0, 0.3245932963276377
650.0, 0.36166771745370974
651.0, 0.3998530676082407
652.0, 0.44144602518811876
653.0, 0.48715391955058307
654.0, 0.5345616103096147
655.0, 0.5794410388992154
656.0, 0.6296022110583617
657.0, 0.6811726977124298
658.0, 0.7310837481337057
659.0, 0.7809480813382479
660.0, 0.8307735055824879
661.0, 0.8768871544112534
662.0, 0.9218063641904781
663.0, 0.9545553036962854
664.0, 0.9794794846941107
665.0, 0.9956773822915762
666.0, 0.9995615659500019
667.0, 0.9901331998213216
668.0, 0.9643258045104088
669.0, 0.9266566065732439
670.0, 0.8801666886423001
671.0, 0.8274490791003705
672.0, 0.7683623589301847
673.0, 0.7043578602474587
674.0, 0.6411051542725399
675.0, 0.5787819601245792
676.0, 0.5197059919144786
677.0, 0.46351966102214337
678.0, 0.41170032105601195
679.0, 0.36681629627488144
680.0, 0.3274797799292698
681.0, 0.28637801357610443
682.0, 0.2512228357512132
683.0, 0.2208274566946927
684.0, 0.19482290217916304
685.0, 0.1718530983784617
686.0, 0.1508735344616813
687.0, 0.13234213967649963
688.0, 0.1170018571756969
689.0, 0.1004733788281028
690.0, 0.08632767031087309
691.0, 0.07482617944329657
692.0, 0.06461338555676706
693.0, 0.05482472035357519
694.0, 0.04605972232355814
695.0, 0.03884634699824581
696.0, 0.033945138719429335
697.0, 0.028744372828626658
698.0, 0.022762353624595343
699.0, 0.01794025275275056
700.0, 0.015070742140606672
701.0, 0.01218669807744339
702.0, 0.010202310416192423
703.0, 0.0064051783163835
704.0, 0.0042917506062651635
705.0, 0.0031709927941642154
706.0, 0.0022008454417636303
707.0, 0.0009112773400830112
708.0, 0.0014838549226810888
709.0, 0.0022208818148798295
710.0, 0.0011630556041836084
711.0, 0.0029302935393287688
712.0, 0.0035423162934385658
713.0, 0.003086939091492748
714.0, 0.0034990729220539837
715.0, 0.0021173028748775993
716.0, 0.0019206306136273707
717.0, 0.002325281556169235
718.0, 0.0032519043451301184
719.0, 0.003219417561841282
720.0, 0.0026655611125945868
721.0, 0.0029462071708271915
722.0, 0.003258318992827364
723.0, 0.002267772797276304
724.0, 0.0017864046669505322
725.0, 0.00048556782275402865
726.0, 9.115172200759982e-05
727.0, 0.0002495616176718937
728.0, 0.0002926611970462753
729.0, 9.710132367045702e-05
730.0, 0.001871155693215262
731.0, 0.0038471713686135853
732.0, 0.003651481931212427
733.0, 0.0036276815496341535
734.0, 0.004788609777508977
735.0, 0.006051064135360303
736.0, 0.007518215237349396
737.0, 0.005877787794640257
738.0, 0.005417996439366111
739.0, 0.006721914299371486
740.0, 0.007482499489048193
741.0, 0.007710784549302617
742.0, 0.00906170442131517
743.0, 0.011392459652466339
744.0, 0.011025817366643008
745.0, 0.010714913114842222
746.0, 0.013041940129462429
747.0, 0.014465886947548717
748.0, 0.013957107858556353
749.0, 0.012940986263287926
750.0, 0.013078516596507439
751.0, 0.01474862630577175
752.0, 0.014314363800444397
753.0, 0.012566172342062344
754.0, 0.012688752908027925
755.0, 0.013456027847059958
756.0, 0.013746092428370259
757.0, 0.01415562573064897
758.0, 0.014633796792460657
759.0, 0.01445871658112242
760.0, 0.013716492532513606
761.0, 0.01398081257404558
762.0, 0.013374823130418267
763.0, 0.013967724855489649
764.0, 0.015155192654530261
765.0, 0.013512733530462432
766.0, 0.013565543778699025
767.0, 0.014966763865754336
768.0, 0.013465346517770194
769.0, 0.013665868911258948
770.0, 0.013280060928607064
771.0, 0.011538443124517343
772.0, 0.010957176853726863
773.0, 0.011240051612285447
774.0, 0.011166688458079964
775.0, 0.00978099305321009
776.0, 0.010163751099730932
777.0, 0.009441226709882254
778.0, 0.00860888935014051
779.0, 0.008125485674398785
780.0, 0.0061061876507763615
781.0, 0.006749454520735986
782.0, 0.005416247818246862
783.0, 0.005359800405206519
784.0, 0.004549260996930221
785.0, 0.0031976394695393115
786.0, 0.0018971379333930984
787.0, 0.000977433774696861
788.0, 0.0011588177891425023
789.0, 0.0012202053160873256
790.0, 0.0035767429665009135
791.0, 0.0010743913269815586
792.0, 0.00046569876171279924
793.0, 0.0008701247083895432
794.0, 0.0016324568546561683
795.0, 0.001568898628920696
796.0, 0.0026401058585411494
797.0, 0.0012262362052233417
798.0, 0.001194547925830736
799.0, 0.0008297878227058945
800.0, 0.00163014205052868
801.0, 0.0008827928359661657
802.0, 0.0011028435213412612
803.0, 0.001654345355569068
804.0, 0.000325741425850337
805.0, 8.14016767623711e-05
806.0, 0.0007241347014912844
807.0, 0.00030950515985226
808.0, 0.001209009194155064
809.0, 0.0008540183061240491
810.0, 0.0002853576181635393
811.0, 0.0012308201896918142
812.0, 0.00163100426600698
813.0, 0.0018543295997882833
814.0, 0.003418715866261092
815.0, 0.0019425924263911062
816.0, 0.0010922064447626346
817.0, 0.0013782898451500563
818.0, 0.000670744895929433
819.0, 0.00021089660399849165
820.0, 0.0011149553639514071
821.0, 0.0005967100821025637
822.0, 0.00013076298356182466
823.0, 0.0009225018329430542
824.0, 0.0020547653609741985
825.0, 0.0012399314986704783
826.0, 0.000537041030887564
827.0, 0.002961739320960691
828.0, 0.004324299234920061
829.0, 0.0034884383269051644
830.0, 0.0042488171045761336
831.0, 0.004832933570161257
832.0, 0.006174844008304839
833.0, 0.008537598197690701
834.0, 0.0096844679334836
835.0, 0.009535770761976536
836.0, 0.011891908826585241
837.0, 0.011858333711832583
838.0, 0.01340129094444679
839.0, 0.019495666978403662
840.0, 0.02036335857827189
841.0, 0.021314289901158447
842.0, 0.024846929018361132
843.0, 0.02837709781932866
844.0, 0.03442450596041858
845.0, 0.03827468814320018
846.0, 0.04118463426843166
847.0, 0.04720899735711224
848.0, 0.0538682613047831
849.0, 0.06040459888981527
850.0, 0.06726194072998579
851.0, 0.0752098988149365
852.0, 0.08555780260287967
853.0, 0.09725030532476779
854.0, 0.10571530205969597
855.0, 0.11863045455753453
856.0, 0.13196819994164702
857.0, 0.14647722877277705
858.0, 0.1620223613195541
859.0, 0.18029317563225855
860.0, 0.20018257387468208
861.0, 0.21669820975444049
862.0, 0.2405726553744971
863.0, 0.2620194818434681
864.0, 0.28727062875983533
865.0, 0.31220963887034864
866.0, 0.3381775478419462
867.0, 0.3659155932401122
868.0, 0.39235581834743505
869.0, 0.41775411943654517
870.0, 0.4469940058823287
871.0, 0.4770765794326171
872.0, 0.5033179486063059
873.0, 0.5315621983429417
874.0, 0.561086750848817
875.0, 0.5876610672952798
876.0, 0.6118384639298503
877.0, 0.6362183885483975
878.0, 0.6615635489203735
879.0, 0.6873882724653574
880.0, 0.7090592509365949
881.0, 0.7299961129534798
882.0, 0.7444606553820644
883.0, 0.7530376263449126
884.0, 0.7511823282877697
885.0, 0.7379572607892174
886.0, 0.7149526540200183
887.0, 0.6780103331678319
888.0, 0.6262056146605717
889.0, 0.5654176850891306
890.0, 0.5064273426519882
891.0, 0.4461787287369108
892.0, 0.38977460373350375
893.0, 0.33741665081915495
894.0, 0.29039035085778947
895.0, 0.2506327676187627
896.0, 0.21687820690853826
897.0, 0.1882902298101635
898.0, 0.1627480935168929
899.0, 0.14323872683842748
900.0, 0.12497660142029873
901.0, 0.10985029659953013
902.0, 0.09767836348949013
903.0, 0.08567760599150277
904.0, 0.07499997703493594
905.0, 0.06860708004468154
906.0, 0.061077578793539825
907.0, 0.05688532696194471
908.0, 0.05201195883790533
909.0, 0.051429471097218155
910.0, 0.050948412250675715
911.0, 0.051224032765774176
912.0, 0.053543455468364205
913.0, 0.057425116460984554
914.0, 0.06312874841060408
915.0, 0.07083097243451562
916.0, 0.0793330567051974
917.0, 0.08931868558303263
918.0, 0.10110667162484194
919.0, 0.11106960599949382
920.0, 0.12203117015506891
921.0, 0.1352198348101737
922.0, 0.14813163332638546
923.0, 0.15855390757340757
924.0, 0.1686116571748591
925.0, 0.18004491701433112
926.0, 0.18574025152606288
927.0, 0.19070681286972135
928.0, 0.19319144749619138
929.0, 0.19104067157866036
930.0, 0.18791049917554664
931.0, 0.18026696224419958
932.0, 0.1678486737937414
933.0, 0.15711923062349545
934.0, 0.1446791538632123
935.0, 0.1304402456312205
936.0, 0.11760156458736705
937.0, 0.10626879980005459
938.0, 0.0933932018892591
939.0, 0.08270268505194801
940.0, 0.07252742302195589
941.0, 0.06194646240279725
942.0, 0.054126513502302895
943.0, 0.04837955262438066
944.0, 0.040691142196043126
945.0, 0.0340302798390048
946.0, 0.02953190784006541
947.0, 0.02580815096764507
948.0, 0.021369893843362867
949.0, 0.01898117525234344
950.0, 0.014112976308139798
951.0, 0.008970629375758168
952.0, 0.007526976604548903
953.0, 0.0060205363146327365
954.0, 0.0042768974448490595
955.0, 0.00364283254489726
956.0, 0.0017438689695692994
957.0, 0.0007122734152100229
958.0, 0.001441497426011761
959.0, 0.0025093459637122455
960.0, 0.0032713952507005227
961.0, 0.0035301539643239803
962.0, 0.0032444215757125427
963.0, 0.002720782081041769
964.0, 0.003379412560118717
965.0, 0.004041332151416711
966.0, 0.001646309689135416
967.0, 0.0008432207054995251
968.0, 0.0006286223826433386
969.0, 0.0009735530942815433
970.0, 0.0035525345322381056
971.0, 0.0037076502229595213
972.0, 0.004153554477184957
973.0, 0.006416052414100272
974.0, 0.006433152892906331
975.0, 0.007611115423694169
976.0, 0.008621224591857105
977.0, 0.00920472626818563
978.0, 0.011331944191027303
979.0, 0.012301128715272891
980.0, 0.012292601817876532
981.0, 0.011868695552725895
982.0, 0.011861069304419799
983.0, 0.012123882056983098
984.0, 0.011475211924559848
985.0, 0.01173521348562384
986.0, 0.01058010219772941
987.0, 0.009551843231283177
988.0, 0.010758417578037187
989.0, 0.00835030846935208
990.0, 0.005999654476133456
991.0, 0.005092290832011527
992.0, 0.004334829778654741
993.0, 0.0029262341961036912
994.0, 0.0036209905525854285
995.0, 0.0064274021717786985
996.0, 0.0019596840915889913
997.0, 0.0003259651123077887
998.0, 0.0064243118974118
999.0, 0.0027243567939952253
1000.0, 0.00011100665239682442
1001.0, 0.0006308021988826928
1002.0, 0.0014588961803521803
1003.0, 0.002039176752078426
1004.0, 0.0016731976153540565
1005.0, 0.001219619309998961
1006.0, 0.001011216882613227
1007.0, 0.0007408056047222157
1008.0, 0.0005746435252367172
1009.0, 0.000263829788894018
1010.0, 0.00010963581015497315
1011.0, 0.000707692747253889
1012.0, 0.0008138183664409908
1013.0, 0.0005489529293275295
1014.0, 0.00018801571441276287
1015.0, 0.001300424183889953
1016.0, 0.002260095658598437
1017.0, 0.000844708725198644
1018.0, 0.0005326689321896171
1019.0, 0.0007066493323542223
1020.0, 0.001961187688163332
1021.0, 0.0015982300123422253
1022.0, 0.0002048638337952162
1023.0, 0.0009575426525599957
1024.0, 0.0014343463725545761
1025.0, 0.0010015057203477328
1026.0, 0.0012672070905525175
1027.0, 0.0018914094770672715
1028.0, 0.0019196142278065165
1029.0, 0.002916620885310423
1030.0, 0.003353923414835962
1031.0, 0.0018573907380629133
1032.0, 0.004274094363924625
1033.0, 0.004956447787938984
1034.0, 0.005882241279518695
1035.0, 0.006305421362359738
1036.0, 0.006471673268020219
1037.0, 0.006658211172375871
1038.0, 0.006182199093711077
1039.0, 0.006052652664108349
1040.0, 0.006497445695795851
1041.0, 0.006912925289809793
1042.0, 0.006331678546964255
1043.0, 0.007352263667570713
1044.0, 0.0077330646943858175
1045.0, 0.008449926253513235
1046.0, 0.008186010138705027
1047.0, 0.008363965842709127
1048.0, 0.008217131929501508
1049.0, 0.008811122314818976
1050.0, 0.010116537529443408
1051.0, 0.009306289586849247
1052.0, 0.008418616838784856
1053.0, 0.011312846541962827
1054.0, 0.011924856823994195
1055.0, 0.011399822671846374
1056.0, 0.010875786216139213
1057.0, 0.010357803731537423
1058.0, 0.011305884567461115
1059.0, 0.011587318160733703
1060.0, 0.010823212102108223
1061.0, 0.011105211444263123
1062.0, 0.010603969844875145
1063.0, 0.009467875979502178
1064.0, 0.008369430525222177
1065.0, 0.007558545124312789
1066.0, 0.009270882071806635
1067.0, 0.009633285888041146
1068.0, 0.009357405961468345
1069.0, 0.008993004028819002
1070.0, 0.00901379684027632
1071.0, 0.00860018184715567
1072.0, 0.007252647972605137
1073.0, 0.00777194745690939
1074.0, 0.008023943105246375
1075.0, 0.007892866923474616
1076.0, 0.007597750515254359
1077.0, 0.006905433148778223
1078.0, 0.006756220668741487
1079.0, 0.0066376343635272846
1080.0, 0.007066945563764398
1081.0, 0.0066242878854705575
1082.0, 0.0071029197262883195
1083.0, 0.005826648650325614
1084.0, 0.006542224100619846
1085.0, 0.005350228193188484
1086.0, 0.0060199110233178695
1087.0, 0.00615531515967421
1088.0, 0.006145802051929738
1089.0, 0.006055409302189443
1090.0, 0.005349399657329503
1091.0, 0.005269291993849991
1092.0, 0.005702595595468397
1093.0, 0.005912557055841476
1094.0, 0.005535683678393762
1095.0, 0.004918680798642719
1096.0, 0.0043038216114782
1097.0, 0.005522934052132423
1098.0, 0.005096890697317992
1099.0, 0.002897665407526674
1100.0, 0.003350440201998377
1101.0, 0.0044440576603750415
1102.0, 0.004845083264159837
1103.0, 0.0032734204439763756
1104.0, 0.0031491001049466748
1105.0, 0.005090745889634772
1106.0, 0.003822497695984742
1107.0, 0.003857229965429995
1108.0, 0.0037374510828874345
1109.0, 0.003620393048604012
1110.0, 0.0035316527846992346
1111.0, 0.004481555057981025
1112.0, 0.003622280855914803
1113.0, 0.003491377191053527
1114.0, 0.0032086749775359176
1115.0, 0.003541531031513525
1116.0, 0.0031580083236161143
1117.0, 0.0031679981515067178
1118.0, 0.0028314394608709007
1119.0, 0.0018720651955350539
1120.0, 0.0029270357223964644
1121.0, 0.003888744904214279
1122.0, 0.0036013313404197594
1123.0, 0.0031340995857950206
1124.0, 0.004348113055938396
1125.0, 0.004046327964272624
1126.0, 0.002568701283149339
1127.0, 0.0022242600048139292
1128.0, 0.002365579906286117
1129.0, 0.0021267807170287454
1130.0, 0.0015468473060322944
1131.0, 0.002009878667141843
1132.0, 0.0021636081551928013
1133.0, 0.0013022501357147027
1134.0, 0.0014721023417217872
1135.0, 0.0021780261885467503
1136.0, 0.0012312710107917726
1137.0, 0.0021162668456140158
1138.0, 0.003556527785991236
1139.0, 0.0024625486013279117
1140.0, 0.0025848260138284043
1141.0, 0.00241803128665064
1142.0, 0.00031723157061813874
1143.0, 0.0010512637856829
1144.0, 0.0013621211755262801
1145.0, 0.0012241122838656294
1146.0, 0.001929090248000796
1147.0, 0.002210099158095603
1148.0, 0.0021588456488850737
1149.0, 0.0008681762809773217
1150.0, 0.0005281461204205469
1151.0, 0.0018549143345838396
1152.0, 0.0011043074703680543
1153.0, 0.0016403222268432979
1154.0, 0.001106371411171142
1155.0, 0.0010518272322073802
1156.0, 0.0018420835285027932
1157.0, 0.0006835397691768564
1158.0, 0.0011667398888729
1159.0, 5.900912023707361e-05
1160.0, 0.0008591977320327327
1161.0, 0.00041383523501426113
1162.0, 0.00032890976200088156
1163.0, 0.0014104938667783107
1164.0, 0.0007556293216216215
1165.0, 0.0010584195029271707
1166.0, 0.0005473677747009716
1167.0, 0.00015637354298667926
1168.0, 0.0005835478863505686
1169.0, 0.00016329639332255373
1170.0, 0.0007548726794305184
1171.0, 0.0008569033438992979
1172.0, 0.0007900461243856144
1173.0, 0.0009076127712957558
1174.0, 0.00039980330713588444
1175.0, 0.0006206643162160678
1176.0, 0.000931088218917496
1177.0, 0.0014347669049826948
1178.0, 0.00038299778497280284
1179.0, 0.0005062031443116234
1180.0, 0.00045026774817614714
1181.0, 0.0001792915310584687
1182.0, 0.000279477168766469
1183.0, 0.0002445342235571243
1184.0, 0.0005234323505006683
1185.0, 0.0012530509240208131
1186.0, 0.0004710452176742143
1187.0, 0.00033420486925013146
1188.0, 0.001119113371841696
1189.0, 0.0025221233586432833
1190.0, 0.003813297580478709
1191.0, 0.002455825379683319
1192.0, 0.003169992800218399
1193.0, 0.0020064135048300643
1194.0, 0.0012708339954841115
1195.0, 0.0026435608891326157
1196.0, 0.0037602488087509853
1197.0, 0.0035355406753818162
1198.0, 0.003043430699647528
1199.0, 0.0036492912457726898
1200.0, 0.004611263332591075
1201.0, 0.0042486312541911665
1202.0, 0.004113306081874858
1203.0, 0.00428062992543857
1204.0, 0.00339962782034065
1205.0, 0.005003286676640712
1206.0, 0.007063974329555438
1207.0, 0.007215318681810648
1208.0, 0.0057343960229503076
1209.0, 0.0063545928432060875
1210.0, 0.004981325435139637
1211.0, 0.007588075752829246
1212.0, 0.008451399951903811
1213.0, 0.009856719895128386
1214.0, 0.009554232802393764
1215.0, 0.009321623611157945
1216.0, 0.009296318687425807
1217.0, 0.009320798192729044
1218.0, 0.009331128633960246
1219.0, 0.010162079426212776
1220.0, 0.010383509752932623
1221.0, 0.010140852160320858
1222.0, 0.01031441573556279
1223.0, 0.010293415575935272
1224.0, 0.010404086537531445
1225.0, 0.010493936234721465
1226.0, 0.011326942903413913
1227.0, 0.01273432263805317
1228.0, 0.010750880597210924
1229.0, 0.008213702788730603
1230.0, 0.007960243136483254
1231.0, 0.007553521228093086
1232.0, 0.007277252317915748
1233.0, 0.007119436587640472
1234.0, 0.004945245360824931
1235.0, 0.004431052518011079
1236.0, 0.005836205591157636
1237.0, 0.0062004114113181335
1238.0, 0.0051181685156934
1239.0, 0.0044723757163610805
1240.0, 0.00429550886153633
1241.0, 0.00365635428335809
1242.0, 0.005097859159175103
1243.0, 0.004687027111855629
1244.0, 0.00395617404686037
1245.0, 0.004644106905531765
1246.0, 0.005534376723444516
1247.0, 0.007196060602474394
1248.0, 0.008359297357769718
1249.0, 0.008347687382579731
1250.0, 0.00788316747150259
1251.0, 0.007715758861862131
1252.0, 0.010672721141626295
1253.0, 0.011879449816213975
1254.0, 0.012454511766851707
1255.0, 0.01204668925475145
1256.0, 0.011051601152512667
1257.0, 0.014035387751559434
1258.0, 0.01326299418420656
1259.0, 0.01193317830895051
1260.0, 0.013018335640662713
1261.0, 0.010598458435937907
1262.0, 0.011626955139259447
1263.0, 0.010378056966230731
1264.0, 0.012160692606314622
1265.0, 0.010288581991143722
1266.0, 0.006981789476868621
1267.0, 0.004143332053058128
1268.0, 0.004847845716773216
1269.0, 0.006111354608826206
1270.0, 0.0046434952883801
1271.0, 0.002826340229002547
1272.0, 0.002715663986366533
1273.0, 0.0035530052624267987
1274.0, 0.0034202325567284264
1275.0, 0.002275718175869838
1276.0, 0.002580060761918887
1277.0, 0.002610606177249343
1278.0, 0.0009034021713631838
1279.0, 0.0008162931802193818
1280.0, 0.00011381979398413536
1281.0, 6.687517697678022e-05
1282.0, 0.0002061556736920371
1283.0, 0.0007668687645133835
1284.0, 0.0011447409266860003
1285.0, 0.0002355575337540725
1286, 0.0
1287, 0.0
1288, 0.0
1289, 0.0
1290, 0.0
1291, 0.0
1292, 0.0
1293, 0.0
1294, 0.0
1295, 0.0
1296, 0.0
1297, 0.0
1298, 0.0
1299, 0.0
1300, 0.0
1301, 0.0
1302, 0.0
1303, 0.0
1304, 0.0
1305, 0.0
1306, 0.0
1307, 0.0
1308, 0.0
1309, 0.0
1310, 0.0
1311, 0.0
1312, 0.0
1313, 0.0
1314, 0.0
1315, 0.0
1316, 0.0
1317, 0.0
1318, 0.0
1319, 0.0
1320, 0.0
1321, 0.0
1322, 0.0
1323, 0.0
1324, 0.0
1325, 0.0
1326, 0.0
1327, 0.0
1328, 0.0
1329, 0.0
1330, 0.0
1331, 0.0
1332, 0.0
1333, 0.0
1334, 0.0
1335, 0.0
1336, 0.0
1337, 0.0
1338, 0.0
1339, 0.0
1340, 0.0
1341, 0.0
1342, 0.0
1343, 0.0
1344, 0.0
1345, 0.0
1346, 0.0
1347, 0.0
1348, 0.0
1349, 0.0
1350, 0.0
1351, 0.0
1352, 0.0
1353, 0.0
1354, 0.0
1355, 0.0
1356, 0.0
1357, 0.0
1358, 0.0
1359, 0.0
1360, 0.0
1361, 0.0
1362, 0.0
1363, 0.0
1364, 0.0
1365, 0.0
1366, 0.0
1367, 0.0
1368, 0.0
1369, 0.0
1370, 0.0
1371, 0.0
1372, 0.0
1373, 0.0
1374, 0.0
1375, 0.0
1376, 0.0
1377, 0.0
1378, 0.0
1379, 0.0
1380, 0.0
1381, 0.0
1382, 0.0
1383, 0.0
1384, 0.0
1385, 0.0
1386, 0.0
1387, 0.0
1388, 0.0
1389, 0.0
1390, 0.0
1391, 0.0
1392, 0.0
1393, 0.0
1394, 0.0
1395, 0.0
1396, 0.0
1397, 0.0
1398, 0.0
1399, 0.0
1400, 0.0
1401, 0.0
1402, 0.0
1403, 0.0
1404, 0.0
1405, 0.0
1406, 0.0
1407, 0.0
1408, 0.0
1409, 0.0
1410, 0.0
1411, 0.0
1412, 0.0
1413, 0.0
1414, 0.0
1415, 0.0
1416, 0.0
1417, 0.0
1418, 0.0
1419, 0.0
1420, 0.0
1421, 0.0
1422, 0.0
1423, 0.0
1424, 0.0
1425, 0.0
1426, 0.0
1427, 0.0
1428, 0.0
1429, 0.0
1430, 0.0
1431, 0.0
1432, 0.0
1433, 0.0
1434, 0.0
1435, 0.0
1436, 0.0
1437, 0.0
1438, 0.0
1439, 0.0
1440, 0.0
1441, 0.0
1442, 0.0
1443, 0.0
1444, 0.0
1445, 0.0
1446, 0.0
1447, 0.0
1448, 0.0
1449, 0.0
1450, 0.0
1451, 0.0
1452, 0.0
1453, 0.0
1454, 0.0
1455, 0.0
1456, 0.0
1457, 0.0
1458, 0.0
1459, 0.0
1460, 0.0
1461, 0.0
1462, 0.0
1463, 0.0
1464, 0.0
1465, 0.0
1466, 0.0
1467, 0.0
1468, 0.0
1469, 0.0
1470, 0.0
1471, 0.0
1472, 0.0
1473, 0.0
1474, 0.0
1475, 0.0
1476, 0.0
1477, 0.0
1478, 0.0
1479, 0.0
1480, 0.0
1481, 0.0
1482, 0.0
1483, 0.0
1484, 0.0
1485, 0.0
1486, 0.0
1487, 0.0
1488, 0.0
1489, 0.0
1490, 0.0
1491, 0.0
1492, 0.0
1493, 0.0
1494, 0.0
1495, 0.0
1496, 0.0
1497, 0.0
1498, 0.0
1499, 0.0
1500, 0.0
1501, 0.0
1502, 0.0
1503, 0.0
1504, 0.0
1505, 0.0
1506, 0.0
1507, 0.0
1508, 0.0
1509, 0.0
1510, 0.0
1511, 0.0
1512, 0.0
1513, 0.0
1514, 0.0
1515, 0.0
1516, 0.0
1517, 0.0
1518, 0.0
1519, 0.0
1520, 0.0
1521, 0.0
1522, 0.0
1523, 0.0
1524, 0.0
1525, 0.0
1526, 0.0
1527, 0.0
1528, 0.0
1529, 0.0
1530, 0.0
1531, 0.0
1532, 0.0
1533, 0.0
1534, 0.0
1535, 0.0
1536, 0.0
1537, 0.0
1538, 0.0
1539, 0.0
1540, 0.0
1541, 0.0
1542, 0.0
1543, 0.0
1544, 0.0
1545, 0.0
1546, 0.0
1547, 0.0
1548, 0.0
1549, 0.0
1550, 0.0
1551, 0.0
1552, 0.0
1553, 0.0
1554, 0.0
1555, 0.0
1556, 0.0
1557, 0.0
1558, 0.0
1559, 0.0
1560, 0.0
1561, 0.0
1562, 0.0
1563, 0.0
1564, 0.0
1565, 0.0
1566, 0.0
1567, 0.0
1568, 0.0
1569, 0.0
1570, 0.0
1571, 0.0
1572, 0.0
1573, 0.0
1574, 0.0
1575, 0.0
1576, 0.0
1577, 0.0
1578, 0.0
1579, 0.0
1580, 0.0
1581, 0.0
1582, 0.0
1583, 0.0
1584, 0.0
1585, 0.0
1586, 0.0
1587, 0.0
1588, 0.0
1589, 0.0
1590, 0.0
1591, 0.0
1592, 0.0
1593, 0.0
1594, 0.0
1595, 0.0
1596, 0.0
1597, 0.0
1598, 0.0
1599, 0.0
