30, 0.0
31, 0.0
32, 0.0
33, 0.0
34, 0.0
35, 0.0
36, 0.0
37, 0.0
38, 0.0
39, 0.0
40, 0.0
41, 0.0
42, 0.0
43, 0.0
44, 0.0
45, 0.0
46, 0.0
47, 0.0
48, 0.0
49, 0.0
50, 0.0
51, 0.0
52, 0.0
53, 0.0
54, 0.0
55, 0.0
56, 0.0
57, 0.0
58, 0.0
59, 0.0
60, 0.0
61, 0.0
62, 0.0
63, 0.0
64, 0.0
65, 0.0
66, 0.0
67, 0.0
68, 0.0
69, 0.0
70, 0.0
71, 0.0
72, 0.0
73, 0.0
74, 0.0
75, 0.0
76, 0.0
77, 0.0
78, 0.0
79, 0.0
80, 0.0
81, 0.0
82, 0.0
83, 0.0
84, 0.0
85, 0.0
86, 0.0
87, 0.0
88, 0.0
89, 0.0
90, 0.0
91, 0.0
92.0, 0.000593895751381521
93.0, 0.0008505945492428848
94.0, 0.001100783918859528
95.0, 0.0013277312221587905
96.0, 0.0012479838024104445
97.0, 0.0010820933047991706
98.0, 0.0011003740313021769
99.0, 0.0016804023848268734
100.0, 0.0016689233636336502
101.0, 0.00012657974940115778
102.0, 0.00046148036155008686
103.0, 0.0003694760159386283
104.0, 0.0013009884696277832
105.0, 0.003143586771604646
106.0, 0.005534671601788726
107.0, 0.008303489248045796
108.0, 0.010510628472841732
109.0, 0.013704789043066441
110.0, 0.013482696413731957
111.0, 0.00893657911416099
112.0, 0.0035793154132849943
113.0, 0.0037335423857387806
114.0, 0.0037616190407680646
115.0, 0.004785757737647851
116.0, 0.005656808872239498
117.0, 0.004605601363443487
118.0, 0.003919510303149183
119.0, 0.0035119584383043177
120.0, 0.0028969640307092977
121.0, 0.0029402642410672067
122.0, 0.00397208571039528
123.0, 0.004071356162012035
124.0, 0.004567083594130751
125.0, 0.0035961992000355936
126.0, 0.0029450858964976856
127.0, 0.0032781242555109213
128.0, 0.0036055431398681
129.0, 0.00529014237670783
130.0, 0.005395586086271612
131.0, 0.0066474992050238576
132.0, 0.008149660825519309
133.0, 0.007766625925061124
134.0, 0.00802936106061951
135.0, 0.009851798801849575
136.0, 0.011301162252435652
137.0, 0.012108313567844758
138.0, 0.012803760404615333
139.0, 0.014926154226791576
140.0, 0.015023831359208782
141.0, 0.015724997649969156
142.0, 0.01630584592902629
143.0, 0.016363767720749385
144.0, 0.016050937605162487
145.0, 0.016082620470368236
146.0, 0.015475830716598034
147.0, 0.014991000999075675
148.0, 0.01409077202364631
149.0, 0.012258740193259567
150.0, 0.01129573248191928
151.0, 0.010954710792082102
152.0, 0.01115542920999461
153.0, 0.010587611186214832
154.0, 0.009250005494527114
155.0, 0.00942923540481354
156.0, 0.008259715735456172
157.0, 0.007822498015344405
158.0, 0.007285474044031783
159.0, 0.007256093973580687
160.0, 0.008739223563860733
161.0, 0.00885866777009824
162.0, 0.009051730243227012
163.0, 0.010317672042640866
164.0, 0.011581872267974974
165.0, 0.012334505021287662
166.0, 0.01449852235457655
167.0, 0.014630516507216303
168.0, 0.015341978578280189
169.0, 0.016293577317342902
170.0, 0.01757247344006987
171.0, 0.019466177479691135
172.0, 0.018870384519635252
173.0, 0.02042389944321406
174.0, 0.02026962056473124
175.0, 0.019035912419865467
176.0, 0.018084374116710857
177.0, 0.016602651163040334
178.0, 0.014774472560382758
179.0, 0.012563346353043427
180.0, 0.010501532145861598
181.0, 0.008773052059925044
182.0, 0.007178771835476319
183.0, 0.0063196180197426805
184.0, 0.006413174554609121
185.0, 0.006700951033695269
186.0, 0.007052902191687617
187.0, 0.007508036810547442
188.0, 0.007894782134646436
189.0, 0.00833244083764462
190.0, 0.008959524517811906
191.0, 0.00954373245387385
192.0, 0.010065508846014098
193.0, 0.010742916815346205
194.0, 0.01107490588042417
195.0, 0.01168748663522717
196.0, 0.01180135932730834
197.0, 0.01178990911114214
198.0, 0.01208069723617898
199.0, 0.011806188166193107
200.0, 0.014028293933099782
201.0, 0.015320465551611574
202.0, 0.015907478148532234
203.0, 0.015723328149011895
204.0, 0.01416312058042172
205.0, 0.011760151988900198
206.0, 0.010039939375162147
207.0, 0.00892072411244767
208.0, 0.008700189470340947
209.0, 0.009429806379745742
210.0, 0.010201566480306427
211.0, 0.009200444880892179
212.0, 0.009937989974565542
213.0, 0.010645293952383596
214.0, 0.01032125982012849
215.0, 0.0091667647232655
216.0, 0.008495419470134434
217.0, 0.007996523697432877
218.0, 0.007346403054557056
219.0, 0.006375268658417529
220.0, 0.005205138208583499
221.0, 0.004468185674433151
222.0, 0.002776579826576625
223.0, 0.0029559347786638985
224.0, 0.0034148509786601877
225.0, 0.0032344783254374984
226.0, 0.0023327595333986584
227.0, 0.0018828338150451483
228.0, 0.0013738048084329976
229.0, 0.0014325281170884726
230.0, 0.0016454553829874383
231.0, 0.0018879386836062626
232.0, 0.0027301281829177405
233.0, 0.003241930637696596
234.0, 0.002715371227013701
235.0, 0.002894841538698381
236.0, 0.003680973436708351
237.0, 0.00405721542971105
238.0, 0.0029048848411293363
239.0, 0.003044026327201613
240.0, 0.0023312679426401146
241.0, 0.0028221058447133168
242.0, 0.004281671868009152
243.0, 0.0042519432151133605
244.0, 0.0040964184015090666
245.0, 0.00398545164841049
246.0, 0.0042062420603772
247.0, 0.0048511075789401765
248.0, 0.005583515339369853
249.0, 0.005397755159911017
250.0, 0.005282670507042934
251.0, 0.005575833762001421
252.0, 0.005159290916923781
253.0, 0.004808665194276824
254.0, 0.005621171069546481
255.0, 0.005426499644590568
256.0, 0.004471695382721733
257.0, 0.004583698379605917
258.0, 0.006422093285290224
259.0, 0.009227621046603447
260.0, 0.0109936451142118
261.0, 0.010026069777068203
262.0, 0.007048555384555212
263.0, 0.006430016038516059
264.0, 0.006432488152463008
265.0, 0.0054510550008167605
266.0, 0.005483307061504851
267.0, 0.006544819011593933
268.0, 0.0060830930350362486
269.0, 0.00587239625280025
270.0, 0.00597777078952745
271.0, 0.005866741548449412
272.0, 0.0063757211880185885
273.0, 0.006679502346509749
274.0, 0.008047008931428021
275.0, 0.008719145838766502
276.0, 0.0085689828016987
277.0, 0.008879339469653219
278.0, 0.00835041654923619
279.0, 0.008342298631582019
280.0, 0.00804300617117205
281.0, 0.0073483566414008555
282.0, 0.006937941780249547
283.0, 0.008153810602483151
284.0, 0.008087389133087439
285.0, 0.009128469804515323
286.0, 0.00930469965953543
287.0, 0.009037373673045346
288.0, 0.009136845448568373
289.0, 0.0091719416756701
290.0, 0.009202432029819891
291.0, 0.008849226360179631
292.0, 0.009392695241919576
293.0, 0.01041165398251555
294.0, 0.01077773365272543
295.0, 0.010674817917425252
296.0, 0.011674688271830868
297.0, 0.0118522437654737
298.0, 0.011500797568541781
299.0, 0.011511678836554271
300.0, 0.012652938942860795
301.0, 0.01304405810320721
302.0, 0.013221431024813114
303.0, 0.013463328649767008
304.0, 0.014178734667005106
305.0, 0.015168889686849218
306.0, 0.015585050913905248
307.0, 0.015921491508250115
308.0, 0.01621649442825222
309.0, 0.017265598545922998
310.0, 0.018272603588879097
311.0, 0.019216099290044208
312.0, 0.021990765741689903
313.0, 0.02352752271469509
314.0, 0.025463034349742248
315.0, 0.027341651100660426
316.0, 0.02881050122535933
317.0, 0.02981854665202009
318.0, 0.030872053692754982
319.0, 0.03138849890521075
320.0, 0.03163331026041775
321.0, 0.032936196239688034
322.0, 0.0348534167953172
323.0, 0.03627289335978829
324.0, 0.03712364864223995
325.0, 0.041491071864084926
326.0, 0.046231110747826716
327.0, 0.04925200430692166
328.0, 0.05194458972574869
329.0, 0.05706706751033238
330.0, 0.06338458376092157
331.0, 0.06841349898141108
332.0, 0.07379368488500888
333.0, 0.07907704107948782
334.0, 0.08475741744955087
335.0, 0.09167976678915132
336.0, 0.09760695333897489
337.0, 0.10299214656233542
338.0, 0.11130422661283018
339.0, 0.1208187941299009
340.0, 0.1304911902656326
341.0, 0.14107755048051385
342.0, 0.15598862793751195
343.0, 0.17176610017981445
344.0, 0.18812980639877927
345.0, 0.2055388042671678
346.0, 0.22377539527392554
347.0, 0.24196353317949665
348.0, 0.26099706266461137
349.0, 0.27094373228429874
350.0, 0.2732430365202261
351.0, 0.2709819403487951
352.0, 0.2639442471270172
353.0, 0.24804550339450504
354.0, 0.22528785201680263
355.0, 0.20088912239904153
356.0, 0.17688642701257962
357.0, 0.1553415337591464
358.0, 0.13718127930618765
359.0, 0.12196284430682748
360.0, 0.11185060973834593
361.0, 0.10063652700231512
362.0, 0.0941642365438417
363.0, 0.09013370724350961
364.0, 0.08636515482592774
365.0, 0.08380329526294615
366.0, 0.08357186231332937
367.0, 0.08548243538168654
368.0, 0.08607898061428394
369.0, 0.08545311036251918
370.0, 0.08574350286539681
371.0, 0.08963418735524552
372.0, 0.08981327420563898
373.0, 0.0890958985512377
374.0, 0.08650402064970611
375.0, 0.08245710818900788
376.0, 0.07746945933240709
377.0, 0.07158379824324484
378.0, 0.06398636040991514
379.0, 0.057700521525577905
380.0, 0.050238794235026314
381.0, 0.0429969166395464
382.0, 0.037341894082090606
383.0, 0.033126637682385426
384.0, 0.02803848512803058
385.0, 0.02477248448882561
386.0, 0.02207214217634649
387.0, 0.01947445168878832
388.0, 0.017217818975338132
389.0, 0.01583189898639434
390.0, 0.013206344475003365
391.0, 0.011067026858748566
392.0, 0.010419294264806084
393.0, 0.00971212841576775
394.0, 0.008677862325989664
395.0, 0.008390813409747117
396.0, 0.006484716486616319
397.0, 0.006313765942816511
398.0, 0.006023930693024586
399.0, 0.005117855568663918
400.0, 0.004128187085598248
401.0, 0.0038701825474389416
402.0, 0.002872896157046088
403.0, 0.004159046264756868
404.0, 0.003655982222808952
405.0, 0.0033165671641948442
406.0, 0.0034466551118927605
407.0, 0.0029747910621565226
408.0, 0.0025618075758201413
409.0, 0.002197802940081273
410.0, 0.0012153346962242863
411.0, 0.0010402793365232304
412.0, 0.0013314606276569796
413.0, 0.0011456540958002272
414.0, 0.0013864597979927429
415.0, 0.0004187627460522423
416.0, 0.0006485884222673208
417.0, 0.0005675141230887982
418.0, 0.00044501570869760765
419.0, 0.0008149854549951074
420.0, 0.0006835391433251585
421.0, 0.0010191814935025573
422.0, 0.0005180403220696953
423.0, 0.0006012644456622709
424.0, 0.0012164546506427927
425.0, 0.0017146681618964614
426.0, 0.0015741958631976707
427.0, 0.0017456249395389548
428.0, 0.001124577309475469
429.0, 0.0005161380887926545
430.0, 0.00017722259699913052
431.0, 0.00020991664483429868
432.0, 0.0005939854321366607
433.0, 0.0004909282252022536
434.0, 0.0006496456198712293
435.0, 0.0003802725202372827
436.0, 0.0003390348962293041
437.0, 0.0009377974070575937
438.0, 0.0017439671227870725
439.0, 0.0005716996321040687
440.0, 0.00021303832833926423
441.0, 0.0005623623184578749
442.0, 0.00046857916890811574
443.0, 6.536779153354086e-05
444.0, 8.431774931482914e-05
445.0, 0.0003439581157127874
446.0, 0.0002980752451762063
447.0, 0.0004536999307461979
448.0, 0.0006052829316859965
449.0, 0.0006573865135484366
450.0, 0.0005303168662268638
451.0, 0.00012659110634734592
452.0, 0.00040096387162527353
453.0, 0.0007201739151417035
454.0, 0.0007031517738218936
455.0, 0.00039247312085227947
456.0, 6.186404240416838e-05
457.0, 5.565379505594135e-05
458.0, 0.00045691202639228286
459.0, 0.0001950244519215092
460.0, 0.0002004212514873836
461.0, 0.0005751646244496077
462.0, 0.0011062583019246966
463.0, 0.001535714944925149
464.0, 0.0019655155472383602
465.0, 0.002495358850122757
466.0, 0.002485909164111842
467.0, 0.0023088518314174416
468.0, 0.002302391349088118
469.0, 0.002523647428553344
470.0, 0.002628748648318941
471.0, 0.0030317941380596956
472.0, 0.0034139605898441377
473.0, 0.004169351018397654
474.0, 0.00509296268220743
475.0, 0.0059847708974790316
476.0, 0.006828933909331666
477.0, 0.007365357822256514
478.0, 0.008148535518316158
479.0, 0.008466334427925118
480.0, 0.009000697102559834
481.0, 0.009743467290480748
482.0, 0.010144221563407862
483.0, 0.009938604849076986
484.0, 0.010500344129852106
485.0, 0.0100509439237585
486.0, 0.009173950079153791
487.0, 0.00888154994892991
488.0, 0.009233239469957856
489.0, 0.008901452848178275
490.0, 0.009398947350293866
491.0, 0.009556901809710975
492.0, 0.010389671867124107
493.0, 0.011431780544863537
494.0, 0.012254761183880683
495.0, 0.013241957465784089
496.0, 0.016597493941427743
497.0, 0.016541764755840023
498.0, 0.018794021633857575
499.0, 0.02221998681781827
500.0, 0.025399160464263843
501.0, 0.027370867774598528
502.0, 0.02806270602117922
503.0, 0.029100395124885967
504.0, 0.0276792167149793
505.0, 0.02665411664852347
506.0, 0.024729385591338596
507.0, 0.021857968829838228
508.0, 0.019514347981799313
509.0, 0.01696059892601842
510.0, 0.01529207700722742
511.0, 0.013212228359011511
512.0, 0.01262430908678261
513.0, 0.01257462201000859
514.0, 0.012034453826590233
515.0, 0.012256299644262225
516.0, 0.010082068439279656
517.0, 0.010399581036408216
518.0, 0.010229637008460754
519.0, 0.010500221254356476
520.0, 0.010970440768113673
521.0, 0.010449095882319409
522.0, 0.010708217974642035
523.0, 0.011980178467757568
524.0, 0.011803153132538722
525.0, 0.011065359369884509
526.0, 0.011129781295884067
527.0, 0.011979451745768909
528.0, 0.011701943046440358
529.0, 0.011892972010045664
530.0, 0.011175007383461921
531.0, 0.011301687898460963
532.0, 0.011719772262248813
533.0, 0.012214210506444204
534.0, 0.012915215528271289
535.0, 0.01341078229028933
536.0, 0.01382146003167861
537.0, 0.014518591494645964
538.0, 0.015583801373457693
539.0, 0.016464629237630143
540.0, 0.01730747985598955
541.0, 0.0189612420356383
542.0, 0.020378120343537476
543.0, 0.02261870388148656
544.0, 0.024941989149441856
545.0, 0.02740724082917026
546.0, 0.030381845660504544
547.0, 0.03427517645960529
548.0, 0.03920597608637937
549.0, 0.0439825118940925
550.0, 0.050555100119920114
551.0, 0.05721116961270878
552.0, 0.06431284644161826
553.0, 0.07166343716434545
554.0, 0.07931014225854889
555.0, 0.09007557384707832
556.0, 0.09994605795140614
557.0, 0.10360305957937198
558.0, 0.10557938577174746
559.0, 0.10561941270207947
560.0, 0.1023775529763636
561.0, 0.09541479753817651
562.0, 0.08482733050721107
563.0, 0.07645916157667658
564.0, 0.06624934465376751
565.0, 0.05745342266287553
566.0, 0.050006968600371994
567.0, 0.04256156203224673
568.0, 0.03521155546958302
569.0, 0.031327658233701344
570.0, 0.026814974755888125
571.0, 0.023962788707114224
572.0, 0.020896720122342498
573.0, 0.018202510906853344
574.0, 0.01716363409565357
575.0, 0.016245300442118846
576.0, 0.01375400569672405
577.0, 0.013635905055266824
578.0, 0.013020859277234549
579.0, 0.011966973886243314
580.0, 0.01193241979856746
581.0, 0.013353962857913751
582.0, 0.01242807581265981
583.0, 0.011389457671870575
584.0, 0.012408689424929377
585.0, 0.01250559536829121
586.0, 0.012318320622111828
587.0, 0.012308156350030106
588.0, 0.01191224184144771
589.0, 0.011735226978419475
590.0, 0.01094402263915212
591.0, 0.010806327912174132
592.0, 0.010219615806440834
593.0, 0.00958094139750709
594.0, 0.009047332418873486
595.0, 0.008186141112058178
596.0, 0.008502996712255968
597.0, 0.008210342396873384
598.0, 0.008117775555379654
599.0, 0.00833556324957164
600.0, 0.008516085517352183
601.0, 0.008683303819047325
602.0, 0.009358469930457976
603.0, 0.009656580095165918
604.0, 0.010208997693908482
605.0, 0.009860809546425419
606.0, 0.009278202299039279
607.0, 0.008624752094680834
608.0, 0.007960126609965147
609.0, 0.007587206062902198
610.0, 0.007261211836801993
611.0, 0.006684812464948451
612.0, 0.0061137187154800526
613.0, 0.0055187766638213715
614.0, 0.0051070898590815485
615.0, 0.004799296989419187
616.0, 0.004102822808664561
617.0, 0.0041524922995776785
618.0, 0.004739723962258201
619.0, 0.004259225516681716
620.0, 0.004119008489393032
621.0, 0.004960249861869121
622.0, 0.005824350642871155
623.0, 0.004912160568283811
624.0, 0.004872407419067965
625.0, 0.006367307785005043
626.0, 0.0063699724500042056
627.0, 0.00793970607781017
628.0, 0.00923011156517687
629.0, 0.008926960888433217
630.0, 0.01022483079918079
631.0, 0.010601734148229491
632.0, 0.013383486177580638
633.0, 0.014246185363623145
634.0, 0.01427269935757083
635.0, 0.01457056488452294
636.0, 0.015395815158466683
637.0, 0.016095676071313993
638.0, 0.015685932558118565
639.0, 0.014406011771305474
640.0, 0.013138667264021188
641.0, 0.011501665495630281
642.0, 0.010610686466758295
643.0, 0.01046206163158393
644.0, 0.009452653760803014
645.0, 0.00978573260715164
646.0, 0.008768918732606412
647.0, 0.00786145272269491
648.0, 0.007135357367097749
649.0, 0.0064311405018678885
650.0, 0.0058420887811644765
651.0, 0.005557844476907391
652.0, 0.004771337285438134
653.0, 0.004517938343649868
654.0, 0.003916803558727648
655.0, 0.0037754600764657526
656.0, 0.003922169294560749
657.0, 0.00394829281890841
658.0, 0.003469697185159105
659.0, 0.001945136702988985
660.0, 0.0027127598085707277
661.0, 0.001743758412877175
662.0, 0.002024379587975493
663.0, 0.00239697176500671
664.0, 0.0018967835275767073
665.0, 0.0010579282416484544
666.0, 0.0012308191580497185
667.0, 0.0016045386815335735
668.0, 0.0012530562983065732
669.0, 0.0014989703587947236
670.0, 0.0009850018523045504
671.0, 0.00034780429806603665
672.0, 0.0006719901404484642
673.0, 0.00106679622816502
674.0, 0.0004747338428324658
675.0, 0.0004187931157465894
676.0, 0.00030615455894771537
677.0, 0.0009622316176177422
678.0, 0.0012588707071916221
679.0, 0.0008101441595989483
680.0, 0.0009355206720814903
681.0, 0.0005367420175368332
682.0, 0.0003761245412736402
683.0, 0.0007231450191455249
684.0, 0.0008967759261736572
685.0, 0.0008378627376900588
686.0, 0.0007414403557967454
687.0, 0.0007275105159543184
688.0, 0.0006736191118922953
689.0, 0.0008545327148742887
690.0, 0.0002717715421240058
691.0, 0.0005090505232561735
692.0, 0.0007768443398862359
693.0, 0.0005780370354755233
694.0, 0.00030454349123856534
695.0, 0.0006717281371575666
696.0, 0.00046616457795052883
697.0, 0.0008900001592534942
698.0, 0.0005149140130341905
699.0, 0.00037544667435252037
700.0, 0.0003408231781501609
701.0, 0.0003162045264746482
702.0, 0.0006871074254488963
703.0, 0.0005948287836837797
704.0, 0.0005008527660809429
705.0, 0.00018278420949986536
706.0, 0.00010596442586733177
707.0, 0.00013861840211833333
708.0, 0.00014471166416450096
709.0, 0.00010961868306191914
710.0, 3.437752017452147e-05
711.0, 0.0004455588297487905
712.0, 0.0002376561716857975
713.0, 0.0002987442926268184
714.0, 0.0006012758538069584
715.0, 0.0008566232114742159
716.0, 0.0007704967414745592
717.0, 0.0003459149437740665
718.0, 0.00032689461706408683
719.0, 8.219688400990628e-05
720.0, 0.0006276450400610359
721.0, 0.0009662879054252911
722.0, 0.0005974385337555643
723.0, 0.0005911437922606023
724.0, 0.001684894854690419
725.0, 0.0018026236021841282
726.0, 0.0001584869748629561
727.0, 0.00014182921813435444
728.0, 0.0005799829411064731
729.0, 0.00036973798095989104
730.0, 0.0001367571666880537
731.0, 0.00022848294578960482
732.0, 4.3475494413527744e-05
733.0, 0.00019705905802504232
734.0, 0.0019502061480839187
735.0, 0.001091514695474432
736.0, 0.0010455687052938225
737.0, 0.0013279785606155846
738.0, 0.0009471690127179188
739.0, 9.037624452322e-05
740.0, 0.00013930577574467146
741.0, 0.0008306211054889307
742.0, 0.00014676203499675695
743.0, 0.0007464542239567783
744.0, 0.0009813936535757138
745.0, 0.0007879471354044898
746.0, 0.0008906363656405529
747.0, 0.0013918874520158495
748.0, 0.0009012417821342321
749.0, 8.463248515490395e-05
750.0, 0.000378102966062784
751.0, 0.00034398659284039885
752.0, 0.00014506005529183185
753.0, 0.0001764669889840044
754.0, 0.00045777637986489883
755.0, 0.0007553496519685291
756.0, 0.001456611039317295
757.0, 0.0011471383633077092
758.0, 0.00039965953226592363
759.0, 0.0004610758875871044
760.0, 0.00033841202560981295
761.0, 0.0007701743901491954
762.0, 0.001815764204466361
763.0, 0.0014869695743852155
764.0, 0.0018195789451098026
765.0, 0.0013012685016538686
766.0, 0.0009420667088891601
767.0, 0.0013744576249260375
768.0, 0.001084294782599898
769.0, 0.0007526217725066674
770.0, 0.0014260601925251532
771.0, 0.001492620961973025
772.0, 0.001019745178428942
773.0, 0.00026942631404555667
774.0, 0.00011007755258061332
775.0, 0.00014246983582442578
776.0, 0.0001505241964844439
777.0, 0.00020332097307452455
778.0, 0.0005269283047112794
779.0, 0.0011740736711568641
780.0, 0.001193816843155577
781.0, 0.0005799398930196127
782.0, 0.0006736232280337032
783.0, 0.00038065238495294624
784.0, 0.00018910621196146786
785.0, 0.00040723329395099604
786.0, 0.0006792943526740126
787.0, 0.0008050524207986569
788.0, 0.00025346747024871687
789.0, 7.618765627860237e-05
790.0, 5.082700214909791e-05
791.0, 0.0005628413060856785
792.0, 0.0006247218179783713
793.0, 0.000163466172133552
794.0, 1.5582275720330815e-05
795.0, 8.89063436042176e-05
796.0, 0.001059575033572251
797.0, 0.00043543449051099364
798.0, 0.0003422997048541966
799.0, 0.00017163009796765722
800.0, 0.00044802150975929125
801.0, 0.0007260665704886441
802.0, 0.0002974008409181992
803.0, 0.0005776945324666683
804.0, 0.001513281586336808
805.0, 0.001703296662537274
806.0, 0.0011970685221204093
807.0, 0.0013980734787457881
808.0, 0.001311464966990846
809.0, 0.0013566928916174583
810.0, 0.002521870213622079
811.0, 0.003274565750657439
812.0, 0.0041542139256167
813.0, 0.003944534882252213
814.0, 0.0029312580346341085
815.0, 0.003580782657626137
816.0, 0.003764970764934309
817.0, 0.003586811427132158
818.0, 0.004308539758834782
819.0, 0.004264891556798662
820.0, 0.0026873467878586986
821.0, 0.003197178976577286
822.0, 0.002868560892222537
823.0, 0.002610706524264372
824.0, 0.002747219269321551
825.0, 0.0024719258598012374
826.0, 0.0016427630035796214
827.0, 0.0015305486531977746
828.0, 0.0015149476876420765
829.0, 0.0018791842234157211
830.0, 0.0024652342931045894
831.0, 0.0011576006240543116
832.0, 0.0004797718658313592
833.0, 0.0010605245437956146
834.0, 0.002068177936040904
835.0, 0.0028267410374607587
836.0, 0.0028387507075610654
837.0, 0.003213693581622011
838.0, 0.0032001709078926517
839.0, 0.0027069622583429267
840.0, 0.0029069854827494888
841.0, 0.00456222148027711
842.0, 0.005395231662472357
843.0, 0.004141885775773965
844.0, 0.005550651074366814
845.0, 0.004136969031624778
846.0, 0.006640398920011964
847.0, 0.006943184805318539
848.0, 0.007617324255089372
849.0, 0.009238041831173514
850.0, 0.010607802585888055
851.0, 0.011293033193955424
852.0, 0.012557720627025057
853.0, 0.013401627595627102
854.0, 0.014528141567105269
855.0, 0.01567234601073232
856.0, 0.01763615137680401
857.0, 0.02014764589017944
858.0, 0.02277001616925682
859.0, 0.02539681677544963
860.0, 0.028239107862511693
861.0, 0.03139651689633239
862.0, 0.034591743130551654
863.0, 0.037432356647929994
864.0, 0.040707012878389265
865.0, 0.042461368911897605
866.0, 0.04367843690618662
867.0, 0.0440105706241291
868.0, 0.042994081791018116
869.0, 0.04179262164851029
870.0, 0.03803202550976524
871.0, 0.03663112864073677
872.0, 0.03592276588177207
873.0, 0.03344587775745903
874.0, 0.032049195528066066
875.0, 0.030849251920707026
876.0, 0.02970468112299322
877.0, 0.0296379365881738
878.0, 0.028291271092032354
879.0, 0.028370530580482126
880.0, 0.02907357527336
881.0, 0.029154871025964153
882.0, 0.030465586267119125
883.0, 0.031224977579903248
884.0, 0.032108014839153216
885.0, 0.03428545755909355
886.0, 0.03658115656248498
887.0, 0.03797485968313581
888.0, 0.04105853086751535
889.0, 0.04420617225543286
890.0, 0.04657730120264143
891.0, 0.04923031360115628
892.0, 0.05412661664215149
893.0, 0.0594767980147611
894.0, 0.06355567313250764
895.0, 0.06890684866093054
896.0, 0.07461782753421992
897.0, 0.07991639999579303
898.0, 0.08952233610143305
899.0, 0.09673171399971357
900.0, 0.10417314765294852
901.0, 0.11185177254993124
902.0, 0.12017949803183615
903.0, 0.13135780550227424
904.0, 0.14663497029803338
905.0, 0.1647048714334243
906.0, 0.1836197245567165
907.0, 0.20405509606134245
908.0, 0.2356944236182502
909.0, 0.2690632174003565
910.0, 0.309120983411878
911.0, 0.358143639793518
912.0, 0.4133827425445744
913.0, 0.4827671943056243
914.0, 0.5610457706193335
915.0, 0.6426137310120272
916.0, 0.7297942147403286
917.0, 0.8145892844785227
918.0, 0.8916831775201453
919.0, 0.9513887800978117
920.0, 0.9868647773248744
921.0, 0.9939227853649163
922.0, 0.9662672390139857
923.0, 0.9177073758471672
924.0, 0.8226607175538401
925.0, 0.7299423839191861
926.0, 0.6332924970489312
927.0, 0.5421939962797451
928.0, 0.46060508235178915
929.0, 0.3902476362485827
930.0, 0.33195330207372353
931.0, 0.28205518271053753
932.0, 0.24569449704862475
933.0, 0.21005688026835234
934.0, 0.1822892691914988
935.0, 0.16087033982282384
936.0, 0.1402042321864925
937.0, 0.12255281937389051
938.0, 0.10875666756401091
939.0, 0.09654864454873385
940.0, 0.08656826176851301
941.0, 0.07685602622086894
942.0, 0.06908527151406509
943.0, 0.062744792664457
944.0, 0.057376737753088665
945.0, 0.05126885002029058
946.0, 0.045421176290660004
947.0, 0.041346194517640364
948.0, 0.0387706453159918
949.0, 0.036050992585911754
950.0, 0.03341607551683725
951.0, 0.031453572558691
952.0, 0.028450252247722234
953.0, 0.026400365688800127
954.0, 0.02457255518489011
955.0, 0.023212269871006278
956.0, 0.022011473308910998
957.0, 0.02033567946207828
958.0, 0.01838649542905211
959.0, 0.017295111070054926
960.0, 0.016982424119201808
961.0, 0.01797630833603078
962.0, 0.017508639506770927
963.0, 0.016604808388201872
964.0, 0.015793518936829752
965.0, 0.014850280157107617
966.0, 0.014001481492481883
967.0, 0.013630023938072344
968.0, 0.013120976285625594
969.0, 0.012533048673013308
970.0, 0.012739580108433573
971.0, 0.012144461966027406
972.0, 0.011935098481476166
973.0, 0.011790985348892969
974.0, 0.011649452651390465
975.0, 0.011435985570515894
976.0, 0.011296839869999633
977.0, 0.01144832214833591
978.0, 0.011165453193569756
979.0, 0.010845228279887018
980.0, 0.012240136956413534
981.0, 0.01210214785784156
982.0, 0.010889471595208935
983.0, 0.010197884283886375
984.0, 0.011309366633101413
985.0, 0.011843019244707924
986.0, 0.010855162046947654
987.0, 0.012668982093945546
988.0, 0.011730557385430815
989.0, 0.011316956610101589
990.0, 0.010388734218857923
991.0, 0.010840044700209743
992.0, 0.009828685187664107
993.0, 0.009202427089985723
994.0, 0.008546521890845302
995.0, 0.007771638485676597
996.0, 0.008157886774439866
997.0, 0.007893150635424595
998.0, 0.007647321109573524
999.0, 0.00830323003898379
1000.0, 0.00812256993345177
1001.0, 0.007493135101046842
1002.0, 0.0068968585564058065
1003.0, 0.0067414145569031254
1004.0, 0.006796353863601839
1005.0, 0.007029920986767766
1006.0, 0.007705736012556956
1007.0, 0.007997189258672004
1008.0, 0.00768435396014964
1009.0, 0.009229430414318722
1010.0, 0.007747781560310725
1011.0, 0.007827326460961301
1012.0, 0.008352228995481997
1013.0, 0.008664290524066066
1014.0, 0.00864895413149074
1015.0, 0.008643293291966454
1016.0, 0.008976151262154959
1017.0, 0.008980980752377977
1018.0, 0.01106195847389155
1019.0, 0.011480479465668842
1020.0, 0.010728227078880452
1021.0, 0.009738581131819735
1022.0, 0.011538585945827108
1023.0, 0.012543809422308228
1024.0, 0.012105298810367057
1025.0, 0.012085867200714286
1026.0, 0.012436242931194844
1027.0, 0.013484159179435525
1028.0, 0.014051115910474447
1029.0, 0.01537367702860133
1030.0, 0.016651961894278092
1031.0, 0.01580860538508717
1032.0, 0.01724297058425687
1033.0, 0.01788766277301946
1034.0, 0.017633293353167982
1035.0, 0.018530213558818905
1036.0, 0.020214706198009722
1037.0, 0.021939746922683672
1038.0, 0.022964892405602105
1039.0, 0.02574372494581196
1040.0, 0.024233766048500995
1041.0, 0.02810112508743828
1042.0, 0.029395935765214008
1043.0, 0.03147631118267301
1044.0, 0.03318435276693812
1045.0, 0.03250954673089176
1046.0, 0.03205364427341258
1047.0, 0.03349598546443268
1048.0, 0.03275604421204899
1049.0, 0.030778436969145832
1050.0, 0.03144322097739624
1051.0, 0.02955169332230811
1052.0, 0.028335169923193078
1053.0, 0.026731447468579753
1054.0, 0.02439398387588046
1055.0, 0.02205917618243746
1056.0, 0.02039281160764453
1057.0, 0.01890852400564512
1058.0, 0.01580079920775342
1059.0, 0.012232410678144501
1060.0, 0.012701960645924175
1061.0, 0.010771999918026038
1062.0, 0.010192171088143664
1063.0, 0.009107657902916117
1064.0, 0.00783580927820868
1065.0, 0.006397624817597294
1066.0, 0.004933871297550085
1067.0, 0.00414534065458745
1068.0, 0.004150037236744687
1069.0, 0.004895677786070226
1070.0, 0.004735429458639893
1071.0, 0.00481163433975922
1072.0, 0.0033020348793787917
1073.0, 0.003138934800621508
1074.0, 0.0031088678405239334
1075.0, 0.0021031672052844452
1076.0, 0.0017489411832388626
1077.0, 0.002443192135647841
1078.0, 0.002087978490220242
1079.0, 0.0012651849752091217
1080.0, 0.002327072236813551
1081.0, 0.0026336188640106923
1082.0, 0.0005980282142964812
1083.0, 0.002317765978922203
1084.0, 0.002584658323345787
1085.0, 0.002207607256283124
1086.0, 0.0029063815613200195
1087.0, 0.002706415691991696
1088.0, 0.0011162104284682963
1089.0, 0.0012674488292194217
1090.0, 0.0020009192598550753
1091.0, 0.0007271384951372279
1092.0, 0.0006255308272676087
1093.0, 0.0004002767704010669
1094.0, 0.0009741085200172572
1095.0, 0.0006607264652634965
1096.0, 0.0007379490070773011
1097.0, 0.0009587230207010186
1098.0, 0.0008184324289064131
1099.0, 0.0006834003352805119
1100.0, 0.0007506909491912753
1101.0, 0.0005065965092111999
1102.0, 0.0009073151650869223
1103.0, 0.0001163589470105758
1104.0, 0.00019132012535459615
1105.0, 0.0007874281651828214
1106.0, 0.0007987288610899492
1107.0, 0.0005024522762004893
1108.0, 0.0006420356485194404
1109.0, 0.0006362990010651828
1110.0, 0.00021910793510743798
1111.0, 0.00013666174280525724
1112.0, 0.00014412088796174577
1113.0, 0.0001778262336566766
1114.0, 0.00048668495989963973
1115.0, 9.627817158905903e-05
1116.0, 9.33643782009823e-05
1117.0, 0.0010270938867777385
1118.0, 0.0024298763854716777
1119.0, 0.003622560011629761
1120.0, 0.004060310763690516
1121.0, 0.003935156251604643
1122.0, 0.004399570700643399
1123.0, 0.005908146869647285
1124.0, 0.006001771627168431
1125.0, 0.004686971717268619
1126.0, 0.004228922936553948
1127.0, 0.003788292100263358
1128.0, 0.002566593433083006
1129.0, 0.0012598796556568138
1130.0, 0.0015163866411705882
1131.0, 0.001598980082933303
1132.0, 0.0008164449517317552
1133.0, 0.00020663326790739726
1134.0, 0.00023079507878301757
1135.0, 0.0007817062966753914
1136.0, 0.0007890384675113554
1137.0, 0.0008231613530545407
1138.0, 0.0012799209993931745
1139.0, 0.0008993163928592233
1140.0, 0.0010871393954735565
1141.0, 0.0005150371890794902
1142.0, 0.0002733112669906712
1143.0, 0.0004350546848136702
1144.0, 0.001016039870835494
1145.0, 0.001266210558268449
1146.0, 0.00017451951064815184
1147.0, 0.00024025533300713365
1148.0, 0.0002482041783462399
1149.0, 0.0011719391246308676
1150.0, 0.0004470647237227022
1151.0, 0.0013366438373934387
1152.0, 0.0012733219235685543
1153.0, 0.0010607283044349282
1154.0, 0.0012004496055751724
1155.0, 0.0009008088622319389
1156.0, 0.0002720225309657052
1157.0, 0.00010110512039797364
1158.0, 0.0001921713061311366
1159.0, 0.00025027206788122354
1160.0, 0.00021954016945219604
1161.0, 0.00031236699093329994
1162.0, 0.00017271867761534806
1163.0, 0.00012395939814521876
1164.0, 0.00041923721763772494
1165.0, 0.00033968459680570396
1166.0, 0.0007924415232356105
1167.0, 0.0011128088267527603
1168.0, 0.0011880594334887546
1169.0, 0.001888540005980211
1170.0, 0.002633168894600241
1171.0, 0.0022578774341719984
1172.0, 0.0032565156374158885
1173.0, 0.003531164400866614
1174.0, 0.0026261164946771894
1175.0, 0.003329744764860573
1176.0, 0.002361801453963722
1177.0, 0.002703005423065036
1178.0, 0.0033670837359465844
1179.0, 0.003422394963659924
1180.0, 0.002782991519366233
1181.0, 0.002691181827709915
1182.0, 0.0034902094104237147
1183.0, 0.0032015697759576497
1184.0, 0.003195009727871888
1185.0, 0.004130043263942307
1186.0, 0.00314841460861595
1187.0, 0.0024741683924730624
1188.0, 0.003461198810575867
1189.0, 0.0035312095094337847
1190.0, 0.0027141884707292986
1191.0, 0.002210086192330396
1192.0, 0.0030645672356299026
1193.0, 0.0031429353236243464
1194.0, 0.0015955963311147224
1195.0, 0.001808292449341661
1196.0, 0.004126306110711289
1197.0, 0.003685541817941096
1198.0, 0.0033911661210102
1199.0, 0.004087485860843457
1200.0, 0.0039790832665805
1201.0, 0.002702921768147775
1202.0, 0.00290869135151743
1203.0, 0.002799119880397183
1204.0, 0.002978989874022299
1205.0, 0.0036135290498955164
1206.0, 0.0033308222685313822
1207.0, 0.0023185156486045673
1208.0, 0.0025249929022357646
1209.0, 0.0031766406230529873
1210.0, 0.001752164380705806
1211.0, 0.0022498489639840966
1212.0, 0.0041193885410809
1213.0, 0.0028154645971472476
1214.0, 0.0019614452571674085
1215.0, 0.0037977395146626064
1216.0, 0.004023604857352947
1217.0, 0.00425587976875673
1218.0, 0.0033923809173777857
1219.0, 0.0028209452570488367
1220.0, 0.0030817966125891594
1221.0, 0.00205091009912978
1222.0, 0.0021708800778502155
1223.0, 0.002187062619734252
1224.0, 0.0026543416850949905
1225.0, 0.004297587927043679
1226.0, 0.0024798531904544987
1227.0, 0.003791868531489966
1228.0, 0.0026618103718806757
1229.0, 0.0027481152988733117
1230.0, 0.0031489941624450054
1231.0, 0.0024621439350890066
1232.0, 0.0017596715729102604
1233.0, 0.001174765492468662
1234.0, 0.0012895256568542725
1235.0, 0.0033222039988018417
1236.0, 0.0033453423602798613
1237.0, 0.0032001310810824664
1238.0, 0.0036959767804396115
1239.0, 0.0032606895300542455
1240.0, 0.0030808717813658637
1241.0, 0.0027306140591689845
1242.0, 0.0028614631724569587
1243.0, 0.002736795646174502
1244.0, 0.0025346546000566354
1245.0, 0.002257962585136985
1246.0, 0.002293776861075865
1247.0, 0.0023995527442772623
1248.0, 0.0023681463660009837
1249.0, 0.002811633292105246
1250.0, 0.002850737724337445
1251.0, 0.003385921484815225
1252.0, 0.0029897669880830065
1253.0, 0.0030717940877568223
1254.0, 0.0036468408555792257
1255.0, 0.0024432518311872592
1256.0, 0.0033384254811591463
1257.0, 0.004024885288942031
1258.0, 0.0037554217188983
1259.0, 0.004177004514424288
1260.0, 0.004246719926834936
1261.0, 0.0035454507260446735
1262.0, 0.0034370636615326158
1263.0, 0.0031557874537888487
1264.0, 0.0021727558357825805
1265.0, 0.003299019667890689
1266.0, 0.002566489618763439
1267.0, 0.0022095758234511164
1268.0, 0.004031563776060922
1269.0, 0.0018361339302519102
1270.0, 0.0027501415086846207
1271.0, 0.0037029172790128163
1272.0, 0.003805044945564146
1273.0, 0.003272564433988982
1274.0, 0.00289859496962151
1275.0, 0.003116360700804419
1276.0, 0.0030835967903037583
1277.0, 0.0029918108628556113
1278.0, 0.004118196800487929
1279.0, 0.004272393049474771
1280.0, 0.004208593731956919
1281.0, 0.0042901223964544296
1282.0, 0.0033081369263745644
1283.0, 0.004198361475917206
1284.0, 0.004167703760048544
1285.0, 0.004989650216932001
1286.0, 0.004579586808145955
1287.0, 0.002655990520795502
1288.0, 0.001922224481649406
1289.0, 0.0021591735875614243
1290.0, 0.0026043989099349693
1291.0, 0.002617545430197178
1292.0, 0.002527125979067602
1293.0, 0.0034003101245130944
1294.0, 0.00251118032712965
1295.0, 0.0027695991547990553
1296.0, 0.0028516638942688815
1297.0, 0.004173097972049129
1298.0, 0.0031885416518393126
1299.0, 0.0017098147924181476
1300.0, 0.003594259795564296
1301.0, 0.002086308070320746
1302.0, 0.0026906238930509063
1303.0, 0.001878168866013279
1304.0, 0.0013196584002619094
1305.0, 0.0017128168330050586
1306.0, 0.0013155477750850198
1307.0, 0.0016492242663004386
1308.0, 0.0029695687335623156
1309.0, 0.0019104734411585877
1310.0, 0.0022846112337476174
1311.0, 0.001215063645732886
1312.0, 0.0009150079827455564
1313.0, 0.0024688856661986137
1314.0, 0.0008057109240177933
1315.0, 0.0014214382760791558
1316.0, 0.00045824027506503873
1317.0, 0.0013556328585786102
1318.0, 0.0013741738166947264
1319.0, 0.0006308155683952899
1320.0, 0.0008419529688107225
1321.0, 0.0010233136056889847
1322.0, 0.000819210321365003
1323.0, 0.0006401978225179863
1324.0, 0.00032459319976416574
1325.0, 0.0010100175881737985
1326.0, 0.0014600754190445442
1327.0, 0.0009722217590437759
1328.0, 0.0008911412700970298
1329.0, 0.0011176349550752625
1330.0, 0.0010518745298838282
1331.0, 0.00044634730633902895
1332.0, 0.001652422316186181
1333.0, 0.0006976579486765316
1334.0, 0.0007187368751586499
1335.0, 0.0006127107051229478
1336.0, 0.0010470957464055928
1337.0, 0.001094526156054729
1338.0, 0.0008769876268968338
1339.0, 0.0014756750143514585
1340.0, 0.0015409607500338684
1341.0, 0.0005492163070339866
1342.0, 0.0008595911608445532
1343.0, 0.0006292202733979046
1344.0, 0.00016794104230455267
1345.0, 0.0013692621929179802
1346.0, 0.0009923969096439778
1347.0, 0.0002751314819085342
1348.0, 3.1562328971346414e-05
1349.0, 0.000682442431681063
1350.0, 0.0017187008451980408
1351.0, 0.0016024231332320094
1352.0, 0.0011549162833180333
1353.0, 0.0008902246421126801
1354.0, 0.0012218516471269886
1355.0, 0.001266678545295046
1356.0, 0.0005776221000350012
1357.0, 0.0003323944544968616
1358.0, 0.000610585772917476
1359.0, 0.0007029993629451724
1360.0, 0.001705912985623354
1361.0, 0.0010208093317775444
1362.0, 0.00043128475087660746
1363.0, 0.0014445671238639789
1364.0, 0.0019733410973848302
1365.0, 0.0018013802334882526
1366.0, 0.0015194077758692987
1367.0, 0.0010051353302068843
1368.0, 0.0006213537274579379
1369.0, 0.0004804388241691547
1370.0, 0.00016718848794595905
1371.0, 0.00034661392722560306
1372.0, 0.0003398523259243892
1373.0, 0.0003054439508615451
1374.0, 0.0009259940350055676
1375.0, 0.0010473091779973477
1376.0, 0.00029168492298011026
1377.0, 0.0003123028231423358
1378.0, 0.0007666988815258917
1379.0, 0.002313495222933644
1380.0, 0.002316684756230273
1381.0, 0.002132010004382199
1382.0, 0.0014460255178873546
1383.0, 0.0021681909209534714
1384.0, 0.0011387222325874068
1385.0, 0.0002765215713171535
1386.0, 4.802928798161186e-05
1387.0, 0.0002998136976010709
1388.0, 0.0008659033713019562
1389.0, 0.0003979924752607038
1390.0, 0.00015074305337997796
1391.0, 0.0007847794538912903
1392.0, 0.0006882447187780582
1393.0, 0.00018746669669160782
1394.0, 0.0005539149090186942
1395.0, 0.0006995348022941095
1396.0, 0.0008712774960414691
1397.0, 0.0022330403358747017
1398.0, 0.0011030520757418223
1399.0, 0.0006109237521547914
1400.0, 0.00032366649005203564
1401.0, 0.0029965899392616537
1402.0, 0.0010143428835269052
1403.0, 0.002358254287548641
1404.0, 0.0026165103325813403
1405.0, 0.0020307625524918736
1406.0, 0.002291751333744232
1407.0, 0.0017333901822121085
1408.0, 0.0007507423410603152
1409.0, 0.0010929156090342253
1410.0, 0.0011784389242395716
1411.0, 0.001203504656777742
1412.0, 0.0013599009401434466
1413.0, 0.0016935970821737205
1414.0, 0.0024182101393431525
1415.0, 0.002425665374496639
1416.0, 0.002113489361647799
1417.0, 0.0026579572224016993
1418.0, 0.002261250536916494
1419.0, 0.0028379528137647153
1420.0, 0.0027736359289688814
1421.0, 0.0025298573903416214
1422.0, 0.0029241906641563112
1423.0, 0.0024231525387737253
1424.0, 0.002653945318920146
1425.0, 0.003319762132867434
1426.0, 0.0026552595175701084
1427.0, 0.0025699629867738617
1428.0, 0.0031205573785560445
1429.0, 0.003381396304231452
1430.0, 0.003362056751284313
1431.0, 0.0034936881109669414
1432.0, 0.0032029681282926144
1433.0, 0.0031383834546200224
1434.0, 0.003291822811463493
1435.0, 0.0028888201937143487
1436.0, 0.0032006246197067156
1437.0, 0.0037189444400844147
1438.0, 0.002662530346646339
1439.0, 0.0036237706360571172
1440.0, 0.0026718681349803225
1441.0, 0.002415320824958698
1442.0, 0.0038557178922414594
1443.0, 0.005068000947518162
1444.0, 0.006227475253196129
1445.0, 0.0032605922851243587
1446.0, 0.0035426337437017914
1447.0, 0.0034358348215622224
1448.0, 0.004320005011964874
1449.0, 0.004095899390652377
1450.0, 0.0022591116730994363
1451.0, 0.002142712011473458
1452.0, 0.002518279276480038
1453.0, 0.0017174933391628196
1454.0, 0.0022084040418134544
1455.0, 0.0035792224634506923
1456.0, 0.0032448998052335373
1457.0, 0.0028872368545955597
1458.0, 0.0033988061550364436
1459.0, 0.002961565779213298
1460.0, 0.0027946278605342468
1461.0, 0.0032667370163847378
1462.0, 0.003805939489265945
1463.0, 0.004038521195869344
1464.0, 0.003521572538841574
1465.0, 0.00380267294760931
1466.0, 0.0037318868775628893
1467.0, 0.0028450007710632374
1468.0, 0.003635295697999335
1469.0, 0.003639598205028238
1470.0, 0.0038244508576269413
1471.0, 0.004360742671036522
1472.0, 0.0051558652964784684
1473.0, 0.005451288748682977
1474.0, 0.00382730349237621
1475.0, 0.00446279275981408
1476.0, 0.004100122997413627
1477.0, 0.003354040798569431
1478.0, 0.004075734317555132
1479.0, 0.003680258432731485
1480.0, 0.0034011774959755905
1481.0, 0.0036444350017835764
1482.0, 0.00406775957597037
1483.0, 0.004301824573374802
1484.0, 0.003892952378168909
1485.0, 0.00427528719260974
1486.0, 0.002715530919348931
1487.0, 0.003853815958128741
1488.0, 0.004006836792315895
1489.0, 0.0024326241352273623
1490.0, 0.0022540973300678485
1491.0, 0.0013069535308522487
1492.0, 0.0038599727553995677
1493.0, 0.00455686166726436
1494.0, 0.003494699198119595
1495.0, 0.004159814686715591
1496.0, 0.0024664617793481746
1497.0, 0.004824462162713026
1498.0, 0.0048149739060379
1499.0, 0.0031684505277854978
1500.0, 0.004538868279311592
1501.0, 0.0046162065033891
1502.0, 0.004205842400828658
1503.0, 0.004210184251936487
1504.0, 0.0035147424412830396
1505.0, 0.004087561815337027
1506.0, 0.003172373318061045
1507.0, 0.0031843511312929992
1508.0, 0.004568394303527808
1509.0, 0.0045901682918587875
1510.0, 0.003911393638392886
1511.0, 0.003700403183450298
1512.0, 0.004960870249650929
1513.0, 0.005375558540192781
1514.0, 0.004690358956952956
1515.0, 0.0051039942197649655
1516.0, 0.004785318108065498
1517.0, 0.004622051623341351
1518.0, 0.003962067902811888
1519.0, 0.004059459025420562
1520.0, 0.0036654304277462632
1521.0, 0.0036069766884480447
1522.0, 0.0026422043106147696
1523.0, 0.002910194805966966
1524.0, 0.004073311349174639
1525.0, 0.001459852504057126
1526.0, 0.0028599588942483036
1527.0, 0.0022989257664342137
1528.0, 0.001840889418675651
1529.0, 0.002720986775242015
1530.0, 0.0018366532324958918
1531.0, 0.0009343508530903315
1532.0, 0.0020553214090845034
1533.0, 0.0019239571137828438
1534.0, 0.0027734708691831635
1535.0, 0.003011160159360441
1536.0, 0.002874414982465584
1537.0, 0.0029970574799784025
1538.0, 0.0026099025594849196
1539.0, 0.0032005579000364
1540.0, 0.0034905689542171015
1541.0, 0.00282047041058751
1542.0, 0.0024745961414917267
1543.0, 0.0018464932009708362
1544.0, 0.002986855892246636
1545.0, 0.0035642616632040993
1546.0, 0.0030794248544832566
1547.0, 0.0035088644593450655
1548.0, 0.001998916755933713
1549.0, 0.0015113065817375332
1550.0, 0.002143044936837602
1551.0, 0.0032645723932514686
1552.0, 0.004296042537769687
1553.0, 0.003664687268853539
1554.0, 0.005600928004443458
1555.0, 0.004750321282346951
1556.0, 0.0026203024167310253
1557.0, 0.002791540901359606
1558.0, 0.0004371918635392104
1559.0, 0.001988182537623344
1560.0, 0.002297897746577618
1561.0, 0.0033131124442348204
1562.0, 0.0014272514382801102
1563.0, 0.0035517713683202203
1564.0, 0.0026283249121539136
1565.0, 0.0007678556468048545
1566.0, 0.0023219136286390845
1567.0, 0.0018650492633168988
1568.0, 0.002032117392188405
1569.0, 0.0008277799121710918
1570.0, 3.194759214673076e-06
1571, 0.0
1572, 0.0
1573, 0.0
1574, 0.0
1575, 0.0
1576, 0.0
1577, 0.0
1578, 0.0
1579, 0.0
1580, 0.0
1581, 0.0
1582, 0.0
1583, 0.0
1584, 0.0
1585, 0.0
1586, 0.0
1587, 0.0
1588, 0.0
1589, 0.0
1590, 0.0
1591, 0.0
1592, 0.0
1593, 0.0
1594, 0.0
1595, 0.0
1596, 0.0
1597, 0.0
1598, 0.0
1599, 0.0
