30, 0.0
31, 0.0
32, 0.0
33, 0.0
34, 0.0
35, 0.0
36, 0.0
37, 0.0
38, 0.0
39, 0.0
40, 0.0
41, 0.0
42, 0.0
43, 0.0
44, 0.0
45, 0.0
46, 0.0
47, 0.0
48, 0.0
49, 0.0
50, 0.0
51, 0.0
52, 0.0
53, 0.0
54, 0.0
55, 0.0
56, 0.0
57, 0.0
58, 0.0
59, 0.0
60, 0.0
61, 0.0
62, 0.0
63, 0.0
64, 0.0
65, 0.0
66, 0.0
67, 0.0
68, 0.0
69, 0.0
70, 0.0
71, 0.0
72, 0.0
73, 0.0
74, 0.0
75, 0.0
76, 0.0
77, 0.0
78, 0.0
79, 0.0
80, 0.0
81, 0.0
82, 0.0
83, 0.0
84, 0.0
85, 0.0
86, 0.0
87, 0.0
88, 0.0
89, 0.0
90, 0.0
91, 0.0
92, 0.0
93, 0.0
94.0, 0.0005189623839695615
95.0, 0.0009835385460372464
96.0, 0.00018162575856602725
97.0, 0.0005686685437482496
98.0, 0.00030433473520520224
99.0, 0.00011788120092028005
100.0, 0.00034710120855510694
101.0, 0.0009129418188656535
102.0, 0.0004335100168440661
103.0, 0.000285759955393227
104.0, 0.0009178236969256263
105.0, 0.0020531393661392824
106.0, 0.0033056492636565423
107.0, 0.004408752866471478
108.0, 0.004277346080565359
109.0, 0.006251381434290927
110.0, 0.006031835621104703
111.0, 0.003277295601802068
112.0, 0.002426312173131998
113.0, 0.002122156088994236
114.0, 0.0030903239846471783
115.0, 0.004297916009495593
116.0, 0.004915576525081474
117.0, 0.00450219280988628
118.0, 0.0042781617939414394
119.0, 0.003356160371030948
120.0, 0.0026465075246731528
121.0, 0.0020458328983472512
122.0, 0.0013570119037886379
123.0, 0.0007768578328841029
124.0, 0.00031011772374802196
125.0, 0.0001886632255226457
126.0, 0.00030218059639199724
127.0, 0.0006602015555146441
128.0, 0.0013991517909367058
129.0, 0.0006125514292250009
130.0, 0.0005563695219782688
131.0, 0.0008102932012843715
132.0, 0.0009665162557047069
133.0, 0.0007435393796279173
134.0, 0.0005361551226592455
135.0, 0.0012599636577006103
136.0, 0.0014649501536350231
137.0, 0.0016716728350781702
138.0, 0.002370233193329898
139.0, 0.002979264016575422
140.0, 0.0026003073944652695
141.0, 0.002606904962485694
142.0, 0.0024319706255760166
143.0, 0.0021497220338785082
144.0, 0.0024582488225637932
145.0, 0.0019923242557818967
146.0, 0.002656964095247904
147.0, 0.003474746724889148
148.0, 0.003813649718466528
149.0, 0.003655739711032915
150.0, 0.0049619478280303365
151.0, 0.005317051782988984
152.0, 0.0060493986304018515
153.0, 0.007079787721560549
154.0, 0.008285099915510435
155.0, 0.009786642057286443
156.0, 0.01051047344620144
157.0, 0.012130838097723196
158.0, 0.013697087109197259
159.0, 0.015056348841640444
160.0, 0.01658243921833969
161.0, 0.018472132316990908
162.0, 0.019839011412472646
163.0, 0.021533402152462126
164.0, 0.023258434962728888
165.0, 0.024867366406541018
166.0, 0.027176321149255337
167.0, 0.026072581994171354
168.0, 0.02553679080928803
169.0, 0.02445962673110451
170.0, 0.022679830504562355
171.0, 0.02087243370183174
172.0, 0.017169281523901524
173.0, 0.014789563023235884
174.0, 0.011929365157182984
175.0, 0.009299429717140725
176.0, 0.007854808120818601
177.0, 0.0069428933263857755
178.0, 0.004858425010282411
179.0, 0.003755963994787299
180.0, 0.0035341571177215187
181.0, 0.003554753158324938
182.0, 0.0029898164467423204
183.0, 0.0032766112888050624
184.0, 0.002642354588461088
185.0, 0.002426545003134027
186.0, 0.002510682667736301
187.0, 0.002547727594975358
188.0, 0.0033010373551541263
189.0, 0.003666816423447276
190.0, 0.004119755793727195
191.0, 0.0050651783816110275
192.0, 0.006291154381071609
193.0, 0.006993766444113566
194.0, 0.007528924034175683
195.0, 0.007013380403628304
196.0, 0.0075660037892196896
197.0, 0.008856206451054862
198.0, 0.009928763457571866
199.0, 0.010947847112840494
200.0, 0.012969473666545788
201.0, 0.014089928275075011
202.0, 0.015635571889538912
203.0, 0.017253018692761687
204.0, 0.016830988356440597
205.0, 0.016363650660765106
206.0, 0.016694649905991905
207.0, 0.017608884359211083
208.0, 0.018434246870064074
209.0, 0.01867922349325039
210.0, 0.018804894731545053
211.0, 0.019646557133822785
212.0, 0.018816129897830092
213.0, 0.01853568071876584
214.0, 0.018770620619741028
215.0, 0.01736753611001722
216.0, 0.014000392126651226
217.0, 0.013736855364414111
218.0, 0.013042969186880683
219.0, 0.01165840769030857
220.0, 0.010240700199146968
221.0, 0.009454822988680047
222.0, 0.009405844373640069
223.0, 0.009117817947361495
224.0, 0.008349823644757937
225.0, 0.007201715555095043
226.0, 0.006091520894610128
227.0, 0.006043834521454555
228.0, 0.005768442232462276
229.0, 0.00534624269297396
230.0, 0.005584166490600422
231.0, 0.006149712612374651
232.0, 0.004980428448246855
233.0, 0.005640047668412094
234.0, 0.005772583662019212
235.0, 0.005483637388697822
236.0, 0.0050878929590414245
237.0, 0.004906163237643907
238.0, 0.00495643749234832
239.0, 0.004271585959315295
240.0, 0.004156483320352693
241.0, 0.004672826817172176
242.0, 0.005169003068180809
243.0, 0.004711121415836548
244.0, 0.004989372332052177
245.0, 0.0038185612704402768
246.0, 0.00417625631269566
247.0, 0.00451415995329572
248.0, 0.003690544948555411
249.0, 0.0037590244368931915
250.0, 0.003381119928645231
251.0, 0.00333839155805206
252.0, 0.0034288425855205137
253.0, 0.003427262649606593
254.0, 0.0032678738948916167
255.0, 0.0035408973713053162
256.0, 0.003333094524696517
257.0, 0.0037313175376371085
258.0, 0.004328340166093138
259.0, 0.004856698931991067
260.0, 0.0052981682396023785
261.0, 0.004293250796883726
262.0, 0.004042728128031255
263.0, 0.0036782928733483196
264.0, 0.003030456570963034
265.0, 0.0025382053200024976
266.0, 0.003355259547334078
267.0, 0.003610139042805897
268.0, 0.0034721106349670165
269.0, 0.003633209283806645
270.0, 0.003934260978557622
271.0, 0.003905195614991643
272.0, 0.003643078204346879
273.0, 0.0037380700066165125
274.0, 0.004248367364124625
275.0, 0.004036673087870208
276.0, 0.0034048708768558006
277.0, 0.0038034619134867565
278.0, 0.004964487231008509
279.0, 0.005729621028218942
280.0, 0.0049566542220604165
281.0, 0.003844051525793808
282.0, 0.003876631453947432
283.0, 0.005862751947965934
284.0, 0.005042662393101742
285.0, 0.0055565874230564674
286.0, 0.005446856931037885
287.0, 0.005091506379938266
288.0, 0.0053465933471461
289.0, 0.0060896658298898645
290.0, 0.0061856133445974855
291.0, 0.0069815864862916455
292.0, 0.007473169970511113
293.0, 0.007532421195481249
294.0, 0.007601919552890077
295.0, 0.00806555027954178
296.0, 0.008158873984777236
297.0, 0.00840565639074333
298.0, 0.00903095688474408
299.0, 0.010106514536443323
300.0, 0.011413472007752244
301.0, 0.011558639665067417
302.0, 0.01189518170477973
303.0, 0.013628465785521172
304.0, 0.015387814859610705
305.0, 0.016640716773380384
306.0, 0.018381675521035645
307.0, 0.019891164165958906
308.0, 0.020797186583266822
309.0, 0.02262352139280229
310.0, 0.025349603890498194
311.0, 0.027743488611089065
312.0, 0.027597681242827916
313.0, 0.02953013357864559
314.0, 0.03071257582078125
315.0, 0.03178146984809345
316.0, 0.032863275079351065
317.0, 0.03382864886683599
318.0, 0.03446731266160835
319.0, 0.037102652091942884
320.0, 0.03939968758458704
321.0, 0.041688082208783846
322.0, 0.04440439768268773
323.0, 0.04769598158497912
324.0, 0.050797866156139446
325.0, 0.05393338694029643
326.0, 0.057957891225923375
327.0, 0.06172825006656079
328.0, 0.06528171670915109
329.0, 0.06935258265745016
330.0, 0.07379099628011623
331.0, 0.08003941106580015
332.0, 0.08687971173119753
333.0, 0.09584402102626152
334.0, 0.10722478847626078
335.0, 0.1202203790846513
336.0, 0.13527199469820453
337.0, 0.1529374427018974
338.0, 0.1731298488939012
339.0, 0.19501768205490877
340.0, 0.21689265855623274
341.0, 0.23670596713817585
342.0, 0.2538007483688523
343.0, 0.27034503538564275
344.0, 0.2783073211037052
345.0, 0.28057111000132345
346.0, 0.2768975945183318
347.0, 0.2628932739432485
348.0, 0.2459177177062369
349.0, 0.22430402690878637
350.0, 0.19928077508697917
351.0, 0.1743596093153505
352.0, 0.1524471647385107
353.0, 0.13440199913236006
354.0, 0.11705466235640373
355.0, 0.10367035682828893
356.0, 0.09164008121604478
357.0, 0.08217546313129202
358.0, 0.0757453928509326
359.0, 0.07085665050977134
360.0, 0.0674023121424985
361.0, 0.0648724457597725
362.0, 0.06495132416670915
363.0, 0.06593004896628218
364.0, 0.06655378929659182
365.0, 0.06736145886308566
366.0, 0.06763296557817156
367.0, 0.06853386733670015
368.0, 0.06811111783528198
369.0, 0.06736850198433049
370.0, 0.06728372360779407
371.0, 0.06732878616570061
372.0, 0.062032353779566826
373.0, 0.059422786521612064
374.0, 0.05331924621445156
375.0, 0.047262238320631485
376.0, 0.043290210736070325
377.0, 0.03853693672835908
378.0, 0.0353546637674661
379.0, 0.030688904863075062
380.0, 0.026324683239055405
381.0, 0.02248040027592756
382.0, 0.019459893076627186
383.0, 0.017780500253321185
384.0, 0.014693653348284971
385.0, 0.012831493165086897
386.0, 0.011478148847689655
387.0, 0.0103298140834701
388.0, 0.009388704651766128
389.0, 0.008724421170912539
390.0, 0.006729195756845274
391.0, 0.006152930616018434
392.0, 0.005892552338408627
393.0, 0.005096388605292118
394.0, 0.0038977374149386456
395.0, 0.003226858274782627
396.0, 0.0028644041906293076
397.0, 0.0016012562258200225
398.0, 0.0029373998601709464
399.0, 0.003921496281657068
400.0, 0.00355201906521225
401.0, 0.0031484143474820965
402.0, 0.0018382751442005574
403.0, 0.000695667107881234
404.0, 0.0006508075925332572
405.0, 0.0010440791444460103
406.0, 0.0010135365318515493
407.0, 0.0003629760694476605
408.0, 0.0012941379591112194
409.0, 0.0013565264247698268
410.0, 0.0006071327382081821
411.0, 0.0002963197500087846
412.0, 0.00047132471898345135
413.0, 0.0006149666004877188
414.0, 0.0010567182898511473
415.0, 0.00020242118847697913
416.0, 0.00043532080515617356
417.0, 0.0009857892812015255
418.0, 0.0011699641833026334
419.0, 0.0008514218068140679
420.0, 0.000784234081619786
421.0, 0.0006472621524321895
422.0, 0.0002485728825445214
423.0, 0.00026540579043428413
424.0, 0.0003069169090702075
425.0, 7.740319120155873e-05
426.0, 0.0001056995305688406
427.0, 0.0006221621398646199
428.0, 0.0012560351176914347
429.0, 0.0010638895897599767
430.0, 0.0008866243163815611
431.0, 0.001072158612026965
432.0, 0.0008463656739154551
433.0, 0.00014422409493882143
434.0, 0.0007565155084245511
435.0, 0.000419083220698712
436.0, 2.89558054737948e-05
437.0, 0.00014098614806596458
438.0, 0.00044975367629951693
439.0, 0.0005482637370612909
440.0, 0.000640648661251719
441.0, 0.0004973972611689957
442.0, 0.0005371682281686264
443.0, 0.0005246888394427091
444.0, 0.00017059126742219888
445.0, 0.0002983084944429047
446.0, 0.0006629304764809785
447.0, 0.00038447438711238825
448.0, 0.00013385309839048006
449.0, 0.0003066594517496501
450.0, 0.0007148967369708349
451.0, 0.000523861513062129
452.0, 0.0005219961624983508
453.0, 0.00015621329481650572
454.0, 0.0009688930274870159
455.0, 0.0018365831148954345
456.0, 0.0017647281578213512
457.0, 0.0011350358820814413
458.0, 0.0023170693709067187
459.0, 0.002377906736063497
460.0, 0.002504168070096325
461.0, 0.002550390648984315
462.0, 0.0027228259480722326
463.0, 0.00343070127022732
464.0, 0.004394939068278692
465.0, 0.005011801984728415
466.0, 0.005759858496983481
467.0, 0.006772700441839835
468.0, 0.0078716575056521
469.0, 0.008851460803418419
470.0, 0.009772476489097107
471.0, 0.011178759826649162
472.0, 0.01284856365537728
473.0, 0.013928271868419793
474.0, 0.015058442565105733
475.0, 0.016356458781063666
476.0, 0.01694521901855905
477.0, 0.016661865298294783
478.0, 0.01592498937221111
479.0, 0.014773725133239879
480.0, 0.014349139687441212
481.0, 0.013773596715662303
482.0, 0.011932581165812204
483.0, 0.011368533139291414
484.0, 0.012291253251546822
485.0, 0.01133942755288367
486.0, 0.011841298934896383
487.0, 0.013214912031132578
488.0, 0.014651250045312425
489.0, 0.017353365067371455
490.0, 0.019857599473272106
491.0, 0.024287267876768163
492.0, 0.0290531978946034
493.0, 0.034228189972048004
494.0, 0.03889545662729136
495.0, 0.04220336592834336
496.0, 0.04752883136659722
497.0, 0.05000281554483968
498.0, 0.052880698604873676
499.0, 0.05266674794879379
500.0, 0.04896687243416457
501.0, 0.04398743766539846
502.0, 0.040765110579724886
503.0, 0.035487511260537764
504.0, 0.0318780843426128
505.0, 0.027346540793361806
506.0, 0.023161927435239354
507.0, 0.02005955207573608
508.0, 0.017515396967714286
509.0, 0.015508601850480426
510.0, 0.014075188032457473
511.0, 0.012659615823019284
512.0, 0.011674193908554852
513.0, 0.010915041729301411
514.0, 0.010324013275926523
515.0, 0.010549298047723655
516.0, 0.010477365121259309
517.0, 0.01062249944571156
518.0, 0.010591817417599231
519.0, 0.010299664730141891
520.0, 0.010183802596459233
521.0, 0.01068014030233764
522.0, 0.010844873244050547
523.0, 0.010262237706464183
524.0, 0.01014730481932482
525.0, 0.010881025352017723
526.0, 0.01150471700182195
527.0, 0.01175039822768775
528.0, 0.012843181775066726
529.0, 0.0118250786145096
530.0, 0.012176970524703488
531.0, 0.01251897479572737
532.0, 0.013281446510738761
533.0, 0.014443507801169339
534.0, 0.015486904889354863
535.0, 0.016092685483139812
536.0, 0.01581273969962775
537.0, 0.01763847088513045
538.0, 0.019218459121842297
539.0, 0.020680558288586223
540.0, 0.022630639768362836
541.0, 0.025376817249134827
542.0, 0.030331501498830026
543.0, 0.03310079677257039
544.0, 0.036107137264334566
545.0, 0.041588876285558164
546.0, 0.047595503019662054
547.0, 0.05294484473230934
548.0, 0.06154876879212056
549.0, 0.0711040059814277
550.0, 0.0768208389659438
551.0, 0.08286116137077462
552.0, 0.08831127933878809
553.0, 0.09242897845377772
554.0, 0.09436794832028153
555.0, 0.09042285704242597
556.0, 0.08767009213410352
557.0, 0.08172620469598779
558.0, 0.07529512199900382
559.0, 0.0679564238144735
560.0, 0.059685510331230034
561.0, 0.05176614977095927
562.0, 0.0435867259995406
563.0, 0.03957837943459652
564.0, 0.03474733727401952
565.0, 0.029525452161830213
566.0, 0.026239745096352872
567.0, 0.024917131526137833
568.0, 0.021669244523909077
569.0, 0.019244940050344047
570.0, 0.01798445000099815
571.0, 0.016880377838577296
572.0, 0.016458494499841096
573.0, 0.015786173114072564
574.0, 0.014475930684838772
575.0, 0.015215347300658424
576.0, 0.01528376537384461
577.0, 0.014892221429326129
578.0, 0.015120453436914188
579.0, 0.015656635650938028
580.0, 0.015608294476412035
581.0, 0.01470809249536435
582.0, 0.014855157895506685
583.0, 0.0155481988695347
584.0, 0.014733783247498364
585.0, 0.013714840665916252
586.0, 0.012667039601677739
587.0, 0.011845872116228975
588.0, 0.011496561619185448
589.0, 0.010293901581144163
590.0, 0.010611367993892172
591.0, 0.010947583601428243
592.0, 0.009949659040410754
593.0, 0.009756686775671375
594.0, 0.010597528533942066
595.0, 0.00986081215957596
596.0, 0.00962459993145461
597.0, 0.010108884560905989
598.0, 0.009420636497832254
599.0, 0.009078157173307153
600.0, 0.008537518504097933
601.0, 0.007460598129621831
602.0, 0.007027373365008123
603.0, 0.007692226408571588
604.0, 0.006714613015921278
605.0, 0.006053841296454672
606.0, 0.005543310990735051
607.0, 0.005235305277031606
608.0, 0.005225281264270472
609.0, 0.005333531325584279
610.0, 0.004975482441673486
611.0, 0.004742035216712015
612.0, 0.005183162695174709
613.0, 0.0057682544819396475
614.0, 0.005895212277455577
615.0, 0.005486420741571072
616.0, 0.005389386983968764
617.0, 0.007791773095357443
618.0, 0.008220793674283895
619.0, 0.008025107656308062
620.0, 0.008646419668115204
621.0, 0.00940372314075701
622.0, 0.00995967839138078
623.0, 0.011958904525074612
624.0, 0.014261169319711223
625.0, 0.016858938128742822
626.0, 0.01786818937527308
627.0, 0.01907946028204499
628.0, 0.020601644281418398
629.0, 0.02149972700741516
630.0, 0.021337487615241978
631.0, 0.021778549732633615
632.0, 0.020823825918658646
633.0, 0.018738780963490336
634.0, 0.018313278821627754
635.0, 0.017193726612474793
636.0, 0.014570470971906358
637.0, 0.014309792579640187
638.0, 0.011644504199984487
639.0, 0.010365911291093622
640.0, 0.010043631557060336
641.0, 0.009421601643271375
642.0, 0.009136488595136081
643.0, 0.009289577888447658
644.0, 0.00855579449219617
645.0, 0.007823959813725807
646.0, 0.007607895383179142
647.0, 0.00685829114688636
648.0, 0.005980826114872021
649.0, 0.005493417173400003
650.0, 0.005697380521077075
651.0, 0.006382648417374313
652.0, 0.006475904484199179
653.0, 0.005430224521896979
654.0, 0.005242122208067232
655.0, 0.004224103203774635
656.0, 0.0034865015628582938
657.0, 0.0036501937775616122
658.0, 0.0041170124657164305
659.0, 0.004901979063205549
660.0, 0.002560915335015408
661.0, 0.0014152231530534807
662.0, 0.0019674293570774303
663.0, 0.002133951048027009
664.0, 0.0017735512659623547
665.0, 0.00210681944152497
666.0, 0.0025988135901447626
667.0, 0.0026119643773470443
668.0, 0.00246894233763152
669.0, 0.0019956035106107333
670.0, 0.0015393103775698058
671.0, 0.0012300884338563795
672.0, 0.0010664589029229668
673.0, 0.0010585518785990716
674.0, 0.0003793745217807583
675.0, 0.0005799775602778195
676.0, 0.0002448669213519646
677.0, 0.00041623858300422946
678.0, 0.0005306501330886087
679.0, 0.0002427367300472568
680.0, 0.00035423731330974027
681.0, 0.00038162207008765565
682.0, 0.0011670837241925878
683.0, 0.0007476965083059923
684.0, 0.0005582423519837009
685.0, 0.0005851313742940976
686.0, 0.0006153597228331053
687.0, 0.000677342562788755
688.0, 0.0005895614149093453
689.0, 0.000605483076673847
690.0, 0.0005275108696885272
691.0, 0.0003173275258895094
692.0, 0.00025377690166754157
693.0, 0.0006893506415202799
694.0, 0.0011311472118609271
695.0, 0.00018886368955123528
696.0, 0.0007279581172340908
697.0, 0.00042987135608600147
698.0, 0.0012865965808507387
699.0, 0.0009082683629428564
700.0, 0.0003639233506821704
701.0, 0.0006628567106785902
702.0, 0.0007154809368937985
703.0, 0.00012762913404772087
704.0, 0.0006816563749214059
705.0, 0.0005053409741769186
706.0, 0.00044244447925848447
707.0, 0.0006794784558481319
708.0, 0.0008847322872176991
709.0, 0.0007298186837148102
710.0, 0.0004467941164354761
711.0, 0.0003674087133986258
712.0, 0.00018421068557179316
713.0, 0.0004694710435754339
714.0, 0.0004944846760311044
715.0, 0.00027420537962543815
716.0, 0.00023515927213027814
717.0, 0.0005020570403201862
718.0, 0.0003912239339786153
719.0, 0.0010064925010795172
720.0, 0.0003127398127622154
721.0, 0.0004700044585908572
722.0, 0.0005594203540425974
723.0, 0.0002651441616467711
724.0, 0.0002039195922250603
725.0, 0.00038175457209427234
726.0, 0.0007816276898664505
727.0, 0.0018236017085331339
728.0, 0.0014859907730781082
729.0, 0.0006589248306675809
730.0, 0.00014623424611290593
731.0, 0.0002561223777707616
732.0, 0.0006552791288368801
733.0, 0.00017743355161671257
734.0, 0.00042562623553727536
735.0, 0.0008022437177206798
736.0, 0.0008109519280022101
737.0, 0.0013617995085974132
738.0, 0.0017404470857389663
739.0, 0.001287523336086679
740.0, 0.0012374819232347201
741.0, 0.00020748857058729814
742.0, 0.0015928102860540481
743.0, 0.0013395119311621771
744.0, 0.001199139455860582
745.0, 0.0010707321417963986
746.0, 0.0008555447228979697
747.0, 0.0008906241222692109
748.0, 0.0008432728989891033
749.0, 0.0007065976721122951
750.0, 0.0006833036910810348
751.0, 0.0007877359980457194
752.0, 0.0008152219194872071
753.0, 0.0009040622009213545
754.0, 0.0010450384616163
755.0, 0.0010159134869505246
756.0, 0.001158288482062477
757.0, 0.0014022392067275192
758.0, 0.0016573605260606955
759.0, 0.0016180528488060556
760.0, 0.0014582732202465102
761.0, 0.00118800646080537
762.0, 0.0011184980175024555
763.0, 0.0016607855354225753
764.0, 0.0007950577809421724
765.0, 0.0016865576327114006
766.0, 0.0008455609014728952
767.0, 0.0011909258560516543
768.0, 0.0011031279619620224
769.0, 0.0006107279166536104
770.0, 0.0006322269299243394
771.0, 0.000250216890077762
772.0, 0.0008661843732759475
773.0, 0.0004760792505822565
774.0, 0.00023064900480601486
775.0, 8.708483036019976e-05
776.0, 0.00037294435000883837
777.0, 0.0007524172824838204
778.0, 0.0007061118178994848
779.0, 0.0006214006457536588
780.0, 0.0005861325661552975
781.0, 0.001021640904458927
782.0, 0.0005735600196234835
783.0, 0.0002688315175011536
784.0, 0.00048507654432733074
785.0, 0.0006402815499637302
786.0, 0.0002722127406164311
787.0, 0.0003133744846032254
788.0, 0.0010554412589966187
789.0, 0.0006243938675518728
790.0, 0.000761005905156621
791.0, 0.0007472733330956737
792.0, 0.0007424341104837292
793.0, 0.0006285395867226862
794.0, 0.00029872223827880117
795.0, 0.0008238177853183028
796.0, 0.0013019144402153038
797.0, 0.0015711050519660256
798.0, 0.00171042310535831
799.0, 0.002446963544626824
800.0, 0.00228411456542399
801.0, 0.0016930197531900737
802.0, 0.002074910509695131
803.0, 0.0017549460589820994
804.0, 0.002712389657379171
805.0, 0.002485633636211591
806.0, 0.003078306159746199
807.0, 0.003676379536382755
808.0, 0.004305001292156719
809.0, 0.004678997570650551
810.0, 0.004266616223232001
811.0, 0.003430181207244403
812.0, 0.0038537122823415213
813.0, 0.004253505536409954
814.0, 0.0037600591736633507
815.0, 0.004519423787692149
816.0, 0.004637310419542977
817.0, 0.003362621535382314
818.0, 0.0028311354188992515
819.0, 0.00508992683696197
820.0, 0.004075243968813441
821.0, 0.004117561977028649
822.0, 0.0035327734501815512
823.0, 0.0035734430593005405
824.0, 0.0034837069595266127
825.0, 0.0035053734571729514
826.0, 0.00403094796710592
827.0, 0.0043124652262003325
828.0, 0.004300955450482296
829.0, 0.0040231515119122496
830.0, 0.004141315653267131
831.0, 0.0043254606345870155
832.0, 0.004823812217979911
833.0, 0.005425967933675583
834.0, 0.005593985540727416
835.0, 0.005523832518311342
836.0, 0.007080979524063199
837.0, 0.006786952397564962
838.0, 0.0066466339325607455
839.0, 0.008150746207127982
840.0, 0.008617194499311687
841.0, 0.009028614236840468
842.0, 0.009805419789471095
843.0, 0.010201520631833303
844.0, 0.011416637765206626
845.0, 0.012756815146444611
846.0, 0.015202443853585074
847.0, 0.017260360817930757
848.0, 0.018112627194856006
849.0, 0.018641839805377067
850.0, 0.020390826005039685
851.0, 0.023368965653677628
852.0, 0.02585635533839761
853.0, 0.028975327049648166
854.0, 0.03338000914251533
855.0, 0.036677093928885754
856.0, 0.04125970190554281
857.0, 0.04594296102965613
858.0, 0.048202073694978205
859.0, 0.049544399503504144
860.0, 0.05238168347096726
861.0, 0.0512500779167281
862.0, 0.05207015462183376
863.0, 0.05038059347405559
864.0, 0.05012343623607441
865.0, 0.04891830496260902
866.0, 0.046446371142844355
867.0, 0.04409341775686308
868.0, 0.04188793281404642
869.0, 0.038191173538525344
870.0, 0.03681208137807838
871.0, 0.036647375752885146
872.0, 0.03756028387542017
873.0, 0.034911909843081165
874.0, 0.03436962510686265
875.0, 0.035146262528216544
876.0, 0.036152567923518356
877.0, 0.03796570178754667
878.0, 0.03780467094413114
879.0, 0.04115148133471613
880.0, 0.04267157861577802
881.0, 0.04354063171858202
882.0, 0.04650719149360728
883.0, 0.05022625987034283
884.0, 0.05347879818656278
885.0, 0.057057810393417153
886.0, 0.062410799642514364
887.0, 0.06821446151452898
888.0, 0.07098148976038299
889.0, 0.07703019091310206
890.0, 0.08547529152340495
891.0, 0.0928506892296148
892.0, 0.09978130254690938
893.0, 0.10781694766828069
894.0, 0.11671433575237172
895.0, 0.12539073119046243
896.0, 0.1368269427612766
897.0, 0.1461026895595709
898.0, 0.1582232028045506
899.0, 0.1725051800849354
900.0, 0.19072360274962505
901.0, 0.21083461092579817
902.0, 0.23516511553410321
903.0, 0.2675502872198168
904.0, 0.3050276349636156
905.0, 0.3490288180705046
906.0, 0.40298034604169475
907.0, 0.4668840076332139
908.0, 0.5415256240077941
909.0, 0.6218149080674088
910.0, 0.7053529260403774
911.0, 0.7903095887503395
912.0, 0.8701006165009771
913.0, 0.9333346645930186
914.0, 0.9795079850826155
915.0, 0.9976714271191375
916.0, 0.9853179048601726
917.0, 0.9462563548299049
918.0, 0.8820417218140935
919.0, 0.8003482058967816
920.0, 0.7111104181796046
921.0, 0.6227066221566712
922.0, 0.5406788748537323
923.0, 0.4600983320618545
924.0, 0.39775468883109805
925.0, 0.3463288565919378
926.0, 0.296425546255659
927.0, 0.254217758061564
928.0, 0.22083674074852877
929.0, 0.19277033629465432
930.0, 0.16846259282082232
931.0, 0.14962851902192276
932.0, 0.1306947456865714
933.0, 0.11591585614219309
934.0, 0.10316272954487923
935.0, 0.09172402737339296
936.0, 0.08168479567246827
937.0, 0.07324503345018912
938.0, 0.06607750644926891
939.0, 0.05973619084679075
940.0, 0.054194438199308824
941.0, 0.04859343529009976
942.0, 0.04414636325863426
943.0, 0.039996589811720704
944.0, 0.03653481957431807
945.0, 0.03305868120172132
946.0, 0.030082311800594907
947.0, 0.027788036698485244
948.0, 0.025546237727419638
949.0, 0.023149875497638056
950.0, 0.022034060540899153
951.0, 0.020877281029015628
952.0, 0.020226701630892335
953.0, 0.019500023228742475
954.0, 0.01926876435119715
955.0, 0.018676576279157142
956.0, 0.017282281817638655
957.0, 0.01609916331660613
958.0, 0.015772209799566502
959.0, 0.014082516694307549
960.0, 0.01439766825391494
961.0, 0.013826377745691294
962.0, 0.013624022941709382
963.0, 0.012467284966122304
964.0, 0.011925199316050034
965.0, 0.011928082114665053
966.0, 0.012213260615956399
967.0, 0.01243479735167626
968.0, 0.01140610964900339
969.0, 0.012792475307680542
970.0, 0.01335669786444861
971.0, 0.012375867389512824
972.0, 0.012756813090135004
973.0, 0.012767448817511816
974.0, 0.011918741695047886
975.0, 0.011697675122718488
976.0, 0.012188752433159299
977.0, 0.011617694883335236
978.0, 0.011587144234805707
979.0, 0.012261471308570245
980.0, 0.012230559931492382
981.0, 0.009801025093644063
982.0, 0.0101725242344289
983.0, 0.00967815153765287
984.0, 0.008909763965205835
985.0, 0.008870418636520772
986.0, 0.008413583218277362
987.0, 0.00782430926094063
988.0, 0.009152236020087388
989.0, 0.008464300751403477
990.0, 0.007056525974922264
991.0, 0.007823417377586912
992.0, 0.007698027074343065
993.0, 0.0072312444833648615
994.0, 0.0072302277623707
995.0, 0.007465288210405995
996.0, 0.007415673445546698
997.0, 0.006972011769245802
998.0, 0.006325876757995192
999.0, 0.007639362587333351
1000.0, 0.00709339478392832
1001.0, 0.008889773430497903
1002.0, 0.010512040565861535
1003.0, 0.010623986049929281
1004.0, 0.010720617242862846
1005.0, 0.011089662335327098
1006.0, 0.010375889238067858
1007.0, 0.010537044193228118
1008.0, 0.008660536540637661
1009.0, 0.00836629447465549
1010.0, 0.008760214067314774
1011.0, 0.010210609359518182
1012.0, 0.010682516384137423
1013.0, 0.010884348735896342
1014.0, 0.01230138016289737
1015.0, 0.013739272544992949
1016.0, 0.013171581347519168
1017.0, 0.013588988467041594
1018.0, 0.014231342995012454
1019.0, 0.0140728251178654
1020.0, 0.01621452459946531
1021.0, 0.017532287692114904
1022.0, 0.0182202584175825
1023.0, 0.019420450098123366
1024.0, 0.02082460957860471
1025.0, 0.021652480711654116
1026.0, 0.02274301213787776
1027.0, 0.02563698264224412
1028.0, 0.026769351455165995
1029.0, 0.02957453030886006
1030.0, 0.030822572665823476
1031.0, 0.03433242675630451
1032.0, 0.03770574740867021
1033.0, 0.03917320630708803
1034.0, 0.041124237925493974
1035.0, 0.044304449406495826
1036.0, 0.04649163143894355
1037.0, 0.048796010865771115
1038.0, 0.04929623635628082
1039.0, 0.04882527039367086
1040.0, 0.050463471874604045
1041.0, 0.050390119373637896
1042.0, 0.049701354169003696
1043.0, 0.04686311281568396
1044.0, 0.04426528980412563
1045.0, 0.0424217969136172
1046.0, 0.03881074084575433
1047.0, 0.03458060163557097
1048.0, 0.03231830648471833
1049.0, 0.02902509221350754
1050.0, 0.026052747874741877
1051.0, 0.02281984005696516
1052.0, 0.019260486170562516
1053.0, 0.01767929019506212
1054.0, 0.01582177076330753
1055.0, 0.013781387925345103
1056.0, 0.012598345776082629
1057.0, 0.010713663638049768
1058.0, 0.009553228951917627
1059.0, 0.00837610034483495
1060.0, 0.007115167882888516
1061.0, 0.006572346795257905
1062.0, 0.005546640412117094
1063.0, 0.004810292607572429
1064.0, 0.004507346132247158
1065.0, 0.004008063951467568
1066.0, 0.003277540685389771
1067.0, 0.0032155425958930927
1068.0, 0.003830507326743798
1069.0, 0.002686896284856452
1070.0, 0.002944860926426077
1071.0, 0.001975075453143158
1072.0, 0.0021677590925887878
1073.0, 0.0019723345100554576
1074.0, 0.001838951775682858
1075.0, 0.0022168749411065926
1076.0, 0.0017108867105809827
1077.0, 0.0008165376356834963
1078.0, 0.0016185593958954385
1079.0, 0.0020077235679894128
1080.0, 0.0012089206294420255
1081.0, 0.002337945876493287
1082.0, 0.0022314561801177425
1083.0, 0.002534177229318254
1084.0, 0.00281177544137625
1085.0, 0.0017508540835356112
1086.0, 0.0009722895585991382
1087.0, 0.0007790518986460237
1088.0, 0.00036081281945547544
1089.0, 0.00023795224862466988
1090.0, 0.0006131151948956177
1091.0, 0.0003359295459167994
1092.0, 0.001023594204106254
1093.0, 0.0006692391981713219
1094.0, 0.0011295087428815347
1095.0, 0.0010552739998652247
1096.0, 0.0006990474959611241
1097.0, 0.000468014524352708
1098.0, 0.0004282786829417824
1099.0, 0.0005565823463293721
1100.0, 0.0008135700185533886
1101.0, 0.0008703577459792088
1102.0, 0.00037186518970148356
1103.0, 0.00039455916627810413
1104.0, 0.0017973573126110849
1105.0, 0.0006339847097677335
1106.0, 0.00047439983569047713
1107.0, 0.0012736416081158954
1108.0, 0.0010015725821308564
1109.0, 0.0002929923802211209
1110.0, 0.0002808410299081981
1111.0, 0.00045173319851803806
1112.0, 0.0007295466468735563
1113.0, 7.985192988829742e-05
1114.0, 0.0008801094376188023
1115.0, 0.0005951353159994515
1116.0, 0.00023103294739263485
1117.0, 0.00035758925864960966
1118.0, 0.0009135042547996893
1119.0, 0.0010246526718023688
1120.0, 0.001286079819038131
1121.0, 0.0013401396179096648
1122.0, 0.0009755289447267695
1123.0, 0.0016376551696713991
1124.0, 0.0009478811835400547
1125.0, 0.0018908197900984634
1126.0, 0.0017214771148615503
1127.0, 0.0013029274849328918
1128.0, 0.0015312580967891591
1129.0, 0.0015962903108393985
1130.0, 0.0013922942949221857
1131.0, 0.0010960307347644747
1132.0, 0.0006288237688263684
1133.0, 0.00017590655483753172
1134.0, 0.00017340536631829981
1135.0, 0.000548029946246549
1136.0, 0.0015838967526660014
1137.0, 0.0013443932948067362
1138.0, 0.0008577678808226713
1139.0, 0.00038550256412341136
1140.0, 0.0010666063249399672
1141.0, 0.0015183601067406036
1142.0, 0.000723260171623636
1143.0, 0.0008263349868757004
1144.0, 0.0010479979127721382
1145.0, 0.00011809325142774723
1146.0, 0.00026657078002235226
1147.0, 0.0007786660570108245
1148.0, 0.0008347501361550256
1149.0, 0.00041551813022639545
1150.0, 0.0005097235788898008
1151.0, 0.00022084490021432264
1152.0, 0.0012249707600306891
1153.0, 0.001047362292434956
1154.0, 0.0010559972042697265
1155.0, 0.0012753408834678458
1156.0, 0.001040665894188094
1157.0, 0.0009277063184580806
1158.0, 0.0012130580902076687
1159.0, 0.0011034361177811101
1160.0, 0.002683212984133124
1161.0, 0.001964935490019198
1162.0, 0.002988278496610571
1163.0, 0.003788567558273837
1164.0, 0.004126564335345167
1165.0, 0.004537101750885503
1166.0, 0.002881356147949068
1167.0, 0.002808144246770645
1168.0, 0.0037536511583086043
1169.0, 0.002923430208312641
1170.0, 0.00266964006370525
1171.0, 0.00333768849576746
1172.0, 0.002526005704479802
1173.0, 0.004279470492978128
1174.0, 0.002462872308845916
1175.0, 0.0038112274221715828
1176.0, 0.0038471604100826238
1177.0, 0.0036898172598959214
1178.0, 0.004533583736614706
1179.0, 0.004773508911802964
1180.0, 0.0032929876024963447
1181.0, 0.002602793940245715
1182.0, 0.0038273847720199437
1183.0, 0.0032340122392945795
1184.0, 0.002353372214532422
1185.0, 0.0028121716405429776
1186.0, 0.004210831203144743
1187.0, 0.005713377110618883
1188.0, 0.0036003687884909484
1189.0, 0.003783081121532072
1190.0, 0.0038422310264720943
1191.0, 0.0041312709219000505
1192.0, 0.004638623958387554
1193.0, 0.004230887990799765
1194.0, 0.003440219698782633
1195.0, 0.0037040240595217835
1196.0, 0.003930057598556878
1197.0, 0.00344080835951832
1198.0, 0.0025620935091279864
1199.0, 0.0025933788100562555
1200.0, 0.002527607889239655
1201.0, 0.001563248349291592
1202.0, 0.0032945723405376514
1203.0, 0.0035990922513564646
1204.0, 0.0019825186880881984
1205.0, 0.001404669647963192
1206.0, 0.0026378216024193837
1207.0, 0.003406887115749876
1208.0, 0.0027360579635610054
1209.0, 0.002419301084605766
1210.0, 0.002111521757871668
1211.0, 0.0025816577880038672
1212.0, 0.0028481195316352992
1213.0, 0.004270568894749931
1214.0, 0.004207628160001082
1215.0, 0.002874443625711638
1216.0, 0.0021212499140585263
1217.0, 0.0030629584510747784
1218.0, 0.0026298321702670066
1219.0, 0.0023854323528134263
1220.0, 0.003465480354534669
1221.0, 0.003081518510913352
1222.0, 0.002786895572974716
1223.0, 0.0019335225609446532
1224.0, 0.002956900083640146
1225.0, 0.003940126908060812
1226.0, 0.0034338460114725425
1227.0, 0.0034366343355050136
1228.0, 0.003526714984311673
1229.0, 0.0024546707209417637
1230.0, 0.0017579231073532
1231.0, 0.0022326858493801837
1232.0, 0.0022342035296388026
1233.0, 0.0027395074032445003
1234.0, 0.0038444044067990697
1235.0, 0.0028867119525950026
1236.0, 0.003371698784992693
1237.0, 0.0025838217725292546
1238.0, 0.002879646876384154
1239.0, 0.002795655380063641
1240.0, 0.0030257314012321753
1241.0, 0.0034272254036425
1242.0, 0.0031146069660004513
1243.0, 0.0036458536802347788
1244.0, 0.00412701868140462
1245.0, 0.003407250278279287
1246.0, 0.003691412742166013
1247.0, 0.004164557347462283
1248.0, 0.003094490539339333
1249.0, 0.0034328991264139155
1250.0, 0.0038922513023676255
1251.0, 0.004341159586947355
1252.0, 0.0033590033145398765
1253.0, 0.004848499431652652
1254.0, 0.004441298993403528
1255.0, 0.0055384381178255546
1256.0, 0.004226785702642736
1257.0, 0.004598518588106426
1258.0, 0.0036544959345167697
1259.0, 0.003327235566371373
1260.0, 0.004032355266166509
1261.0, 0.0045620622844767525
1262.0, 0.005055078611581477
1263.0, 0.005309679080049473
1264.0, 0.005551012534829934
1265.0, 0.006169026202754032
1266.0, 0.004798297939482813
1267.0, 0.005122189606841222
1268.0, 0.0067561145714335824
1269.0, 0.004997536815714097
1270.0, 0.005323100423290745
1271.0, 0.004756221791531694
1272.0, 0.005065792225406717
1273.0, 0.004004498585248236
1274.0, 0.003406236849247371
1275.0, 0.0038348198858892636
1276.0, 0.003969670110811719
1277.0, 0.004211745503522821
1278.0, 0.0043133821140278385
1279.0, 0.003919133898876378
1280.0, 0.004117874413064172
1281.0, 0.003728334044587334
1282.0, 0.0024475952827502996
1283.0, 0.003922391168934032
1284.0, 0.003999991237476048
1285.0, 0.0054411510877450334
1286.0, 0.0045304120390833496
1287.0, 0.0029173039779724643
1288.0, 0.003038044092460948
1289.0, 0.003729537085119566
1290.0, 0.003955340229074255
1291.0, 0.003956757884110956
1292.0, 0.0039665584924066495
1293.0, 0.003919358775941046
1294.0, 0.0029134587350313637
1295.0, 0.0025015713013696018
1296.0, 0.0025814441634128163
1297.0, 0.003140643719502062
1298.0, 0.0036996834076855074
1299.0, 0.0037852537090054127
1300.0, 0.0030196301041742154
1301.0, 0.004047540886473086
1302.0, 0.0024859041515518294
1303.0, 0.001516317429473022
1304.0, 0.0023198140922782947
1305.0, 0.0031257221605293438
1306.0, 0.002776716483104503
1307.0, 0.0019411804790103167
1308.0, 0.0021092727758889374
1309.0, 0.002906412767223813
1310.0, 0.002269632160702394
1311.0, 0.003396301669958695
1312.0, 0.003340349400458004
1313.0, 0.0026891444157270024
1314.0, 0.0025224062629852213
1315.0, 0.0029341058921891323
1316.0, 0.0024856616550938617
1317.0, 0.0022851523288100195
1318.0, 0.0025809319685825127
1319.0, 0.0024463676118882853
1320.0, 0.002198680151912472
1321.0, 0.0028454650643823876
1322.0, 0.0023346488334914208
1323.0, 0.0011975920699876822
1324.0, 0.0017377417180053307
1325.0, 0.0008540444467603733
1326.0, 0.0011782114231639208
1327.0, 0.0008697287965673426
1328.0, 0.0003873463590247155
1329.0, 0.0013485007182977484
1330.0, 0.0008946331403554776
1331.0, 0.0014381664449457062
1332.0, 0.00036723278721387937
1333.0, 0.0006350173929776141
1334.0, 0.0006515508247902892
1335.0, 0.0007042309092055391
1336.0, 0.0006889826625250569
1337.0, 0.0003498176101211909
1338.0, 5.807354087430467e-05
1339.0, 4.682863499998506e-05
1340.0, 0.0002257209948769223
1341.0, 0.00048151567512429985
1342.0, 0.0005353338359514997
1343.0, 0.0006422360258013635
1344.0, 0.00037008872400001855
1345.0, 0.0015804983414906219
1346.0, 1.7244157512232342e-05
1347.0, 0.0011294072384691115
1348.0, 0.0004950408131261107
1349.0, 0.0015605093665363146
1350.0, 0.0006674510487256207
1351.0, 0.00030633918632751183
1352.0, 0.0001384552187896294
1353.0, 0.0005949327673166846
1354.0, 0.0009299578751010177
1355.0, 0.0011881139797593162
1356.0, 0.0016043454596828487
1357.0, 0.0019193677261983156
1358.0, 0.0020815534665819422
1359.0, 0.001613795594205341
1360.0, 0.0009083708403091052
1361.0, 0.0006143560154738819
1362.0, 0.002028592745450804
1363.0, 0.0011281060323805896
1364.0, 0.0005417769964892673
1365.0, 0.0004561765951595143
1366.0, 0.001380419914594385
1367.0, 0.0011537549349297266
1368.0, 0.0010935281002724601
1369.0, 0.0006904380870978298
1370.0, 0.0011632819022965079
1371.0, 0.0020101715769473916
1372.0, 0.001861893236269052
1373.0, 0.0017599702130442771
1374.0, 0.0018857909495521468
1375.0, 0.0015724753846359167
1376.0, 0.0013951703275699116
1377.0, 0.0013985807057082446
1378.0, 0.0017236534337944185
1379.0, 0.001070644931701237
1380.0, 0.002327792801925966
1381.0, 0.0016514552078925764
1382.0, 0.0028091509664971365
1383.0, 0.00019667735675871103
1384.0, 0.002540591828268661
1385.0, 0.0019024886826216267
1386.0, 0.0022159902305102725
1387.0, 0.002016282373808533
1388.0, 0.0011454311950019995
1389.0, 0.0003284843077065933
1390.0, 0.0004228379454384538
1391.0, 0.0006865515218175633
1392.0, 0.0005352751432084689
1393.0, 0.0006052424208314411
1394.0, 0.0006704329572831993
1395.0, 0.0005386676856958944
1396.0, 0.0016144804410046982
1397.0, 0.002747284543536228
1398.0, 0.0019963003331447296
1399.0, 0.001883066950046529
1400.0, 0.0005067711786922269
1401.0, 0.0010095092963241113
1402.0, 0.0010253969212768834
1403.0, 0.0014758738574197283
1404.0, 0.0017312970506505705
1405.0, 0.002229052592444189
1406.0, 0.0021413962714062107
1407.0, 0.0018875179642967247
1408.0, 0.0015586983778839547
1409.0, 0.0013265350010285282
1410.0, 0.001474837151706858
1411.0, 0.0013570517810576133
1412.0, 0.0015997338504134197
1413.0, 0.0018470431361151788
1414.0, 0.0016237239281629286
1415.0, 0.0018853938184135118
1416.0, 0.0021212892775892504
1417.0, 0.00198888051751703
1418.0, 0.0013391649055198732
1419.0, 0.002946498219743838
1420.0, 0.0007478099294089525
1421.0, 0.002717512274298242
1422.0, 0.0027740352212114435
1423.0, 0.0035163035229515377
1424.0, 0.0015877764473023344
1425.0, 0.0023912338750349924
1426.0, 0.0007228809562308909
1427.0, 0.0009023597430562296
1428.0, 0.0017535582215140095
1429.0, 0.0028047086308052934
1430.0, 0.002017373583461227
1431.0, 0.0015352473595156798
1432.0, 0.0016773654141063181
1433.0, 0.001618954771724166
1434.0, 0.0017181543883704406
1435.0, 0.002194836892699328
1436.0, 0.0027765740588496105
1437.0, 0.0033942129892901743
1438.0, 0.004517117953770079
1439.0, 0.005944360027256044
1440.0, 0.006705479875746585
1441.0, 0.00704278001711942
1442.0, 0.0064089527306657994
1443.0, 0.0061241916371224565
1444.0, 0.005379764409088151
1445.0, 0.006536635344769579
1446.0, 0.006715838346348272
1447.0, 0.007793872147774842
1448.0, 0.007159506214696723
1449.0, 0.006518730171281605
1450.0, 0.0060980968994968025
1451.0, 0.007178066733419049
1452.0, 0.008227268189234393
1453.0, 0.008130795108788384
1454.0, 0.007953792597782118
1455.0, 0.007962109617753435
1456.0, 0.008094220571043887
1457.0, 0.00814350234886288
1458.0, 0.0074382342322146374
1459.0, 0.006983164168794472
1460.0, 0.008342065920790983
1461.0, 0.009189695105728292
1462.0, 0.007151671414288574
1463.0, 0.006822925943809059
1464.0, 0.0074526199539392
1465.0, 0.00508008911343868
1466.0, 0.005304466099962558
1467.0, 0.006235060566124758
1468.0, 0.006003092561971278
1469.0, 0.005927371315525637
1470.0, 0.004483996066029931
1471.0, 0.0048517679228361615
1472.0, 0.00604098237994506
1473.0, 0.0048408676428470685
1474.0, 0.0044047279106579395
1475.0, 0.00493776793037136
1476.0, 0.004221139862639333
1477.0, 0.003944491801694009
1478.0, 0.00483331721223336
1479.0, 0.005283060993419949
1480.0, 0.004756952528415787
1481.0, 0.0039803117479408285
1482.0, 0.004068442941877193
1483.0, 0.0042564996181236525
1484.0, 0.0036224859935733837
1485.0, 0.0035629644764779284
1486.0, 0.0036799856610969114
1487.0, 0.004704794306393897
1488.0, 0.005257523590328832
1489.0, 0.004020393426725375
1490.0, 0.0034817760160200093
1491.0, 0.0028270009364851014
1492.0, 0.004443687289384923
1493.0, 0.002051530114654609
1494.0, 0.0034367531686163503
1495.0, 0.0041738511866400195
1496.0, 0.002709821497637605
1497.0, 0.002417793769516044
1498.0, 0.0024721712487519635
1499.0, 0.0029768882327919194
1500.0, 0.002477860002715264
1501.0, 0.0027659975801252305
1502.0, 0.0024477034686806094
1503.0, 0.001734139662820816
1504.0, 0.0017388492273130581
1505.0, 0.0022700512977941187
1506.0, 0.002189289731855352
1507.0, 0.0023028020998368316
1508.0, 0.002015915324333278
1509.0, 0.002327436979469396
1510.0, 0.003074112750277939
1511.0, 0.0022681963078694193
1512.0, 0.0020412482259522125
1513.0, 0.0018918491420041369
1514.0, 0.0019641033077779173
1515.0, 0.0023384800458506813
1516.0, 0.0010643152917181925
1517.0, 0.0010967908514396872
1518.0, 0.0024805727908014425
1519.0, 0.002658393147774664
1520.0, 0.004268166092103867
1521.0, 0.0028269960527328017
1522.0, 0.0014293562654587688
1523.0, 0.0029581839047284116
1524.0, 0.00144568451733221
1525.0, 0.0013416817581368365
1526.0, 0.002651042587391784
1527.0, 0.003453423830178416
1528.0, 0.0020379902262820915
1529.0, 0.002044334530963455
1530.0, 0.001423434236613085
1531.0, 0.00250259174815183
1532.0, 0.001933621265745066
1533.0, 0.0021717092120961826
1534.0, 0.0026130531134908224
1535.0, 0.001862399321434552
1536.0, 0.0016737629306270503
1537.0, 0.0015129430622594984
1538.0, 0.00105755992451224
1539.0, 0.0015217353921505748
1540.0, 0.0016652387636687308
1541.0, 0.001583315000400634
1542.0, 0.0016374535261852907
1543.0, 0.0007021607760738317
1544.0, 0.0008364596699893462
1545.0, 0.0009479544372293603
1546.0, 0.00090605914840541
1547.0, 0.0015350092379285514
1548.0, 0.0009852590478168638
1549.0, 0.0019226570424960335
1550.0, 0.0017597351707878018
1551.0, 0.0021155212719646123
1552.0, 0.0023397597350722343
1553.0, 0.001814577131275495
1554.0, 0.002245064479808316
1555.0, 0.0034874199099814173
1556.0, 0.0038593907949442527
1557.0, 0.0021377672063304896
1558.0, 0.0009941208524275602
1559.0, 8.7706750319238e-05
1560.0, 0.0009141108290488416
1561.0, 0.001442956359691291
1562.0, 0.0003644197753145358
1563.0, 0.0008180745967747934
1564.0, 0.0007466048612281982
1565.0, 0.0021781021119511136
1566.0, 0.0016154574850912868
1567.0, 0.0020517312322441816
1568.0, 0.0018301405850958677
1569.0, 0.0005461035381597117
1570.0, 1.6317024234941918e-06
1571, 0.0
1572, 0.0
1573, 0.0
1574, 0.0
1575, 0.0
1576, 0.0
1577, 0.0
1578, 0.0
1579, 0.0
1580, 0.0
1581, 0.0
1582, 0.0
1583, 0.0
1584, 0.0
1585, 0.0
1586, 0.0
1587, 0.0
1588, 0.0
1589, 0.0
1590, 0.0
1591, 0.0
1592, 0.0
1593, 0.0
1594, 0.0
1595, 0.0
1596, 0.0
1597, 0.0
1598, 0.0
1599, 0.0
