30, 0.0
31, 0.0
32, 0.0
33, 0.0
34, 0.0
35, 0.0
36, 0.0
37, 0.0
38, 0.0
39, 0.0
40, 0.0
41, 0.0
42, 0.0
43, 0.0
44, 0.0
45, 0.0
46, 0.0
47, 0.0
48, 0.0
49, 0.0
50, 0.0
51, 0.0
52, 0.0
53, 0.0
54, 0.0
55, 0.0
56, 0.0
57, 0.0
58, 0.0
59, 0.0
60, 0.0
61, 0.0
62, 0.0
63, 0.0
64, 0.0
65, 0.0
66, 0.0
67, 0.0
68, 0.0
69, 0.0
70, 0.0
71, 0.0
72, 0.0
73, 0.0
74, 0.0
75, 0.0
76, 0.0
77, 0.0
78, 0.0
79, 0.0
80, 0.0
81, 0.0
82, 0.0
83, 0.0
84, 0.0
85, 0.0
86, 0.0
87, 0.0
88, 0.0
89, 0.0
90, 0.0
91, 0.0
92, 0.0
93.0, 0.0012521056428091122
94.0, 0.0009719727373733713
95.0, 0.009278665284949195
96.0, 0.01943343895149102
97.0, 0.031029490263700606
98.0, 0.048324945845723125
99.0, 0.07045797995545607
100.0, 0.09619484004056354
101.0, 0.12548262005593172
102.0, 0.1506945664426205
103.0, 0.1663981810581406
104.0, 0.1637904343064561
105.0, 0.14060917996928804
106.0, 0.10351476787069673
107.0, 0.06790282926430571
108.0, 0.041012053269558986
109.0, 0.02522109482897474
110.0, 0.019767682368659143
111.0, 0.02310686304847969
112.0, 0.032142394021465376
113.0, 0.04459718093857363
114.0, 0.06035455341845554
115.0, 0.08304014196578671
116.0, 0.11606781595787982
117.0, 0.15750444923680854
118.0, 0.20138482649105932
119.0, 0.24700826145822047
120.0, 0.2870885556950937
121.0, 0.3164051484309776
122.0, 0.33296472088823953
123.0, 0.34059611017574165
124.0, 0.3459120137489555
125.0, 0.35343621592755475
126.0, 0.3628666114928386
127.0, 0.3655271859856607
128.0, 0.3643396946504012
129.0, 0.358041896705899
130.0, 0.34896030835601505
131.0, 0.3452401144721393
132.0, 0.3448934805961177
133.0, 0.3525917617060044
134.0, 0.3734577999831566
135.0, 0.40932232744764896
136.0, 0.45363316964098144
137.0, 0.5128200340213377
138.0, 0.5838355302189938
139.0, 0.6602194607718531
140.0, 0.7388901019198545
141.0, 0.8103876134782307
142.0, 0.8632973585591883
143.0, 0.8882388768517805
144.0, 0.8832964381922649
145.0, 0.8695233693841693
146.0, 0.8520704241205491
147.0, 0.832411751970196
148.0, 0.8147548260094636
149.0, 0.7858530625229638
150.0, 0.7383955355192717
151.0, 0.6661313866617607
152.0, 0.5656218580215561
153.0, 0.4552279842322119
154.0, 0.35389696921015695
155.0, 0.26945857915228827
156.0, 0.20347033403879583
157.0, 0.1525626990420869
158.0, 0.11700931120888512
159.0, 0.09451645913236946
160.0, 0.08256326891492534
161.0, 0.07689909746697107
162.0, 0.07498500390349126
163.0, 0.07693699029540402
164.0, 0.08245196532828471
165.0, 0.08970059967203485
166.0, 0.09629400018698446
167.0, 0.1040974972030113
168.0, 0.1139740354792922
169.0, 0.12567870872209816
170.0, 0.1415272968714616
171.0, 0.1574308484384975
172.0, 0.17020645995272396
173.0, 0.17613683030906574
174.0, 0.1655803217962099
175.0, 0.14610011682257312
176.0, 0.12221299287697461
177.0, 0.09747599922989217
178.0, 0.07701921080701978
179.0, 0.05845393071295349
180.0, 0.044294175697403335
181.0, 0.03603371352056653
182.0, 0.031960808874703636
183.0, 0.027901600206841487
184.0, 0.024354650398601088
185.0, 0.02179752772166042
186.0, 0.019408840241369546
187.0, 0.015836766366936022
188.0, 0.016158060505127313
189.0, 0.018441134805078266
190.0, 0.021283521616951077
191.0, 0.02515917680522082
192.0, 0.0314214304486407
193.0, 0.040815334392269115
194.0, 0.05040345814556597
195.0, 0.05728112761058666
196.0, 0.0626338527761376
197.0, 0.06234235151743834
198.0, 0.056446618904317666
199.0, 0.046372449446995034
200.0, 0.03386825911350049
201.0, 0.021672600847723954
202.0, 0.012541201235893947
203.0, 0.00584315278317607
204.0, 0.0005437531373639667
205.0, 0.0002692545690204717
206.0, 0.001960105915208916
207.0, 0.005375640589470821
208.0, 0.010193391942398707
209.0, 0.013507003818041648
210.0, 0.017381840972660104
211.0, 0.021723339880790754
212.0, 0.024252425203254855
213.0, 0.021931773910658422
214.0, 0.019916155707063066
215.0, 0.016236220488659844
216.0, 0.011549157978248308
217.0, 0.007195716559770482
218.0, 0.003600521743675197
219.0, 0.0007922261061357134
220.0, 0.0033934777620617594
221.0, 0.005065818432852933
222.0, 0.006663613571526931
223.0, 0.0072864408407587586
224.0, 0.007174711112703467
225.0, 0.0075346363523346085
226.0, 0.00810033201013067
227.0, 0.006268819357697612
228.0, 0.006680248079812971
229.0, 0.006849745078381734
230.0, 0.00505545849364427
231.0, 0.0019942538518112358
232.0, 0.00162006399099083
233.0, 0.0013232041210818194
234.0, 0.0006508786802430736
235.0, 0.002793598606186511
236.0, 0.0034237101087300882
237.0, 0.005578116174238655
238.0, 0.008789273791301807
239.0, 0.012331299557552064
240.0, 0.01599668956701119
241.0, 0.01907588535870833
242.0, 0.02256208733147152
243.0, 0.02701047315574111
244.0, 0.0318882837259052
245.0, 0.03568197301657049
246.0, 0.04114169426202544
247.0, 0.045399483813038405
248.0, 0.0473097727660887
249.0, 0.047675391325370076
250.0, 0.04772018439891551
251.0, 0.043850523399617154
252.0, 0.03979618263026066
253.0, 0.03730328539945038
254.0, 0.03283580423191206
255.0, 0.027539439448886264
256.0, 0.022447352504805153
257.0, 0.01869970799612457
258.0, 0.016865498526458956
259.0, 0.013997480704191167
260.0, 0.013435102085157158
261.0, 0.013372041782339078
262.0, 0.012768440545145287
263.0, 0.013375452087546258
264.0, 0.014223851902367475
265.0, 0.014655183093557884
266.0, 0.01503561065232866
267.0, 0.015750637996923285
268.0, 0.01656940726546452
269.0, 0.01757359358150104
270.0, 0.018725514427314842
271.0, 0.020339576525289876
272.0, 0.022609857596084044
273.0, 0.02483866922051208
274.0, 0.02592920088690164
275.0, 0.02658643096906436
276.0, 0.027435114956136097
277.0, 0.028534359195671214
278.0, 0.03033825349756971
279.0, 0.03035147910204013
280.0, 0.029996628683103266
281.0, 0.03089875124295755
282.0, 0.03008586814479792
283.0, 0.029812741113947234
284.0, 0.027894571037986482
285.0, 0.02507057169763302
286.0, 0.0237285772391259
287.0, 0.021921889367676528
288.0, 0.020477797589153645
289.0, 0.01981036983109304
290.0, 0.01905744207914039
291.0, 0.017641066519668944
292.0, 0.018262854434207637
293.0, 0.019072582500791524
294.0, 0.017524045459521485
295.0, 0.014210070822663312
296.0, 0.012743094239021103
297.0, 0.012435252637958255
298.0, 0.012209665138569572
299.0, 0.011819558234219128
300.0, 0.011336210598232793
301.0, 0.010639807287214009
302.0, 0.010794122749514724
303.0, 0.010944990565035648
304.0, 0.010622043582556683
305.0, 0.010147694224615545
306.0, 0.010391718986266812
307.0, 0.009823451705566722
308.0, 0.00988610921992965
309.0, 0.01116300789470414
310.0, 0.011826257359320391
311.0, 0.011300881835666883
312.0, 0.011504266343017374
313.0, 0.011930186653951324
314.0, 0.011485086025498963
315.0, 0.01104331952004231
316.0, 0.012370085392610947
317.0, 0.012370630929018947
318.0, 0.011244379897619639
319.0, 0.010720086330248832
320.0, 0.009726200020932723
321.0, 0.007936429798053733
322.0, 0.0076987418888509055
323.0, 0.007852474077729859
324.0, 0.006571513269654412
325.0, 0.006854747019911994
326.0, 0.0056429069424287406
327.0, 0.005880936471647615
328.0, 0.006753798542849908
329.0, 0.0050386793104028405
330.0, 0.004717972389264814
331.0, 0.003762697575739608
332.0, 0.003303693704039317
333.0, 0.003503068634677737
334.0, 0.0026201774753923106
335.0, 0.0018297011443775925
336.0, 0.0018258511240839658
337.0, 0.002431823442075701
338.0, 0.003444418203049151
339.0, 0.004612882222792712
340.0, 0.002428219280273138
341.0, 0.0014662650308329339
342.0, 0.001196661067927788
343.0, 0.00023926492255798077
344.0, 0.0010014584474294862
345.0, 0.0006299664031056011
346.0, 5.2324199226825517e-05
347.0, 9.99651944335608e-05
348.0, 0.00027646457851923135
349.0, 0.0010079856499594672
350.0, 0.0006805088600410304
351.0, 0.0004425740398933262
352.0, 0.0003587789290242069
353.0, 0.00010288129517513533
354.0, 0.00010621746754991433
355.0, 0.0008025872128853602
356.0, 0.001429965395492704
357.0, 0.001346162266048295
358.0, 0.0008637431237346309
359.0, 0.00023592064869126176
360.0, 0.0010512515183889026
361.0, 0.0018665817007042344
362.0, 0.001924423507204134
363.0, 0.001148274889808696
364.0, 5.0412523657450116e-05
365.0, 0.00031023159736815294
366.0, 0.0003717840249996783
367.0, 0.00042982110717324726
368.0, 0.0001181162636067446
369.0, 0.000411160916302501
370.0, 0.0011638205369098678
371.0, 0.0018239072192210697
372.0, 0.0019141214445389128
373.0, 0.0013938319729373447
374.0, 0.0008510105235298124
375.0, 0.0008173181627631531
376.0, 0.0011948766527614153
377.0, 0.0010128128316995398
378.0, 0.00023689468493503873
379.0, 0.0008071640782009767
380.0, 0.0010306430427054467
381.0, 0.0012244754457912716
382.0, 0.0008619330792209685
383.0, 3.3268070542915504e-05
384.0, 0.0005376696474878656
385.0, 0.0005506038527351904
386.0, 0.00014357356133437062
387.0, 0.0001472893842094387
388.0, 0.0005703963931438409
389.0, 0.0005574032040389091
390.0, 0.001112917539535423
391.0, 0.0012357287572713682
392.0, 0.0005562618252970266
393.0, 0.000418591380649181
394.0, 0.0003991406940520051
395.0, 0.0014655161902397385
396.0, 0.001718070385231446
397.0, 0.0004392493666269317
398.0, 0.000488974396280553
399.0, 9.02580242938782e-05
400.0, 0.00013764576011655335
401.0, 0.0005528719796544754
402.0, 0.00040084012719518675
403.0, 0.0003981138844162625
404.0, 3.7515255851774834e-05
405.0, 0.0005449791691060498
406.0, 0.0012385075994452341
407.0, 0.0018465271398018608
408.0, 0.0016186531438040148
409.0, 0.00032870409213223427
410.0, 0.0010942293450106062
411.0, 0.0006034852752755311
412.0, 9.52318315528017e-05
413.0, 8.816037668879865e-05
414.0, 8.660495888426008e-05
415.0, 0.0017709155871137592
416.0, 0.0014405558749719474
417.0, 0.000925092095060502
418.0, 0.0006422809262380203
419.0, 3.321980168562354e-05
420.0, 0.0005742982369678673
421.0, 0.0008219706828627971
422.0, 0.0009379303514152326
423.0, 0.0006921177275705954
424.0, 0.00024269329249764556
425.0, 0.0010089456552249468
426.0, 0.0018161325263995884
427.0, 0.001292269256835724
428.0, 0.0007285810342938351
429.0, 0.000790222070949529
430.0, 1.0943513947328618e-05
431.0, 0.00044437424699501866
432.0, 0.000276020948950369
433.0, 0.0009713722750271894
434.0, 0.0021376758882516687
435.0, 0.0014372719687915714
436.0, 0.0011410147537275243
437.0, 0.00026310551015437726
438.0, 0.0004541648309177395
439.0, 0.00011343641394019008
440.0, 0.0007300637661626895
441.0, 0.0006413940988277697
442.0, 0.0011582335743925709
443.0, 0.0010127331561257992
444.0, 0.000626960006183048
445.0, 0.0009514907611685935
446.0, 0.001303648387886577
447.0, 0.0014058014576110733
448.0, 0.0011857700027417173
449.0, 0.0012190850030817846
450.0, 0.0017226854113301425
451.0, 0.0017819869194847181
452.0, 0.0009359235720690444
453.0, 0.0017606708728135285
454.0, 0.0027409971678610955
455.0, 0.002085001140510598
456.0, 0.00031159089773696174
457.0, 0.0009642099076507594
458.0, 0.0013469721171670461
459.0, 0.0014569188669637228
460.0, 0.0016032890957221838
461.0, 0.0015942862276357658
462.0, 0.000994250596731722
463.0, 0.0011881161442146716
464.0, 0.0018603182832088664
465.0, 0.001827747114550001
466.0, 0.0015870568246772446
467.0, 0.0023341269552683073
468.0, 0.0019092167171473938
469.0, 0.0006270582714010779
470.0, 0.0009693003072971141
471.0, 0.0012269156800695368
472.0, 0.00035803386113393034
473.0, 0.0016117637533069908
474.0, 0.0025021575708408265
475.0, 0.0024853354590005407
476.0, 0.0016583115981303694
477.0, 0.0006821805545401462
478.0, 0.00044599532894348576
479.0, 0.000746680350971902
480.0, 0.00039577940552068004
481.0, 0.0004948991809541061
482.0, 0.0011143227546259202
483.0, 0.0015783265129101238
484.0, 0.0018258002301076177
485.0, 0.0013264539108308751
486.0, 0.001391118122168139
487.0, 0.001130537306233768
488.0, 0.0008745684126546128
489.0, 0.001962937677200201
490.0, 0.0016234850406276883
491.0, 0.0023524331117033234
492.0, 0.0015463338259123001
493.0, 0.0004535552627551556
494.0, 0.0012924403934150134
495.0, 0.0021214618453525226
496.0, 0.0012929825211966863
497.0, 0.0009464609065503349
498.0, 0.0014258927372479964
499.0, 0.0017190619266561585
500.0, 0.0006441100904810857
501.0, 8.71186792221273e-05
502.0, 0.00015212757816637182
503.0, 0.0005642758215205219
504.0, 0.001516946529600739
505.0, 0.0017058652964015034
506.0, 0.0005672450005504603
507.0, 0.00035925270727089507
508.0, 0.00020113071958761686
509.0, 0.001230700816326554
510.0, 0.002325454242345885
511.0, 0.0007556967053327201
512.0, 0.0004915143785768266
513.0, 0.00028189537181978487
514.0, 0.0006725607456748694
515.0, 0.0012408927155672777
516.0, 0.0013854203159967798
517.0, 0.0018779866814028882
518.0, 0.0008567543185931686
519.0, 0.0007006405514460798
520.0, 0.00043056128944885094
521.0, 0.00010453661350662119
522.0, 0.0005072806429323525
523.0, 0.0011316162427851416
524.0, 0.0009101416035409498
525.0, 0.0004174593879847173
526.0, 0.00012401481894057883
527.0, 0.00041384819092760714
528.0, 0.0012262407951862076
529.0, 0.0007935452135254895
530.0, 0.001116601278242489
531.0, 0.0007220166704261146
532.0, 0.0006283053926951685
533.0, 0.001001165995253315
534.0, 0.0003432668841541128
535.0, 0.001210130433794283
536.0, 0.0015218968111469296
537.0, 0.0004264445648045918
538.0, 0.00016155932191451282
539.0, 0.0006510869112644423
540.0, 0.0002132579171503045
541.0, 0.0007622614206868271
542.0, 0.001520901325779638
543.0, 0.0019354290011689577
544.0, 0.0015050176660348204
545.0, 0.0003411678667145944
546.0, 0.0002457579300091689
547.0, 0.0001301455449114838
548.0, 0.00020966563907674437
549.0, 0.00019195682914346134
550.0, 0.00034337242084698936
551.0, 0.0005490990768704551
552.0, 0.0004058126986254904
553.0, 0.0010689411428483203
554.0, 0.0006294903554636314
555.0, 0.0006690838800751107
556.0, 0.0016043831918354518
557.0, 0.001567286007976929
558.0, 0.0006293517170468567
559.0, 0.0004915221617556503
560.0, 0.0014052301492204341
561.0, 0.0011978225915847875
562.0, 0.0006672503654980489
563.0, 0.0014901701107531468
564.0, 0.00041158277430882774
565.0, 0.0006956766774867283
566.0, 0.0008420504418863425
567.0, 0.0008688824150433662
568.0, 0.0008396776060212185
569.0, 0.00048307719520895626
570.0, 0.0012270856577012246
571.0, 0.0011110949827704691
572.0, 0.0009460986369233402
573.0, 0.0012782711234052505
574.0, 0.0018251548611338576
575.0, 0.00159469402108608
576.0, 0.0003438160332282915
577.0, 6.333907082883936e-05
578.0, 0.0007221251329249985
579.0, 0.0008712862709438919
580.0, 0.000633435594072005
581.0, 0.000818308916769826
582.0, 0.001288250311878671
583.0, 0.0015118139289649367
584.0, 0.0014600596075550587
585.0, 0.0011727147836017428
586.0, 0.001058845553937916
587.0, 0.0013287359261852042
588.0, 0.0010194548774353801
589.0, 0.000556032246197308
590.0, 0.00045062273542709387
591.0, 0.00034898685028384395
592.0, 0.0007038003215469719
593.0, 0.0016953028340071668
594.0, 0.0011221038921368591
595.0, 0.0014043115732451721
596.0, 0.0015569208565902534
597.0, 0.0012197001082742825
598.0, 0.0006837995214406637
599.0, 0.0005384157365753484
600.0, 0.0008789529471443682
601.0, 0.0008896991054274707
602.0, 0.001247150908689232
603.0, 0.0019728678056302675
604.0, 0.00349170082059771
605.0, 0.004782901322081301
606.0, 0.0028198798373880204
607.0, 0.0033266995366125715
608.0, 0.0025250097591783447
609.0, 0.0013208275398978084
610.0, 0.0008692741291533873
611.0, 0.0013198123787141237
612.0, 0.00216627722798146
613.0, 0.0015092344206521448
614.0, 0.0010813642444125835
615.0, 0.0007188327489320375
616.0, 0.0009084016001483759
617.0, 0.00099530002204554
618.0, 0.0001497704491527393
619.0, 0.0008871911994619063
620.0, 0.0009032739362530263
621.0, 0.0007246266832535258
622.0, 0.0012065048274206027
623.0, 0.0015813152592884234
624.0, 0.0006816284358585025
625.0, 0.0006437357135456148
626.0, 0.0008640347098812837
627.0, 0.0008940101747054852
628.0, 0.001431477015234776
629.0, 0.001598110532007969
630.0, 0.0007863925749442463
631.0, 0.0005356765549230803
632.0, 0.00029141770572463154
633.0, 0.001057576509959363
634.0, 0.0022363376363592723
635.0, 0.0023956075805896984
636.0, 0.001659669841857077
637.0, 0.0018519697066455185
638.0, 0.0007667317674084115
639.0, 0.0006244618847714034
640.0, 0.0010839976977742955
641.0, 0.0009796565861993724
642.0, 0.0009867528836345826
643.0, 0.0015154944944264384
644.0, 0.00011797171781043357
645.0, 0.00018931490815803328
646.0, 0.00114444647918655
647.0, 0.0013216175689929031
648.0, 0.000869579457138639
649.0, 0.001145832582505718
650.0, 0.0010776876823728268
651.0, 0.0005799749414633085
652.0, 0.0018396707472615598
653.0, 0.0013187058254068387
654.0, 0.0006069450876876179
655.0, 0.0008022341125679985
656.0, 0.000677331847994091
657.0, 0.00045277541446645236
658.0, 0.0007675743369901461
659.0, 0.0004432647839281883
660.0, 0.00011090763636760323
661.0, 0.0001734030497053694
662.0, 0.0001137689233571501
663.0, 0.0005640395071075551
664.0, 0.0003295666348596474
665.0, 0.0003034679303059751
666.0, 0.00022515255279084703
667.0, 0.00048386254735612976
668.0, 0.0005602056384085109
669.0, 0.0008674053001443494
670.0, 0.0009015991994085926
671.0, 0.0003384008509302513
672.0, 3.3003558435357007e-06
673.0, 0.0022947172606345594
674.0, 0.0039676197455134595
675.0, 0.0041892204643528465
676.0, 0.004732125884927382
677.0, 0.004922460468818089
678.0, 0.0066899242198267695
679.0, 0.007425473747500215
680.0, 0.009128811794370821
681.0, 0.011084763102354754
682.0, 0.012301637983108401
683.0, 0.013912540052280955
684.0, 0.01630984041079469
685.0, 0.020601579673830965
686.0, 0.026694725298236015
687.0, 0.03570265938140447
688.0, 0.049121226708826175
689.0, 0.06616403190310095
690.0, 0.08313487146230236
691.0, 0.09566479937049459
692.0, 0.10023101153640981
693.0, 0.0976525384983653
694.0, 0.09325635350973027
695.0, 0.08674461066202047
696.0, 0.07492492426562244
697.0, 0.06082659204649431
698.0, 0.04837174234584629
699.0, 0.04322553174284457
700.0, 0.04574534587534475
701.0, 0.05286687911293119
702.0, 0.05917958623735689
703.0, 0.058774521166425536
704.0, 0.05006968049284728
705.0, 0.03992280834019748
706.0, 0.03129991836222461
707.0, 0.025908261673949107
708.0, 0.023630250339152135
709.0, 0.02291681474641518
710.0, 0.022347807749468374
711.0, 0.021248424869876114
712.0, 0.017305707247934718
713.0, 0.012388383503846299
714.0, 0.008831621273651799
715.0, 0.006053915780577346
716.0, 0.003931732894602541
717.0, 0.003457443926862287
718.0, 0.002538457534415185
719.0, 0.001789399750726709
720.0, 0.0016178958465015692
721.0, 0.0015856990460840978
722.0, 0.0014325633910713333
723.0, 0.0015291934697610273
724.0, 0.0019873360686937206
725.0, 0.0015115633508866132
726.0, 0.0013802913526646126
727.0, 0.00045833056482732343
728.0, 0.0005700336998913577
729.0, 0.00039623241849988866
730.0, 0.0003126094044309625
731.0, 0.0012121029360305038
732.0, 0.0017222220065933494
733.0, 0.0016466050305556377
734.0, 0.0012103601751416253
735.0, 0.00030992145800993554
736.0, 0.0004127446733819315
737.0, 0.0004416090350476363
738.0, 9.244431544282125e-05
739.0, 0.0006506181736088266
740.0, 0.0011768431620738646
741.0, 0.0015179134917678847
742.0, 0.0018895735285620714
743.0, 0.0015060341549593753
744.0, 0.0011207242923441322
745.0, 0.0008662043482543212
746.0, 0.00012170422246077418
747.0, 0.0007109128004869514
748.0, 0.00038276281428983687
749.0, 0.0014356736789790845
750.0, 0.0012564918201572119
751.0, 0.00037077302641239866
752.0, 0.0002671472398735047
753.0, 0.0002837678080677008
754.0, 0.00026129019954645305
755.0, 0.0009250723637529241
756.0, 0.000748775346096789
757.0, 0.000290747280939955
758.0, 5.071964971798073e-05
759.0, 0.0005710059859110508
760.0, 0.0012536276159797958
761.0, 0.0001773088102226369
762.0, 5.150833875473504e-05
763.0, 0.000373310199364366
764.0, 0.0006822604979593178
765.0, 0.0003665620864645372
766.0, 0.0004699307197146213
767.0, 0.00025452636538703674
768.0, 0.00028863453114706683
769.0, 0.000799376031551546
770.0, 0.000711799491151791
771.0, 0.0004112644249357628
772.0, 0.000503446127628305
773.0, 0.0007576268711715123
774.0, 0.0013920153201315375
775.0, 0.0015960448192682281
776.0, 0.00017846824256131382
777.0, 8.030078927956933e-05
778.0, 0.0007131477854723318
779.0, 0.0011311568203538245
780.0, 0.0010347027104347778
781.0, 0.0014042158591816257
782.0, 0.0011289472213545219
783.0, 0.0003660125110535457
784.0, 0.0014581051911145614
785.0, 0.0010561989688927813
786.0, 0.0007091657848592324
787.0, 0.0001831642899156399
788.0, 0.0003824381609379703
789.0, 0.0009886722612215204
790.0, 0.0011776655062325262
791.0, 0.0019562528614119595
792.0, 0.002005852530566145
793.0, 0.0024891237438961385
794.0, 0.002057951025179682
795.0, 0.0010685675606052771
796.0, 0.0008729722210601451
797.0, 0.0007721533426192835
798.0, 0.0002807050495309858
799.0, 0.0010938781166385408
800.0, 0.0014597144157216183
801.0, 0.00022054678496729138
802.0, 0.0015767143366088128
803.0, 0.001035445254536603
804.0, 0.0007826939727597753
805.0, 0.001291581530463665
806.0, 0.0008420377053430783
807.0, 0.0008778253397299954
808.0, 0.000862784759747838
809.0, 0.0023273583431839013
810.0, 0.0013705987102073669
811.0, 0.0012890279402850884
812.0, 0.0014614787399255468
813.0, 0.001054529774997619
814.0, 0.00122523968422629
815.0, 0.0015718281620722184
816.0, 0.0013929241716818495
817.0, 0.001563491062518944
818.0, 0.0007956730078448722
819.0, 0.0005884809066342718
820.0, 0.001958255358591395
821.0, 0.0030750928483994112
822.0, 0.0025693050716431914
823.0, 0.0020384636249769625
824.0, 0.0004101616710755361
825.0, 5.847864930772202e-05
826.0, 0.00041106554608121086
827.0, 0.0011350622163666432
828.0, 0.0011787659392742925
829.0, 0.0010156465732515617
830.0, 0.001144248612329208
831.0, 0.0013325545085953437
832.0, 0.0023214370072886024
833.0, 0.0017066752041464239
834.0, 0.0005487592449138789
835.0, 0.000974501156565588
836.0, 0.0012831524533347977
837.0, 0.001488229052323619
838.0, 0.001846264610385513
839.0, 0.0014466365116433955
840.0, 0.0008862448288821795
841.0, 0.0015478666015799872
842.0, 0.0017813761236270965
843.0, 0.001994657888782706
844.0, 0.0024890810059472555
845.0, 0.0017924764845959566
846.0, 0.0009656677492105681
847.0, 0.0012591492182396171
848.0, 0.0004653671035753664
849.0, 0.0007432491557595403
850.0, 0.0005148509584522217
851.0, 0.00011077352772831032
852.0, 0.0008325861375745032
853.0, 0.0015530878900548882
854.0, 0.0013618765912675648
855.0, 0.0013210934626072565
856.0, 0.0012470001107582186
857.0, 0.0010277266732182963
858.0, 0.0017911964779556923
859.0, 0.0011423589062305747
860.0, 0.0011932068967406492
861.0, 0.0010075297785758237
862.0, 0.0011263258064424897
863.0, 0.0015974319355547197
864.0, 0.0019175769796044987
865.0, 0.0025258135952963895
866.0, 0.0017584659387538469
867.0, 0.00089545704257574
868.0, 0.0009630494486233964
869.0, 0.0007512336051461768
870.0, 0.0007662290128809467
871.0, 0.0008470590086842565
872.0, 0.0007486282803151982
873.0, 0.0012491144960071255
874.0, 0.001983811429192807
875.0, 0.001634225074734514
876.0, 0.0018116257818669456
877.0, 0.0012859616657671829
878.0, 0.0011750347660404274
879.0, 0.001177246784308661
880.0, 0.0012257058714128842
881.0, 0.0015420388820626557
882.0, 0.00157399736438929
883.0, 0.0010433625416214523
884.0, 0.0006039558271091795
885.0, 0.0014004359319641072
886.0, 0.0033571043000120053
887.0, 0.0037567298372386893
888.0, 0.0028346867573073157
889.0, 0.0018169076576685732
890.0, 0.0011325413472680283
891.0, 0.000971322078394742
892.0, 0.0012874855326497747
893.0, 0.002100666288654244
894.0, 0.0017885981236724225
895.0, 0.0026609884918155973
896.0, 0.0043317003834885
897.0, 0.004474327972207041
898.0, 0.004438629384877156
899.0, 0.006365454592620158
900.0, 0.009753078430355245
901.0, 0.013168611984724049
902.0, 0.013522160328067793
903.0, 0.009484962710745996
904.0, 0.005146194220399937
905.0, 0.0014799603724283158
906.0, 4.7857921831505396e-05
907.0, 0.00041630605037983086
908.0, 0.0009933729502581141
909.0, 0.000888869824615154
910.0, 0.0012783907299265239
911.0, 0.001399460092700737
912.0, 0.0004643423254225111
913.0, 0.0012764261361742127
914.0, 0.0010721395586967863
915.0, 0.0009317466305930784
916.0, 0.000795953854768081
917.0, 0.00019191870959210102
918.0, 4.6640173989364854e-05
919.0, 0.0006322243763578257
920.0, 0.0014582623442314082
921.0, 0.0011159964583630849
922.0, 0.0001675551451043384
923.0, 0.00025938947330414924
924.0, 0.00016098658931064098
925.0, 0.0008422796037085685
926.0, 0.0008409522920805695
927.0, 0.00025270669552370206
928.0, 0.000292656766842167
929.0, 0.00010296800001386558
930.0, 0.001142877946995927
931.0, 0.0009599406126813853
932.0, 0.00034812277486913356
933.0, 0.0009372760729431846
934.0, 0.0012483768997091909
935.0, 0.0005018097440881613
936.0, 0.0004496774136782861
937.0, 0.001257486217906155
938.0, 0.0009133559022826261
939.0, 0.000856080447455066
940.0, 0.0006855765740937839
941.0, 0.0013598975875730157
942.0, 4.070826996156607e-05
943.0, 0.00017502682532096308
944.0, 0.00046131075501488854
945.0, 0.00011016157919700063
946.0, 0.00012943581640729556
947.0, 0.0003984766022733466
948.0, 0.00035521977685125557
949.0, 0.00045008628509978307
950.0, 0.0006823267004800751
951.0, 0.00014621176532270334
952.0, 0.000797683814569293
953.0, 0.0013596043978493224
954.0, 0.0009609506203895385
955.0, 0.0014923951107245629
956.0, 0.0019010222638425548
957.0, 0.0024355781768020655
958.0, 0.0024140921900091625
959.0, 0.0009734187392171016
960.0, 0.0005817904082568351
961.0, 0.0009936102322590746
962.0, 0.0003194338756455352
963.0, 0.0010768549132606114
964.0, 0.0013602296611692354
965.0, 0.000732872309441547
966.0, 0.0004528116114470935
967.0, 0.0006647200487382919
968.0, 0.000854067808417655
969.0, 0.0006359340566672183
970.0, 0.0003439354268664196
971.0, 0.00027472172021043276
972.0, 0.001166543180929586
973.0, 0.00039970497922996184
974.0, 0.0001483244938629363
975.0, 8.47109866359876e-05
976.0, 0.00024029342320620276
977.0, 0.00019365149965259543
978.0, 0.0005736209286762966
979.0, 0.0012271943954861588
980.0, 0.00030166957874652517
981.0, 0.0002551928425266608
982.0, 0.001292169324710244
983.0, 0.001850393262761781
984.0, 0.002209178326671637
985.0, 0.0014648042057967528
986.0, 0.00033635980117803147
987.0, 0.0003147551354210366
988.0, 0.000794318329986964
989.0, 0.00023259688203268694
990.0, 0.00013399327498188823
991.0, 0.000863563629321439
992.0, 0.00020662845169218391
993.0, 0.0008760530892840233
994.0, 0.00021057743147844337
995.0, 0.0006521444011050881
996.0, 0.00034082157432132666
997.0, 0.0003423710094894372
998.0, 0.0006517714837563927
999.0, 0.00022089273562035894
1000.0, 0.0007241488828534942
1001.0, 0.0002096141947053932
1002.0, 0.0004576373279955956
1003.0, 0.0005685273701520449
1004.0, 0.0005814366540506709
1005.0, 0.0006355845011340487
1006.0, 0.0013145735329437682
1007.0, 0.00024305727041693323
1008.0, 0.0001021456340359793
1009.0, 0.0004403071051500267
1010.0, 0.00040999163414665745
1011.0, 0.0007457169322330828
1012.0, 7.949106932149905e-05
1013.0, 0.00012881681598849476
1014.0, 0.0003709190364502441
1015.0, 0.00021454436924974355
1016.0, 0.0005403835529731112
1017.0, 0.001404386457920746
1018.0, 0.0016126951628403718
1019.0, 0.0012213389139091439
1020.0, 0.0003853417172794666
1021.0, 0.00031718756527751715
1022.0, 0.0006219357151297723
1023.0, 0.001018522769852182
1024.0, 0.00075157172703061
1025.0, 0.0006721777268821563
1026.0, 0.0011888248953279574
1027.0, 8.880980338276534e-05
1028.0, 0.0005036481067624941
1029.0, 0.000694391529085901
1030.0, 0.0012229710791258831
1031.0, 0.0009760275707495795
1032.0, 0.0009078008190043902
1033.0, 0.0014254833705633684
1034.0, 0.0008839655206473305
1035.0, 0.0005179170876011493
1036.0, 0.0006351729251295477
1037.0, 0.0021923130686998635
1038.0, 0.001806972082950089
1039.0, 0.0015990202085335292
1040.0, 0.002479458956744749
1041.0, 0.003186522312089343
1042.0, 0.0050561197991324715
1043.0, 0.0058716531905508
1044.0, 0.0068269076843447225
1045.0, 0.0072142403061997125
1046.0, 0.005031750578315791
1047.0, 0.004029100299489355
1048.0, 0.005236829501160527
1049.0, 0.0076772493907313125
1050.0, 0.011669395952502864
1051.0, 0.01668663369142484
1052.0, 0.030113276236827746
1053.0, 0.04532315138768239
1054.0, 0.05585387624977868
1055.0, 0.062301934892638466
1056.0, 0.0698659316504418
1057.0, 0.08427498998246574
1058.0, 0.1084939623700673
1059.0, 0.14389887398603335
1060.0, 0.1927173649598843
1061.0, 0.2638847606789606
1062.0, 0.38570561276059095
1063.0, 0.6106433018484868
1064.0, 0.923207024982229
1065.0, 0.9885964436568323
1066.0, 0.6956895743783715
1067.0, 0.34181448911457774
1068.0, 0.13643167676471418
1069.0, 0.058121378606697235
1070.0, 0.03185956804098457
1071.0, 0.021721551387543298
1072.0, 0.016772224227923425
1073.0, 0.014537829164273092
1074.0, 0.013903903678596242
1075.0, 0.0146525527205313
1076.0, 0.015290784303924318
1077.0, 0.01949377716480755
1078.0, 0.025196012227742825
1079.0, 0.030088096879954174
1080.0, 0.03512886993439678
1081.0, 0.04080092331101772
1082.0, 0.049960686628241005
1083.0, 0.06385998177811511
1084.0, 0.08224566640105145
1085.0, 0.10965139057389917
1086.0, 0.14945308889609718
1087.0, 0.1973503719374812
1088.0, 0.2627583387651926
1089.0, 0.3570394166996475
1090.0, 0.41078578238892427
1091.0, 0.3493888832663641
1092.0, 0.25280237796761285
1093.0, 0.173539111192104
1094.0, 0.11398714219222712
1095.0, 0.07187280862757275
1096.0, 0.045024246100402725
1097.0, 0.02842223181148947
1098.0, 0.018181063978829907
1099.0, 0.011699150949610092
1100.0, 0.008026143147906763
1101.0, 0.006554580461662658
1102.0, 0.005059017672037828
1103.0, 0.003169962563127581
1104.0, 0.002945915345103936
1105.0, 0.002139327141915078
1106.0, 0.000868696252965371
1107.0, 0.00046799567803642347
1108.0, 0.0010344201401001395
1109.0, 0.0015428619704934657
1110.0, 0.0013770923990344983
1111.0, 0.00145995913587539
1112.0, 0.00138947938735249
1113.0, 0.0008417246858630082
1114.0, 0.0006967065669332077
1115.0, 6.739658633141303e-05
1116.0, 0.000889885366413587
1117.0, 0.0008391896510782805
1118.0, 0.0001003454402830733
1119.0, 0.0008820866928750906
1120.0, 0.0007262688653661121
1121.0, 0.00027202653365585055
1122.0, 0.00040935418185716237
1123.0, 0.0010462699929772814
1124.0, 0.0005786903456556987
1125.0, 0.00011842020465790347
1126.0, 0.00043798634668798834
1127.0, 0.001086123080181934
1128.0, 0.0009346438529115081
1129.0, 0.0012130218583870664
1130.0, 0.001408571496736674
1131.0, 7.979086455219681e-05
1132.0, 0.00018824830886247565
1133.0, 0.00019395697275368534
1134.0, 0.00011632050385739087
1135.0, 0.0008088719980157916
1136.0, 0.0003302883431319251
1137.0, 0.0009692426161685468
1138.0, 0.001406998124423574
1139.0, 0.0007444085698903556
1140.0, 0.0014723191224563848
1141.0, 0.0020113955060573506
1142.0, 0.0011699097314755436
1143.0, 0.0008503191738984256
1144.0, 0.0012306566856958745
1145.0, 0.0010972070244315494
1146.0, 0.0009316455546422512
1147.0, 0.0007917990826646526
1148.0, 0.0005876768481029323
1149.0, 0.0008324824731037355
1150.0, 0.00026593227802507847
1151.0, 0.0006050613814219491
1152.0, 0.0003519646518867719
1153.0, 0.0006614094771489499
1154.0, 0.0012810568642757497
1155.0, 0.00014632777837451778
1156.0, 0.000386211626984049
1157.0, 0.0008945084668950023
1158.0, 0.0008106414824434784
1159.0, 0.0004307530040238046
1160.0, 0.0002836859052189478
1161.0, 0.0008369748896387237
1162.0, 0.0010222719197176201
1163.0, 0.0007247517584653762
1164.0, 0.00036204293225436396
1165.0, 0.0013083086722493968
1166.0, 0.000678128200134741
1167.0, 0.0005755274542201707
1168.0, 0.001233094544308924
1169.0, 0.001684383576917941
1170.0, 0.0024189489560226558
1171.0, 0.00098483485341522
1172.0, 0.00028216797532503693
1173.0, 0.0002631627357310571
1174.0, 0.0016332198541000851
1175.0, 0.0021395805646451244
1176.0, 0.0007951275930268969
1177.0, 0.00030903258372605446
1178.0, 0.0007033286158562033
1179.0, 0.0008878858926019582
1180.0, 0.0012411917447164584
1181.0, 0.0019478939726547573
1182.0, 0.001366989757928223
1183.0, 0.0019295092674374323
1184.0, 0.002677697613772796
1185.0, 0.002616942050441144
1186.0, 0.000812753681399373
1187.0, 0.001189291935151391
1188.0, 0.002014401472983907
1189.0, 0.001375163093580155
1190.0, 0.0014456645010411183
1191.0, 0.001189275159903447
1192.0, 0.0015932384153467321
1193.0, 0.0015902660457030237
1194.0, 0.0013559053293314162
1195.0, 0.0008043470647660509
1196.0, 6.160248116679622e-05
1197.0, 0.0004143386211222759
1198.0, 0.0009421852452776864
1199.0, 0.001401786279537074
1200.0, 0.0013848588480761376
1201.0, 0.0006342280528857175
1202.0, 0.0014822955764908863
1203.0, 0.0014755662479029581
1204.0, 0.0012762216324846464
1205.0, 0.0020967557512154783
1206.0, 0.001927745142928673
1207.0, 0.0012610524836750721
1208.0, 0.001293392052850071
1209.0, 0.001538817395935436
1210.0, 0.002038643927587958
1211.0, 0.0008340099792275479
1212.0, 0.000478143328480471
1213.0, 0.00033714178184924773
1214.0, 0.0015197460875297363
1215.0, 0.00215439930382174
1216.0, 0.0012209528963149229
1217.0, 0.0009211563145825196
1218.0, 0.0010281984877812296
1219.0, 0.0014139773173623975
1220.0, 0.0010723189264347987
1221.0, 0.001491669489754631
1222.0, 0.001426064788374459
1223.0, 0.0007711591690923405
1224.0, 0.0004466289120857223
1225.0, 0.001994904207242288
1226.0, 0.0031991589053165116
1227.0, 0.004199598528519808
1228.0, 0.0040534459212339955
1229.0, 0.002567190149560679
1230.0, 0.0017393048399729188
1231.0, 0.0003352667291434339
1232.0, 0.0004110914868292642
1233.0, 0.0010952317388051303
1234.0, 0.001050927229664835
1235.0, 0.0003374818749106483
1236.0, 0.0006574651883619803
1237.0, 0.00155529490875232
1238.0, 0.0015043244751735537
1239.0, 0.0009922416935555388
1240.0, 0.0005645615128552562
1241.0, 0.00018962692651724203
1242.0, 0.0003051957984016402
1243.0, 0.00021085607807507626
1244.0, 0.0002673236106857457
1245.0, 0.00036261434783183515
1246.0, 0.0004185545361813424
1247.0, 0.00043603533751031287
1248.0, 0.0005683967162434613
1249.0, 0.0003516265045571408
1250.0, 6.80920525743017e-05
1251.0, 0.0010238977113816168
1252.0, 0.0004068907420075199
1253.0, 0.00036977388841782775
1254.0, 9.926899536897843e-05
1255.0, 0.00012626794984518637
1256.0, 0.0004183458945251557
1257.0, 0.0010760863647985657
1258.0, 0.0004425677361964588
1259.0, 0.0001141839006499117
1260.0, 0.00011119389762916389
1261.0, 0.0006660311517661102
1262.0, 0.000724031677540344
1263.0, 0.0004038446759753381
1264.0, 0.0020667118263733054
1265.0, 0.0031562672148786612
1266.0, 0.002305376309400077
1267.0, 0.001320764887707256
1268.0, 7.276200640778112e-05
1269.0, 0.0007882052645478812
1270.0, 0.0016317355771697313
1271.0, 0.0008876551649982574
1272.0, 0.0008532639321844047
1273.0, 0.0005683217615508831
1274.0, 0.00035529301173757745
1275.0, 0.000820130290855077
1276.0, 0.0010124327221215181
1277.0, 0.0016629839458415932
1278.0, 0.001238982621438114
1279.0, 0.0014619130688518448
1280.0, 0.00038828574440799937
1281.0, 6.317458233602818e-05
1282.0, 0.0008326290375621078
1283.0, 0.0017010876215648603
1284.0, 0.0006094169482624922
1285.0, 3.8665699672820254e-05
1286.0, 3.862379508134719e-05
1287, 0.0
1288, 0.0
1289, 0.0
1290, 0.0
1291, 0.0
1292, 0.0
1293, 0.0
1294, 0.0
1295, 0.0
1296, 0.0
1297, 0.0
1298, 0.0
1299, 0.0
1300, 0.0
1301, 0.0
1302, 0.0
1303, 0.0
1304, 0.0
1305, 0.0
1306, 0.0
1307, 0.0
1308, 0.0
1309, 0.0
1310, 0.0
1311, 0.0
1312, 0.0
1313, 0.0
1314, 0.0
1315, 0.0
1316, 0.0
1317, 0.0
1318, 0.0
1319, 0.0
1320, 0.0
1321, 0.0
1322, 0.0
1323, 0.0
1324, 0.0
1325, 0.0
1326, 0.0
1327, 0.0
1328, 0.0
1329, 0.0
1330, 0.0
1331, 0.0
1332, 0.0
1333, 0.0
1334, 0.0
1335, 0.0
1336, 0.0
1337, 0.0
1338, 0.0
1339, 0.0
1340, 0.0
1341, 0.0
1342, 0.0
1343, 0.0
1344, 0.0
1345, 0.0
1346, 0.0
1347, 0.0
1348, 0.0
1349, 0.0
1350, 0.0
1351, 0.0
1352, 0.0
1353, 0.0
1354, 0.0
1355, 0.0
1356, 0.0
1357, 0.0
1358, 0.0
1359, 0.0
1360, 0.0
1361, 0.0
1362, 0.0
1363, 0.0
1364, 0.0
1365, 0.0
1366, 0.0
1367, 0.0
1368, 0.0
1369, 0.0
1370, 0.0
1371, 0.0
1372, 0.0
1373, 0.0
1374, 0.0
1375, 0.0
1376, 0.0
1377, 0.0
1378, 0.0
1379, 0.0
1380, 0.0
1381, 0.0
1382, 0.0
1383, 0.0
1384, 0.0
1385, 0.0
1386, 0.0
1387, 0.0
1388, 0.0
1389, 0.0
1390, 0.0
1391, 0.0
1392, 0.0
1393, 0.0
1394, 0.0
1395, 0.0
1396, 0.0
1397, 0.0
1398, 0.0
1399, 0.0
1400, 0.0
1401, 0.0
1402, 0.0
1403, 0.0
1404, 0.0
1405, 0.0
1406, 0.0
1407, 0.0
1408, 0.0
1409, 0.0
1410, 0.0
1411, 0.0
1412, 0.0
1413, 0.0
1414, 0.0
1415, 0.0
1416, 0.0
1417, 0.0
1418, 0.0
1419, 0.0
1420, 0.0
1421, 0.0
1422, 0.0
1423, 0.0
1424, 0.0
1425, 0.0
1426, 0.0
1427, 0.0
1428, 0.0
1429, 0.0
1430, 0.0
1431, 0.0
1432, 0.0
1433, 0.0
1434, 0.0
1435, 0.0
1436, 0.0
1437, 0.0
1438, 0.0
1439, 0.0
1440, 0.0
1441, 0.0
1442, 0.0
1443, 0.0
1444, 0.0
1445, 0.0
1446, 0.0
1447, 0.0
1448, 0.0
1449, 0.0
1450, 0.0
1451, 0.0
1452, 0.0
1453, 0.0
1454, 0.0
1455, 0.0
1456, 0.0
1457, 0.0
1458, 0.0
1459, 0.0
1460, 0.0
1461, 0.0
1462, 0.0
1463, 0.0
1464, 0.0
1465, 0.0
1466, 0.0
1467, 0.0
1468, 0.0
1469, 0.0
1470, 0.0
1471, 0.0
1472, 0.0
1473, 0.0
1474, 0.0
1475, 0.0
1476, 0.0
1477, 0.0
1478, 0.0
1479, 0.0
1480, 0.0
1481, 0.0
1482, 0.0
1483, 0.0
1484, 0.0
1485, 0.0
1486, 0.0
1487, 0.0
1488, 0.0
1489, 0.0
1490, 0.0
1491, 0.0
1492, 0.0
1493, 0.0
1494, 0.0
1495, 0.0
1496, 0.0
1497, 0.0
1498, 0.0
1499, 0.0
1500, 0.0
1501, 0.0
1502, 0.0
1503, 0.0
1504, 0.0
1505, 0.0
1506, 0.0
1507, 0.0
1508, 0.0
1509, 0.0
1510, 0.0
1511, 0.0
1512, 0.0
1513, 0.0
1514, 0.0
1515, 0.0
1516, 0.0
1517, 0.0
1518, 0.0
1519, 0.0
1520, 0.0
1521, 0.0
1522, 0.0
1523, 0.0
1524, 0.0
1525, 0.0
1526, 0.0
1527, 0.0
1528, 0.0
1529, 0.0
1530, 0.0
1531, 0.0
1532, 0.0
1533, 0.0
1534, 0.0
1535, 0.0
1536, 0.0
1537, 0.0
1538, 0.0
1539, 0.0
1540, 0.0
1541, 0.0
1542, 0.0
1543, 0.0
1544, 0.0
1545, 0.0
1546, 0.0
1547, 0.0
1548, 0.0
1549, 0.0
1550, 0.0
1551, 0.0
1552, 0.0
1553, 0.0
1554, 0.0
1555, 0.0
1556, 0.0
1557, 0.0
1558, 0.0
1559, 0.0
1560, 0.0
1561, 0.0
1562, 0.0
1563, 0.0
1564, 0.0
1565, 0.0
1566, 0.0
1567, 0.0
1568, 0.0
1569, 0.0
1570, 0.0
1571, 0.0
1572, 0.0
1573, 0.0
1574, 0.0
1575, 0.0
1576, 0.0
1577, 0.0
1578, 0.0
1579, 0.0
1580, 0.0
1581, 0.0
1582, 0.0
1583, 0.0
1584, 0.0
1585, 0.0
1586, 0.0
1587, 0.0
1588, 0.0
1589, 0.0
1590, 0.0
1591, 0.0
1592, 0.0
1593, 0.0
1594, 0.0
1595, 0.0
1596, 0.0
1597, 0.0
1598, 0.0
1599, 0.0
