30, 0.0
31, 0.0
32, 0.0
33, 0.0
34, 0.0
35, 0.0
36, 0.0
37, 0.0
38, 0.0
39, 0.0
40, 0.0
41, 0.0
42, 0.0
43, 0.0
44, 0.0
45, 0.0
46, 0.0
47, 0.0
48, 0.0
49, 0.0
50, 0.0
51, 0.0
52, 0.0
53, 0.0
54, 0.0
55, 0.0
56, 0.0
57.0, 0.0010479583853331568
58.0, 0.00292464926509121
59.0, 0.0035298934813961795
60.0, 0.004674258589335599
61.0, 0.005657117257090412
62.0, 0.005903565136417092
63.0, 0.005674026598376364
64.0, 0.0058022015239123335
65.0, 0.006286450037762646
66.0, 0.006951561309606501
67.0, 0.007049895285593033
68.0, 0.006524379147296538
69.0, 0.005238052559536118
70.0, 0.004290697495447089
71.0, 0.002858560959205545
72.0, 0.001406841505543204
73.0, 0.001304480771759174
74.0, 0.0005991553043434427
75.0, 0.00010241765171865161
76.0, 0.0001161390040257152
77.0, 0.0003553157658127125
78.0, 0.0004118869617288788
79.0, 0.0007927475636432911
80.0, 0.0025223993090230414
81.0, 0.004352610164317025
82.0, 0.004917595658805107
83.0, 0.003925410209336238
84.0, 0.0021172263083453044
85.0, 0.0012044971724061914
86.0, 0.0007287534716136602
87.0, 0.00029995812688504855
88.0, 0.002085076315792069
89.0, 0.003843766897635824
90.0, 0.005023197967092982
91.0, 0.003913849860468622
92.0, 0.003424895447372715
93.0, 0.0033454351493275585
94.0, 0.003617431610794411
95.0, 0.004820236756873893
96.0, 0.005134985440651414
97.0, 0.00486443598413293
98.0, 0.005033296828922616
99.0, 0.0049764254275357815
100.0, 0.005000620315222183
101.0, 0.005222397894637467
102.0, 0.005477003607079703
103.0, 0.005813732021050974
104.0, 0.006177456436316508
105.0, 0.006483002286948195
106.0, 0.005529386405121529
107.0, 0.00532084670602858
108.0, 0.006107352912413544
109.0, 0.006609975754982292
110.0, 0.008443257492799101
111.0, 0.011270884167160319
112.0, 0.015036639891834541
113.0, 0.016515207676456048
114.0, 0.018881539405734785
115.0, 0.021905290098014868
116.0, 0.023991826436933088
117.0, 0.02486229464596573
118.0, 0.026525070245992866
119.0, 0.02981530616825842
120.0, 0.026749068173506474
121.0, 0.02331400500294244
122.0, 0.020248215621204907
123.0, 0.01899077802439063
124.0, 0.02005940418905815
125.0, 0.020772744254167533
126.0, 0.021008211533390633
127.0, 0.02426144196766052
128.0, 0.02710824804674884
129.0, 0.030413524339830827
130.0, 0.03498914554713201
131.0, 0.0428097125945734
132.0, 0.05017939390436448
133.0, 0.057158568580585815
134.0, 0.06458019090963965
135.0, 0.06552051832280657
136.0, 0.06414948780631828
137.0, 0.06158949185590731
138.0, 0.053126364025353534
139.0, 0.045149220637980034
140.0, 0.03822115592441986
141.0, 0.03339452241537901
142.0, 0.027858743786904807
143.0, 0.024622972384910985
144.0, 0.02319839698821134
145.0, 0.01873591527718386
146.0, 0.016954093866501162
147.0, 0.01532335084822033
148.0, 0.012449918887826015
149.0, 0.009641131135307074
150.0, 0.007718469389793476
151.0, 0.006231502689546531
152.0, 0.004328204688674028
153.0, 0.003647505480002332
154.0, 0.002890524529189787
155.0, 0.002123674250148664
156.0, 0.004296540590623754
157.0, 0.005033454188521149
158.0, 0.006175719028274494
159.0, 0.009227440782908072
160.0, 0.014115929608089184
161.0, 0.01983349844983576
162.0, 0.02759780329648047
163.0, 0.041239421608522606
164.0, 0.05446379492011003
165.0, 0.06861917007829194
166.0, 0.0832077138117987
167.0, 0.08710370780831185
168.0, 0.08429440699547136
169.0, 0.0772326068110908
170.0, 0.06737850850334848
171.0, 0.055896356491948365
172.0, 0.04633264657244655
173.0, 0.038628006391877086
174.0, 0.03220661812924905
175.0, 0.028610319789136016
176.0, 0.02536812739578148
177.0, 0.02187144039271761
178.0, 0.02043057083456784
179.0, 0.01952543828206714
180.0, 0.01902528592633203
181.0, 0.018878189618741166
182.0, 0.021867077528221087
183.0, 0.02421662560318234
184.0, 0.026469280832656525
185.0, 0.03124594372396087
186.0, 0.03344014799625853
187.0, 0.03410852620326118
188.0, 0.03358549155663653
189.0, 0.033122691358627554
190.0, 0.03170135795224634
191.0, 0.03070822553017368
192.0, 0.03157411493004894
193.0, 0.029665979303411975
194.0, 0.029741671386382482
195.0, 0.030945966972149064
196.0, 0.030134767343781035
197.0, 0.028375344815455315
198.0, 0.027040942735979696
199.0, 0.02615318904417106
200.0, 0.021566637774161634
201.0, 0.019661932386653872
202.0, 0.017394606358989265
203.0, 0.012201180274118593
204.0, 0.00982689428337754
205.0, 0.007438036917990638
206.0, 0.004915069113155701
207.0, 0.0022179088769810574
208.0, 0.0017400597464436412
209.0, 0.001316600865089959
210.0, 0.0007824803079302541
211.0, 0.0023640718019550346
212.0, 0.002893361924229859
213.0, 0.003743342168983228
214.0, 0.0057907986429428585
215.0, 0.008429988067327476
216.0, 0.009714972666255421
217.0, 0.010263623733821853
218.0, 0.011014562375151287
219.0, 0.010214090648807099
220.0, 0.00973428728347847
221.0, 0.009552226016144727
222.0, 0.00834566386038721
223.0, 0.008277690188154286
224.0, 0.008303209033524753
225.0, 0.008027566059752623
226.0, 0.008209632818420624
227.0, 0.00969130031786037
228.0, 0.011656724780344784
229.0, 0.01330956161108413
230.0, 0.016437569316541747
231.0, 0.017949346193664836
232.0, 0.01822011339814769
233.0, 0.01864132228193039
234.0, 0.019614811163405313
235.0, 0.018834320481583896
236.0, 0.016111247722933635
237.0, 0.014657213776361745
238.0, 0.014411610916445163
239.0, 0.014865353156999097
240.0, 0.015781190847981994
241.0, 0.018195564423848024
242.0, 0.020037992666298576
243.0, 0.022307920426477633
244.0, 0.026576744816453855
245.0, 0.02592936357983315
246.0, 0.025903189197669284
247.0, 0.026158983671703044
248.0, 0.023304463940390936
249.0, 0.01989955685195287
250.0, 0.016677687289399015
251.0, 0.013797214832394324
252.0, 0.010445061010905383
253.0, 0.008768157864778013
254.0, 0.007327770293853447
255.0, 0.005118292422593639
256.0, 0.0044551519165991595
257.0, 0.003434642307657292
258.0, 0.0024372109379987034
259.0, 0.002128911325807218
260.0, 0.0022265283267700236
261.0, 0.0014116606624922162
262.0, 4.7141078602050136e-05
263.0, 1.9865511362442462e-05
264.0, 0.0014386190328794604
265.0, 0.0022776512396400785
266.0, 0.002085553643093166
267.0, 0.0029391402630130634
268.0, 0.002928960028308049
269.0, 0.0024318043631162915
270.0, 0.0016567236607241069
271.0, 0.0020902633210917246
272.0, 0.001545989218245997
273.0, 0.0007148520520842951
274.0, 0.0005830846013170286
275.0, 0.0004699066856878304
276.0, 0.0009416544859512981
277.0, 0.001690234638267563
278.0, 0.0016461291812338123
279.0, 0.002827634817447558
280.0, 0.0034346598735394713
281.0, 0.0034584332678937743
282.0, 0.0060330047473047006
283.0, 0.007291862189558713
284.0, 0.008414258925658795
285.0, 0.010051883539354519
286.0, 0.013532703921023735
287.0, 0.014887353290045233
288.0, 0.016219111238957563
289.0, 0.019717202274823556
290.0, 0.019334997527561737
291.0, 0.019116860585703922
292.0, 0.019254390956281904
293.0, 0.01979779051651225
294.0, 0.01925844528013297
295.0, 0.019614785499286667
296.0, 0.0206731680173104
297.0, 0.02049069829292005
298.0, 0.022215942002838742
299.0, 0.022931982710871046
300.0, 0.022185565335900978
301.0, 0.024609431283783064
302.0, 0.025866584924958667
303.0, 0.026153568701915056
304.0, 0.025572954955909062
305.0, 0.026607584587091004
306.0, 0.02532408908644134
307.0, 0.023656229333569017
308.0, 0.023720445379473765
309.0, 0.02166877078912149
310.0, 0.01976720705125378
311.0, 0.018321176087917192
312.0, 0.017771080412029728
313.0, 0.015685114838991404
314.0, 0.014710605335789774
315.0, 0.01444291995542785
316.0, 0.01207930228652131
317.0, 0.011485302783638568
318.0, 0.011020100216485001
319.0, 0.010221576512566543
320.0, 0.009106156981462573
321.0, 0.009392263461405311
322.0, 0.009320222800149536
323.0, 0.0081578462585905
324.0, 0.008859817728512038
325.0, 0.008534102926774456
326.0, 0.007859485430411086
327.0, 0.007376359048156583
328.0, 0.006732371151027055
329.0, 0.0057767327568702944
330.0, 0.005146883170671988
331.0, 0.005783797969043177
332.0, 0.004153540842481246
333.0, 0.0036246851358532842
334.0, 0.0038501504370748335
335.0, 0.003497849754757573
336.0, 0.002904489011357619
337.0, 0.0026834936089500994
338.0, 0.0026936996401959496
339.0, 0.00201743628103039
340.0, 0.0021794813024503777
341.0, 0.002321575626518498
342.0, 0.0024167532586321936
343.0, 0.003918430374204215
344.0, 0.004810345323028631
345.0, 0.005637775307368982
346.0, 0.006754237680653513
347.0, 0.009558831009473356
348.0, 0.01143329740166672
349.0, 0.013026122422292683
350.0, 0.014822035204120752
351.0, 0.019774107235398557
352.0, 0.023116065782661753
353.0, 0.02681300458469501
354.0, 0.033034011733601064
355.0, 0.035517726600793394
356.0, 0.04007195580849022
357.0, 0.04486678291167233
358.0, 0.04660087303285614
359.0, 0.04875435890032462
360.0, 0.04984790902021629
361.0, 0.04913706359238305
362.0, 0.04500932850798924
363.0, 0.04329027024254268
364.0, 0.03969863460641892
365.0, 0.03486583606429354
366.0, 0.03344230446674264
367.0, 0.02926504039106942
368.0, 0.02568598803901628
369.0, 0.0236227741729133
370.0, 0.023372180661831738
371.0, 0.021110357078050677
372.0, 0.020322422805806494
373.0, 0.021778756393892488
374.0, 0.020778745824205733
375.0, 0.021873045795736963
376.0, 0.023616043792377688
377.0, 0.0252243208042033
378.0, 0.02577352734119658
379.0, 0.028058165267461035
380.0, 0.030071631239436666
381.0, 0.03047999624610553
382.0, 0.033201005295008336
383.0, 0.03518053280764991
384.0, 0.03609582842606635
385.0, 0.03558481996549742
386.0, 0.03814010121870961
387.0, 0.03795523957090218
388.0, 0.03700941393129583
389.0, 0.03787043014375913
390.0, 0.03520197293243809
391.0, 0.03328092745560959
392.0, 0.03219498176006462
393.0, 0.03181444069092636
394.0, 0.028684051468699963
395.0, 0.02621268798344259
396.0, 0.02443984001743227
397.0, 0.022866946740684416
398.0, 0.021162596623082612
399.0, 0.01942441136127335
400.0, 0.017805435780936237
401.0, 0.016690905713017356
402.0, 0.01596036964353813
403.0, 0.01503065321152858
404.0, 0.014010353001814206
405.0, 0.01361769968898224
406.0, 0.013197751976510564
407.0, 0.013305942333191477
408.0, 0.014096844525830264
409.0, 0.015689504265132097
410.0, 0.015873122354397275
411.0, 0.016957474394412968
412.0, 0.019093940094713793
413.0, 0.01945653955693418
414.0, 0.021525676931528997
415.0, 0.024370651777458684
416.0, 0.027552669066197057
417.0, 0.03022591025282984
418.0, 0.03507911893721988
419.0, 0.03867157718902688
420.0, 0.04030146562625119
421.0, 0.046473178765344174
422.0, 0.050751385986462415
423.0, 0.05337061511082836
424.0, 0.05490440316432894
425.0, 0.06084650616949968
426.0, 0.06059234544378848
427.0, 0.06038321168684577
428.0, 0.06308670011665127
429.0, 0.05994689663988104
430.0, 0.059085818159357956
431.0, 0.05892949015666781
432.0, 0.0584144330795483
433.0, 0.05584334716549521
434.0, 0.05650369115228332
435.0, 0.05586456308591786
436.0, 0.051053687890839035
437.0, 0.05073329977219785
438.0, 0.048746898449186164
439.0, 0.045931376480462756
440.0, 0.04298948553597783
441.0, 0.04274193973837634
442.0, 0.04137466756418377
443.0, 0.04019419797277596
444.0, 0.040259692683692234
445.0, 0.0398779630291289
446.0, 0.039346218698437525
447.0, 0.03984155427594943
448.0, 0.04236523672116586
449.0, 0.04196746553270096
450.0, 0.04506660388190706
451.0, 0.04842842268629486
452.0, 0.04911853301877809
453.0, 0.0544684782058311
454.0, 0.059040310734856466
455.0, 0.0626006681115029
456.0, 0.06494823931361926
457.0, 0.07337480139582313
458.0, 0.07686184468427729
459.0, 0.07937031494396417
460.0, 0.08477139437049414
461.0, 0.08858048154473926
462.0, 0.09173966996904352
463.0, 0.09523659809254097
464.0, 0.10002648111971099
465.0, 0.09694066020055536
466.0, 0.09840970402281621
467.0, 0.09925615126764288
468.0, 0.09446996644892178
469.0, 0.09115103754592624
470.0, 0.08892171450177197
471.0, 0.08497493952427607
472.0, 0.07670954670992623
473.0, 0.07435127902572906
474.0, 0.06858681126004582
475.0, 0.06169889641447926
476.0, 0.055769180734971495
477.0, 0.05024497967671809
478.0, 0.043957939116702115
479.0, 0.03917233610846232
480.0, 0.03772307149572939
481.0, 0.032569633922843615
482.0, 0.029821771039771044
483.0, 0.02779624221035686
484.0, 0.025151938650975234
485.0, 0.02281373814040905
486.0, 0.022067292420056155
487.0, 0.0210981091075697
488.0, 0.018722925145422006
489.0, 0.019346693070551965
490.0, 0.018888013949729734
491.0, 0.018118146366670394
492.0, 0.017673462267363143
493.0, 0.019351078642953743
494.0, 0.019161535097948865
495.0, 0.01937910623728538
496.0, 0.02116477226186792
497.0, 0.021223530652011185
498.0, 0.022409521637916232
499.0, 0.024399514554885572
500.0, 0.026822729260398134
501.0, 0.02762119803245767
502.0, 0.0308882077116638
503.0, 0.033717371682301635
504.0, 0.035034747537812494
505.0, 0.037458661732195364
506.0, 0.04065251820675795
507.0, 0.041837962851893055
508.0, 0.040666984325215996
509.0, 0.04232899527907233
510.0, 0.04081718320367415
511.0, 0.039117087272700655
512.0, 0.03795275697072892
513.0, 0.035723723436215354
514.0, 0.03338578259036117
515.0, 0.03200915687744268
516.0, 0.031188739158279962
517.0, 0.02804941509796768
518.0, 0.028306890724511997
519.0, 0.028206021539645857
520.0, 0.02713794901673139
521.0, 0.025948286091720004
522.0, 0.025276340324803307
523.0, 0.024054251110724855
524.0, 0.022607394669411363
525.0, 0.02226260136669546
526.0, 0.020168154747841328
527.0, 0.018489945814490722
528.0, 0.01731868502822286
529.0, 0.01625912787095223
530.0, 0.014938894792913741
531.0, 0.014074686744587526
532.0, 0.013055423726521418
533.0, 0.01080009343687028
534.0, 0.010317675599440584
535.0, 0.009972903988264179
536.0, 0.009397589940265216
537.0, 0.008235772622001411
538.0, 0.008056177404557358
539.0, 0.007019137289915142
540.0, 0.006057920540621137
541.0, 0.006078649229311363
542.0, 0.005496444858085447
543.0, 0.004844661910867782
544.0, 0.004500966730322235
545.0, 0.004642358375198842
546.0, 0.0035439668117275506
547.0, 0.0032393717279100426
548.0, 0.003034615837978994
549.0, 0.0025733514591901228
550.0, 0.002171758739269352
551.0, 0.0022718675128224263
552.0, 0.0023074259715417113
553.0, 0.002119080473999225
554.0, 0.0021323638551959886
555.0, 0.0017527242141289862
556.0, 0.0013487452716756355
557.0, 0.0011602352830083521
558.0, 0.0016714908923608123
559.0, 0.0014142547795694962
560.0, 0.0011871013706012776
561.0, 0.001073417163448581
562.0, 0.0008681015118224453
563.0, 0.0008721011332354096
564.0, 0.0008221209508668603
565.0, 0.0007246561700822213
566.0, 0.0006515088251499403
567.0, 0.00048364621334232564
568.0, 0.0005601706300928735
569.0, 0.000611424528096982
570.0, 0.0002703167515773196
571.0, 0.0005400098032311032
572.0, 0.0003543018339844375
573.0, 0.00019541899639438602
574.0, 0.0004797282687059273
575.0, 0.0006035946867471321
576.0, 0.0003544862832508263
577.0, 0.0004419530982879119
578.0, 0.0011073449224019124
579.0, 0.0005233289393900492
580.0, 0.00025775373984312453
581.0, 0.00025414453608351665
582.0, 0.00038178257868933663
583.0, 9.413571021673055e-05
584.0, 0.0004603671948067614
585.0, 0.0005824162861454784
586.0, 0.000373884995823702
587.0, 0.00030476159000314304
588.0, 0.0005295800076872503
589.0, 0.00041186310943248277
590.0, 0.00016089753324354864
591.0, 0.00038439654539670855
592.0, 0.0006480729541025219
593.0, 0.00046733854422911005
594.0, 0.0002175936443547985
595.0, 0.00041857167868792
596.0, 0.0007369188238992406
597.0, 0.00040676426929837087
598.0, 0.00016782037701461113
599.0, 0.0005571808772597422
600.0, 0.00011978594553762611
601.0, 5.1779319359932095e-05
602.0, 0.00023179066918534478
603.0, 0.0005206106291323475
604.0, 0.0004257251480347138
605.0, 0.0004525236193183437
606.0, 0.0006409784855254756
607.0, 0.0008160880918455954
608.0, 0.00030490666594041726
609.0, 0.00025945164646004495
610.0, 0.00032242073089254356
611.0, 0.0005504625105181404
612.0, 0.0011969295753991834
613.0, 0.000609979131314655
614.0, 0.0005599064295173117
615.0, 0.0007860381502918118
616.0, 0.0007820020226620527
617.0, 0.0005276254974819238
618.0, 0.0006200566561929993
619.0, 0.000589860286585392
620.0, 0.00017976417617666284
621.0, 0.0008156965145567079
622.0, 0.0007781158681820352
623.0, 0.0007151738017058757
624.0, 0.0008860196830796754
625.0, 0.0010721832729021234
626.0, 0.00045358123801975077
627.0, 0.0006293200861372389
628.0, 0.0012751378322738173
629.0, 0.00039041210271577873
630.0, 0.0008845501161887819
631.0, 0.0006300356150185729
632.0, 4.6207315919035025e-05
633.0, 0.0001704617418497221
634.0, 0.0006885178966775487
635.0, 0.0005650712336810243
636.0, 0.00033805936631918656
637.0, 0.0004877233419567824
638.0, 0.0004632496031887423
639.0, 0.000627227776623308
640.0, 0.0005975981780157451
641.0, 0.0002577674925176964
642.0, 4.423957170269192e-05
643.0, 0.00017405215013822364
644.0, 0.0001735965701513896
645.0, 0.00011653848365776264
646.0, 0.0005544957759424042
647.0, 0.0005576244025630494
648.0, 0.0004897112154077798
649.0, 0.00044785239353473447
650.0, 0.0005098869568348123
651.0, 0.0005042719210332794
652.0, 0.00040038578058816237
653.0, 0.00028136891134754826
654.0, 0.00021807094500346549
655.0, 0.0002218564388671184
656.0, 0.0004939597567165628
657.0, 0.0005032651567856985
658.0, 0.000235078072765291
659.0, 0.0006464474586895967
660.0, 0.0003287011955967
661.0, 0.00035168859833608745
662.0, 0.0005963879699754142
663.0, 0.00032596378418097663
664.0, 0.00037150744740711464
665.0, 0.0004801971145890144
666.0, 0.0005034974769116132
667.0, 0.00031675875550283157
668.0, 0.0004932144823585633
669.0, 0.0005640970444007575
670.0, 0.0004453404529998243
671.0, 0.0002152328838467582
672.0, 0.0006669710027615127
673.0, 0.00034901128067079567
674.0, 0.000412060361473343
675.0, 0.0008530169001757433
676.0, 0.000764620094313253
677.0, 0.0009985870467706895
678.0, 0.0010071409975823166
679.0, 0.0009392474596435153
680.0, 0.0010719834441822555
681.0, 0.0013481517939743202
682.0, 0.0011197729477373725
683.0, 0.0012761794884360404
684.0, 0.0021412068990717126
685.0, 0.0014597644243163643
686.0, 0.0015094110838031922
687.0, 0.0016549067791659933
688.0, 0.0015836513012580402
689.0, 0.0009859113372811597
690.0, 0.0018031641251498045
691.0, 0.001923120598357962
692.0, 0.0016649911507635614
693.0, 0.0018435614125304615
694.0, 0.0020049032376850623
695.0, 0.001679712819832898
696.0, 0.001522529079412598
697.0, 0.0018814922843917747
698.0, 0.0019070990084717728
699.0, 0.0014287132436406529
700.0, 0.0015053548101423165
701.0, 0.002082161227490162
702.0, 0.0020563994543813845
703.0, 0.0020920241130215227
704.0, 0.0023820454522684906
705.0, 0.002537318847733782
706.0, 0.00206670566919059
707.0, 0.002361747119296808
708.0, 0.0019750579807343827
709.0, 0.001671839782830494
710.0, 0.001925612795182578
711.0, 0.0027285604414309115
712.0, 0.0020164660130979426
713.0, 0.0016988924967993476
714.0, 0.0020201557299212346
715.0, 0.0023820378438445746
716.0, 0.0028534241199761317
717.0, 0.002809616952573728
718.0, 0.002591349265873607
719.0, 0.0026066768648891924
720.0, 0.0028633368539317974
721.0, 0.0028256384195153536
722.0, 0.0026760272599339954
723.0, 0.0025571921526022163
724.0, 0.0026906227726024605
725.0, 0.0024439927341917437
726.0, 0.002651202315062407
727.0, 0.0029463806795691095
728.0, 0.00248858224245604
729.0, 0.0028353214982585525
730.0, 0.0029099407485923827
731.0, 0.0028038723409152325
732.0, 0.0026578399631967333
733.0, 0.0028706743054277943
734.0, 0.0030911036930313432
735.0, 0.003196634158908574
736.0, 0.003201856462292632
737.0, 0.00324067402303463
738.0, 0.0031745882296077975
739.0, 0.0032632895822097036
740.0, 0.003283543145453387
741.0, 0.003035628281335436
742.0, 0.0035746345563591776
743.0, 0.0039047846175808867
744.0, 0.0038084657528573347
745.0, 0.003519159315125937
746.0, 0.004286134972078318
747.0, 0.004446559200827483
748.0, 0.004235022434285406
749.0, 0.004083277665945475
750.0, 0.004541930877517143
751.0, 0.004075874713094665
752.0, 0.004618079393540313
753.0, 0.005064214565107875
754.0, 0.0048446578153699535
755.0, 0.0046597349728848105
756.0, 0.005317256786780824
757.0, 0.0054789491391315035
758.0, 0.005358974636977246
759.0, 0.005925521038983913
760.0, 0.005537256569721833
761.0, 0.005423014770423809
762.0, 0.005600436196102981
763.0, 0.005964989921058582
764.0, 0.00591663251294556
765.0, 0.006949940729404773
766.0, 0.007311892914244812
767.0, 0.007181183957763861
768.0, 0.008124416756951434
769.0, 0.008833328762726451
770.0, 0.008762483888694663
771.0, 0.008810293260747011
772.0, 0.00971838726722372
773.0, 0.010547971193728094
774.0, 0.011107382821990105
775.0, 0.011743468760853443
776.0, 0.012523415821489662
777.0, 0.01331237686370543
778.0, 0.015469634848060743
779.0, 0.01714545849014716
780.0, 0.017960581420472597
781.0, 0.017961368897318853
782.0, 0.01996332747417834
783.0, 0.020165681685192963
784.0, 0.020678889908547993
785.0, 0.021863164700893768
786.0, 0.022545333066627482
787.0, 0.02149198141814049
788.0, 0.02247439996865446
789.0, 0.023613049570221683
790.0, 0.022942934171286043
791.0, 0.02384061488261625
792.0, 0.02495918817012737
793.0, 0.0257731674655111
794.0, 0.026732840392419775
795.0, 0.029575279062757115
796.0, 0.0311551763023019
797.0, 0.03320961088121622
798.0, 0.03582065687938448
799.0, 0.03875432041326898
800.0, 0.04037272753388583
801.0, 0.043123264384558165
802.0, 0.044772912929069576
803.0, 0.04524909919879634
804.0, 0.04634774739839941
805.0, 0.04753105100483157
806.0, 0.046983876672159024
807.0, 0.04606065439271379
808.0, 0.04590279696416242
809.0, 0.04464415949617228
810.0, 0.043965226275663315
811.0, 0.04365811793018139
812.0, 0.042836995797777444
813.0, 0.03976725083020211
814.0, 0.040482347716596256
815.0, 0.040421220671940074
816.0, 0.040064380399564586
817.0, 0.04030678771105903
818.0, 0.04350300281714019
819.0, 0.04370865376658961
820.0, 0.04564072462025754
821.0, 0.04923808115048594
822.0, 0.05230197832273472
823.0, 0.05415628280727723
824.0, 0.05844140667899715
825.0, 0.06139680858705453
826.0, 0.06185596828622484
827.0, 0.06553882439859923
828.0, 0.06705454406748375
829.0, 0.06809858144148066
830.0, 0.069640087032839
831.0, 0.07242930171522176
832.0, 0.07245978263010858
833.0, 0.07492708656302798
834.0, 0.07847796309155128
835.0, 0.08155865821703795
836.0, 0.08138414428616711
837.0, 0.08866836272991044
838.0, 0.09237084853666659
839.0, 0.09596507716040008
840.0, 0.10370665827471305
841.0, 0.11059411673264528
842.0, 0.11452316532917622
843.0, 0.12168879005500867
844.0, 0.1321442125439451
845.0, 0.1415751496605467
846.0, 0.1531416973073307
847.0, 0.16777093618512576
848.0, 0.181031030638113
849.0, 0.19327005955308552
850.0, 0.22351382434718825
851.0, 0.24489643473656458
852.0, 0.27655059816274175
853.0, 0.32051036541752453
854.0, 0.37356683244768085
855.0, 0.43627832178679754
856.0, 0.5181544223287148
857.0, 0.6028626360299136
858.0, 0.6899228586223928
859.0, 0.801236802673872
860.0, 0.9202860465464524
861.0, 0.9741484970630913
862.0, 0.9899489986881231
863.0, 0.9919807930718076
864.0, 0.9125827046738645
865.0, 0.7934999352762596
866.0, 0.6800563411994055
867.0, 0.5765638108724603
868.0, 0.4693366434007419
869.0, 0.39539230798603725
870.0, 0.33760332175004615
871.0, 0.2882214462587574
872.0, 0.24654581400217823
873.0, 0.22688905948564056
874.0, 0.2037770469886525
875.0, 0.1875607579543518
876.0, 0.17741025825029744
877.0, 0.17023926293063935
878.0, 0.15945082725570967
879.0, 0.15587372763640436
880.0, 0.15060240169854028
881.0, 0.14172868967756647
882.0, 0.13072581547291579
883.0, 0.12833662977991134
884.0, 0.12030075786001726
885.0, 0.11371652625793341
886.0, 0.11111285614204094
887.0, 0.106998789743871
888.0, 0.10303928995658478
889.0, 0.10442698500763063
890.0, 0.10662755631076863
891.0, 0.10612007010189017
892.0, 0.1155651685751825
893.0, 0.12493114446430384
894.0, 0.1345263038141058
895.0, 0.14807459794888672
896.0, 0.1709337713960022
897.0, 0.1863007327602398
898.0, 0.21417420562445655
899.0, 0.2504345802038893
900.0, 0.2885089534896171
901.0, 0.31601805983741427
902.0, 0.36098368320616075
903.0, 0.3777839644836034
904.0, 0.37464063739360753
905.0, 0.36307998478614517
906.0, 0.3481905149080218
907.0, 0.3026598208296659
908.0, 0.2642955555037485
909.0, 0.23300933965989667
910.0, 0.1991474603856037
911.0, 0.16912643471429
912.0, 0.1509600509995418
913.0, 0.13269415832487205
914.0, 0.11427040983317849
915.0, 0.10461391591584931
916.0, 0.0939455804065133
917.0, 0.08449252564917709
918.0, 0.0783972284575088
919.0, 0.07459250111561075
920.0, 0.06525992440740508
921.0, 0.061954010494814374
922.0, 0.05977955179168951
923.0, 0.0564517517170333
924.0, 0.05125070621861653
925.0, 0.04982158062095523
926.0, 0.047685314902162594
927.0, 0.0448012576232005
928.0, 0.04239195443667227
929.0, 0.04175135162366819
930.0, 0.037514962383103756
931.0, 0.03709619869151427
932.0, 0.035877484823517686
933.0, 0.03336279278652221
934.0, 0.03195445859688556
935.0, 0.030352581261293123
936.0, 0.028550513888574623
937.0, 0.027093728186796638
938.0, 0.02608269882770436
939.0, 0.024907504237144218
940.0, 0.023223054141103303
941.0, 0.021892199159388163
942.0, 0.0205534024702559
943.0, 0.019080493219446066
944.0, 0.01853107509224704
945.0, 0.017642265209298527
946.0, 0.01670822838960789
947.0, 0.015538751161242582
948.0, 0.014029130424186922
949.0, 0.013409742103601527
950.0, 0.012690589125807531
951.0, 0.012526000986009813
952.0, 0.012165311545414864
953.0, 0.010426987505402404
954.0, 0.010443045558373623
955.0, 0.009754927858296701
956.0, 0.009136571589402252
957.0, 0.008937209982016175
958.0, 0.009230105740217103
959.0, 0.00804990019894972
960.0, 0.007599758838164312
961.0, 0.007304578277147187
962.0, 0.0068820510211903205
963.0, 0.006441627872712583
964.0, 0.006354297949013418
965.0, 0.006192539966496513
966.0, 0.005862820332811892
967.0, 0.005392366415173102
968.0, 0.005051893689227791
969.0, 0.004337781329259493
970.0, 0.004010433239968141
971.0, 0.00415190491691475
972.0, 0.004493290078061231
973.0, 0.0036819171253194716
974.0, 0.004146328511015656
975.0, 0.004410437592054567
976.0, 0.004283904079477533
977.0, 0.003906881018666125
978.0, 0.0037259109407178853
979.0, 0.0035768262958792204
980.0, 0.003303342702076129
981.0, 0.0030594947634003627
982.0, 0.003061884852208647
983.0, 0.0028424484762558694
984.0, 0.002629448668004103
985.0, 0.0026176892442012285
986.0, 0.0026415622664226045
987.0, 0.0023690294380510593
988.0, 0.002521829678187563
989.0, 0.0024282415658421525
990.0, 0.0023775879108520193
991.0, 0.0023113713992891846
992.0, 0.0019125545115901332
993.0, 0.0018092081179698124
994.0, 0.001804085933672475
995.0, 0.0017196043648720466
996.0, 0.0016163837280101419
997.0, 0.0018170806064192753
998.0, 0.0019212170544528387
999.0, 0.0018403187387600129
1000.0, 0.001836508407945176
1001.0, 0.0019848532320679256
1002.0, 0.0020945275858378068
1003.0, 0.0019180765785802609
1004.0, 0.001898439533368084
1005.0, 0.0018471626655597474
1006.0, 0.0017354282093147082
1007.0, 0.0018763306252123986
1008.0, 0.0013633513614588985
1009.0, 0.0019083582819553492
1010.0, 0.002707170750519573
1011.0, 0.0030210683236978645
1012.0, 0.00256582555615138
1013.0, 0.003564554896881682
1014.0, 0.0038738526420858763
1015.0, 0.003916888694632924
1016.0, 0.004191268661462696
1017.0, 0.004782009329321383
1018.0, 0.005442927370639735
1019.0, 0.006196776909211621
1020.0, 0.006870625010186057
1021.0, 0.007391846613885644
1022.0, 0.008051556381755951
1023.0, 0.009254106704881223
1024.0, 0.009704024805277134
1025.0, 0.010019108724441242
1026.0, 0.010799107125337484
1027.0, 0.01171323918928124
1028.0, 0.011967804980208862
1029.0, 0.012526140383201812
1030.0, 0.013309412809736987
1031.0, 0.013992493361003534
1032.0, 0.013919956520393482
1033.0, 0.014404001869058828
1034.0, 0.013394526797871342
1035.0, 0.01231465513111406
1036.0, 0.012279495888083726
1037.0, 0.011177083153752626
1038.0, 0.010910177671685084
1039.0, 0.010596785986397276
1040.0, 0.009760510672657569
1041.0, 0.008273245194003987
1042.0, 0.006969699176993198
1043.0, 0.007535259204530035
1044.0, 0.006576394836348764
1045.0, 0.005523806681289099
1046.0, 0.0055991861061404
1047.0, 0.004552881057702241
1048.0, 0.003727158475177194
1049.0, 0.0039869892035843
1050.0, 0.004011590186683825
1051.0, 0.003004687102185423
1052.0, 0.0029211738903661827
1053.0, 0.0027366545188021695
1054.0, 0.0023375805270278256
1055.0, 0.0021211718413492154
1056.0, 0.002104058604628775
1057.0, 0.0009855596130826606
1058.0, 0.0013038042158634322
1059.0, 0.0010675081250985136
1060.0, 0.0005899215834052474
1061.0, 0.0004304817843680674
1062.0, 0.001130410796283516
1063.0, 0.00046650548454739237
1064.0, 0.0002509634773036377
1065.0, 0.0003514214247798947
1066.0, 0.0004797881129139616
1067.0, 0.0004015505222423823
1068.0, 0.00048132299699852655
1069.0, 0.00041948361354930257
1070.0, 0.00024973360257529666
1071.0, 0.00013522225387459572
1072.0, 0.0004253570982600804
1073.0, 0.00012075120536579319
1074.0, 3.33791391390232e-05
1075.0, 0.00012223316449010374
1076.0, 0.0002929758071850095
1077.0, 0.0004306411949596459
1078.0, 0.0002556433366907005
1079.0, 0.0002909945375138038
1080.0, 0.0004174886085128538
1081.0, 0.000473915109446841
1082.0, 0.0002757831616146607
1083.0, 7.768580091549992e-05
1084.0, 0.00037740182424674586
1085.0, 0.00036424865606522684
1086.0, 8.42662013394875e-05
1087.0, 0.00021327831226805783
1088.0, 0.0002968060573030152
1089.0, 0.0002099900558209007
1090.0, 0.00020714468875237705
1091.0, 0.00026546429394171594
1092.0, 0.0002561839958017991
1093.0, 0.0006597511685855115
1094.0, 0.000654537764491562
1095.0, 0.0006247172337881914
1096.0, 0.000712060962506866
1097.0, 0.0008531132459953712
1098.0, 0.00021435858956560754
1099.0, 0.0007433571556943949
1100.0, 0.0006708374819539233
1101.0, 0.00028887923965634704
1102.0, 0.0002384611749060109
1103.0, 0.0003259484831279581
1104.0, 0.0003658274804931271
1105.0, 0.0005161414529030401
1106.0, 0.0005010795528549085
1107.0, 0.0002799391480894287
1108.0, 0.0006163950638179685
1109.0, 0.0002717967449479176
1110.0, 0.0006202367956945574
1111.0, 0.0006608183642771191
1112.0, 0.00017836074162936666
1113.0, 0.000586555525056029
1114.0, 0.000390085536844189
1115.0, 0.00034852313867951
1116.0, 0.00034963572862860406
1117.0, 0.00036920204799811634
1118.0, 0.0004891728491005984
1119.0, 0.0002968685387143974
1120.0, 0.00022202399681190544
1121.0, 0.0003829546126637767
1122.0, 0.0004950511828871759
1123.0, 0.00013543992821260644
1124.0, 0.00017369420893200598
1125.0, 0.0003602486816026868
1126.0, 0.0004397967130291285
1127.0, 0.0003361307346051471
1128.0, 0.00010539526662701919
1129.0, 0.00012759962101335516
1130.0, 6.615728273952375e-05
1131.0, 7.045691911688948e-05
1132.0, 0.0001440176807003425
1133.0, 0.0002495073661087886
1134.0, 0.0003218002001739604
1135.0, 0.0004024432851987778
1136.0, 0.00036202960875190315
1137.0, 0.0002210397849271169
1138.0, 8.261554791527045e-05
1139.0, 0.00014304746597356468
1140.0, 0.00017252015128924834
1141.0, 0.00018157670397384273
1142.0, 0.0001551262710535898
1143.0, 0.00016542561593471325
1144.0, 0.0003164096984121037
1145.0, 0.0001122948876323455
1146.0, 5.425406097086044e-05
1147.0, 8.053724212140384e-05
1148.0, 0.00027879818175577094
1149.0, 0.0006266924651835782
1150.0, 0.0001561537373348604
1151.0, 0.00021740663132351613
1152.0, 0.0002931407523226825
1153.0, 0.0002202978248603056
1154.0, 8.751180535072992e-05
1155.0, 0.0004472926272454937
1156.0, 0.0003053109852732947
1157.0, 0.00017145719145416103
1158.0, 0.0001378844133006764
1159.0, 0.0002854571751283422
1160.0, 0.0006960478762808675
1161.0, 0.00038045680983799857
1162.0, 0.00031578079014734034
1163.0, 0.000571194002386899
1164.0, 0.0007245421710829807
1165.0, 0.0002448747537495043
1166.0, 0.00012543627706899932
1167.0, 0.00031026258272141263
1168.0, 0.0005021710556098394
1169.0, 0.0006112954444175472
1170.0, 0.0006338677852665726
1171.0, 0.0006543076070479939
1172.0, 0.0007792244007026292
1173.0, 0.0009416398997279143
1174.0, 0.0009950525989614655
1175.0, 0.0008962544504497079
1176.0, 0.000755919169755765
1177.0, 0.0005452856737977035
1178.0, 0.0007063573759113209
1179.0, 0.000625422258352721
1180.0, 0.0003198645461541371
1181.0, 0.00021410079850693147
1182.0, 0.0006786397262791846
1183.0, 0.0011915828183182717
1184.0, 0.0011628013729017969
1185.0, 0.0008619599392589999
1186.0, 0.0006835587208112494
1187.0, 0.0006868664039673571
1188.0, 0.0006354433941982083
1189.0, 0.000571470490239682
1190.0, 0.0005442162206844415
1191.0, 0.0005585399190998594
1192.0, 0.0005753165238263937
1193.0, 0.0008863460167109345
1194.0, 0.0008754953856094293
1195.0, 0.0008645464101129873
1196.0, 0.0010258287324111945
1197.0, 0.001372362962244504
1198.0, 0.0015127160042739157
1199.0, 0.0013982025905789665
1200.0, 0.0009323563010604272
1201.0, 0.0007916300094676594
1202.0, 0.0013143046876107382
1203.0, 0.0019356359670566902
1204.0, 0.0011693424398131085
1205.0, 0.0009303022641066369
1206.0, 0.00108909504481216
1207.0, 0.0012409838702157345
1208.0, 0.0009428535685979647
1209.0, 0.0007931919382002467
1210.0, 0.0010244669064368394
1211.0, 0.001233262694717642
1212.0, 0.001087069797050384
1213.0, 0.000685844746205967
1214.0, 0.0012158503514664975
1215.0, 0.0017059787300134656
1216.0, 0.0012100862916644675
1217.0, 0.0008349585997666668
1218.0, 0.0011149373065058412
1219.0, 0.001758772294211143
1220.0, 0.0012360110552593424
1221.0, 0.0012866898541431407
1222.0, 0.0016081168927305491
1223.0, 0.001694668169778788
1224.0, 0.0014091449209478202
1225.0, 0.0020543675049335556
1226.0, 0.00181985472794634
1227.0, 0.0015347984909257185
1228.0, 0.0015901811804885859
1229.0, 0.001910328920863232
1230.0, 0.0019568947702354456
1231.0, 0.001369746085269922
1232.0, 0.0019912446650121336
1233.0, 0.0020323960829050636
1234.0, 0.0016453697478168682
1235.0, 0.0015846217878366352
1236.0, 0.001978246237490073
1237.0, 0.0013259875861393296
1238.0, 0.001838206811287626
1239.0, 0.002231002311141195
1240.0, 0.0019222021231070333
1241.0, 0.0015612400140074844
1242.0, 0.0023360915758001703
1243.0, 0.0019279952222080521
1244.0, 0.0019935890897807085
1245.0, 0.0021171888878254354
1246.0, 0.0016550656962603441
1247.0, 0.0016892851966458353
1248.0, 0.0018027351980960569
1249.0, 0.001832192481543355
1250.0, 0.0017805299906529456
1251.0, 0.0018432059661915657
1252.0, 0.002245348003866705
1253.0, 0.0015567257122656305
1254.0, 0.0018815982176408417
1255.0, 0.0021492265161448844
1256.0, 0.0019656159801057327
1257.0, 0.0015248366023668228
1258.0, 0.0019106762474641222
1259.0, 0.0016407306776791703
1260.0, 0.001491564834749237
1261.0, 0.0017121661660866039
1262.0, 0.0018255649610510823
1263.0, 0.001173852985522463
1264.0, 0.001552582633500307
1265.0, 0.0015920058481660633
1266.0, 0.0015665538999121782
1267.0, 0.0016428120858641582
1268.0, 0.0016835728504637467
1269.0, 0.0011096322122338756
1270.0, 0.001242323570269673
1271.0, 0.0017270670570388553
1272.0, 0.0013606715247105456
1273.0, 0.0010410279219406965
1274.0, 0.001892611857193783
1275.0, 0.0014268841335099282
1276.0, 0.001257971055629023
1277.0, 0.0014254191889034027
1278.0, 0.001560166409395552
1279.0, 0.001502879695208744
1280.0, 0.0013904878789264977
1281.0, 0.0013319569778389544
1282.0, 0.0012915781734874005
1283.0, 0.001264315415708604
1284.0, 0.001169071172373479
1285.0, 0.0010267394171396696
1286.0, 0.0011248450861746412
1287.0, 0.001630668614727078
1288.0, 0.0014647759166037423
1289.0, 0.001349857648407972
1290.0, 0.0014705248004208765
1291.0, 0.0015524488945293108
1292.0, 0.0009918147587628734
1293.0, 0.0010832737747716022
1294.0, 0.0012568984355683518
1295.0, 0.0012523881542594233
1296.0, 0.0010149649663320206
1297.0, 0.0007494920791276233
1298.0, 0.0015310051045393878
1299.0, 0.0011457684494363106
1300.0, 0.0011090375215008315
1301.0, 0.001255773248978479
1302.0, 0.001182475467792076
1303.0, 0.0010755946096945423
1304.0, 0.0012553016956564711
1305.0, 0.0006576135727769504
1306.0, 0.0007187813067121835
1307.0, 0.0010629176261660533
1308.0, 0.00066616918619826
1309.0, 6.776318864981347e-05
1310.0, 0.0013686217788723234
1311.0, 0.0011419183798606091
1312.0, 0.0006329286291206949
1313.0, 0.0006365008899598958
1314.0, 0.0009507687931480085
1315.0, 0.000574146851470007
1316.0, 0.0010556472149184024
1317.0, 0.0010907446990304414
1318.0, 0.0010482626956132203
1319.0, 0.0011162914898577335
1320.0, 0.0007720753408744383
1321.0, 0.0007600812694905764
1322.0, 0.0005966067035908645
1323.0, 0.0007878482755107313
1324.0, 0.0009659466941827892
1325.0, 0.000782402730807792
1326.0, 0.0006476710864307951
1327.0, 0.001329389780125493
1328.0, 0.0007071816487763073
1329.0, 0.0005700283118312605
1330.0, 0.0010114894936392375
1331.0, 0.001140774660400335
1332.0, 0.00024890854569935327
1333.0, 0.0011231289078008442
1334.0, 0.0006049654901954579
1335.0, 0.00045577900613259174
1336.0, 0.0010232130749444242
1337.0, 0.0012397362844309106
1338.0, 0.0003424720805498557
1339.0, 0.0008821172354219974
1340.0, 0.0012938754792223683
1341.0, 0.0010759834434960344
1342.0, 0.0005571744440634743
1343.0, 0.0006203788837094682
1344.0, 0.000751168167141157
1345.0, 0.0006598355150514983
1346.0, 0.0009370917548604697
1347.0, 0.001191667539554281
1348.0, 0.0011301374129067195
1349.0, 0.0009487153406615229
1350.0, 0.0011109447832405063
1351.0, 0.0008443686120996501
1352.0, 0.000878348725015813
1353.0, 0.0010006916882598273
1354.0, 0.0009488200931129845
1355.0, 0.0009102128464739448
1356.0, 0.0005156267886770017
1357.0, 0.0008561971928401626
1358.0, 0.001060229214461558
1359.0, 0.0011439608231669988
1360.0, 0.0012147163066205937
1361.0, 0.000761113614117135
1362.0, 0.000803661391722877
1363.0, 0.0010248664703447043
1364.0, 0.000617943791927634
1365.0, 0.0004278390917388072
1366.0, 0.0011290689481233687
1367.0, 0.0007272620408210605
1368.0, 0.0008070303027671934
1369.0, 0.0010523291408486794
1370.0, 0.000950581394459743
1371.0, 0.0006833786158545531
1372.0, 0.0006443169612103694
1373.0, 0.0005886151339644478
1374.0, 0.000639986541547575
1375.0, 0.0007121341731443281
1376.0, 0.0009469552629372649
1377.0, 0.0010920255865805245
1378.0, 0.0009094722550565514
1379.0, 0.0011291404958093773
1380.0, 0.0008980375594975227
1381.0, 0.0004932712085556699
1382.0, 0.0005231083963052822
1383.0, 0.0007838700627061163
1384.0, 0.0006891570705373246
1385.0, 0.00045290758197784694
1386.0, 0.0006976234785418696
1387.0, 0.0003138124255175006
1388.0, 0.0004541690295681048
1389.0, 0.0011308733895025677
1390.0, 0.0014247544642748543
1391.0, 0.0006016839972354466
1392.0, 0.0013092000180272437
1393.0, 0.0009764764575975238
1394.0, 0.0004422218474112421
1395.0, 0.00046236232257646756
1396.0, 0.0010087959474216193
1397.0, 0.0002027412752993316
1398.0, 0.0007396047723807447
1399.0, 0.0012125387795788977
1400.0, 0.0008579717326949371
1401.0, 0.00045614075575075284
1402.0, 0.0011292953407660723
1403.0, 0.0013625076734930758
1404.0, 0.0009579522548146684
1405.0, 0.0007784165823535785
1406.0, 0.0007874682814888876
1407.0, 0.0007235465313263496
1408.0, 0.0004906694560500239
1409.0, 0.0008919646954353723
1410.0, 0.0010131976047785837
1411.0, 0.0004029890875512839
1412.0, 0.0005277602480010683
1413.0, 0.000797920464576532
1414.0, 0.0002987540339730001
1415.0, 0.0011390565070838001
1416.0, 0.001161710633596738
1417.0, 0.0008203840468861951
1418.0, 0.0007841971868748081
1419.0, 0.0008632806684260293
1420.0, 0.0006467584322647785
1421.0, 0.00039211813525819776
1422.0, 0.0009705863943232132
1423.0, 0.0011319818240965655
1424.0, 0.0008431641526173514
1425.0, 0.0005275745629372705
1426.0, 0.0004239446283711774
1427.0, 9.537113052281594e-06
1428.0, 0.0003739677160282392
1429.0, 0.0009338813748101103
1430.0, 0.0008366111998138047
1431.0, 0.0007371353792383515
1432.0, 0.0010352516191604578
1433.0, 0.000805601892181502
1434.0, 0.0005030927419339596
1435.0, 0.00037500495046818356
1436.0, 0.00040171629213670186
1437.0, 0.00048386405700104286
1438.0, 0.0006663372417597479
1439.0, 0.001071904734985393
1440.0, 0.0003176388951310949
1441.0, 0.000726746142237642
1442.0, 0.0009313330216560273
1443.0, 0.0006329886383436826
1444.0, 0.0003849127348593494
1445.0, 0.0009044222910113049
1446.0, 8.769358124519988e-05
1447.0, 0.0003445476701750881
1448.0, 0.0007154234057113892
1449.0, 0.0007849186897908056
1450.0, 0.000620152673589587
1451.0, 0.0005958367011111868
1452.0, 0.0009641131717465092
1453.0, 0.0009100735108964034
1454.0, 0.0009773128386921187
1455.0, 0.0009409014248780085
1456.0, 0.0008449695061320509
1457.0, 0.0009276009825327214
1458.0, 0.0014185385350777033
1459.0, 0.0008839231362095021
1460.0, 0.0009559191110250037
1461.0, 0.0011409873741122542
1462.0, 0.0009761216981844622
1463.0, 0.0004456365562863237
1464.0, 0.00021477331731815057
1465.0, 0.0009683022739026971
1466.0, 0.0006466239908315905
1467.0, 0.0006654057921734873
1468.0, 0.0006779042837256767
1469.0, 0.000523912775443533
1470.0, 0.0007102403231596199
1471.0, 0.0012463031859004194
1472.0, 0.0005829482170168636
1473.0, 0.00040433077854398595
1474.0, 0.0007151408896072155
1475.0, 0.0008946695388716394
1476.0, 0.00047759400803676507
1477.0, 0.0004968169305346353
1478.0, 0.00044499658076444524
1479.0, 0.0009649821596543792
1480.0, 0.0010571033299293967
1481.0, 0.001028935138699932
1482.0, 0.0011740621778632866
1483.0, 0.0004834122550431404
1484.0, 0.0013180680474612443
1485.0, 0.0012953628351337727
1486.0, 0.0006755041312560804
1487.0, 0.0007370046531109328
1488.0, 0.0014011558809734566
1489.0, 0.0009373461316684814
1490.0, 0.00012596031278958665
1491.0, 0.0007798851961795507
1492.0, 0.0004952156510137618
1493.0, 0.00047177988818377384
1494.0, 0.0009662644487497931
1495.0, 0.0011163885047116432
1496.0, 0.0001397413017005097
1497.0, 0.0009057965974633539
1498.0, 0.0012653145204451599
1499.0, 0.0009238526556777361
1500.0, 0.0007191230209359122
1501.0, 0.000909322690759248
1502.0, 0.00022892254210537052
1503.0, 0.0007927840024856071
1504.0, 0.0008080546290321301
1505.0, 0.00042446935165046484
1506.0, 0.0005009640283033267
1507.0, 0.0010367888141108656
1508.0, 0.001212502181569855
1509.0, 0.0010194093554386678
1510.0, 0.0008274944624550553
1511.0, 0.0012457897404250132
1512.0, 0.0009849817638684028
1513.0, 0.0009170569432397495
1514.0, 0.0017165535211554576
1515.0, 0.0012742321443172096
1516.0, 0.0009765834376396925
1517.0, 0.0013754761273636774
1518.0, 0.0006783668319412881
1519.0, 8.591669669135953e-05
1520.0, 0.0006523963509004387
1521.0, 0.0018214137630664026
1522.0, 0.0005308699903678684
1523.0, 0.000993036237383942
1524.0, 0.0012866212887779774
1525.0, 0.0009309826575424022
1526.0, 0.0007430564463820782
1527.0, 0.0012502744697594644
1528.0, 0.0010479398067786987
1529.0, 0.00013868792026688155
1530.0, 1.3964004127881058e-06
1531, 0.0
1532, 0.0
1533, 0.0
1534, 0.0
1535, 0.0
1536, 0.0
1537, 0.0
1538, 0.0
1539, 0.0
1540, 0.0
1541, 0.0
1542, 0.0
1543, 0.0
1544, 0.0
1545, 0.0
1546, 0.0
1547, 0.0
1548, 0.0
1549, 0.0
1550, 0.0
1551, 0.0
1552, 0.0
1553, 0.0
1554, 0.0
1555, 0.0
1556, 0.0
1557, 0.0
1558, 0.0
1559, 0.0
1560, 0.0
1561, 0.0
1562, 0.0
1563, 0.0
1564, 0.0
1565, 0.0
1566, 0.0
1567, 0.0
1568, 0.0
1569, 0.0
1570, 0.0
1571, 0.0
1572, 0.0
1573, 0.0
1574, 0.0
1575, 0.0
1576, 0.0
1577, 0.0
1578, 0.0
1579, 0.0
1580, 0.0
1581, 0.0
1582, 0.0
1583, 0.0
1584, 0.0
1585, 0.0
1586, 0.0
1587, 0.0
1588, 0.0
1589, 0.0
1590, 0.0
1591, 0.0
1592, 0.0
1593, 0.0
1594, 0.0
1595, 0.0
1596, 0.0
1597, 0.0
1598, 0.0
1599, 0.0
