30, 0.0
31, 0.0
32, 0.0
33, 0.0
34, 0.0
35, 0.0
36, 0.0
37, 0.0
38, 0.0
39, 0.0
40, 0.0
41, 0.0
42, 0.0
43, 0.0
44, 0.0
45, 0.0
46, 0.0
47, 0.0
48, 0.0
49, 0.0
50, 0.0
51, 0.0
52, 0.0
53, 0.0
54, 0.0
55, 0.0
56, 0.0
57, 0.0
58, 0.0
59, 0.0
60, 0.0
61, 0.0
62, 0.0
63, 0.0
64, 0.0
65, 0.0
66, 0.0
67, 0.0
68, 0.0
69, 0.0
70, 0.0
71, 0.0
72, 0.0
73, 0.0
74, 0.0
75, 0.0
76, 0.0
77, 0.0
78, 0.0
79, 0.0
80, 0.0
81, 0.0
82, 0.0
83, 0.0
84, 0.0
85, 0.0
86, 0.0
87, 0.0
88, 0.0
89, 0.0
90, 0.0
91, 0.0
92, 0.0
93, 0.0
94, 0.0
95, 0.0
96, 0.0
97, 0.0
98, 0.0
99, 0.0
100, 0.0
101, 0.0
102, 0.0
103, 0.0
104, 0.0
105, 0.0
106, 0.0
107, 0.0
108, 0.0
109, 0.0
110, 0.0
111, 0.0
112, 0.0
113, 0.0
114, 0.0
115, 0.0
116, 0.0
117, 0.0
118, 0.0
119, 0.0
120, 0.0
121, 0.0
122.0, 0.0003385979465041413
123.0, 0.0012279435439702246
124.0, 0.008728856262639736
125.0, 0.019894986345154683
126.0, 0.03306517020271154
127.0, 0.04638038209925805
128.0, 0.05555175783419829
129.0, 0.056708657963567104
130.0, 0.057420619322368534
131.0, 0.06905130918979387
132.0, 0.09041693298364184
133.0, 0.11448244945076322
134.0, 0.13646857154352987
135.0, 0.1546024710369906
136.0, 0.16996185215665546
137.0, 0.1877357749999901
138.0, 0.20809802649343093
139.0, 0.23051352604632971
140.0, 0.2557747212659876
141.0, 0.2831184684368342
142.0, 0.31497970424296706
143.0, 0.35259905986311785
144.0, 0.39551063972825484
145.0, 0.4469459745656325
146.0, 0.5103257639787595
147.0, 0.5875281443565326
148.0, 0.6782467590402241
149.0, 0.7668456960421716
150.0, 0.8560515110337474
151.0, 0.9349547712549271
152.0, 0.9882692713483114
153.0, 0.9959293680170134
154.0, 0.9445738550296617
155.0, 0.8417005331866959
156.0, 0.7073023039501509
157.0, 0.5704212590593725
158.0, 0.44877974041263424
159.0, 0.35039633212605026
160.0, 0.2740535120253371
161.0, 0.2152372953245034
162.0, 0.16947589800358415
163.0, 0.13349791869689495
164.0, 0.10535563772984802
165.0, 0.08291660285230386
166.0, 0.06436819099026186
167.0, 0.049302168866975304
168.0, 0.03728177682313348
169.0, 0.027467445513356836
170.0, 0.019790192926196003
171.0, 0.014900031580796306
172.0, 0.011387127874575778
173.0, 0.008263663591438885
174.0, 0.00494711514984222
175.0, 0.002039186311790749
176.0, 6.645743153894858e-05
177.0, 0.0013569445800921958
178.0, 0.0021347911583200208
179.0, 0.0031831714613683986
180.0, 0.004430505468170677
181.0, 0.0052138891763075105
182.0, 0.005554491010201822
183.0, 0.005771743206728134
184.0, 0.00539283393931658
185.0, 0.004878100812324298
186.0, 0.004092614562743568
187.0, 0.0026693687497782903
188.0, 0.0004153814337341811
189.0, 0.002371047676891771
190.0, 0.006837716796710711
191.0, 0.013271141059571376
192.0, 0.020581550965122195
193.0, 0.02918400495335338
194.0, 0.036364681734825065
195.0, 0.03679285312543282
196.0, 0.027217401387857512
197.0, 0.015741873690359287
198.0, 0.008198335060314135
199.0, 0.004295057553355979
200.0, 0.002276952724067231
201.0, 0.0013979422253322445
202.0, 0.0014608715602367883
203.0, 0.00215611643826725
204.0, 0.0033239496544231165
205.0, 0.004849895942628562
206.0, 0.006258586952751251
207.0, 0.008630937714987701
208.0, 0.011767468932842896
209.0, 0.015364791370491977
210.0, 0.020087389456054924
211.0, 0.02514821888063778
212.0, 0.030687792081532692
213.0, 0.03550479950960075
214.0, 0.037574581883552415
215.0, 0.0330611945499217
216.0, 0.022795691202989854
217.0, 0.011829106324081158
218.0, 0.004172230743881816
219.0, 0.0003926065063055308
220.0, 0.00257817900978064
221.0, 0.003471454185307771
222.0, 0.0035999570953247316
223.0, 0.0030706210923878655
224.0, 0.002039702023413807
225.0, 0.00037964032867098983
226.0, 0.002221202168515302
227.0, 0.006114002870397713
228.0, 0.011573886798230818
229.0, 0.01881562203171066
230.0, 0.02700069127674962
231.0, 0.03526864632033289
232.0, 0.04284847281642606
233.0, 0.049486219321004186
234.0, 0.056583525013079915
235.0, 0.0641189621822754
236.0, 0.0719557097020683
237.0, 0.08104166583327811
238.0, 0.09159879296651427
239.0, 0.1047310641644151
240.0, 0.12139175846094002
241.0, 0.14185105398148096
242.0, 0.1686611870457822
243.0, 0.19908617014577054
244.0, 0.23197241967902002
245.0, 0.2658771289395718
246.0, 0.2910745056148604
247.0, 0.2934148005656664
248.0, 0.2673983104635275
249.0, 0.22020504294737303
250.0, 0.17055589294527815
251.0, 0.13061686515248494
252.0, 0.10210953307709573
253.0, 0.08214796233635689
254.0, 0.06782478563065487
255.0, 0.05809643193844528
256.0, 0.05065287337093261
257.0, 0.044621548909170604
258.0, 0.039855646547797344
259.0, 0.036320788845386184
260.0, 0.033143353135178764
261.0, 0.030731777749909744
262.0, 0.028705586854395657
263.0, 0.026872310255828258
264.0, 0.025577359941677834
265.0, 0.02454044457758843
266.0, 0.023602644820375766
267.0, 0.022734792457485904
268.0, 0.02195940416778962
269.0, 0.021252078605385333
270.0, 0.02070441966833113
271.0, 0.02021676043650069
272.0, 0.019827095611153388
273.0, 0.01972276592784202
274.0, 0.019960818273760148
275.0, 0.020169093482791882
276.0, 0.019978103239810103
277.0, 0.019236416473104728
278.0, 0.01836434376855086
279.0, 0.017909805156220336
280.0, 0.017222336682760853
281.0, 0.01646163174405136
282.0, 0.016164907535414295
283.0, 0.01605168277924923
284.0, 0.015805439984017042
285.0, 0.016134312234701534
286.0, 0.017042858174127488
287.0, 0.017578082802699707
288.0, 0.017974067564959402
289.0, 0.018969581463088227
290.0, 0.020067782346341042
291.0, 0.02098420272768054
292.0, 0.022612211914369202
293.0, 0.02468090410991218
294.0, 0.027266988513262425
295.0, 0.03056362246650826
296.0, 0.0346862086361765
297.0, 0.039529666551754876
298.0, 0.04493413049827794
299.0, 0.05142478063509345
300.0, 0.05882044181220619
301.0, 0.06649424831388877
302.0, 0.07542050375471264
303.0, 0.08507166817325393
304.0, 0.09550827775688063
305.0, 0.10661606912558359
306.0, 0.11763873502645579
307.0, 0.12908249297977323
308.0, 0.14118904242400987
309.0, 0.15414095318268567
310.0, 0.16764596791348085
311.0, 0.1806774207153143
312.0, 0.19429399412798765
313.0, 0.20891413009672993
314.0, 0.22350145631731055
315.0, 0.23685086954847087
316.0, 0.24917929548521955
317.0, 0.2576744810631861
318.0, 0.26250488012208245
319.0, 0.26313212121124985
320.0, 0.2572665229930244
321.0, 0.2451518004706915
322.0, 0.2280116704769506
323.0, 0.2076487522578433
324.0, 0.18588816585259146
325.0, 0.1640239321826042
326.0, 0.14373610615302715
327.0, 0.12472049248023653
328.0, 0.1076532725026338
329.0, 0.09303049236543474
330.0, 0.07984139089813122
331.0, 0.06854939730352984
332.0, 0.058803984681009
333.0, 0.05032205881164544
334.0, 0.043090814951349476
335.0, 0.036821817706731944
336.0, 0.03153203267352467
337.0, 0.02686573964154285
338.0, 0.02273139908771449
339.0, 0.019241377157009056
340.0, 0.016162300075400936
341.0, 0.013482715019713511
342.0, 0.011252027605516182
343.0, 0.009337119596452509
344.0, 0.007475870147715727
345.0, 0.005978730350759367
346.0, 0.004563550230991742
347.0, 0.003464128560558815
348.0, 0.0027056185704569294
349.0, 0.001651870980303341
350.0, 0.00106476475301247
351.0, 0.0003564666657323006
352.0, 0.00019602437259191548
353.0, 0.0003129924716867824
354.0, 0.0008194407349176469
355.0, 0.0009889231935633184
356.0, 0.0010079783892589826
357.0, 0.0009588917843813172
358.0, 0.0008065643536371933
359.0, 0.0007704981410032966
360.0, 0.0006537470358406112
361.0, 0.0005235307015917344
362.0, 0.0003802807942191015
363.0, 0.00015374944500757154
364.0, 0.00016587734522751773
365.0, 0.00026111833191900044
366.0, 0.00034500362832341704
367.0, 0.000393497591945704
368.0, 0.00017445681450854533
369.0, 0.00023850469806675285
370.0, 0.0007649229072008296
371.0, 0.0012197093845083328
372.0, 0.0013858415819390838
373.0, 0.0011625053367395276
374.0, 0.0010608476241700266
375.0, 0.0010896866578025874
376.0, 0.0008613722992567677
377.0, 0.00033220102654794555
378.0, 0.00010171698745385619
379.0, 0.0006525247458209507
380.0, 0.0014236063667754332
381.0, 0.0021737292108886534
382.0, 0.002909249157510974
383.0, 0.003965458259897053
384.0, 0.004798209844608909
385.0, 0.006016667842895543
386.0, 0.007523085801689479
387.0, 0.00908888092422734
388.0, 0.010791740569718409
389.0, 0.012656760846422527
390.0, 0.014632999708528426
391.0, 0.017033946958714623
392.0, 0.019925616510449804
393.0, 0.022991941414983032
394.0, 0.026832662226898733
395.0, 0.030784841566565826
396.0, 0.03498044085279344
397.0, 0.039716070546790654
398.0, 0.04487885568523027
399.0, 0.05033591852897525
400.0, 0.05582034495017242
401.0, 0.061899291003680246
402.0, 0.06878207235206636
403.0, 0.07596692252323312
404.0, 0.08327678480418765
405.0, 0.09030401281561647
406.0, 0.09740758172894123
407.0, 0.10460851423896919
408.0, 0.11054266179837702
409.0, 0.11537195366168218
410.0, 0.11908801271128545
411.0, 0.12070772819512965
412.0, 0.11971776865182816
413.0, 0.11670399965504684
414.0, 0.11095683604852506
415.0, 0.10354626423479855
416.0, 0.09538497327003005
417.0, 0.08673546290164688
418.0, 0.0776512837756791
419.0, 0.06899434628511605
420.0, 0.061068928576534356
421.0, 0.053452707360259574
422.0, 0.04621333230901678
423.0, 0.03999741835349333
424.0, 0.034571982833044794
425.0, 0.02984258981364464
426.0, 0.025706657578750333
427.0, 0.02195066029052048
428.0, 0.018407140266257217
429.0, 0.015423682472424654
430.0, 0.012912298566297317
431.0, 0.010621819891236242
432.0, 0.008501754941808345
433.0, 0.006679560941091431
434.0, 0.0050509195073784145
435.0, 0.0037918392531338728
436.0, 0.0028656664020035136
437.0, 0.002167912669739427
438.0, 0.0015798132619824618
439.0, 0.0009505775850325727
440.0, 0.0003809300198828819
441.0, 6.0108641829239754e-05
442.0, 0.00014175695452826122
443.0, 8.122014691709959e-05
444.0, 8.448329627489544e-05
445.0, 0.00012526841325702048
446.0, 0.0003831313797607181
447.0, 0.0007698950335943629
448.0, 0.0013794325254474062
449.0, 0.0018839083628110005
450.0, 0.002148551204393305
451.0, 0.002403078884622183
452.0, 0.0026353260549316863
453.0, 0.002734600729631078
454.0, 0.002711253576298851
455.0, 0.0026680279836311417
456.0, 0.0021947704348164575
457.0, 0.0017954945187702107
458.0, 0.0016003729714499828
459.0, 0.0009536306533182293
460.0, 0.0005827086823438127
461.0, 0.00029815404318624003
462.0, 0.00014974357107057026
463.0, 6.980851849911404e-05
464.0, 0.0001640699917500095
465.0, 0.0002315284797758465
466.0, 0.0003333849194051181
467.0, 0.0004912287294557121
468.0, 0.0006000022874790437
469.0, 0.0005171023477435455
470.0, 0.00012468124217336507
471.0, 1.2548969762451894e-05
472.0, 9.651977261485888e-05
473.0, 0.00042367801354517283
474.0, 0.0009815500895336438
475.0, 0.0015968733900138645
476.0, 0.002278657246016272
477.0, 0.0030084906864369597
478.0, 0.004049496094484224
479.0, 0.005376541551054029
480.0, 0.006624716266987261
481.0, 0.008214064032301415
482.0, 0.01025219796333182
483.0, 0.012311842837649668
484.0, 0.014504860501332303
485.0, 0.017279990491502438
486.0, 0.020277341749234783
487.0, 0.02360817980303826
488.0, 0.02713208670646598
489.0, 0.030674748791051757
490.0, 0.03434219564256375
491.0, 0.038638959316372685
492.0, 0.04278870739510144
493.0, 0.04702186106800981
494.0, 0.0514111835670896
495.0, 0.055901751719261504
496.0, 0.060535723096187065
497.0, 0.06540625617065787
498.0, 0.06953652624566381
499.0, 0.07252912794033285
500.0, 0.07443063015811752
501.0, 0.07528803957132303
502.0, 0.07437844467221187
503.0, 0.07180390921584584
504.0, 0.06767098127324617
505.0, 0.062282383135107214
506.0, 0.056130928212934195
507.0, 0.04966552857767005
508.0, 0.043727758302757484
509.0, 0.03829572923287353
510.0, 0.03331111060249981
511.0, 0.028956673800014515
512.0, 0.025533513971775206
513.0, 0.022794618924825365
514.0, 0.020600559333225167
515.0, 0.018944738971276992
516.0, 0.01766515331137139
517.0, 0.016661467000748057
518.0, 0.01639193641394892
519.0, 0.016096954721123297
520.0, 0.01635579635066842
521.0, 0.01687200656551134
522.0, 0.017346475511495426
523.0, 0.018269138217649507
524.0, 0.019604423213027362
525.0, 0.02077900892541565
526.0, 0.022215019874222846
527.0, 0.024112967144703245
528.0, 0.026149911253164994
529.0, 0.028054523607741518
530.0, 0.030146456565221535
531.0, 0.03247551463262749
532.0, 0.034950991172622126
533.0, 0.03744608543549101
534.0, 0.03988321832541137
535.0, 0.04253509861044519
536.0, 0.04476117819379928
537.0, 0.0467099510927599
538.0, 0.048637838648592197
539.0, 0.05058240193472675
540.0, 0.05220071720296499
541.0, 0.05319184420417398
542.0, 0.05355650020832256
543.0, 0.05359764789668623
544.0, 0.05332032760348696
545.0, 0.052191283108731716
546.0, 0.050541638712603726
547.0, 0.04864911378819456
548.0, 0.04592618747972111
549.0, 0.042588329296892755
550.0, 0.039506540758728274
551.0, 0.03653416603517545
552.0, 0.032955423625786996
553.0, 0.029757894399051334
554.0, 0.026779128477806117
555.0, 0.02366223741994966
556.0, 0.02085551367228283
557.0, 0.01847106036351978
558.0, 0.016278044943876073
559.0, 0.014096812751272995
560.0, 0.012026351458667891
561.0, 0.010277615877376918
562.0, 0.008852843703682244
563.0, 0.007270787406836353
564.0, 0.005998014022498356
565.0, 0.004793659817448627
566.0, 0.003559051146932323
567.0, 0.002645888272777802
568.0, 0.001997523848970951
569.0, 0.0015771204946299835
570.0, 0.001102211543015295
571.0, 0.0005914936847359728
572.0, 0.00018495296528417806
573.0, 0.00019158172411792496
574.0, 0.000573600999312843
575.0, 0.0008107875986626866
576.0, 0.0010003163504723309
577.0, 0.0010796391707787228
578.0, 0.0009630511450597367
579.0, 0.0009786889751927062
580.0, 0.0009356642480651749
581.0, 0.0009278878434307687
582.0, 0.0008950009805013265
583.0, 0.0007250493200202498
584.0, 0.00043784049875689066
585.0, 0.0002938715089021061
586.0, 0.0002003210361000869
587.0, 4.776396795837511e-05
588.0, 0.00028765486740276174
589.0, 0.0007371322915446142
590.0, 0.0011519543521175141
591.0, 0.0015673638815952538
592.0, 0.001997486372645994
593.0, 0.0026692102599936707
594.0, 0.00341805315272473
595.0, 0.004012247460893356
596.0, 0.004783137973623683
597.0, 0.00586941437010782
598.0, 0.006856315766807794
599.0, 0.008038782011215799
600.0, 0.00930475767802309
601.0, 0.010365487285744839
602.0, 0.012029221230231138
603.0, 0.013409819326803197
604.0, 0.015123327236371508
605.0, 0.01692881273718008
606.0, 0.018674409254394328
607.0, 0.020714936665724624
608.0, 0.022863568249951272
609.0, 0.025308047840802796
610.0, 0.02802364491785452
611.0, 0.030783637191640588
612.0, 0.03363859272078185
613.0, 0.03693194191934634
614.0, 0.04031747035430894
615.0, 0.04398768619230797
616.0, 0.047884702309189925
617.0, 0.05189139510129389
618.0, 0.056188347292443534
619.0, 0.06107359868247243
620.0, 0.06558584649443365
621.0, 0.07078707038213318
622.0, 0.07635637566954151
623.0, 0.08201439853952608
624.0, 0.08767990176206406
625.0, 0.09330035903367961
626.0, 0.09986166394070646
627.0, 0.10577391281600328
628.0, 0.11157975647552142
629.0, 0.1172631389150505
630.0, 0.12227938176914416
631.0, 0.12700797008515713
632.0, 0.13166900492709552
633.0, 0.1355900062185896
634.0, 0.13819864678725202
635.0, 0.13991365267338735
636.0, 0.14138471563933983
637.0, 0.14248307382938147
638.0, 0.14295849869528413
639.0, 0.14177433715621365
640.0, 0.13957661437476876
641.0, 0.1366660151364879
642.0, 0.13294462296876156
643.0, 0.12900180017926918
644.0, 0.12450626756377227
645.0, 0.1195957032086667
646.0, 0.11452960907114552
647.0, 0.10903544769790237
648.0, 0.10301590183980043
649.0, 0.0976978307172393
650.0, 0.09141564963805206
651.0, 0.08609984883205407
652.0, 0.08107266302124243
653.0, 0.07571721205934817
654.0, 0.070536989438515
655.0, 0.06599478813730293
656.0, 0.06146637692854144
657.0, 0.057211819323500265
658.0, 0.05327658283553568
659.0, 0.049591571487107064
660.0, 0.04617263086063321
661.0, 0.04308623899559396
662.0, 0.039880083266283776
663.0, 0.03711102288045001
664.0, 0.03440399179643731
665.0, 0.03197830882366911
666.0, 0.029981015306118977
667.0, 0.02765737022105053
668.0, 0.025811334956126693
669.0, 0.02403298288147605
670.0, 0.022401098018307256
671.0, 0.02091262828696398
672.0, 0.01945334436607822
673.0, 0.01804493447745594
674.0, 0.016968517525650543
675.0, 0.01602788276144467
676.0, 0.014926014570492507
677.0, 0.013772916735015609
678.0, 0.012771556312767529
679.0, 0.011974760819728916
680.0, 0.01116097146831476
681.0, 0.010286840765354709
682.0, 0.009891869581711803
683.0, 0.009464673616335108
684.0, 0.008685114943983498
685.0, 0.007989883489356886
686.0, 0.007547778696744245
687.0, 0.007139637797968152
688.0, 0.006713916876595639
689.0, 0.006257167727164794
690.0, 0.005877426654254615
691.0, 0.0055480437992640776
692.0, 0.004889758178995481
693.0, 0.004681622498091728
694.0, 0.004258381986738138
695.0, 0.003926451661705418
696.0, 0.0036449336089198914
697.0, 0.003142002474598512
698.0, 0.002747228304914344
699.0, 0.00251953956232497
700.0, 0.0024815804458949457
701.0, 0.0023608897948642934
702.0, 0.0021275192893859323
703.0, 0.0019164510497439646
704.0, 0.001769014038071177
705.0, 0.0014608265021482463
706.0, 0.0013004857332403366
707.0, 0.0010861683236791186
708.0, 0.0008895826547220534
709.0, 0.0008218047429438979
710.0, 0.0007744390602530717
711.0, 0.0005783601223864649
712.0, 0.0005057485203420777
713.0, 0.0004368398671254326
714.0, 0.000304550294273426
715.0, 0.0001916287032232601
716.0, 0.00016895595623126446
717.0, 0.00014532731032274683
718.0, 4.478986222188976e-05
719.0, 4.560264793686983e-05
720.0, 3.055657797351129e-05
721.0, 0.00016851839165816745
722.0, 0.00024933175622154593
723.0, 0.0001866774239412651
724.0, 9.9330851748939e-05
725.0, 0.0001011895161814357
726.0, 0.00023272904001096127
727.0, 0.0002740002853182181
728.0, 0.00022270584344970503
729.0, 0.00025732780137693834
730.0, 0.00029990000861828255
731.0, 0.00038194578036035307
732.0, 0.00040276136247224207
733.0, 0.00013278983898723008
734.0, 0.00027397395912220473
735.0, 0.00027755097646396513
736.0, 0.00022171157201073417
737.0, 0.0002781226450310294
738.0, 0.00022114512664083393
739.0, 0.00021694170958940507
740.0, 0.00017640726246626664
741.0, 0.00018328834934103511
742.0, 0.0003202604860025875
743.0, 0.0002724349178493505
744.0, 0.0001223793228788496
745.0, 1.1114562136766452e-05
746.0, 1.9458564288470157e-05
747.0, 0.00010138221085588858
748.0, 7.417809724491841e-05
749.0, 0.00014451566819036467
750.0, 2.923342124002434e-05
751.0, 2.7556629351293324e-05
752.0, 0.00013887522757259185
753.0, 0.00013762372487894687
754.0, 0.00011821048289840358
755.0, 0.00021395116349711787
756.0, 0.00020493790178357672
757.0, 0.00016630343712353184
758.0, 0.00022749596261081772
759.0, 0.000247908047247826
760.0, 0.00030065975242597336
761.0, 0.00043932170827851196
762.0, 0.0005385686479533788
763.0, 0.0005144098295627175
764.0, 0.0004285145326475104
765.0, 0.0004682943213953927
766.0, 0.00047191252684085605
767.0, 0.000396687428339161
768.0, 0.0003791284643165189
769.0, 0.0005384323977502691
770.0, 0.0006496337094663171
771.0, 0.0006034872452081294
772.0, 0.000615333914754027
773.0, 0.000632740513679897
774.0, 0.0005839201681999542
775.0, 0.0005379649638043332
776.0, 0.0006013158576513279
777.0, 0.000610859608742092
778.0, 0.0005506477280753049
779.0, 0.0005794840930894267
780.0, 0.0005079668098982139
781.0, 0.00044681048081004706
782.0, 0.0005772465870140219
783.0, 0.000523358668413169
784.0, 0.0007500579867402447
785.0, 0.0006105493324510884
786.0, 0.0005926267948284767
787.0, 0.0006059390792378792
788.0, 0.000505107164122084
789.0, 0.0004977139895139932
790.0, 0.0005971356587636266
791.0, 0.0005327893906202915
792.0, 0.0006404551951014853
793.0, 0.000666549727487087
794.0, 0.000629077584721604
795.0, 0.0006434138047148296
796.0, 0.0006544481020506309
797.0, 0.0006375172872150088
798.0, 0.000649584716045653
799.0, 0.0006473364183506185
800.0, 0.0006378258831684497
801.0, 0.0005984086263829213
802.0, 0.0005937057868713587
803.0, 0.0006916672573690454
804.0, 0.0006829939676687736
805.0, 0.0007214258472408531
806.0, 0.0008312161527607747
807.0, 0.0007401662491159593
808.0, 0.0007179491612256942
809.0, 0.0008498769157429471
810.0, 0.0007703811961734022
811.0, 0.0007801665953175093
812.0, 0.0007595155807014779
813.0, 0.0007014345320781442
814.0, 0.0006743311028042116
815.0, 0.000642168398472016
816.0, 0.000650463070189265
817.0, 0.0007173895796276117
818.0, 0.0005585343713229632
819.0, 0.00046664891014830704
820.0, 0.0004588075062545117
821.0, 0.0005206055325984783
822.0, 0.0005183793784465255
823.0, 0.0004469141312992499
824.0, 0.00044820852901029517
825.0, 0.00047732878893733675
826.0, 0.0003416439840200505
827.0, 0.00039562070114358325
828.0, 0.000422771063644269
829.0, 0.0004325434906542264
830.0, 0.00047721066566741246
831.0, 0.0004890435727639404
832.0, 0.000489425396655235
833.0, 0.0003960808909221846
834.0, 0.000362239419901693
835.0, 0.0003842096871510577
836.0, 0.0004139103582178525
837.0, 0.0004348425819706398
838.0, 0.00040749632660611404
839.0, 0.0003272284506219141
840.0, 0.00041939672481133237
841.0, 0.0003991744168108208
842.0, 0.0003730895150878531
843.0, 0.0003799609551184786
844.0, 0.00045040364706512863
845.0, 0.0004734969094822564
846.0, 0.000325817457211267
847.0, 0.0004935544797704084
848.0, 0.0005436721781129192
849.0, 0.00036556577099352156
850.0, 0.0002494059749332941
851.0, 0.0002853529482734797
852.0, 0.0003264403974791067
853.0, 0.0002507843549642195
854.0, 0.00030612980666398543
855.0, 0.00022151058862632773
856.0, 0.00026937704753046227
857.0, 0.00030181361348957734
858.0, 0.0003219516783147643
859.0, 0.0003419301723592272
860.0, 0.0003111481132023419
861.0, 0.0003005141515270289
862.0, 0.00021218689476228011
863.0, 0.0002684322645023767
864.0, 0.00024566593807925295
865.0, 0.0001502578342090728
866.0, 0.00014028738214217853
867.0, 0.00021579725063566123
868.0, 0.0001784227625023819
869.0, 0.0001635218598986874
870.0, 0.00020081195300084242
871.0, 0.0002689172140653223
872.0, 0.00028009185780216724
873.0, 0.00015946197874450074
874.0, 7.796656674737622e-05
875.0, 0.00016860845891986437
876.0, 0.0001452506823981802
877.0, 0.00015458639322175763
878.0, 9.952960957626294e-05
879.0, 8.887321923531106e-05
880.0, 0.00013978024909269422
881.0, 0.00018219366010643052
882.0, 0.00016361048153895087
883.0, 0.00010010056970070678
884.0, 3.3489689705311354e-05
885.0, 8.550243451343552e-05
886.0, 6.845359563731774e-05
887.0, 5.475745066986796e-05
888.0, 5.041238276585427e-05
889.0, 6.559327653638356e-05
890.0, 0.000127876114978444
891.0, 0.00011355987549444314
892.0, 4.1388526781850783e-05
893.0, 2.1953276175570255e-05
894.0, 4.083306338198867e-05
895.0, 3.328683004400973e-05
896.0, 0.00014099779013410888
897.0, 0.00011873686372072997
898.0, 7.139075040893041e-05
899.0, 0.00013788423410879524
900.0, 7.853901108929779e-05
901.0, 5.59911617839783e-05
902.0, 7.99736977937201e-05
903.0, 4.8843927623193184e-05
904.0, 1.0223466456325283e-05
905.0, 2.89896292025005e-05
906.0, 5.8906824497120685e-05
907.0, 0.00014603560952116768
908.0, 9.741135343895561e-05
909.0, 0.00010936567225567408
910.0, 0.00017303255465341436
911.0, 0.00023175581069201368
912.0, 0.00025125158742546826
913.0, 0.00021878659119043775
914.0, 0.00019132717992548844
915.0, 0.0003278837993541363
916.0, 0.00023733776384934693
917.0, 0.00030736567690748567
918.0, 0.0003568689692363578
919.0, 0.0003481994134980282
920.0, 0.0003311653364409119
921.0, 0.0003285875006067044
922.0, 0.0003801935030641185
923.0, 0.00039527746761670445
924.0, 0.00036061099310476485
925.0, 0.0003438591155315969
926.0, 0.0003620459445322312
927.0, 0.00040029428382884084
928.0, 0.00042468178999916943
929.0, 0.00040851824976587445
930.0, 0.00037114933934391634
931.0, 0.00038781409834479595
932.0, 0.0005043489633562549
933.0, 0.00044083248240059614
934.0, 0.00034358199854099786
935.0, 0.0003416452647557428
936.0, 0.00040305367251148205
937.0, 0.000422280443128485
938.0, 0.0003694944378463732
939.0, 0.00033912711657693625
940.0, 0.00032162792505169513
941.0, 0.0002593083770044284
942.0, 0.00021023914133709386
943.0, 0.00029045990716842677
944.0, 0.0004042664643971632
945.0, 0.0003724451128399256
946.0, 0.00021017394572541546
947.0, 0.00020959565267767726
948.0, 0.0002090745733976318
949.0, 0.00018785475858209522
950.0, 0.00021959607682116365
951.0, 0.0002169054757728162
952.0, 0.00018594105600049427
953.0, 0.000204870165763101
954.0, 0.00021677344538804127
955.0, 0.00016083483263370097
956.0, 0.00020681467936539645
957.0, 0.0001048418010795131
958.0, 2.2919426348828477e-05
959.0, 4.991717379421484e-05
960.0, 7.93123783760622e-05
961.0, 5.7905409659728464e-05
962.0, 3.849002617946437e-05
963.0, 2.999906089391202e-05
964.0, 1.487442015946184e-05
965.0, 7.280368180420476e-05
966.0, 6.0636778854538786e-05
967.0, 3.0036467363223285e-05
968.0, 7.356488290949e-05
969.0, 8.838369797082267e-05
970.0, 2.5789207883801387e-06
971.0, 1.4603326897032988e-05
972.0, 4.95141546978737e-05
973.0, 7.108163880444331e-05
974.0, 0.00012089910591394388
975.0, 3.928346732832604e-05
976.0, 1.4166362494528146e-05
977.0, 3.283586188739368e-05
978.0, 2.922059197909131e-05
979.0, 3.6713394298336615e-05
980.0, 7.947511987544744e-05
981.0, 4.861001118891382e-05
982.0, 3.0566411839859896e-05
983.0, 7.157754074420122e-05
984.0, 5.394241566765347e-05
985.0, 3.173351421188283e-05
986.0, 1.89828897251046e-05
987.0, 7.149183116882531e-06
988.0, 2.6197702440661546e-05
989.0, 9.445749583603565e-05
990.0, 3.936515869379367e-05
991.0, 3.437956839989641e-05
992.0, 2.3576379444049494e-05
993.0, 1.65459244632358e-05
994.0, 5.7063017354466773e-05
995.0, 4.9259603970352576e-05
996.0, 2.6829091990527496e-06
997.0, 1.6597927509237204e-05
998.0, 4.500350729583074e-06
999.0, 3.0093653753117926e-06
1000.0, 3.304267101901064e-05
1001.0, 1.4508280580496903e-05
1002.0, 2.3188793122490852e-05
1003.0, 3.4877446964855256e-05
1004.0, 8.85873353568571e-05
1005.0, 3.190969937225041e-05
1006.0, 9.17245442209669e-06
1007.0, 7.328348683291974e-05
1008.0, 1.2750361589082754e-05
1009.0, 2.461766528251427e-05
1010.0, 5.468761997830269e-05
1011.0, 3.0287665621411223e-05
1012.0, 3.098313967041689e-05
1013.0, 5.3202620593813063e-05
1014.0, 1.4251259161444356e-05
1015.0, 7.779458142086648e-05
1016.0, 5.135339195007951e-05
1017.0, 0.00015845500544152492
1018.0, 7.515718350889392e-05
1019.0, 7.445783242898548e-05
1020.0, 0.00010272954237220394
1021.0, 7.84700531951868e-05
1022.0, 6.537010281372094e-05
1023.0, 4.9648114441175296e-05
1024.0, 6.208044339088014e-05
1025.0, 6.276878390658082e-05
1026.0, 7.451166049622144e-05
1027.0, 8.936675642168343e-05
1028.0, 4.172405379276624e-05
1029.0, 4.7395701341810964e-05
1030.0, 8.33233539554319e-05
1031.0, 3.510781793878621e-05
1032.0, 3.321709069620667e-05
1033.0, 2.8901427498152038e-05
1034.0, 3.596453063514413e-05
1035.0, 8.429747409654986e-05
1036.0, 2.7191855140149922e-05
1037.0, 0.00011419262865562655
1038.0, 0.00013480544479743228
1039.0, 6.006273480544645e-05
1040.0, 6.16684534082765e-05
1041.0, 9.464854493800498e-05
1042.0, 1.6222867052695017e-05
1043.0, 7.619922956763204e-05
1044.0, 7.359058252410066e-05
1045.0, 7.346158280662621e-05
1046.0, 6.105273177159513e-05
1047.0, 5.7140935053208024e-05
1048.0, 6.115046158021777e-05
1049.0, 3.521656073787895e-05
1050.0, 1.2494434423591277e-06
1051.0, 3.108211778523134e-05
1052.0, 0.00010484943980154442
1053.0, 8.734355669739318e-06
1054.0, 8.649119774810367e-05
1055.0, 0.0001580119836980206
1056.0, 0.00013795043118698902
1057.0, 0.00011680087418418939
1058.0, 0.00010612550214363813
1059.0, 7.227143986004894e-05
1060.0, 6.979315303949777e-05
1061.0, 0.00013151405190694982
1062.0, 5.263902657740332e-05
1063.0, 0.00011410447493462265
1064.0, 0.00010329416100629025
1065.0, 8.848529513561972e-05
1066.0, 9.888452590750394e-05
1067.0, 0.0001393373841962531
1068.0, 0.00016119867633799896
1069.0, 0.00012398105447032485
1070.0, 0.00010308837135867641
1071.0, 0.00014811003516244386
1072.0, 0.00016438165918086718
1073.0, 0.00010705117414797613
1074.0, 0.00013050059664325203
1075.0, 0.00013753823553521946
1076.0, 0.000203060798908578
1077.0, 0.0001742826099946583
1078.0, 0.00010813134877236792
1079.0, 0.00018925806321280883
1080.0, 0.00019558868137884054
1081.0, 0.00010670892361692882
1082.0, 4.588514822611558e-05
1083.0, 0.00010055404331565492
1084.0, 9.836034329263717e-05
1085.0, 0.00010453478231416215
1086.0, 9.448325246889674e-05
1087.0, 7.003832953025967e-05
1088.0, 7.441049212760629e-05
1089.0, 8.111945687244674e-05
1090.0, 8.338531644372917e-05
1091.0, 0.00016930930569525205
1092.0, 0.00010520402264147817
1093.0, 3.4043472709181036e-05
1094.0, 8.190466685404527e-05
1095.0, 9.124830452231011e-05
1096.0, 9.363280089105058e-05
1097.0, 7.096721929121514e-05
1098.0, 7.58166690344748e-05
1099.0, 0.0001105437577318254
1100.0, 1.426817853473804e-05
1101.0, 4.509153433204937e-05
1102.0, 6.840540537381738e-05
1103.0, 9.588258746602015e-05
1104.0, 2.5922154887350257e-05
1105.0, 7.458158094018403e-05
1106.0, 4.629630600458637e-05
1107.0, 2.000679794135087e-05
1108.0, 1.0643304294802475e-05
1109.0, 4.00443027533527e-05
1110.0, 5.561828105051844e-06
1111.0, 3.816149352206578e-05
1112.0, 8.28892782824638e-05
1113.0, 0.0001338190935990429
1114.0, 8.038579635322749e-05
1115.0, 5.072907659117077e-05
1116.0, 3.300955148484908e-05
1117.0, 3.788280739680207e-05
1118.0, 1.4880563632331744e-05
1119.0, 7.869507013736832e-05
1120.0, 0.00014276322248561014
1121.0, 9.62158771120377e-05
1122.0, 8.921122129891068e-05
1123.0, 8.002428180267429e-05
1124.0, 5.813829865740038e-05
1125.0, 4.6289336361591056e-05
1126.0, 4.2109128632184764e-05
1127.0, 8.65245240653294e-05
1128.0, 9.32891881201677e-05
1129.0, 7.602428801624368e-05
1130.0, 0.0001176759796391978
1131.0, 0.0001550066799574934
1132.0, 0.00011547029831482608
1133.0, 7.134334073147592e-05
1134.0, 9.86742115087075e-05
1135.0, 0.0001162352362583476
1136.0, 0.00013742232901608464
1137.0, 0.0001110431134316904
1138.0, 9.346742672829e-05
1139.0, 9.184981298560152e-05
1140.0, 6.39619086535854e-05
1141.0, 7.26525740534427e-05
1142.0, 0.00013395642991530305
1143.0, 0.00010524157349307717
1144.0, 0.00013700106188430143
1145.0, 0.00011298654583107345
1146.0, 0.00010078085737589103
1147.0, 0.00011087565381734439
1148.0, 9.53520851475645e-05
1149.0, 6.902565560818564e-05
1150.0, 5.833698044736012e-05
1151.0, 5.92939991279994e-05
1152.0, 9.775538619237905e-05
1153.0, 0.00014704413068185126
1154.0, 8.11537902783754e-05
1155.0, 9.607258005900018e-05
1156.0, 5.381106389143532e-05
1157.0, 8.802008243114333e-05
1158.0, 8.18816897531101e-05
1159.0, 2.5245383417436055e-05
1160.0, 6.824600242213417e-05
1161.0, 0.00010333878784285818
1162.0, 7.01116414294375e-05
1163.0, 4.7116404737327245e-05
1164.0, 5.5735186054180344e-05
1165.0, 0.0001060389252379434
1166.0, 0.0001379269910271462
1167.0, 0.00011503654855839104
1168.0, 0.00011012749881487238
1169.0, 8.30428287665123e-05
1170.0, 5.590999531570913e-05
1171.0, 8.442580109152621e-05
1172.0, 6.169783187686121e-05
1173.0, 8.871265492138282e-05
1174.0, 0.00012064813410268791
1175.0, 2.271096208208812e-05
1176.0, 1.7827502689478833e-05
1177.0, 8.058828453935426e-05
1178.0, 6.955236936512917e-05
1179.0, 3.419970824922071e-05
1180.0, 2.655089856875301e-05
1181.0, 2.7688246202587692e-05
1182.0, 6.080443127542653e-05
1183.0, 5.276728510475994e-05
1184.0, 5.489087016948216e-05
1185.0, 6.504578340267598e-05
1186.0, 3.4810616750275966e-05
1187.0, 8.479109674729464e-06
1188.0, 2.7343689016862793e-05
1189.0, 4.4210028840879594e-05
1190.0, 9.917099272416253e-05
1191.0, 5.8919183484249715e-05
1192.0, 4.303103197350677e-05
1193.0, 3.5568871985414365e-05
1194.0, 5.4398745817544554e-05
1195.0, 6.478575136107138e-05
1196.0, 1.3790681547687819e-05
1197.0, 2.3203215705868553e-05
1198.0, 7.417368463606667e-05
1199.0, 3.740024066931258e-05
1200.0, 3.149853760922368e-06
1201.0, 9.668118076705721e-05
1202.0, 6.21112938473744e-05
1203.0, 0.00010691005391558481
1204.0, 1.3905876636110042e-05
1205.0, 7.118567911796262e-05
1206.0, 0.00011548834528338426
1207.0, 7.872516834447161e-05
1208.0, 0.0001034071698353393
1209.0, 8.560903712257274e-05
1210.0, 2.719313049016041e-05
1211.0, 1.344975397444286e-05
1212.0, 9.43511480376699e-06
1213.0, 6.43108786900666e-05
1214.0, 6.778200867641817e-05
1215.0, 2.258799251788736e-05
1216.0, 1.6938058741402285e-05
1217.0, 6.512093052411375e-05
1218.0, 7.253741991540639e-05
1219.0, 0.00010556664027822718
1220.0, 0.0001024850519483263
1221.0, 7.487387040443089e-05
1222.0, 7.920875892033682e-05
1223.0, 7.245420041984959e-05
1224.0, 7.951574137661e-05
1225.0, 0.00013607984804211705
1226.0, 0.0001076922834844216
1227.0, 0.00014912436079933986
1228.0, 0.00014153656512051947
1229.0, 6.271325039194078e-05
1230.0, 4.215128684585946e-05
1231.0, 6.117972811578165e-05
1232.0, 6.687638118967165e-05
1233.0, 9.337360149739966e-05
1234.0, 8.66966195649929e-05
1235.0, 8.222507866933963e-05
1236.0, 0.00010012733658152144
1237.0, 0.00011862865050745226
1238.0, 0.00013178016277274305
1239.0, 4.403265124461893e-05
1240.0, 9.641239347999593e-05
1241.0, 0.00012749309640576679
1242.0, 7.956224018308679e-05
1243.0, 0.00012280452910444652
1244.0, 4.858433156922351e-05
1245.0, 7.02498883887536e-05
1246.0, 9.901574875152038e-05
1247.0, 9.177349664839681e-05
1248.0, 8.976415874706519e-05
1249.0, 6.9462687017176e-05
1250.0, 7.017877733602708e-05
1251.0, 0.00011653051299987667
1252.0, 8.731479124188173e-05
1253.0, 2.44082306544621e-05
1254.0, 2.2712423217844127e-05
1255.0, 3.0021352045295784e-05
1256.0, 9.480288528005581e-05
1257.0, 9.832107503990766e-05
1258.0, 9.325265089754411e-05
1259.0, 0.00012263456194990454
1260.0, 6.551834793958843e-05
1261.0, 3.7855989777081315e-05
1262.0, 3.33602683895314e-05
1263.0, 3.0347098447043966e-05
1264.0, 4.884347723029149e-05
1265.0, 2.6563968428376797e-05
1266.0, 1.3275380964698031e-05
1267.0, 1.3070130092772658e-05
1268.0, 4.999326167933313e-05
1269.0, 4.914450667235597e-05
1270.0, 9.43409267151893e-05
1271.0, 5.198908311275468e-05
1272.0, 3.957999991717628e-05
1273.0, 4.437106122729e-05
1274.0, 1.6718088395813867e-05
1275.0, 6.659212246863712e-06
1276.0, 1.8694956617169685e-05
1277.0, 5.1395544216480405e-05
1278.0, 7.367013562876922e-05
1279.0, 6.85718123502442e-05
1280.0, 1.0569597804386864e-06
1281.0, 7.858734310902796e-06
1282.0, 5.4189666232619636e-05
1283.0, 5.659785889553703e-05
1284.0, 6.52370502568431e-05
1285.0, 3.267454650888806e-05
1286.0, 4.7501507952045705e-05
1287.0, 6.451331880926201e-05
1288.0, 2.2074649981808006e-05
1289.0, 6.409595687002444e-06
1290.0, 2.641713206674852e-05
1291.0, 5.3378418049662246e-05
1292.0, 6.127850775142073e-05
1293.0, 5.278311988463254e-05
1294.0, 4.215115423052631e-05
1295.0, 1.8108506357954227e-05
1296.0, 3.13917835272735e-05
1297.0, 4.65765977458939e-05
1298.0, 8.307368697688876e-05
1299.0, 4.549984966859222e-05
1300.0, 2.2100001933603595e-05
1301.0, 2.7122725461124733e-06
1302.0, 1.74714108101291e-05
1303, 0.0
1304, 0.0
1305, 0.0
1306, 0.0
1307, 0.0
1308, 0.0
1309, 0.0
1310, 0.0
1311, 0.0
1312, 0.0
1313, 0.0
1314, 0.0
1315, 0.0
1316, 0.0
1317, 0.0
1318, 0.0
1319, 0.0
1320, 0.0
1321, 0.0
1322, 0.0
1323, 0.0
1324, 0.0
1325, 0.0
1326, 0.0
1327, 0.0
1328, 0.0
1329, 0.0
1330, 0.0
1331, 0.0
1332, 0.0
1333, 0.0
1334, 0.0
1335, 0.0
1336, 0.0
1337, 0.0
1338, 0.0
1339, 0.0
1340, 0.0
1341, 0.0
1342, 0.0
1343, 0.0
1344, 0.0
1345, 0.0
1346, 0.0
1347, 0.0
1348, 0.0
1349, 0.0
1350, 0.0
1351, 0.0
1352, 0.0
1353, 0.0
1354, 0.0
1355, 0.0
1356, 0.0
1357, 0.0
1358, 0.0
1359, 0.0
1360, 0.0
1361, 0.0
1362, 0.0
1363, 0.0
1364, 0.0
1365, 0.0
1366, 0.0
1367, 0.0
1368, 0.0
1369, 0.0
1370, 0.0
1371, 0.0
1372, 0.0
1373, 0.0
1374, 0.0
1375, 0.0
1376, 0.0
1377, 0.0
1378, 0.0
1379, 0.0
1380, 0.0
1381, 0.0
1382, 0.0
1383, 0.0
1384, 0.0
1385, 0.0
1386, 0.0
1387, 0.0
1388, 0.0
1389, 0.0
1390, 0.0
1391, 0.0
1392, 0.0
1393, 0.0
1394, 0.0
1395, 0.0
1396, 0.0
1397, 0.0
1398, 0.0
1399, 0.0
1400, 0.0
1401, 0.0
1402, 0.0
1403, 0.0
1404, 0.0
1405, 0.0
1406, 0.0
1407, 0.0
1408, 0.0
1409, 0.0
1410, 0.0
1411, 0.0
1412, 0.0
1413, 0.0
1414, 0.0
1415, 0.0
1416, 0.0
1417, 0.0
1418, 0.0
1419, 0.0
1420, 0.0
1421, 0.0
1422, 0.0
1423, 0.0
1424, 0.0
1425, 0.0
1426, 0.0
1427, 0.0
1428, 0.0
1429, 0.0
1430, 0.0
1431, 0.0
1432, 0.0
1433, 0.0
1434, 0.0
1435, 0.0
1436, 0.0
1437, 0.0
1438, 0.0
1439, 0.0
1440, 0.0
1441, 0.0
1442, 0.0
1443, 0.0
1444, 0.0
1445, 0.0
1446, 0.0
1447, 0.0
1448, 0.0
1449, 0.0
1450, 0.0
1451, 0.0
1452, 0.0
1453, 0.0
1454, 0.0
1455, 0.0
1456, 0.0
1457, 0.0
1458, 0.0
1459, 0.0
1460, 0.0
1461, 0.0
1462, 0.0
1463, 0.0
1464, 0.0
1465, 0.0
1466, 0.0
1467, 0.0
1468, 0.0
1469, 0.0
1470, 0.0
1471, 0.0
1472, 0.0
1473, 0.0
1474, 0.0
1475, 0.0
1476, 0.0
1477, 0.0
1478, 0.0
1479, 0.0
1480, 0.0
1481, 0.0
1482, 0.0
1483, 0.0
1484, 0.0
1485, 0.0
1486, 0.0
1487, 0.0
1488, 0.0
1489, 0.0
1490, 0.0
1491, 0.0
1492, 0.0
1493, 0.0
1494, 0.0
1495, 0.0
1496, 0.0
1497, 0.0
1498, 0.0
1499, 0.0
1500, 0.0
1501, 0.0
1502, 0.0
1503, 0.0
1504, 0.0
1505, 0.0
1506, 0.0
1507, 0.0
1508, 0.0
1509, 0.0
1510, 0.0
1511, 0.0
1512, 0.0
1513, 0.0
1514, 0.0
1515, 0.0
1516, 0.0
1517, 0.0
1518, 0.0
1519, 0.0
1520, 0.0
1521, 0.0
1522, 0.0
1523, 0.0
1524, 0.0
1525, 0.0
1526, 0.0
1527, 0.0
1528, 0.0
1529, 0.0
1530, 0.0
1531, 0.0
1532, 0.0
1533, 0.0
1534, 0.0
1535, 0.0
1536, 0.0
1537, 0.0
1538, 0.0
1539, 0.0
1540, 0.0
1541, 0.0
1542, 0.0
1543, 0.0
1544, 0.0
1545, 0.0
1546, 0.0
1547, 0.0
1548, 0.0
1549, 0.0
1550, 0.0
1551, 0.0
1552, 0.0
1553, 0.0
1554, 0.0
1555, 0.0
1556, 0.0
1557, 0.0
1558, 0.0
1559, 0.0
1560, 0.0
1561, 0.0
1562, 0.0
1563, 0.0
1564, 0.0
1565, 0.0
1566, 0.0
1567, 0.0
1568, 0.0
1569, 0.0
1570, 0.0
1571, 0.0
1572, 0.0
1573, 0.0
1574, 0.0
1575, 0.0
1576, 0.0
1577, 0.0
1578, 0.0
1579, 0.0
1580, 0.0
1581, 0.0
1582, 0.0
1583, 0.0
1584, 0.0
1585, 0.0
1586, 0.0
1587, 0.0
1588, 0.0
1589, 0.0
1590, 0.0
1591, 0.0
1592, 0.0
1593, 0.0
1594, 0.0
1595, 0.0
1596, 0.0
1597, 0.0
1598, 0.0
1599, 0.0
