30, 0.0
31, 0.0
32, 0.0
33, 0.0
34, 0.0
35, 0.0
36, 0.0
37, 0.0
38, 0.0
39, 0.0
40, 0.0
41, 0.0
42, 0.0
43, 0.0
44, 0.0
45, 0.0
46, 0.0
47, 0.0
48, 0.0
49, 0.0
50, 0.0
51, 0.0
52, 0.0
53, 0.0
54, 0.0
55, 0.0
56, 0.0
57, 0.0
58, 0.0
59, 0.0
60, 0.0
61, 0.0
62, 0.0
63, 0.0
64, 0.0
65, 0.0
66, 0.0
67, 0.0
68, 0.0
69, 0.0
70, 0.0
71, 0.0
72, 0.0
73, 0.0
74, 0.0
75, 0.0
76, 0.0
77, 0.0
78, 0.0
79, 0.0
80, 0.0
81, 0.0
82, 0.0
83, 0.0
84, 0.0
85, 0.0
86, 0.0
87, 0.0
88, 0.0
89, 0.0
90, 0.0
91, 0.0
92, 0.0
93, 0.0
94, 0.0
95, 0.0
96, 0.0
97, 0.0
98, 0.0
99, 0.0
100.0, 0.0005056723255493852
101.0, 0.007195915807895001
102.0, 0.01308272564888679
103.0, 0.008475201009620948
104.0, 0.007727826093626306
105.0, 0.0013547407557537037
106.0, 0.006112798087283489
107.0, 0.00661920648044119
108.0, 0.0015810076072832007
109.0, 0.011978153219831467
110.0, 0.009700215023398122
111.0, 0.003688188463885888
112.0, 0.0056059031174574845
113.0, 0.019596381266523424
114.0, 0.04492503498486945
115.0, 0.06741386018132246
116.0, 0.086454370040838
117.0, 0.09552118686752305
118.0, 0.0987876365414042
119.0, 0.09837080578754172
120.0, 0.10087494609688391
121.0, 0.11416212035767946
122.0, 0.13922836322187887
123.0, 0.1745253379199117
124.0, 0.224684533417245
125.0, 0.2944453833970883
126.0, 0.3908581784501144
127.0, 0.4781938765438329
128.0, 0.5443651198297135
129.0, 0.6109378149031242
130.0, 0.7331532344190594
131.0, 0.8876613814857075
132.0, 0.9792012816465625
133.0, 0.9923189535286742
134.0, 0.9734706532020072
135.0, 0.9908600526139636
136.0, 0.9998687736314473
137.0, 0.9698374429003892
138.0, 0.8808223556681029
139.0, 0.7617063601685502
140.0, 0.6760789972751348
141.0, 0.6371426695387906
142.0, 0.634575257186055
143.0, 0.647259187411139
144.0, 0.6869177121114513
145.0, 0.7388215376024343
146.0, 0.7871674877347379
147.0, 0.8337696238661316
148.0, 0.9130301289501852
149.0, 0.9658392913671638
150.0, 0.9812243380974993
151.0, 0.9745660439931767
152.0, 0.9624947485643023
153.0, 0.9459699400757021
154.0, 0.8911790762157975
155.0, 0.8160209715217066
156.0, 0.785555357429137
157.0, 0.7490552509581513
158.0, 0.7208253950827376
159.0, 0.7283772696525217
160.0, 0.7725783282374132
161.0, 0.7655077849310602
162.0, 0.7441407302879397
163.0, 0.6978283281728086
164.0, 0.6303328445089728
165.0, 0.5999234494704363
166.0, 0.5513952144450891
167.0, 0.5044431917212705
168.0, 0.46912457024146487
169.0, 0.43914652145948785
170.0, 0.41718568965758884
171.0, 0.39324395499310333
172.0, 0.37239850320817564
173.0, 0.3621205360018113
174.0, 0.3580653838223775
175.0, 0.3000733239100945
176.0, 0.26026477244015955
177.0, 0.2545490208637503
178.0, 0.24440308047012657
179.0, 0.23606986680441006
180.0, 0.2219088976335579
181.0, 0.20590010827713526
182.0, 0.19197664972106926
183.0, 0.17330255739902198
184.0, 0.1720186487642382
185.0, 0.16960818874400901
186.0, 0.15805066556816627
187.0, 0.14500078461586785
188.0, 0.13449666749658684
189.0, 0.13291920786347672
190.0, 0.13259747476336087
191.0, 0.12113959652505782
192.0, 0.08994569902073021
193.0, 0.08837389026112344
194.0, 0.08003584822738097
195.0, 0.06728276821617123
196.0, 0.0781574407256811
197.0, 0.0852391918802428
198.0, 0.08294578736483271
199.0, 0.07552166380365297
200.0, 0.06965173441667721
201.0, 0.07395622906601268
202.0, 0.0754556807290774
203.0, 0.07846092952456887
204.0, 0.08024449982692114
205.0, 0.0731091554203915
206.0, 0.05915076539000281
207.0, 0.048974685433127454
208.0, 0.045230926378263196
209.0, 0.044386074061965125
210.0, 0.03909860684084382
211.0, 0.03465486517134916
212.0, 0.02760456897091332
213.0, 0.0171233030954759
214.0, 0.008656862278212234
215.0, 0.012043376109274166
216.0, 0.02296369465822304
217.0, 0.022932861750085954
218.0, 0.012646460910449363
219.0, 0.009577896578566747
220.0, 0.01594719879182743
221.0, 0.015978161127784565
222.0, 0.01438125517596125
223.0, 0.016576267623047602
224.0, 0.01355800254375758
225.0, 0.004066494669334971
226.0, 0.0037682138691027623
227.0, 0.0053770612525997534
228.0, 0.004144993644793957
229.0, 0.003696205142681173
230.0, 0.005996733784172892
231.0, 0.007262417181365138
232.0, 0.0026324711195446124
233.0, 0.0066468416647518114
234.0, 0.0018849473104090187
235.0, 0.0029653128369916317
236.0, 0.002237547599084739
237.0, 0.008464732982104355
238.0, 0.011662917484681257
239.0, 0.013358299947577406
240.0, 0.010871166017924757
241.0, 0.005805322346488408
242.0, 0.00421803736113489
243.0, 0.01626939954830131
244.0, 0.01019996944122126
245.0, 0.0007505966052545234
246.0, 0.0029332063856094023
247.0, 0.0016800381641952815
248.0, 0.0004462999319167382
249.0, 0.0012543642271507058
250.0, 0.0033126950616175904
251.0, 0.003582223552618141
252.0, 0.01858366363188372
253.0, 0.021421681062792762
254.0, 0.012428714023623385
255.0, 0.014647867274153226
256.0, 0.03178699639120456
257.0, 0.0176032917023213
258.0, 0.009465666457157119
259.0, 0.015338652845770254
260.0, 0.0259309041757364
261.0, 0.031617529654299786
262.0, 0.037249934871630606
263.0, 0.032627808745769926
264.0, 0.03488465861353029
265.0, 0.045188496433309806
266.0, 0.04528607228016648
267.0, 0.048457595158431545
268.0, 0.04976875378540634
269.0, 0.05533463726892905
270.0, 0.06790646983027747
271.0, 0.07256296332606955
272.0, 0.07264824422401016
273.0, 0.07271419970744271
274.0, 0.07494806428129026
275.0, 0.0827537714824215
276.0, 0.10068147880761265
277.0, 0.0923437870991004
278.0, 0.0873175434640858
279.0, 0.09285914045378715
280.0, 0.09238695277554511
281.0, 0.10335734718934694
282.0, 0.11662656404193938
283.0, 0.12201910567328167
284.0, 0.12167878617557064
285.0, 0.12501506573658197
286.0, 0.1393308002783201
287.0, 0.12730793881512648
288.0, 0.11012610871777426
289.0, 0.10769948047200924
290.0, 0.11473730322234263
291.0, 0.09750341571747966
292.0, 0.08475572056037839
293.0, 0.08014650362347481
294.0, 0.07616561965169064
295.0, 0.06903130580688403
296.0, 0.054952525994259954
297.0, 0.04987324446669781
298.0, 0.05568959976771087
299.0, 0.06435985118564756
300.0, 0.06319794720335024
301.0, 0.05186205817395961
302.0, 0.04869411203423343
303.0, 0.06354437217045057
304.0, 0.08083106576570896
305.0, 0.06591841713952869
306.0, 0.06561435231239533
307.0, 0.07174356855516043
308.0, 0.0827175105186917
309.0, 0.09782983274279924
310.0, 0.09511263666771012
311.0, 0.09822026517883568
312.0, 0.11270122939785596
313.0, 0.1275705783905578
314.0, 0.12987307344077448
315.0, 0.1326521064731475
316.0, 0.1442550843983809
317.0, 0.156246596907515
318.0, 0.1663094924093588
319.0, 0.1755003010118235
320.0, 0.17804698600629237
321.0, 0.19094226236674056
322.0, 0.17991121345460537
323.0, 0.16835174886308216
324.0, 0.1849620975319813
325.0, 0.18331925826028625
326.0, 0.17366889722792409
327.0, 0.15734994794782486
328.0, 0.13633282265484453
329.0, 0.11503215361199652
330.0, 0.09687378165679919
331.0, 0.07774765045927211
332.0, 0.055221936257266555
333.0, 0.044570160655246834
334.0, 0.04946956418005829
335.0, 0.03831455204862928
336.0, 0.039616401218183446
337.0, 0.036499485562376546
338.0, 0.037808896930308145
339.0, 0.05197394632032854
340.0, 0.055746694764391154
341.0, 0.07345710849350488
342.0, 0.08031267095535033
343.0, 0.0869088440821457
344.0, 0.11045899807549092
345.0, 0.14517254379812802
346.0, 0.13153226156455644
347.0, 0.15185205022740084
348.0, 0.19164730114231718
349.0, 0.21729676745436355
350.0, 0.2462711929051813
351.0, 0.2749771051904905
352.0, 0.2828327681029008
353.0, 0.2917817602882157
354.0, 0.3077937122591263
355.0, 0.29556380697108686
356.0, 0.2826646281848029
357.0, 0.26052263087591876
358.0, 0.24072271740794682
359.0, 0.2153318171568918
360.0, 0.16089277853926845
361.0, 0.150801905993082
362.0, 0.13698831661167513
363.0, 0.12432582582174953
364.0, 0.11782369478957914
365.0, 0.10462291875101012
366.0, 0.09787101113641745
367.0, 0.09026607225873637
368.0, 0.08182267011757177
369.0, 0.07603243621028691
370.0, 0.07440033915869584
371.0, 0.06607811849900204
372.0, 0.06960511790399296
373.0, 0.05265423612149753
374.0, 0.03663887439560094
375.0, 0.05520970291613671
376.0, 0.04823250796698386
377.0, 0.04938419222027872
378.0, 0.05114344245442377
379.0, 0.04524222073081781
380.0, 0.03578783861326554
381.0, 0.040653863958846834
382.0, 0.03513165433288205
383.0, 0.034053050533926786
384.0, 0.03519952884030974
385.0, 0.032567553566182926
386.0, 0.03330855878554671
387.0, 0.031075027816340733
388.0, 0.037789798868000664
389.0, 0.03596498793705391
390.0, 0.028503539787506107
391.0, 0.033112553759723426
392.0, 0.02334425879380389
393.0, 0.02527530967304501
394.0, 0.03073641771728216
395.0, 0.02565616494540047
396.0, 0.013423176896413733
397.0, 0.02191046415880712
398.0, 0.018106840765799846
399.0, 0.0113207326440156
400.0, 0.007163213758577915
401.0, 0.004796110140747826
402.0, 0.005459881452108868
403.0, 0.003235796178961117
404.0, 0.0008206372636088166
405.0, 0.001081701673800796
406.0, 0.007405326489675
407.0, 0.01571238459129598
408.0, 0.009696186071972705
409.0, 0.0017292137814620993
410.0, 0.007687450406288668
411.0, 0.009473979071607921
412.0, 0.00464823721634394
413.0, 0.0006327274948483819
414.0, 0.00842967557791907
415.0, 0.007262658172488222
416.0, 0.0036312411590444875
417.0, 0.005102460542339391
418.0, 0.0001372798346391381
419.0, 0.008476341941510531
420.0, 0.0014085203069306713
421.0, 0.0035088830447615074
422.0, 0.003509355329423193
423.0, 0.00015826089796304693
424.0, 0.0029174719936992943
425.0, 0.011424438888650941
426.0, 0.009930873686567449
427.0, 0.006537893051169587
428.0, 0.008424491654241358
429.0, 0.0037835671476870686
430.0, 0.006987857562321097
431.0, 0.0028332049804159227
432.0, 0.006768016205743614
433.0, 0.004259399882670142
434.0, 0.012527343008837843
435.0, 0.011046008152488377
436.0, 0.013080595991105405
437.0, 0.012771793995848576
438.0, 0.012063227471212119
439.0, 0.01634760990180022
440.0, 0.024404108260131528
441.0, 0.01813554317281056
442.0, 0.01598601406551578
443.0, 0.01861379373856301
444.0, 0.020458939862672748
445.0, 0.018433460528543097
446.0, 0.013619733387696766
447.0, 0.02171064616265093
448.0, 0.020833222181642082
449.0, 0.016021508324144354
450.0, 0.017867759640909475
451.0, 0.018642767101113226
452.0, 0.015650726759290176
453.0, 0.015270363973211031
454.0, 0.01770210247559428
455.0, 0.022421357707175345
456.0, 0.02611203643752624
457.0, 0.01632694261584107
458.0, 0.025554386538180096
459.0, 0.03328456418621428
460.0, 0.031931790612428464
461.0, 0.025996944265241156
462.0, 0.021793054348371563
463.0, 0.01383886659576819
464.0, 0.02045329029802848
465.0, 0.020560534218436396
466.0, 0.019474025841824668
467.0, 0.02654969144330918
468.0, 0.020634556883120214
469.0, 0.02373741488849279
470.0, 0.016094732154599008
471.0, 0.010481525583165624
472.0, 0.015748180421481416
473.0, 0.022301965385540648
474.0, 0.02278787498704667
475.0, 0.012131586133254798
476.0, 0.009015510292095312
477.0, 0.013482594471403842
478.0, 0.018003231240705752
479.0, 0.021604300103459876
480.0, 0.02311922870377268
481.0, 0.016715257033426027
482.0, 0.011338434448943275
483.0, 0.01276950478034652
484.0, 0.019429087743933014
485.0, 0.022435459854980345
486.0, 0.006484831682359219
487.0, 0.006798634764239935
488.0, 0.014242865576095026
489.0, 0.01766070871125763
490.0, 0.017923543841711857
491.0, 0.02467050059369829
492.0, 0.015541813461480704
493.0, 0.01253444240439703
494.0, 0.007425685049352161
495.0, 0.00044809607048533533
496.0, 0.004849873947891701
497.0, 0.012172132994196956
498.0, 0.013114652300690708
499.0, 0.012169173319346718
500.0, 0.012376177773170833
501.0, 0.013169682851992756
502.0, 0.01107339854463595
503.0, 0.0034088809760454853
504.0, 0.017188089184207223
505.0, 0.022802533165181264
506.0, 0.01998441152168986
507.0, 0.0143574265103268
508.0, 0.002403883039909612
509.0, 0.016516554062713885
510.0, 0.005408797774054416
511.0, 0.003541114018072798
512.0, 0.013803645186312396
513.0, 0.011600175048512367
514.0, 0.017186494132271038
515.0, 0.020189666207506854
516.0, 0.01379537556111599
517.0, 0.008558085332835825
518.0, 0.00984809337891399
519.0, 0.010439326216325377
520.0, 0.001317292957844203
521.0, 0.0037593629038811293
522.0, 0.019020140331812044
523.0, 0.011628137557239807
524.0, 0.006721468137653339
525.0, 0.021764716160672617
526.0, 0.013652851801494266
527.0, 0.013449158823215112
528.0, 0.00625222101062043
529.0, 0.009685573407121523
530.0, 0.015480391755067118
531.0, 0.011955091663294374
532.0, 0.009744996842200515
533.0, 0.0018211546284674226
534.0, 0.0007278551424354162
535.0, 0.001402835414535739
536.0, 0.0034304469536788795
537.0, 0.009550944382097455
538.0, 0.014358903766036511
539.0, 0.015208788850117385
540.0, 0.023412226682806524
541.0, 0.015247144466429541
542.0, 0.004279478774909247
543.0, 0.00786488331632295
544.0, 0.01252507927373936
545.0, 0.0072876692228849875
546.0, 0.01633797903421949
547.0, 0.018395257266449635
548.0, 0.009810837202262486
549.0, 0.008721880785444655
550.0, 0.014330719633045186
551.0, 0.003213003201998006
552.0, 0.005000061138955115
553.0, 0.012590246193879231
554.0, 0.010911573826495971
555.0, 0.0029242971391858323
556.0, 0.005332492547796209
557.0, 0.0141191446750503
558.0, 0.01501116734534208
559.0, 0.012249203183856496
560.0, 0.005480583527170227
561.0, 0.0007948639600234664
562.0, 0.0019870889914374358
563.0, 0.005419209193679404
564.0, 0.003593570286333621
565.0, 0.004017286413301835
566.0, 0.002172528021221805
567.0, 0.009814441111857777
568.0, 0.017537944539654956
569.0, 0.012026079422559224
570.0, 0.009581517563535438
571.0, 0.013161306202599636
572.0, 0.00843282532337384
573.0, 0.005438921956182739
574.0, 0.017033590642613304
575.0, 0.017521930959013603
576.0, 0.005521914618542283
577.0, 0.005545766496800082
578.0, 0.013435391105008214
579.0, 0.013360105451777583
580.0, 0.011534293340398571
581.0, 0.00920478440838743
582.0, 0.00957974945394966
583.0, 0.017475903144708538
584.0, 0.007495435774975722
585.0, 0.0022086489750992025
586.0, 0.010088905275182447
587.0, 0.013877992894474925
588.0, 0.012995468598733177
589.0, 0.003918320419770716
590.0, 0.0022865446828791184
591.0, 0.0042171944363753825
592.0, 0.005129776729380761
593.0, 0.003645131373516838
594.0, 0.0020491798012541407
595.0, 0.013425835498266226
596.0, 0.010074661407599599
597.0, 0.005621461519594087
598.0, 0.0040544656057178545
599.0, 0.006943477290164402
600.0, 0.013233546594581761
601.0, 0.011300344393402807
602.0, 0.015245670208821215
603.0, 0.017108888247783425
604.0, 0.0066811559063574815
605.0, 0.001130600709035846
606.0, 0.006030311398902448
607.0, 0.005478067165461772
608.0, 0.012938218821282082
609.0, 0.00426216520146476
610.0, 0.005654888301223506
611.0, 0.009310050117045785
612.0, 0.006427142897094562
613.0, 0.008438489018022835
614.0, 0.016630318950614932
615.0, 0.006717467995657971
616.0, 0.004982697002341347
617.0, 0.008057482636942972
618.0, 0.023934562740729394
619.0, 0.02086725044999135
620.0, 0.004804844148709325
621.0, 0.004868144347541495
622.0, 0.011753141488645669
623.0, 0.0185185083104871
624.0, 0.013098238039020004
625.0, 0.012238738799862231
626.0, 0.02666160101962639
627.0, 0.00630198828851481
628.0, 0.0013406045988626413
629.0, 0.007960410606652474
630.0, 0.013824637927495468
631.0, 0.019898196281826475
632.0, 0.01919723963262321
633.0, 0.005859158556596734
634.0, 0.011418997691993879
635.0, 0.006810082879104368
636.0, 0.020747254921584565
637.0, 0.01976979303013938
638.0, 0.012120148903144468
639.0, 0.006801019193942003
640.0, 0.004471609681093201
641.0, 0.010397191827883042
642.0, 0.01255604736399705
643.0, 0.01674034854476537
644.0, 0.020915928342803577
645.0, 0.024556762223056652
646.0, 0.025434247992125597
647.0, 0.017911301689563588
648.0, 0.01713787625449136
649.0, 0.020544173507384224
650.0, 0.019481653441701375
651.0, 0.013997387479544836
652.0, 0.011137072416886416
653.0, 0.012200550827358363
654.0, 0.010314035370994406
655.0, 0.013159923130072075
656.0, 0.013799835578985288
657.0, 0.015319713543488456
658.0, 0.01314338938673351
659.0, 0.010249953424220946
660.0, 0.009749709211733851
661.0, 0.003347073753148532
662.0, 0.00893865479140013
663.0, 0.010459423990338591
664.0, 0.015521476253869694
665.0, 0.01621428215165676
666.0, 0.008551824393735578
667.0, 0.002910215872689281
668.0, 0.0070999564750514575
669.0, 0.014469456617991365
670.0, 0.018334917132421632
671.0, 0.006063461166347968
672.0, 0.008119341716840905
673.0, 0.013582955050131372
674.0, 0.0019633739487012487
675.0, 0.005083995501377935
676.0, 0.0167529044063595
677.0, 0.008526750075672091
678.0, 0.01922535880069078
679.0, 0.015267253192569602
680.0, 0.0026284207630978
681.0, 0.007251251247753315
682.0, 0.015903810736064682
683.0, 0.0038845225574729025
684.0, 0.01005676072173222
685.0, 0.010120356410915056
686.0, 0.0033822902332034466
687.0, 0.006231442637378449
688.0, 0.01156430528877556
689.0, 0.005761199608572319
690.0, 0.0072968923123829235
691.0, 0.00670510617252648
692.0, 0.0011534295248396347
693.0, 0.0031414074841664857
694.0, 0.00777980532184896
695.0, 0.007497576894477216
696.0, 0.010524866641860805
697.0, 0.012093320359654915
698.0, 0.013647251037683975
699.0, 0.006149437199978134
700.0, 0.016837269462982574
701.0, 0.01826403662862929
702.0, 0.009236037125752723
703.0, 0.017130609984522756
704.0, 0.017779322405405244
705.0, 0.0021362853398894134
706.0, 0.0015674815103174674
707.0, 0.012553362535067019
708.0, 0.01037410725067618
709.0, 0.005359397138062724
710.0, 0.008097165757347254
711.0, 0.012177551170079109
712.0, 0.016362456304793327
713.0, 0.014914079540512507
714.0, 0.015056990657414032
715.0, 0.013566139649296803
716.0, 0.008127282454301854
717.0, 0.001484137607622055
718.0, 0.0022264469742669614
719.0, 0.014230636712563013
720.0, 0.015358967430933027
721.0, 0.004590327344449955
722.0, 0.011962901154262396
723.0, 0.01779445281990192
724.0, 0.016000186629739784
725.0, 0.01599541293476381
726.0, 0.013058437844179252
727.0, 0.03449638837500358
728.0, 0.020030808993184122
729.0, 0.009754148825068497
730.0, 0.008899231152446166
731.0, 0.011824464469047943
732.0, 0.012143104551665273
733.0, 0.006943154816457057
734.0, 0.0033777154710995707
735.0, 0.009745243678724626
736.0, 0.002774303957073519
737.0, 0.011409414530329214
738.0, 0.009911193140349672
739.0, 0.009403161887493855
740.0, 0.018071233710649646
741.0, 0.011569725616025678
742.0, 0.006662751359425632
743.0, 0.003916585735865815
744.0, 0.019805788835004865
745.0, 0.025912383575367605
746.0, 0.017166323823324073
747.0, 0.015690130315471368
748.0, 0.023884674769264196
749.0, 0.009069812733134298
750.0, 0.012069653933492639
751.0, 0.014390743874748008
752.0, 0.010806287710852337
753.0, 0.01807958960005773
754.0, 0.02179039428991854
755.0, 0.017976027382358945
756.0, 0.013171696608534095
757.0, 0.008213393014489923
758.0, 0.01965675088829067
759.0, 0.009737273606594979
760.0, 0.012941660663636473
761.0, 0.022351985744328017
762.0, 0.021415198228319568
763.0, 0.012885511288694087
764.0, 0.009628642749154242
765.0, 0.010339375265738087
766.0, 0.0014054626843326757
767.0, 0.001144365268400299
768.0, 0.005301076162293657
769.0, 0.0012454858581717302
770.0, 0.02055643463441528
771.0, 0.027147291605828888
772.0, 0.008528975669665222
773.0, 0.012585876886784798
774.0, 0.015478628388528386
775.0, 0.0059498770734786885
776.0, 0.01121700286739896
777.0, 0.006635597447956407
778.0, 0.0017547757286921757
779.0, 0.008910933571708898
780.0, 0.015987074406028784
781.0, 0.011655964103557025
782.0, 0.010668475913831705
783.0, 0.016715378286628762
784.0, 0.023803594507123826
785.0, 0.025368595869049642
786.0, 0.016462765644615462
787.0, 0.013380195166653067
788.0, 0.017831071688678864
789.0, 0.016122633390653302
790.0, 0.012402118708996225
791.0, 0.010610296846797469
792.0, 0.01938127439187456
793.0, 0.019475304265486184
794.0, 0.017939299435626402
795.0, 0.012635021012411452
796.0, 0.003423935866275189
797.0, 0.001480223594106437
798.0, 0.011909985517984546
799.0, 0.006098735455167904
800.0, 0.0070905019079858175
801.0, 0.004931756533230877
802.0, 0.006420892620013622
803.0, 0.007948375315495578
804.0, 0.005305786794820869
805.0, 0.0016983898060433686
806.0, 0.004170200603112179
807.0, 0.0015669896270482226
808.0, 0.006457241373741825
809.0, 0.010586532341665532
810.0, 0.01678068134067467
811.0, 0.021123190206643563
812.0, 0.02306915677307787
813.0, 0.021061426995450067
814.0, 0.013531896742579954
815.0, 0.006341705572674696
816.0, 0.005988880190904053
817.0, 0.009404817010152822
818.0, 0.015365727804133322
819.0, 0.011836788788923493
820.0, 0.009290020537808856
821.0, 0.011371611288183321
822.0, 0.014784524679690138
823.0, 0.014756109798806052
824.0, 0.00568977892009179
825.0, 0.006222570228164993
826.0, 0.00194392339840017
827.0, 0.003189137350481505
828.0, 0.005324133314178325
829.0, 0.015399266335614845
830.0, 0.012742284280911034
831.0, 0.003521929843454103
832.0, 0.004237974308392971
833.0, 0.008768650509329136
834.0, 0.000815355397242325
835.0, 0.004556307919601465
836.0, 0.005515771510071388
837.0, 0.006220266958825878
838.0, 0.011856491770137548
839.0, 0.012487413879921474
840.0, 0.005997904690907353
841.0, 0.005285077502727691
842.0, 0.006133845615376396
843.0, 0.006111739503314914
844.0, 0.005995491838021283
845.0, 0.014039916661978753
846.0, 0.020040929111460225
847.0, 0.023058087654579167
848.0, 0.01711481005659241
849.0, 0.013732605776968646
850.0, 0.02205046572333239
851.0, 0.018006066230011056
852.0, 0.0015208051647203468
853.0, 0.006058059124536338
854.0, 0.0008548564460644291
855.0, 0.007029924941894705
856.0, 0.011532209191614861
857.0, 0.012689051955961221
858.0, 0.01734565930644222
859.0, 0.014964648338656463
860.0, 0.005760654997084919
861.0, 0.016931584121448157
862.0, 0.015082335652379968
863.0, 0.008741720863781426
864.0, 0.017226140611404477
865.0, 0.012598418073229582
866.0, 0.012513408378492465
867.0, 0.012015131815213652
868.0, 0.0035014538160180516
869.0, 0.01079105737167275
870.0, 0.012685992536356437
871.0, 0.010859644750991344
872.0, 0.011404335432413513
873.0, 0.014293782689394146
874.0, 0.0031784299160472055
875.0, 0.0011649877293303048
876.0, 0.015534666234072176
877.0, 0.016284328976178337
878.0, 0.006390274776746297
879.0, 0.027294935832412975
880.0, 0.01820410881765517
881.0, 0.012452090101496517
882.0, 0.006547186420512568
883.0, 0.0013936592410496898
884.0, 0.002015343584953166
885.0, 0.011692318674120602
886.0, 0.011904125158583646
887.0, 0.007420755952481062
888.0, 0.011541286638576207
889.0, 0.0019873274006987234
890.0, 0.01157599242020069
891.0, 0.015011334574133011
892.0, 0.008274358533914797
893.0, 0.014663682384470304
894.0, 0.014937503040771611
895.0, 0.011534346860025545
896.0, 0.010089412603262472
897.0, 0.01088948133193993
898.0, 0.014927849049489093
899.0, 0.01678500048353418
900.0, 0.013136038648755628
901.0, 0.009108852000393556
902.0, 0.014379496279742162
903.0, 0.017750598388343832
904.0, 0.014326505707903623
905.0, 0.009946804579190146
906.0, 0.013062426467846756
907.0, 0.02250157842004203
908.0, 0.022905308154294722
909.0, 0.013955425013084076
910.0, 0.016323387269523853
911.0, 0.006168682766738411
912.0, 0.0049621201091545495
913.0, 0.016359240260164352
914.0, 0.019389637910703292
915.0, 0.004311048346817545
916.0, 0.0069084988416787795
917.0, 0.015204893254850098
918.0, 0.008452800717745276
919.0, 0.003572438528731634
920.0, 0.003703814296357085
921.0, 0.010882079883781823
922.0, 0.008603076385770174
923.0, 0.011680778746175468
924.0, 0.00395284918063708
925.0, 0.011534594289430378
926.0, 0.016693357224402208
927.0, 0.018299125727283694
928.0, 0.013809373089385487
929.0, 0.0015117890882096405
930.0, 0.0005113420305530933
931.0, 0.005018840944555775
932.0, 0.014280367104373649
933.0, 0.014145549602404321
934.0, 0.012107077290426595
935.0, 0.013698821151006303
936.0, 0.011539456056862027
937.0, 0.01632828169795496
938.0, 0.022154268911043586
939.0, 0.016610154726781734
940.0, 0.01574842460890574
941.0, 0.02719099842486808
942.0, 0.023989518636436308
943.0, 0.017799576086879692
944.0, 0.013331145084098371
945.0, 0.018772203582487323
946.0, 0.011201023599560891
947.0, 0.016773685736999375
948.0, 0.0265766287289357
949.0, 0.026277452361696707
950.0, 0.02283876188869183
951.0, 0.01564691077040866
952.0, 0.013444556826618105
953.0, 0.013930420473327746
954.0, 0.017400551068607023
955.0, 0.020087789906870816
956.0, 0.013543961233929267
957.0, 0.019069520075002552
958.0, 0.02066385499881328
959.0, 0.019414532621970914
960.0, 0.016621220619424587
961.0, 0.009940653527597168
962.0, 0.009353529816893694
963.0, 0.014270497586067394
964.0, 0.0015236377521845145
965.0, 0.014168561717439812
966.0, 0.023734516777585
967.0, 0.018833017355579355
968.0, 0.010184362402909916
969.0, 0.015926630287430837
970.0, 0.015551488485212745
971.0, 0.01612410262741807
972.0, 0.021791368328411533
973.0, 0.019142953490197193
974.0, 0.01184384916618311
975.0, 0.01815991809866889
976.0, 0.02666192194739648
977.0, 0.024733927873314306
978.0, 0.01148580797082823
979.0, 0.023108174338620467
980.0, 0.018003412003350233
981.0, 0.012482800541255248
982.0, 0.01452791974907929
983.0, 0.014498016555268473
984.0, 0.014616001235553247
985.0, 0.016564585466764675
986.0, 0.023445336698016097
987.0, 0.03921895504035888
988.0, 0.007239699468879009
989.0, 0.009234154211520674
990.0, 0.001448048635298545
991.0, 0.0034778592359371832
992.0, 0.0014547176863813037
993.0, 0.007078715817869544
994.0, 0.006671851650658158
995.0, 0.004510918146995736
996.0, 0.007582095062664503
997.0, 0.006864572790647815
998.0, 0.014693954361873663
999.0, 0.01264804391453865
1000.0, 0.0013038650565471328
1001.0, 0.01790266898892538
1002.0, 0.008897168160603366
1003.0, 0.01620763000691124
1004.0, 0.017257175729812897
1005.0, 0.02293788581035191
1006.0, 0.01530988639263845
1007.0, 0.007367115375817791
1008.0, 0.023312379451069832
1009.0, 0.02747707986059977
1010.0, 0.0116969109386973
1011.0, 0.020023482954000582
1012.0, 0.03029997018160814
1013.0, 0.030407980529892544
1014.0, 0.028182074339895044
1015.0, 0.020133772647505696
1016.0, 0.01278105211763487
1017.0, 0.008331520457550591
1018.0, 0.017884350807429217
1019.0, 0.01663566346196944
1020.0, 0.01833034400522184
1021.0, 0.00838776109462599
1022.0, 0.007550175108980341
1023.0, 0.013048084140826094
1024.0, 0.0008584680772043998
1025.0, 0.0056656492885299265
1026.0, 0.0004972395992421425
1027.0, 0.015260984636918981
1028.0, 0.015411056562359353
1029.0, 0.0005135884078280999
1030.0, 0.00931064389111807
1031.0, 0.017004083893791263
1032.0, 0.012559770667929454
1033.0, 0.0080696086455741
1034.0, 0.021192124639886564
1035.0, 0.02596192511251308
1036.0, 0.010731829266483072
1037.0, 0.00808662134896799
1038.0, 0.01627054895944178
1039.0, 0.014517756649684513
1040.0, 0.012318985158589672
1041.0, 0.017045825518395914
1042.0, 0.025196182775744577
1043.0, 0.014288652036607
1044.0, 0.01964060006031175
1045.0, 0.01115971534659615
1046.0, 0.026699440046374322
1047.0, 0.024761681447110353
1048.0, 0.01855341342903938
1049.0, 0.026023538755667052
1050.0, 0.017931799690144645
1051.0, 0.009127968622802601
1052.0, 0.0049559661862496815
1053.0, 0.007429854567304507
1054.0, 0.015130586478043273
1055.0, 0.001240606532679912
1056.0, 0.014460089312639993
1057.0, 0.025878621381755364
1058.0, 0.03210728228506438
1059.0, 0.026548130570841807
1060.0, 0.014934128305901781
1061.0, 0.015360170844743753
1062.0, 0.003657726923691907
1063.0, 0.004423006880505414
1064.0, 0.01578197018469153
1065.0, 0.006932799478527072
1066.0, 0.0010242076478824674
1067.0, 0.017047645473113722
1068.0, 0.013794056644399949
1069.0, 0.013433102657156078
1070.0, 0.006858569669551824
1071.0, 0.016092285548256723
1072.0, 0.016262640295690196
1073.0, 0.01615368604694299
1074.0, 0.02164736884659646
1075.0, 0.014463851760586033
1076.0, 0.0016669261147740887
1077.0, 0.0004210249178391986
1078.0, 0.008072635766002837
1079.0, 0.014632999313829945
1080.0, 0.018186550494976198
1081.0, 0.015716784124385232
1082.0, 0.009342377016411479
1083.0, 0.021380213128185707
1084.0, 0.02322153438203695
1085.0, 0.01876135097046222
1086.0, 0.018142742871777924
1087.0, 0.019516677086104408
1088.0, 0.015234777821764989
1089.0, 0.0037748134983898703
1090.0, 0.00866122350373811
1091.0, 0.014311355203970625
1092.0, 0.009230118477725174
1093.0, 0.0020058261769534693
1094.0, 0.009080723605877881
1095.0, 0.017639731891836572
1096.0, 0.016343554030810267
1097.0, 0.015395497339800656
1098.0, 0.017062719309684282
1099.0, 0.02164531675663921
1100.0, 0.013914592501689409
1101.0, 0.006976103145457092
1102.0, 0.02003479636305722
1103.0, 0.023608682254036263
1104.0, 0.023371449188402376
1105.0, 0.01985942786208533
1106.0, 0.0017035282232706148
1107.0, 0.0012608560548087386
1108.0, 0.022539542817748535
1109.0, 0.023227295549591145
1110.0, 0.017890152177951826
1111.0, 0.019473979633572606
1112.0, 0.022244187893411427
1113.0, 0.013064661834086857
1114.0, 0.00244107637613029
1115.0, 0.003987499852692902
1116.0, 0.0036627051670815565
1117.0, 0.019131439658839358
1118.0, 0.013172071226840205
1119.0, 0.018792050404424845
1120.0, 0.0024731641251904204
1121.0, 0.0057305839367506935
1122.0, 0.012474870570700292
1123.0, 0.027443177531768427
1124.0, 0.010902968558059802
1125.0, 0.013871921235669514
1126.0, 0.024548347429161434
1127.0, 0.014782086583268161
1128.0, 0.018998797355769356
1129.0, 0.03569835908923434
1130.0, 0.028384663390560814
1131.0, 0.012571507939992711
1132.0, 0.008071075656331445
1133.0, 0.004259122340551526
1134.0, 0.0051079851321420185
1135.0, 0.010264584318775949
1136.0, 0.016982580521544388
1137.0, 0.022621216155804796
1138.0, 0.008935905950963389
1139.0, 0.0051216651900692
1140.0, 0.006336346487622435
1141.0, 0.011162863375127932
1142.0, 0.006705567157976358
1143.0, 0.0004978225436295039
1144.0, 0.01142908601270215
1145.0, 0.01781365994593085
1146.0, 0.008959275047548444
1147.0, 0.012335153301801906
1148.0, 0.016910187442383446
1149.0, 0.01443796773383894
1150.0, 0.018320948721152946
1151.0, 0.011194476140202143
1152.0, 0.005716389257921892
1153.0, 0.024911678755517037
1154.0, 0.02277933720429722
1155.0, 0.010156200833576792
1156.0, 0.02021153154931124
1157.0, 0.00138532630691312
1158.0, 0.017236263083782045
1159.0, 0.018672168873016357
1160.0, 0.008128800946029363
1161.0, 0.014608638269320505
1162.0, 0.022108210694318894
1163.0, 0.023369545699829776
1164.0, 0.02553915282839074
1165.0, 0.01797605346790414
1166.0, 0.019546666930921705
1167.0, 0.027248654641295198
1168.0, 0.020258041477753883
1169.0, 0.0164015070622398
1170.0, 0.010079604761183351
1171.0, 0.014245656270772794
1172.0, 0.016391812068613846
1173.0, 0.013990299017036774
1174.0, 0.02446946551276456
1175.0, 0.025544433460634973
1176.0, 0.031860287270275824
1177.0, 0.028113724347771808
1178.0, 0.01638965077159988
1179.0, 0.020022689272204627
1180.0, 0.017888372694577218
1181.0, 0.020829470092695205
1182.0, 0.01964879056263863
1183.0, 0.029791036440553184
1184.0, 0.01786984032572538
1185.0, 0.007289281041222554
1186.0, 0.016722457519277593
1187.0, 0.01548490405094702
1188.0, 0.012883304317293627
1189.0, 0.01531228393431628
1190.0, 0.029055321758681533
1191.0, 0.035560852754471496
1192.0, 0.02532804248704651
1193.0, 0.022790558670795862
1194.0, 0.01771431299361948
1195.0, 0.01303395787396367
1196.0, 0.019878704828185205
1197.0, 0.024098834793720336
1198.0, 0.02106442419047484
1199.0, 0.01328127027837443
1200.0, 0.014496105915972524
1201.0, 0.027431199540557578
1202.0, 0.027495925766781462
1203.0, 0.01880591798905011
1204.0, 0.014412891701847556
1205.0, 0.0017528563137451045
1206.0, 0.01143475191148601
1207.0, 0.003251488906078163
1208.0, 0.006164329358910447
1209.0, 0.015322358922137501
1210.0, 0.026433605298034787
1211.0, 0.012896232408553941
1212.0, 0.0302087127322791
1213.0, 0.031441869144160514
1214.0, 0.02191158865666285
1215.0, 0.0377987915324686
1216.0, 0.03357890103631361
1217.0, 0.036240339292782225
1218.0, 0.038688865072715004
1219.0, 0.03428733586447542
1220.0, 0.02165952547537299
1221.0, 0.018744531196840154
1222.0, 0.03103803740424796
1223.0, 0.026447266827285855
1224.0, 0.021010257976684266
1225.0, 0.024146171733473797
1226.0, 0.023044032306981144
1227.0, 0.0238611086049207
1228.0, 0.0216953192030011
1229.0, 0.0348729937155495
1230.0, 0.03748893824022993
1231.0, 0.0387914465108284
1232.0, 0.03624297927870942
1233.0, 0.027245456652186605
1234.0, 0.03397086125254037
1235.0, 0.025317259856902665
1236.0, 0.018089114982882498
1237.0, 0.019381573252686427
1238.0, 0.011982462972004013
1239.0, 0.007317236818701026
1240.0, 0.022120690803815266
1241.0, 0.006111488712326143
1242.0, 0.02283999267446011
1243.0, 0.027650496664477293
1244.0, 0.019747598474414197
1245.0, 0.010419480165442046
1246.0, 0.029274206529258575
1247.0, 0.023799237935015084
1248.0, 0.02262022299382998
1249.0, 0.028577925372305604
1250.0, 0.020380406900292688
1251.0, 0.028249330765461964
1252.0, 0.023601135214835898
1253.0, 0.033275033108393984
1254.0, 0.04330813968890171
1255.0, 0.033009276888144895
1256.0, 0.012291332411490576
1257.0, 0.0027872291653790898
1258.0, 0.012488944466771528
1259.0, 0.019000103500742247
1260.0, 0.017732649482506368
1261.0, 0.020398788336178496
1262.0, 0.015914013093761753
1263.0, 0.009263247008750617
1264.0, 0.011006564854943161
1265.0, 0.011342872562806987
1266.0, 0.023447742117206988
1267.0, 0.018633146049946925
1268.0, 0.00729122661959494
1269.0, 0.0007650288880100666
1270.0, 0.008764788614006556
1271.0, 0.0007709798657173956
1272, 0.0
1273, 0.0
1274, 0.0
1275, 0.0
1276, 0.0
1277, 0.0
1278, 0.0
1279, 0.0
1280, 0.0
1281, 0.0
1282, 0.0
1283, 0.0
1284, 0.0
1285, 0.0
1286, 0.0
1287, 0.0
1288, 0.0
1289, 0.0
1290, 0.0
1291, 0.0
1292, 0.0
1293, 0.0
1294, 0.0
1295, 0.0
1296, 0.0
1297, 0.0
1298, 0.0
1299, 0.0
1300, 0.0
1301, 0.0
1302, 0.0
1303, 0.0
1304, 0.0
1305, 0.0
1306, 0.0
1307, 0.0
1308, 0.0
1309, 0.0
1310, 0.0
1311, 0.0
1312, 0.0
1313, 0.0
1314, 0.0
1315, 0.0
1316, 0.0
1317, 0.0
1318, 0.0
1319, 0.0
1320, 0.0
1321, 0.0
1322, 0.0
1323, 0.0
1324, 0.0
1325, 0.0
1326, 0.0
1327, 0.0
1328, 0.0
1329, 0.0
1330, 0.0
1331, 0.0
1332, 0.0
1333, 0.0
1334, 0.0
1335, 0.0
1336, 0.0
1337, 0.0
1338, 0.0
1339, 0.0
1340, 0.0
1341, 0.0
1342, 0.0
1343, 0.0
1344, 0.0
1345, 0.0
1346, 0.0
1347, 0.0
1348, 0.0
1349, 0.0
1350, 0.0
1351, 0.0
1352, 0.0
1353, 0.0
1354, 0.0
1355, 0.0
1356, 0.0
1357, 0.0
1358, 0.0
1359, 0.0
1360, 0.0
1361, 0.0
1362, 0.0
1363, 0.0
1364, 0.0
1365, 0.0
1366, 0.0
1367, 0.0
1368, 0.0
1369, 0.0
1370, 0.0
1371, 0.0
1372, 0.0
1373, 0.0
1374, 0.0
1375, 0.0
1376, 0.0
1377, 0.0
1378, 0.0
1379, 0.0
1380, 0.0
1381, 0.0
1382, 0.0
1383, 0.0
1384, 0.0
1385, 0.0
1386, 0.0
1387, 0.0
1388, 0.0
1389, 0.0
1390, 0.0
1391, 0.0
1392, 0.0
1393, 0.0
1394, 0.0
1395, 0.0
1396, 0.0
1397, 0.0
1398, 0.0
1399, 0.0
1400, 0.0
1401, 0.0
1402, 0.0
1403, 0.0
1404, 0.0
1405, 0.0
1406, 0.0
1407, 0.0
1408, 0.0
1409, 0.0
1410, 0.0
1411, 0.0
1412, 0.0
1413, 0.0
1414, 0.0
1415, 0.0
1416, 0.0
1417, 0.0
1418, 0.0
1419, 0.0
1420, 0.0
1421, 0.0
1422, 0.0
1423, 0.0
1424, 0.0
1425, 0.0
1426, 0.0
1427, 0.0
1428, 0.0
1429, 0.0
1430, 0.0
1431, 0.0
1432, 0.0
1433, 0.0
1434, 0.0
1435, 0.0
1436, 0.0
1437, 0.0
1438, 0.0
1439, 0.0
1440, 0.0
1441, 0.0
1442, 0.0
1443, 0.0
1444, 0.0
1445, 0.0
1446, 0.0
1447, 0.0
1448, 0.0
1449, 0.0
1450, 0.0
1451, 0.0
1452, 0.0
1453, 0.0
1454, 0.0
1455, 0.0
1456, 0.0
1457, 0.0
1458, 0.0
1459, 0.0
1460, 0.0
1461, 0.0
1462, 0.0
1463, 0.0
1464, 0.0
1465, 0.0
1466, 0.0
1467, 0.0
1468, 0.0
1469, 0.0
1470, 0.0
1471, 0.0
1472, 0.0
1473, 0.0
1474, 0.0
1475, 0.0
1476, 0.0
1477, 0.0
1478, 0.0
1479, 0.0
1480, 0.0
1481, 0.0
1482, 0.0
1483, 0.0
1484, 0.0
1485, 0.0
1486, 0.0
1487, 0.0
1488, 0.0
1489, 0.0
1490, 0.0
1491, 0.0
1492, 0.0
1493, 0.0
1494, 0.0
1495, 0.0
1496, 0.0
1497, 0.0
1498, 0.0
1499, 0.0
1500, 0.0
1501, 0.0
1502, 0.0
1503, 0.0
1504, 0.0
1505, 0.0
1506, 0.0
1507, 0.0
1508, 0.0
1509, 0.0
1510, 0.0
1511, 0.0
1512, 0.0
1513, 0.0
1514, 0.0
1515, 0.0
1516, 0.0
1517, 0.0
1518, 0.0
1519, 0.0
1520, 0.0
1521, 0.0
1522, 0.0
1523, 0.0
1524, 0.0
1525, 0.0
1526, 0.0
1527, 0.0
1528, 0.0
1529, 0.0
1530, 0.0
1531, 0.0
1532, 0.0
1533, 0.0
1534, 0.0
1535, 0.0
1536, 0.0
1537, 0.0
1538, 0.0
1539, 0.0
1540, 0.0
1541, 0.0
1542, 0.0
1543, 0.0
1544, 0.0
1545, 0.0
1546, 0.0
1547, 0.0
1548, 0.0
1549, 0.0
1550, 0.0
1551, 0.0
1552, 0.0
1553, 0.0
1554, 0.0
1555, 0.0
1556, 0.0
1557, 0.0
1558, 0.0
1559, 0.0
1560, 0.0
1561, 0.0
1562, 0.0
1563, 0.0
1564, 0.0
1565, 0.0
1566, 0.0
1567, 0.0
1568, 0.0
1569, 0.0
1570, 0.0
1571, 0.0
1572, 0.0
1573, 0.0
1574, 0.0
1575, 0.0
1576, 0.0
1577, 0.0
1578, 0.0
1579, 0.0
1580, 0.0
1581, 0.0
1582, 0.0
1583, 0.0
1584, 0.0
1585, 0.0
1586, 0.0
1587, 0.0
1588, 0.0
1589, 0.0
1590, 0.0
1591, 0.0
1592, 0.0
1593, 0.0
1594, 0.0
1595, 0.0
1596, 0.0
1597, 0.0
1598, 0.0
1599, 0.0
