30, 0.0
31, 0.0
32, 0.0
33, 0.0
34, 0.0
35, 0.0
36, 0.0
37, 0.0
38, 0.0
39, 0.0
40, 0.0
41, 0.0
42, 0.0
43, 0.0
44, 0.0
45, 0.0
46, 0.0
47, 0.0
48, 0.0
49, 0.0
50, 0.0
51, 0.0
52, 0.0
53, 0.0
54, 0.0
55, 0.0
56, 0.0
57, 0.0
58, 0.0
59, 0.0
60, 0.0
61, 0.0
62, 0.0
63, 0.0
64, 0.0
65, 0.0
66, 0.0
67, 0.0
68, 0.0
69, 0.0
70, 0.0
71, 0.0
72, 0.0
73, 0.0
74, 0.0
75, 0.0
76, 0.0
77, 0.0
78, 0.0
79, 0.0
80, 0.0
81, 0.0
82, 0.0
83, 0.0
84, 0.0
85, 0.0
86, 0.0
87, 0.0
88, 0.0
89, 0.0
90, 0.0
91, 0.0
92, 0.0
93, 0.0
94, 0.0
95, 0.0
96, 0.0
97, 0.0
98, 0.0
99, 0.0
100, 0.0
101, 0.0
102, 0.0
103, 0.0
104, 0.0
105, 0.0
106, 0.0
107, 0.0
108, 0.0
109, 0.0
110, 0.0
111, 0.0
112, 0.0
113, 0.0
114, 0.0
115, 0.0
116, 0.0
117, 0.0
118, 0.0
119, 0.0
120, 0.0
121, 0.0
122, 0.0
123, 0.0
124, 0.0
125, 0.0
126, 0.0
127, 0.0
128, 0.0
129, 0.0
130, 0.0
131, 0.0
132, 0.0
133, 0.0
134, 0.0
135, 0.0
136, 0.0
137, 0.0
138, 0.0
139, 0.0
140, 0.0
141, 0.0
142, 0.0
143, 0.0
144, 0.0
145, 0.0
146, 0.0
147, 0.0
148, 0.0
149, 0.0
150, 0.0
151, 0.0
152, 0.0
153, 0.0
154, 0.0
155, 0.0
156, 0.0
157, 0.0
158, 0.0
159, 0.0
160, 0.0
161, 0.0
162, 0.0
163, 0.0
164, 0.0
165, 0.0
166, 0.0
167, 0.0
168, 0.0
169, 0.0
170, 0.0
171, 0.0
172, 0.0
173, 0.0
174, 0.0
175, 0.0
176, 0.0
177.0, 5.4412059399291794e-05
178.0, 0.0002175915683173444
179.0, 0.0017455257806162903
180.0, 0.0001863723654766829
181.0, 0.0006765357758019335
182.0, 0.004664270106064977
183.0, 0.008412738158736267
184.0, 0.007676010049701559
185.0, 0.00226478822416174
186.0, 0.009538926620361057
187.0, 0.018709064730268985
188.0, 0.01797296797219482
189.0, 0.00864065101801538
190.0, 0.010662554874359055
191.0, 0.005777658593911932
192.0, 0.000981483448632567
193.0, 0.008878058149092465
194.0, 0.016422586283956056
195.0, 0.020894763292687656
196.0, 0.022678302566575246
197.0, 0.021708877733665137
198.0, 0.018994591772124633
199.0, 0.02774529389865588
200.0, 0.026198820005340594
201.0, 0.021521404740944838
202.0, 0.02642187181211233
203.0, 0.03249169124773621
204.0, 0.020354647865382353
205.0, 0.014753659519972822
206.0, 0.018680185143564277
207.0, 0.01267207888816125
208.0, 0.006890382865225094
209.0, 0.0030856456135036486
210.0, 0.005486259791934
211.0, 0.012223719670517687
212.0, 0.011919008268265542
213.0, 0.00543680047884458
214.0, 0.010874838365049589
215.0, 0.022424334575080793
216.0, 0.026237080338374803
217.0, 0.03161571603210865
218.0, 0.026421105054422453
219.0, 0.02530190228463646
220.0, 0.033148688399504474
221.0, 0.039934728436654986
222.0, 0.0483917052121989
223.0, 0.04543976915236512
224.0, 0.03891219896284077
225.0, 0.037405836907702744
226.0, 0.033990892056777626
227.0, 0.039160269997844416
228.0, 0.04022957046933546
229.0, 0.0374364126512986
230.0, 0.03951978276210481
231.0, 0.03823860747868131
232.0, 0.04239374121795053
233.0, 0.043002593436083154
234.0, 0.04055578643532864
235.0, 0.05020064569515221
236.0, 0.048485831718115054
237.0, 0.04699091217680505
238.0, 0.0461738103056904
239.0, 0.04199811143163552
240.0, 0.04112843436581991
241.0, 0.042880318297156696
242.0, 0.03745447557516558
243.0, 0.02767625034080085
244.0, 0.021296609751332254
245.0, 0.016544075241929426
246.0, 0.01860721976741151
247.0, 0.009780710198487379
248.0, 0.0015183164480409102
249.0, 0.008155982327870518
250.0, 0.008353048791595045
251.0, 0.013690500275757616
252.0, 0.017327439330608457
253.0, 0.01293878773445196
254.0, 0.0063250951503538285
255.0, 0.010690125078540275
256.0, 0.009908481256976052
257.0, 0.010884151991676028
258.0, 0.023546414508470552
259.0, 0.021121439234769737
260.0, 0.018188144324118822
261.0, 0.015699486404181246
262.0, 0.01431881231189503
263.0, 0.014873592985341487
264.0, 0.012922748412789802
265.0, 0.010550455903061662
266.0, 0.00847714727487134
267.0, 0.0044687117974459714
268.0, 0.0017124075088222556
269.0, 0.001086028583557034
270.0, 0.0032867342283708534
271.0, 0.005490814692290435
272.0, 0.004234954999157784
273.0, 0.0009846955344118267
274.0, 0.0007507168710257292
275.0, 0.0019125881042240383
276.0, 0.0019897081832952043
277.0, 0.009487432146013745
278.0, 0.0145556566477243
279.0, 0.016581167364803317
280.0, 0.021204055117829208
281.0, 0.02257745697952451
282.0, 0.01897058890913289
283.0, 0.029088867491911974
284.0, 0.022481286873359676
285.0, 0.029998581208995748
286.0, 0.04520744769344676
287.0, 0.042398041465620914
288.0, 0.02371110360405142
289.0, 0.016266319459171227
290.0, 0.01328996020016061
291.0, 0.00719080629947911
292.0, 0.0006114927525895983
293.0, 0.001901636471059294
294.0, 0.0014250330785912104
295.0, 0.00658870946197568
296.0, 0.009687723367208868
297.0, 0.006408816869227027
298.0, 0.00981836664097815
299.0, 0.01652791685433076
300.0, 0.02420020031543679
301.0, 0.03127990585634974
302.0, 0.04103664866333017
303.0, 0.04775763276581953
304.0, 0.053886232919762814
305.0, 0.061716941832579864
306.0, 0.06748748634261967
307.0, 0.06576162584930864
308.0, 0.06511097792404413
309.0, 0.06018277861626309
310.0, 0.056340519669537945
311.0, 0.05567768783184331
312.0, 0.05417853713374868
313.0, 0.05178765141708697
314.0, 0.05572502642945053
315.0, 0.05693901819059233
316.0, 0.05363046653129784
317.0, 0.05364363482635554
318.0, 0.06082419313745374
319.0, 0.06315530265363206
320.0, 0.06820048949701718
321.0, 0.07527395214126133
322.0, 0.073538428920278
323.0, 0.08732032069993502
324.0, 0.10485640334202835
325.0, 0.1125936478381019
326.0, 0.11177341507298084
327.0, 0.11989836037007014
328.0, 0.13414654678346674
329.0, 0.14477276785029272
330.0, 0.14366649862780537
331.0, 0.13368751099961354
332.0, 0.12448034895359522
333.0, 0.10659438365496288
334.0, 0.09634698245676288
335.0, 0.09223686753255142
336.0, 0.08650436886212659
337.0, 0.07412659242484262
338.0, 0.0709178637529002
339.0, 0.06256772306521924
340.0, 0.05639733577091538
341.0, 0.05520707658633439
342.0, 0.05118615096478247
343.0, 0.04968020769443591
344.0, 0.048569179186955934
345.0, 0.047205293273652756
346.0, 0.048987607703118684
347.0, 0.05538740201202373
348.0, 0.05688947992162838
349.0, 0.06448141044642496
350.0, 0.06391043642108042
351.0, 0.0611698803882558
352.0, 0.06809955247119995
353.0, 0.06406564845641886
354.0, 0.06557123320182023
355.0, 0.06008429566201128
356.0, 0.052617260678561595
357.0, 0.054175412098538704
358.0, 0.047906586932692743
359.0, 0.0399526917122977
360.0, 0.045870835390054494
361.0, 0.05236393769293387
362.0, 0.047870770814296915
363.0, 0.05053521513373872
364.0, 0.05732407029770769
365.0, 0.0699548478305025
366.0, 0.07652937676827273
367.0, 0.07701744210918769
368.0, 0.08602403335697555
369.0, 0.09871068193357808
370.0, 0.1140925114888544
371.0, 0.12276479205293063
372.0, 0.12240809665672009
373.0, 0.12000230729421307
374.0, 0.1251185891489809
375.0, 0.11617065959173001
376.0, 0.10967417175240692
377.0, 0.10714580103152391
378.0, 0.09415918269463093
379.0, 0.07392636063539536
380.0, 0.059556983207700406
381.0, 0.05164407084380799
382.0, 0.04497957555284808
383.0, 0.03628979022608597
384.0, 0.02981834673216863
385.0, 0.016946586604679886
386.0, 0.00898527530142375
387.0, 0.008717394542166102
388.0, 0.0101275894838463
389.0, 0.00399138400771213
390.0, 0.010709905264786365
391.0, 0.012774351951630092
392.0, 0.018503231783027013
393.0, 0.027293453226292255
394.0, 0.018831464992007732
395.0, 0.015152549851100684
396.0, 0.017143436829014962
397.0, 0.020441520476056366
398.0, 0.023923835127834792
399.0, 0.025355212124162627
400.0, 0.013821271682177925
401.0, 0.0031874700252939882
402.0, 0.0021136639142912434
403.0, 0.0004214544350640495
404.0, 0.003064706008450766
405.0, 0.010688160120611061
406.0, 0.011088172265722876
407.0, 0.004454104541230407
408.0, 0.0014994417987879184
409.0, 0.003755341654120211
410.0, 0.006034351360532047
411.0, 0.013003596621010556
412.0, 0.0264753846091687
413.0, 0.04088884286967957
414.0, 0.04697965889184741
415.0, 0.04834680983687547
416.0, 0.06557279141636313
417.0, 0.0663919422043854
418.0, 0.06495952145011576
419.0, 0.06930567150252469
420.0, 0.0755413636865696
421.0, 0.0739105460328666
422.0, 0.06553019803272819
423.0, 0.06296556508687641
424.0, 0.06584999179452947
425.0, 0.06704990213218293
426.0, 0.06181137106087535
427.0, 0.055963255876860456
428.0, 0.05433921595497184
429.0, 0.05146865457788699
430.0, 0.0472454364855441
431.0, 0.043127261054214286
432.0, 0.03745632321853971
433.0, 0.03743561028356826
434.0, 0.035042943420298935
435.0, 0.03224563309646495
436.0, 0.030922894256196216
437.0, 0.030036829533336678
438.0, 0.030210526982543017
439.0, 0.029127218293422182
440.0, 0.03628936454623247
441.0, 0.041453363287714415
442.0, 0.03625305751675628
443.0, 0.033716220825951174
444.0, 0.033587247666272975
445.0, 0.04818069564308253
446.0, 0.05473046006172796
447.0, 0.049303253739173714
448.0, 0.046284002490591905
449.0, 0.04506562351410333
450.0, 0.04321418688052291
451.0, 0.03585012830106637
452.0, 0.029832017610031916
453.0, 0.029628630811732008
454.0, 0.026655274390473917
455.0, 0.020093138214217182
456.0, 0.02657742718371543
457.0, 0.03197881461458655
458.0, 0.02765121575746279
459.0, 0.021375047163760912
460.0, 0.022425279162330836
461.0, 0.03462611381307243
462.0, 0.031100719961069393
463.0, 0.03292668346803102
464.0, 0.040880074151126475
465.0, 0.029411704363729457
466.0, 0.022684749842000713
467.0, 0.030570742330772043
468.0, 0.02632962517275567
469.0, 0.01606124285314651
470.0, 0.0163433795922146
471.0, 0.01777428233593186
472.0, 0.005775202833646938
473.0, 0.006837555439541314
474.0, 0.009792885428572005
475.0, 0.007662700828969994
476.0, 0.005278499287943078
477.0, 0.006625302291536531
478.0, 0.001115106321447653
479.0, 0.0018742182307986827
480.0, 0.002186799695873758
481.0, 0.005361794891977307
482.0, 0.007142177555862219
483.0, 0.0031287813511878468
484.0, 0.005100568332082442
485.0, 0.0016872846190457323
486.0, 0.009609766855018732
487.0, 0.015103493881875487
488.0, 0.020176614392984002
489.0, 0.01789803794622358
490.0, 0.022233814143770313
491.0, 0.022181760385968436
492.0, 0.015519133606277796
493.0, 0.01140732703572756
494.0, 0.013874069156342478
495.0, 0.009478563433548373
496.0, 0.010507282676255406
497.0, 0.0144337330404417
498.0, 0.006824563949634389
499.0, 0.0027929325744057384
500.0, 0.011797454534174526
501.0, 0.008093465025146608
502.0, 0.013526478557945464
503.0, 0.01934022738009489
504.0, 0.015988268299639907
505.0, 0.009256668342382613
506.0, 0.011746731944140066
507.0, 0.008858273532831641
508.0, 0.016355703498275722
509.0, 0.02275035378673598
510.0, 0.021508525343646057
511.0, 0.019891018482460117
512.0, 0.016857740009455224
513.0, 0.0121263834919503
514.0, 0.02029831893114336
515.0, 0.016834540581153988
516.0, 0.007459550032078958
517.0, 0.01817676573667973
518.0, 0.022003027708575634
519.0, 0.023330924143499625
520.0, 0.01902061784962314
521.0, 0.019721841158541985
522.0, 0.0260929995545985
523.0, 0.023454661769893415
524.0, 0.012025840420821084
525.0, 0.026585889237242782
526.0, 0.034231910048514266
527.0, 0.025844678631514316
528.0, 0.01359131557458186
529.0, 0.010372901458596604
530.0, 0.00941465644789559
531.0, 0.01919776765113795
532.0, 0.01774083590772622
533.0, 0.020504048488704102
534.0, 0.028126140951657472
535.0, 0.02169407914334898
536.0, 0.018727065615913946
537.0, 0.022424831301288337
538.0, 0.029465219516926794
539.0, 0.02707706716518311
540.0, 0.01678755662167037
541.0, 0.009698472765761476
542.0, 0.007618396719698477
543.0, 0.009605514910606985
544.0, 0.009760212088905547
545.0, 0.006264808734883042
546.0, 0.002261329349942322
547.0, 0.0009573320613688661
548.0, 0.003831175405076018
549.0, 0.0017339771567481596
550.0, 0.0070421097806649315
551.0, 0.013045581071801515
552.0, 0.013610037282030647
553.0, 0.009653052735318376
554.0, 0.0011813501904541397
555.0, 0.007188612926505382
556.0, 0.014024034744498419
557.0, 0.01839184684228912
558.0, 0.018723975639963628
559.0, 0.017155465096880634
560.0, 0.021458387802156382
561.0, 0.020850389914623055
562.0, 0.015886269176026858
563.0, 0.018147873671094925
564.0, 0.020629973897003554
565.0, 0.019692874033705794
566.0, 0.01974250707155435
567.0, 0.013336002951629995
568.0, 0.012871891392389524
569.0, 0.002806285758778666
570.0, 0.0012493427610324253
571.0, 0.006445186095264386
572.0, 0.0025930555256388947
573.0, 0.004356346257534351
574.0, 0.0020725877421352767
575.0, 0.008499650724210587
576.0, 0.0053797061697827536
577.0, 0.0043330121120418764
578.0, 0.00462427203877539
579.0, 0.01376058463375598
580.0, 0.011844760278744452
581.0, 0.014237336413475249
582.0, 0.010312116468774217
583.0, 0.013573318865573426
584.0, 0.01649631119965399
585.0, 0.0033392451420240226
586.0, 0.011277633379103553
587.0, 0.007063544425167195
588.0, 0.004045595507013836
589.0, 0.007817045298194655
590.0, 0.012792517319570885
591.0, 0.01182872715026384
592.0, 0.003976209875912172
593.0, 0.004109238488542978
594.0, 0.00093285082789327
595.0, 0.0032629026228012973
596.0, 0.00716064180253224
597.0, 0.00831903359878484
598.0, 0.013780278125532331
599.0, 0.016535078057763945
600.0, 0.02067844335728024
601.0, 0.021925535937750287
602.0, 0.017417241990609546
603.0, 0.016800517319152365
604.0, 0.024164986377874405
605.0, 0.022365937803053584
606.0, 0.017366939375841592
607.0, 0.017957979327176892
608.0, 0.016713091930961287
609.0, 0.018299665875443086
610.0, 0.023427291596583452
611.0, 0.02066464653358364
612.0, 0.04008786267538885
613.0, 0.029674476370731787
614.0, 0.022788759465060072
615.0, 0.028529429964424854
616.0, 0.032150196635932125
617.0, 0.02801741739381804
618.0, 0.026611123022468645
619.0, 0.02293792985004611
620.0, 0.023461396595409956
621.0, 0.0261201084200295
622.0, 0.03003684827410574
623.0, 0.028160625737655473
624.0, 0.022310433948503718
625.0, 0.036475560393533564
626.0, 0.03295524687319506
627.0, 0.035867859346223024
628.0, 0.030593476790803587
629.0, 0.02401189097528171
630.0, 0.02527940132848367
631.0, 0.025305150561523188
632.0, 0.024093842393427354
633.0, 0.0315879777192232
634.0, 0.027165193789458728
635.0, 0.02240836653811598
636.0, 0.019186711017811116
637.0, 0.019361830826117903
638.0, 0.032502889627512084
639.0, 0.03568743436371772
640.0, 0.02281450697574745
641.0, 0.02160981651459513
642.0, 0.023705072226159255
643.0, 0.019379095492499228
644.0, 0.017334536513304716
645.0, 0.016083829396325255
646.0, 0.019312114842642735
647.0, 0.01741651386949165
648.0, 0.019677922626681194
649.0, 0.024033133168910387
650.0, 0.021722258885197545
651.0, 0.010696398132086686
652.0, 0.011573590695553564
653.0, 0.020134299565940088
654.0, 0.020791869727621332
655.0, 0.016908030399665586
656.0, 0.01673542605655717
657.0, 0.019284564744366
658.0, 0.02257214879671458
659.0, 0.034527534291703674
660.0, 0.025245193961221542
661.0, 0.017296294018640624
662.0, 0.0216949700815
663.0, 0.01907452566832864
664.0, 0.006130944119384765
665.0, 0.003451148426575247
666.0, 0.00947522385162451
667.0, 0.0016416041273587527
668.0, 0.005278324550522965
669.0, 0.005593322012615463
670.0, 0.0060313484899820365
671.0, 0.012270148640021405
672.0, 0.01626285493655256
673.0, 0.01534072155353298
674.0, 0.018563861880599872
675.0, 0.010137894577525196
676.0, 0.009165387714612805
677.0, 0.015273405562208058
678.0, 0.015581012365700194
679.0, 0.009244568931661059
680.0, 0.012510937132573436
681.0, 0.006936393761350239
682.0, 0.008446871114166511
683.0, 0.010043263135263098
684.0, 0.006518835400439515
685.0, 0.00391269877446121
686.0, 0.004961053018014949
687.0, 0.005700514778491117
688.0, 0.01401474950882159
689.0, 0.015545985794159233
690.0, 0.019155875721608973
691.0, 0.02056498929747214
692.0, 0.018621463346998737
693.0, 0.017087985730620828
694.0, 0.017437369830901665
695.0, 0.017542628984194147
696.0, 0.02111448425117874
697.0, 0.0239548967912743
698.0, 0.02493436957349852
699.0, 0.02364729999000312
700.0, 0.01907366222532065
701.0, 0.015146011414287112
702.0, 0.022273564439567167
703.0, 0.016368050431480423
704.0, 0.020345337640424795
705.0, 0.019682088697302036
706.0, 0.01831268125772549
707.0, 0.016178967930290104
708.0, 0.010117252759878282
709.0, 0.0158602086500111
710.0, 0.023305109291302018
711.0, 0.024329887650667775
712.0, 0.017464764610520503
713.0, 0.009206436627180105
714.0, 0.015848330298918852
715.0, 0.031289339478151205
716.0, 0.0264718326119407
717.0, 0.03184295124558752
718.0, 0.030761499484140198
719.0, 0.03461115744041586
720.0, 0.034505935074127296
721.0, 0.033570311775360906
722.0, 0.03633076954002584
723.0, 0.03738793246466944
724.0, 0.03545503077722286
725.0, 0.03042074412400613
726.0, 0.020451144433428083
727.0, 0.021476341424712178
728.0, 0.030303995774937236
729.0, 0.02511981347086651
730.0, 0.014790620187145475
731.0, 0.023346357705200216
732.0, 0.020663844187917856
733.0, 0.012463036429021353
734.0, 0.007913512908398318
735.0, 0.002021465338024498
736.0, 0.0016275818212653722
737.0, 0.000896117721723076
738.0, 0.0008914501511990752
739.0, 0.0029800550882580954
740.0, 0.00346230562037251
741.0, 0.009650656821512955
742.0, 0.008914756868524366
743.0, 0.0036403604707727134
744.0, 0.004852604754801346
745.0, 0.012182961895390634
746.0, 0.009123846559233153
747.0, 0.00791343950853218
748.0, 0.0037931862377141795
749.0, 0.009552632936866106
750.0, 0.009947557723182749
751.0, 0.002274695837966304
752.0, 0.004104636428483871
753.0, 0.0025542222712009593
754.0, 0.002593203807069111
755.0, 0.00173920752196668
756.0, 0.002225944481034294
757.0, 0.0015197484889973053
758.0, 0.0010049090967771863
759.0, 0.00014425761204611115
760.0, 0.0039053084690456397
761.0, 0.0046327533765693285
762.0, 0.006368881949484184
763.0, 0.00034773980947805686
764.0, 0.004249447184737331
765.0, 0.00823957370019289
766.0, 0.007538710044486329
767.0, 0.005191428806640213
768.0, 0.001841759350508189
769.0, 0.0009589738777323197
770.0, 0.004653617761572405
771.0, 0.0037758172140912377
772.0, 0.0024378763174149184
773.0, 0.0034298955528355942
774.0, 0.0075150084115455755
775.0, 0.008348936384799421
776.0, 0.007560187728265596
777.0, 0.009450925282667956
778.0, 0.004189964925555255
779.0, 0.0003413536116428491
780.0, 0.0009974869848738551
781.0, 0.007877940364411645
782.0, 0.009337812082155186
783.0, 0.007570727253044244
784.0, 0.014884481386834039
785.0, 0.027857277571907802
786.0, 0.03657744632755972
787.0, 0.043844894713144913
788.0, 0.054685767727463544
789.0, 0.05648177001027718
790.0, 0.0624705738318781
791.0, 0.07423753812595431
792.0, 0.08034259834969364
793.0, 0.08465613490842265
794.0, 0.09049504957067486
795.0, 0.09169412701950787
796.0, 0.1044700060260141
797.0, 0.10622239842249832
798.0, 0.11541634465978334
799.0, 0.12337089887947522
800.0, 0.1364599018900092
801.0, 0.14204153389247612
802.0, 0.1416948658234341
803.0, 0.1493911700100769
804.0, 0.15257884850075495
805.0, 0.15724339405469814
806.0, 0.17506175771522994
807.0, 0.17737178019795108
808.0, 0.18689467619640024
809.0, 0.1940530106540378
810.0, 0.18968103160119032
811.0, 0.18864458361841038
812.0, 0.1987386522452064
813.0, 0.195971578129296
814.0, 0.19398330561151192
815.0, 0.19090410383000045
816.0, 0.1840046721310383
817.0, 0.18145137515055662
818.0, 0.17720598593346015
819.0, 0.16517672104659262
820.0, 0.1491999667406791
821.0, 0.13528424443738946
822.0, 0.1302436889150965
823.0, 0.14269725504800554
824.0, 0.13546242552715582
825.0, 0.13191168946015164
826.0, 0.13430544516640053
827.0, 0.1314514609014878
828.0, 0.12524060769693346
829.0, 0.12884117912891035
830.0, 0.13633483766313714
831.0, 0.13364309118184073
832.0, 0.13074729883833122
833.0, 0.13513272321922273
834.0, 0.14692243971605595
835.0, 0.15175114374209384
836.0, 0.15931045652112413
837.0, 0.1712356694658006
838.0, 0.1769781806173407
839.0, 0.18946244440646534
840.0, 0.18812373146796108
841.0, 0.19801841705961157
842.0, 0.2080737087484434
843.0, 0.2268382573978329
844.0, 0.23960751627209978
845.0, 0.25135780315392026
846.0, 0.2680135852775192
847.0, 0.28338160751442143
848.0, 0.31447979247196906
849.0, 0.32479982231486615
850.0, 0.33707860887110885
851.0, 0.3563294935030762
852.0, 0.39223596442914693
853.0, 0.422873841989974
854.0, 0.4467579209671194
855.0, 0.4788968158808751
856.0, 0.5198728435134409
857.0, 0.5628623012353016
858.0, 0.6073921422443967
859.0, 0.6490500367294672
860.0, 0.7003175410575663
861.0, 0.7483214139806543
862.0, 0.7958902600410812
863.0, 0.842707121779328
864.0, 0.8836104387196272
865.0, 0.920290631917261
866.0, 0.9559821920812158
867.0, 0.9726644718060529
868.0, 0.9946273091961867
869.0, 0.9995666812057441
870.0, 0.9927789438399831
871.0, 0.9857104814907364
872.0, 0.9715228680582393
873.0, 0.9571298314578456
874.0, 0.9355512114048594
875.0, 0.8977244765306823
876.0, 0.8679048835656531
877.0, 0.8365016925063704
878.0, 0.8084996867597761
879.0, 0.7670636679162803
880.0, 0.7306512346592315
881.0, 0.7040024457804704
882.0, 0.6723634575838542
883.0, 0.6352157930668618
884.0, 0.5982235757454354
885.0, 0.558334812477799
886.0, 0.5285182164564883
887.0, 0.500845688293965
888.0, 0.45960745514796747
889.0, 0.4299689010543706
890.0, 0.39297528765230116
891.0, 0.36763448564199486
892.0, 0.3435884547386854
893.0, 0.3103130283726766
894.0, 0.28012279411083413
895.0, 0.2584862432012335
896.0, 0.22610648565571384
897.0, 0.20685702320983873
898.0, 0.18787697757577457
899.0, 0.17028083994176735
900.0, 0.15755985900978395
901.0, 0.1425238973969112
902.0, 0.1271973810512061
903.0, 0.11858777753327157
904.0, 0.10946942238898426
905.0, 0.09140945138936703
906.0, 0.08692990915960548
907.0, 0.07598477374373697
908.0, 0.07373273782332677
909.0, 0.06670188306911538
910.0, 0.05967236259214733
911.0, 0.055011271989093946
912.0, 0.048304953083080776
913.0, 0.042037772800832186
914.0, 0.040587403492468414
915.0, 0.03720355867462365
916.0, 0.025387257084911748
917.0, 0.019174035512442608
918.0, 0.012632321828111756
919.0, 0.013340030923153997
920.0, 0.01356342945382957
921.0, 0.003611689625412095
922.0, 0.003277474411639893
923.0, 0.005269923165346907
924.0, 0.0005918015987832134
925.0, 0.0015519078376302988
926.0, 0.0008517376752037603
927.0, 0.004474811005411979
928.0, 0.007597892387967978
929.0, 0.00158270914984478
930.0, 0.008548166883678763
931.0, 0.003106239516648418
932.0, 0.00514746650877776
933.0, 0.008908799481030818
934.0, 0.0033231424492097374
935.0, 0.0025041177543693362
936.0, 0.0036009975479138617
937.0, 0.0021119250078580464
938.0, 0.007473782520781185
939.0, 0.00960045536609788
940.0, 0.007703100391292186
941.0, 0.0028784031461611195
942.0, 0.006891340092581431
943.0, 0.005538808809985228
944.0, 0.0040110880664316695
945.0, 0.010588183507589681
946.0, 0.014460208636583458
947.0, 0.009201086334847525
948.0, 0.007356888225642885
949.0, 0.0011285384131885495
950.0, 4.6625535003898925e-05
951.0, 0.000313462173727994
952.0, 0.002932259803664001
953.0, 0.0015742431285445412
954.0, 0.004852155217560109
955.0, 0.002122154789965744
956.0, 0.003927259261658575
957.0, 0.0007804232227277146
958.0, 0.007152903306091525
959.0, 0.006289922410177449
960.0, 0.007863676351801133
961.0, 0.007130890224566118
962.0, 0.017161671051439037
963.0, 0.017190769198214044
964.0, 0.013031978720788776
965.0, 0.014005902490191574
966.0, 0.013375015018745438
967.0, 0.013544210160472936
968.0, 0.01880632185123684
969.0, 0.021513652318483234
970.0, 0.018983469493108963
971.0, 0.015644137465503014
972.0, 0.013909225118647232
973.0, 0.015633781175318835
974.0, 0.02373421757928693
975.0, 0.02616031497508267
976.0, 0.03424139024660077
977.0, 0.027016822868000574
978.0, 0.023768761258507572
979.0, 0.02480677325132692
980.0, 0.022442998456794552
981.0, 0.025839317288170613
982.0, 0.02314254632552867
983.0, 0.022210344715872934
984.0, 0.020260405325422455
985.0, 0.02338079564647776
986.0, 0.013347714576183086
987.0, 0.01483510585616591
988.0, 0.019723758704448792
989.0, 0.02261788333181906
990.0, 0.022105210233874243
991.0, 0.017589625083976018
992.0, 0.01789293878387013
993.0, 0.02227018537591575
994.0, 0.012665373989577783
995.0, 0.006002372618740028
996.0, 0.021705595166349147
997.0, 0.03085064830529985
998.0, 0.02047553196523265
999.0, 0.02980139504620661
1000.0, 0.030393363768725968
1001.0, 0.026122474954477025
1002.0, 0.024147495883400892
1003.0, 0.023969478148036995
1004.0, 0.02295010689200889
1005.0, 0.020404521880248848
1006.0, 0.0158559829358594
1007.0, 0.009073386221848938
1008.0, 0.015456514450814376
1009.0, 0.029590792051590833
1010.0, 0.016808691072630187
1011.0, 0.015662935126669785
1012.0, 0.019015254874407764
1013.0, 0.014679095088877027
1014.0, 0.017139897004260683
1015.0, 0.017152554027973676
1016.0, 0.016725404353731786
1017.0, 0.013671264841196377
1018.0, 0.00599247217602635
1019.0, 0.009038873099310113
1020.0, 0.006468182129208271
1021.0, 0.011557763467248329
1022.0, 0.01122055252068898
1023.0, 0.012843894569990834
1024.0, 0.01666233235903481
1025.0, 0.008755732041448801
1026.0, 0.006441415634180507
1027.0, 0.005625983134814262
1028.0, 0.005088142710780158
1029.0, 0.010047446812530598
1030.0, 0.01426425276123429
1031.0, 0.01157429931746107
1032.0, 0.0108460998838735
1033.0, 0.014976677307536821
1034.0, 0.014876580842394295
1035.0, 0.01235315301819148
1036.0, 0.014121907988701908
1037.0, 0.02010927165339915
1038.0, 0.013698424631765177
1039.0, 0.017747136681964655
1040.0, 0.01816349146475275
1041.0, 0.015139367915319885
1042.0, 0.018825144899959036
1043.0, 0.014143590414061111
1044.0, 0.006543595979765165
1045.0, 0.011910619536688458
1046.0, 0.005296229328595148
1047.0, 0.012337294477777639
1048.0, 0.014211780305131809
1049.0, 0.00988661201542303
1050.0, 0.01092981245809008
1051.0, 0.012093192961036484
1052.0, 0.006892729998782334
1053.0, 0.009588923898164544
1054.0, 0.00985608992070387
1055.0, 0.007707853546317649
1056.0, 0.005816218370060488
1057.0, 0.00397510899941936
1058.0, 0.00555608597543722
1059.0, 0.0073134361563009535
1060.0, 0.006560602120326105
1061.0, 0.009656059195923153
1062.0, 0.004790565936802244
1063.0, 0.0039926679770096755
1064.0, 0.006406076824518145
1065.0, 0.012520736562932391
1066.0, 0.0029235132727387586
1067.0, 0.005202442652850263
1068.0, 0.009903376309779333
1069.0, 0.006643708376987376
1070.0, 0.003654181587602581
1071.0, 0.00642525122196211
1072.0, 0.011972805262163388
1073.0, 0.014712171329165387
1074.0, 0.010634423182188033
1075.0, 0.006126283344257686
1076.0, 0.004472441240637821
1077.0, 0.0024071641338299556
1078.0, 0.006125325672869952
1079.0, 0.008872082160212444
1080.0, 0.015750103320516656
1081.0, 0.007101179241269856
1082.0, 0.0020741844557869323
1083.0, 0.0031435121099040227
1084.0, 0.0035664224889004562
1085.0, 0.00215652336533874
1086.0, 0.00404165635692335
1087.0, 0.009792912374203116
1088.0, 0.01082141176470393
1089.0, 0.008286502233944436
1090.0, 0.0003441639370584984
1091.0, 0.005634653041101169
1092.0, 0.009841746540345676
1093.0, 0.010842722935513277
1094.0, 0.008185750697573725
1095.0, 0.008031867791939424
1096.0, 0.01480208959593969
1097.0, 0.011000291277323295
1098.0, 0.01496603278016547
1099.0, 0.009384960747623608
1100.0, 0.008623804922965373
1101.0, 0.009279844982106726
1102.0, 0.00462984012949823
1103.0, 0.00310864554645702
1104.0, 0.006569306214301048
1105.0, 0.007048900084000907
1106.0, 0.002178995177222033
1107.0, 0.002892274604859006
1108.0, 0.006573592697319483
1109.0, 0.0016620976385109745
1110.0, 0.002174909253665369
1111.0, 0.0015812113051204028
1112.0, 0.007100999746455062
1113.0, 0.0011186220787726552
1114.0, 0.00607790350170442
1115.0, 0.009023858339491885
1116.0, 0.009112518323468394
1117.0, 0.002187821240592614
1118.0, 0.0037791353027646943
1119.0, 0.010890685542632835
1120.0, 0.006562634013037011
1121.0, 0.00324168585972414
1122.0, 0.010924293183286776
1123.0, 0.01285035293427179
1124.0, 0.007700552068089963
1125.0, 0.010050811623064556
1126.0, 0.010246042787463008
1127.0, 0.006995132417732767
1128.0, 0.012405378672107828
1129.0, 0.004630948518016396
1130.0, 0.0017023609321727504
1131.0, 0.004000946378479638
1132.0, 0.0031495422768739612
1133.0, 0.002378368942911487
1134.0, 0.008068885743551989
1135.0, 0.011241916688087512
1136.0, 0.0066100314324950855
1137.0, 0.007357611580157723
1138.0, 0.005133978591163487
1139.0, 0.00574775250795646
1140.0, 0.008835511707545728
1141.0, 0.005273903963533773
1142.0, 0.007757984084390431
1143.0, 0.011662769683360661
1144.0, 0.005464043379306865
1145.0, 0.002625827326102042
1146.0, 0.004590394419535159
1147.0, 0.007089494666074586
1148.0, 0.0023547366223666696
1149.0, 0.005278099051868509
1150.0, 0.011613435202299429
1151.0, 0.009992884742834067
1152.0, 0.004586280002035857
1153.0, 0.005919190773478268
1154.0, 0.006913685841803786
1155.0, 0.007786825726322277
1156.0, 0.00843474777731326
1157.0, 0.004152882061415167
1158.0, 0.008997015298914514
1159.0, 0.012587823687704783
1160.0, 0.004332601684046257
1161.0, 0.0003759487730993056
1162.0, 0.006230887000672092
1163.0, 0.009249296062760294
1164.0, 0.007993411083144965
1165.0, 0.009069369294744731
1166.0, 0.012847034011029313
1167.0, 0.0094692445468891
1168.0, 0.007548956231696147
1169.0, 0.004034191861059223
1170.0, 0.006023399703033636
1171.0, 0.007217251572464856
1172.0, 0.01650987800626505
1173.0, 0.009330731008472396
1174.0, 0.007166260314291901
1175.0, 0.003745218675120425
1176.0, 0.0007256970072993453
1177.0, 0.0026532679765264083
1178.0, 0.0019482161220279568
1179.0, 0.005091762461391633
1180.0, 0.002840907734558709
1181.0, 0.0020024120258033467
1182.0, 0.00025970651737177873
1183.0, 0.0007504117053143446
1184.0, 0.0032327475941484594
1185.0, 0.0024238438566999833
1186.0, 0.0043529049421648005
1187.0, 0.014909869510415483
1188.0, 0.013472973191333953
1189.0, 0.002119706284641065
1190.0, 0.008093096157926156
1191.0, 0.005429306077410924
1192.0, 0.009672460489655312
1193.0, 0.0077048214588403795
1194.0, 0.0061472777713810775
1195.0, 0.005331602933207727
1196.0, 0.004869215186589223
1197.0, 0.008991791162464999
1198.0, 0.01082363708550891
1199.0, 0.004481711047196125
1200.0, 0.008322853514696783
1201.0, 0.010142833312182164
1202.0, 0.006737426455094244
1203.0, 0.0072895691422039215
1204.0, 0.002775871159893106
1205.0, 0.001879376016830392
1206.0, 0.006872341629118739
1207.0, 0.004020685896174874
1208.0, 0.0045273935083658765
1209.0, 0.014710958900760797
1210.0, 0.011864962769879563
1211.0, 0.006545570271393704
1212.0, 0.009782243728812014
1213.0, 0.00731910780467828
1214.0, 0.007429869644594778
1215.0, 0.01431039453668907
1216.0, 0.014293195614333915
1217.0, 0.014279736087807181
1218.0, 0.01443124276069281
1219.0, 0.01286917734809617
1220.0, 0.01452169879625107
1221.0, 0.015867798046435296
1222.0, 0.011872359072910128
1223.0, 0.010938926042934581
1224.0, 0.014052149974535019
1225.0, 0.009893794140981158
1226.0, 0.01008142462537822
1227.0, 0.015032789598413492
1228.0, 0.0106889378197788
1229.0, 0.007357366242013966
1230.0, 0.013274893984594588
1231.0, 0.008793600730856544
1232.0, 0.006207887057753743
1233.0, 0.009269893162091236
1234.0, 0.008525659454281534
1235.0, 0.0031415043068383722
1236.0, 0.004721732564946
1237.0, 0.010161217832244529
1238.0, 0.00977086622264801
1239.0, 0.006721506875455248
1240.0, 0.006097740490877971
1241.0, 0.012572849739359302
1242.0, 0.005633077756098349
1243.0, 0.0034701037300576077
1244.0, 0.006481865429319807
1245.0, 0.011768326042534341
1246.0, 0.007817455971046732
1247.0, 0.013286478704882641
1248.0, 0.005876482910623551
1249.0, 0.0048259400064356
1250.0, 0.00792625855282511
1251.0, 0.0030553567253405137
1252.0, 0.007276598348293635
1253.0, 0.0005547178386858748
1254.0, 0.0017667316216954305
1255.0, 0.0004557725953481303
1256.0, 0.0027825887142259144
1257.0, 0.0011664235100537121
1258.0, 0.009748977129566171
1259.0, 0.004673010752518983
1260.0, 0.002252954760061859
1261, 0.0
1262, 0.0
1263, 0.0
1264, 0.0
1265, 0.0
1266, 0.0
1267, 0.0
1268, 0.0
1269, 0.0
1270, 0.0
1271, 0.0
1272, 0.0
1273, 0.0
1274, 0.0
1275, 0.0
1276, 0.0
1277, 0.0
1278, 0.0
1279, 0.0
1280, 0.0
1281, 0.0
1282, 0.0
1283, 0.0
1284, 0.0
1285, 0.0
1286, 0.0
1287, 0.0
1288, 0.0
1289, 0.0
1290, 0.0
1291, 0.0
1292, 0.0
1293, 0.0
1294, 0.0
1295, 0.0
1296, 0.0
1297, 0.0
1298, 0.0
1299, 0.0
1300, 0.0
1301, 0.0
1302, 0.0
1303, 0.0
1304, 0.0
1305, 0.0
1306, 0.0
1307, 0.0
1308, 0.0
1309, 0.0
1310, 0.0
1311, 0.0
1312, 0.0
1313, 0.0
1314, 0.0
1315, 0.0
1316, 0.0
1317, 0.0
1318, 0.0
1319, 0.0
1320, 0.0
1321, 0.0
1322, 0.0
1323, 0.0
1324, 0.0
1325, 0.0
1326, 0.0
1327, 0.0
1328, 0.0
1329, 0.0
1330, 0.0
1331, 0.0
1332, 0.0
1333, 0.0
1334, 0.0
1335, 0.0
1336, 0.0
1337, 0.0
1338, 0.0
1339, 0.0
1340, 0.0
1341, 0.0
1342, 0.0
1343, 0.0
1344, 0.0
1345, 0.0
1346, 0.0
1347, 0.0
1348, 0.0
1349, 0.0
1350, 0.0
1351, 0.0
1352, 0.0
1353, 0.0
1354, 0.0
1355, 0.0
1356, 0.0
1357, 0.0
1358, 0.0
1359, 0.0
1360, 0.0
1361, 0.0
1362, 0.0
1363, 0.0
1364, 0.0
1365, 0.0
1366, 0.0
1367, 0.0
1368, 0.0
1369, 0.0
1370, 0.0
1371, 0.0
1372, 0.0
1373, 0.0
1374, 0.0
1375, 0.0
1376, 0.0
1377, 0.0
1378, 0.0
1379, 0.0
1380, 0.0
1381, 0.0
1382, 0.0
1383, 0.0
1384, 0.0
1385, 0.0
1386, 0.0
1387, 0.0
1388, 0.0
1389, 0.0
1390, 0.0
1391, 0.0
1392, 0.0
1393, 0.0
1394, 0.0
1395, 0.0
1396, 0.0
1397, 0.0
1398, 0.0
1399, 0.0
1400, 0.0
1401, 0.0
1402, 0.0
1403, 0.0
1404, 0.0
1405, 0.0
1406, 0.0
1407, 0.0
1408, 0.0
1409, 0.0
1410, 0.0
1411, 0.0
1412, 0.0
1413, 0.0
1414, 0.0
1415, 0.0
1416, 0.0
1417, 0.0
1418, 0.0
1419, 0.0
1420, 0.0
1421, 0.0
1422, 0.0
1423, 0.0
1424, 0.0
1425, 0.0
1426, 0.0
1427, 0.0
1428, 0.0
1429, 0.0
1430, 0.0
1431, 0.0
1432, 0.0
1433, 0.0
1434, 0.0
1435, 0.0
1436, 0.0
1437, 0.0
1438, 0.0
1439, 0.0
1440, 0.0
1441, 0.0
1442, 0.0
1443, 0.0
1444, 0.0
1445, 0.0
1446, 0.0
1447, 0.0
1448, 0.0
1449, 0.0
1450, 0.0
1451, 0.0
1452, 0.0
1453, 0.0
1454, 0.0
1455, 0.0
1456, 0.0
1457, 0.0
1458, 0.0
1459, 0.0
1460, 0.0
1461, 0.0
1462, 0.0
1463, 0.0
1464, 0.0
1465, 0.0
1466, 0.0
1467, 0.0
1468, 0.0
1469, 0.0
1470, 0.0
1471, 0.0
1472, 0.0
1473, 0.0
1474, 0.0
1475, 0.0
1476, 0.0
1477, 0.0
1478, 0.0
1479, 0.0
1480, 0.0
1481, 0.0
1482, 0.0
1483, 0.0
1484, 0.0
1485, 0.0
1486, 0.0
1487, 0.0
1488, 0.0
1489, 0.0
1490, 0.0
1491, 0.0
1492, 0.0
1493, 0.0
1494, 0.0
1495, 0.0
1496, 0.0
1497, 0.0
1498, 0.0
1499, 0.0
1500, 0.0
1501, 0.0
1502, 0.0
1503, 0.0
1504, 0.0
1505, 0.0
1506, 0.0
1507, 0.0
1508, 0.0
1509, 0.0
1510, 0.0
1511, 0.0
1512, 0.0
1513, 0.0
1514, 0.0
1515, 0.0
1516, 0.0
1517, 0.0
1518, 0.0
1519, 0.0
1520, 0.0
1521, 0.0
1522, 0.0
1523, 0.0
1524, 0.0
1525, 0.0
1526, 0.0
1527, 0.0
1528, 0.0
1529, 0.0
1530, 0.0
1531, 0.0
1532, 0.0
1533, 0.0
1534, 0.0
1535, 0.0
1536, 0.0
1537, 0.0
1538, 0.0
1539, 0.0
1540, 0.0
1541, 0.0
1542, 0.0
1543, 0.0
1544, 0.0
1545, 0.0
1546, 0.0
1547, 0.0
1548, 0.0
1549, 0.0
1550, 0.0
1551, 0.0
1552, 0.0
1553, 0.0
1554, 0.0
1555, 0.0
1556, 0.0
1557, 0.0
1558, 0.0
1559, 0.0
1560, 0.0
1561, 0.0
1562, 0.0
1563, 0.0
1564, 0.0
1565, 0.0
1566, 0.0
1567, 0.0
1568, 0.0
1569, 0.0
1570, 0.0
1571, 0.0
1572, 0.0
1573, 0.0
1574, 0.0
1575, 0.0
1576, 0.0
1577, 0.0
1578, 0.0
1579, 0.0
1580, 0.0
1581, 0.0
1582, 0.0
1583, 0.0
1584, 0.0
1585, 0.0
1586, 0.0
1587, 0.0
1588, 0.0
1589, 0.0
1590, 0.0
1591, 0.0
1592, 0.0
1593, 0.0
1594, 0.0
1595, 0.0
1596, 0.0
1597, 0.0
1598, 0.0
1599, 0.0
