30, 0.0
31, 0.0
32, 0.0
33, 0.0
34, 0.0
35, 0.0
36, 0.0
37, 0.0
38, 0.0
39, 0.0
40, 0.0
41, 0.0
42, 0.0
43, 0.0
44, 0.0
45, 0.0
46, 0.0
47, 0.0
48, 0.0
49, 0.0
50, 0.0
51, 0.0
52, 0.0
53, 0.0
54, 0.0
55, 0.0
56, 0.0
57, 0.0
58, 0.0
59, 0.0
60, 0.0
61, 0.0
62, 0.0
63, 0.0
64, 0.0
65, 0.0
66, 0.0
67, 0.0
68, 0.0
69, 0.0
70, 0.0
71, 0.0
72, 0.0
73, 0.0
74, 0.0
75, 0.0
76, 0.0
77, 0.0
78, 0.0
79, 0.0
80, 0.0
81, 0.0
82, 0.0
83, 0.0
84, 0.0
85, 0.0
86, 0.0
87, 0.0
88, 0.0
89, 0.0
90, 0.0
91, 0.0
92, 0.0
93, 0.0
94, 0.0
95, 0.0
96, 0.0
97, 0.0
98, 0.0
99, 0.0
100, 0.0
101, 0.0
102, 0.0
103, 0.0
104, 0.0
105, 0.0
106, 0.0
107, 0.0
108, 0.0
109, 0.0
110, 0.0
111, 0.0
112, 0.0
113, 0.0
114, 0.0
115, 0.0
116, 0.0
117, 0.0
118, 0.0
119, 0.0
120, 0.0
121, 0.0
122, 0.0
123, 0.0
124, 0.0
125, 0.0
126, 0.0
127, 0.0
128, 0.0
129, 0.0
130, 0.0
131, 0.0
132, 0.0
133, 0.0
134, 0.0
135, 0.0
136, 0.0
137, 0.0
138, 0.0
139, 0.0
140, 0.0
141, 0.0
142, 0.0
143, 0.0
144, 0.0
145, 0.0
146, 0.0
147, 0.0
148, 0.0
149, 0.0
150, 0.0
151, 0.0
152, 0.0
153, 0.0
154, 0.0
155, 0.0
156, 0.0
157, 0.0
158, 0.0
159, 0.0
160, 0.0
161, 0.0
162, 0.0
163, 0.0
164, 0.0
165, 0.0
166, 0.0
167, 0.0
168, 0.0
169, 0.0
170, 0.0
171, 0.0
172, 0.0
173, 0.0
174, 0.0
175, 0.0
176, 0.0
177, 0.0
178, 0.0
179, 0.0
180, 0.0
181, 0.0
182, 0.0
183, 0.0
184, 0.0
185, 0.0
186, 0.0
187, 0.0
188, 0.0
189, 0.0
190, 0.0
191, 0.0
192, 0.0
193, 0.0
194, 0.0
195, 0.0
196, 0.0
197, 0.0
198, 0.0
199, 0.0
200, 0.0
201, 0.0
202, 0.0
203, 0.0
204, 0.0
205, 0.0
206, 0.0
207, 0.0
208, 0.0
209, 0.0
210, 0.0
211, 0.0
212, 0.0
213, 0.0
214, 0.0
215, 0.0
216, 0.0
217, 0.0
218, 0.0
219, 0.0
220, 0.0
221, 0.0
222, 0.0
223, 0.0
224, 0.0
225, 0.0
226, 0.0
227, 0.0
228, 0.0
229, 0.0
230, 0.0
231, 0.0
232, 0.0
233, 0.0
234, 0.0
235, 0.0
236, 0.0
237, 0.0
238, 0.0
239, 0.0
240, 0.0
241, 0.0
242, 0.0
243, 0.0
244, 0.0
245, 0.0
246, 0.0
247, 0.0
248, 0.0
249, 0.0
250, 0.0
251, 0.0
252, 0.0
253, 0.0
254, 0.0
255, 0.0
256, 0.0
257, 0.0
258, 0.0
259.0, 0.022374019844059217
260.0, 0.039637812446840615
261.0, 0.0165644265410778
262.0, 0.054056866125312505
263.0, 0.07725330610049799
264.0, 0.08379745135881929
265.0, 0.08428853212857224
266.0, 0.05791780824347069
267.0, 0.030062392567538593
268.0, 0.011574797136121513
269.0, 0.03601713626896587
270.0, 0.022236947797517538
271.0, 0.012911403212543976
272.0, 0.03687724109481433
273.0, 0.023883053971808163
274.0, 0.01100823472471529
275.0, 0.017282661487489047
276.0, 0.0759653485850963
277.0, 0.05525588681913719
278.0, 0.043683494927740756
279.0, 0.04521005390956614
280.0, 0.03566289596567108
281.0, 0.05898756647035872
282.0, 0.06259725026098298
283.0, 0.03714833458698455
284.0, 0.07309133190285076
285.0, 0.10711918574443176
286.0, 0.11108486358372072
287.0, 0.06157074052073866
288.0, 0.08254590138520446
289.0, 0.08805021475543881
290.0, 0.08229086379973605
291.0, 0.07178480023611754
292.0, 0.08975123412395622
293.0, 0.1122379656200558
294.0, 0.1307965674900434
295.0, 0.1256500349235342
296.0, 0.11817915918292184
297.0, 0.12286802532656804
298.0, 0.1400940152153595
299.0, 0.13264363128921264
300.0, 0.13103214002045843
301.0, 0.13606713671488938
302.0, 0.14827047994099504
303.0, 0.12365085553365954
304.0, 0.12553366012588954
305.0, 0.1290299570046962
306.0, 0.10199302037734659
307.0, 0.11622860053912047
308.0, 0.10151878148525022
309.0, 0.06909642326671495
310.0, 0.05984835616441281
311.0, 0.0843153401184061
312.0, 0.09779633016125489
313.0, 0.09255229851751078
314.0, 0.07800572113642922
315.0, 0.08378959034802967
316.0, 0.0855770651952362
317.0, 0.07515473001038764
318.0, 0.08996765424260857
319.0, 0.08669591525043041
320.0, 0.07398750726496542
321.0, 0.05797886403143381
322.0, 0.03721339208627845
323.0, 0.020643411485133854
324.0, 0.008454291971894849
325.0, 0.0012490683733448896
326.0, 0.012646944460493914
327.0, 0.01370146453355088
328.0, 0.009135610291637704
329.0, 0.0205624734097686
330.0, 0.030297891044930414
331.0, 0.03002144478731063
332.0, 0.021013196895440903
333.0, 0.02150321380101203
334.0, 0.05246270902034275
335.0, 0.08283246862046811
336.0, 0.1010029489854151
337.0, 0.12935701207986167
338.0, 0.1639089669357308
339.0, 0.21076930104107386
340.0, 0.27541653429190366
341.0, 0.3633743209714498
342.0, 0.43941723736913224
343.0, 0.5160328274324585
344.0, 0.6098680322885686
345.0, 0.6960863266058676
346.0, 0.7647184025084023
347.0, 0.8162486894907794
348.0, 0.8513561627460036
349.0, 0.8767263956032141
350.0, 0.886067996861492
351.0, 0.8809468970943004
352.0, 0.8702850762986386
353.0, 0.8555664601709119
354.0, 0.8226048410499756
355.0, 0.7712351440138496
356.0, 0.7313467622118129
357.0, 0.6480688923861528
358.0, 0.5643294284467406
359.0, 0.5001035781679107
360.0, 0.44383398687315534
361.0, 0.3744414573816304
362.0, 0.31343953239619904
363.0, 0.2775558388584442
364.0, 0.22781287420846458
365.0, 0.19001654328324216
366.0, 0.1721765989926254
367.0, 0.18578830892041248
368.0, 0.18286011717480055
369.0, 0.18662442309329128
370.0, 0.19079871163002673
371.0, 0.1814200388649313
372.0, 0.21260468269672225
373.0, 0.2479867104598264
374.0, 0.28692430968844107
375.0, 0.34048971144982
376.0, 0.4107461073371633
377.0, 0.48840521094012146
378.0, 0.5673075792431826
379.0, 0.628811298065305
380.0, 0.7256358797315196
381.0, 0.797066491931382
382.0, 0.8305738354476937
383.0, 0.878015133222773
384.0, 0.9352480048300366
385.0, 0.9633539093626848
386.0, 0.9501332119129438
387.0, 0.9891221001749112
388.0, 0.9636985094689027
389.0, 0.915976434218864
390.0, 0.87108982997633
391.0, 0.769944158315726
392.0, 0.678891846137372
393.0, 0.5944778362495914
394.0, 0.5138729519662778
395.0, 0.42747354382343966
396.0, 0.3452160144142154
397.0, 0.2705574291518163
398.0, 0.20838545608788586
399.0, 0.163606401330224
400.0, 0.12687359466637335
401.0, 0.11256488640091929
402.0, 0.14884760034978062
403.0, 0.10805361147944102
404.0, 0.08554752455132196
405.0, 0.07507029142814278
406.0, 0.04054595911579835
407.0, 0.0345855758158493
408.0, 0.028047050404271846
409.0, 0.018730432748704434
410.0, 0.013568547824082301
411.0, 0.011675754402792459
412.0, 0.007786104785751809
413.0, 0.0021993266327382417
414.0, 0.0007189193648625549
415.0, 0.013909678165612616
416.0, 0.029679598553635368
417.0, 0.03938595161428497
418.0, 0.014575650575426499
419.0, 0.014909498193478312
420.0, 0.01654020191662365
421.0, 0.013634646455233736
422.0, 0.026054077576178586
423.0, 0.029146527757792307
424.0, 0.028575588381194686
425.0, 0.02611959447716932
426.0, 0.01535338281726269
427.0, 0.013872506266730785
428.0, 0.01999689192245737
429.0, 0.03176051807227276
430.0, 0.029725764073520382
431.0, 0.03896197238260804
432.0, 0.046770260251308884
433.0, 0.045441356264899875
434.0, 0.05039553991403609
435.0, 0.06712355226507258
436.0, 0.08130284361820317
437.0, 0.08200331495526253
438.0, 0.07923037778576085
439.0, 0.08873504885529118
440.0, 0.09328137430739562
441.0, 0.07739306005128609
442.0, 0.068555383098459
443.0, 0.07640996991568601
444.0, 0.09141057638225365
445.0, 0.10388964388062288
446.0, 0.07545765627010538
447.0, 0.07939102450169418
448.0, 0.08667909391755979
449.0, 0.06271140574077119
450.0, 0.059717511682468506
451.0, 0.07610441969517306
452.0, 0.09243444034476885
453.0, 0.08388236228131175
454.0, 0.07946135083693211
455.0, 0.07269026955545987
456.0, 0.07149758849086447
457.0, 0.08751061723582332
458.0, 0.08408249174516179
459.0, 0.08684700495471132
460.0, 0.09416671734593582
461.0, 0.10194176915756459
462.0, 0.07201760066471893
463.0, 0.061211245765429904
464.0, 0.07466316488905116
465.0, 0.11644602302509552
466.0, 0.10508042956660724
467.0, 0.11427559386025174
468.0, 0.12990616935597027
469.0, 0.12118336889873
470.0, 0.12323318421138252
471.0, 0.11822027503031438
472.0, 0.11041044461805014
473.0, 0.10893195305290321
474.0, 0.10893763013120603
475.0, 0.1239047676607184
476.0, 0.13690080607024233
477.0, 0.11768242770548207
478.0, 0.1340129680660006
479.0, 0.15068236368954255
480.0, 0.15905589124625885
481.0, 0.14871680865292483
482.0, 0.15425010533148886
483.0, 0.15480269867559493
484.0, 0.1601313872742184
485.0, 0.18885583424453817
486.0, 0.19249832896883437
487.0, 0.19295821766209773
488.0, 0.19693564950575976
489.0, 0.2127447204932043
490.0, 0.1958882595222883
491.0, 0.19061397294697932
492.0, 0.19341854990244137
493.0, 0.19536832915338767
494.0, 0.18660446215926574
495.0, 0.19979996326269459
496.0, 0.2201123693300212
497.0, 0.22468572260861203
498.0, 0.21927039599154488
499.0, 0.23116955102014516
500.0, 0.23464165023828223
501.0, 0.19500866648078977
502.0, 0.21035658379907396
503.0, 0.2097080942318726
504.0, 0.20616091988864682
505.0, 0.21737372645152145
506.0, 0.2003878758324191
507.0, 0.20113961580956263
508.0, 0.2129263271368801
509.0, 0.2279569318787249
510.0, 0.20812502703572888
511.0, 0.19951233651725292
512.0, 0.20151121874104125
513.0, 0.21348635945599376
514.0, 0.23523245327023853
515.0, 0.2431333833219136
516.0, 0.2398499416820091
517.0, 0.22923241657320947
518.0, 0.25548760547469285
519.0, 0.2750363337854676
520.0, 0.2884120582030993
521.0, 0.2942603720865673
522.0, 0.26610402610838857
523.0, 0.2717549099763719
524.0, 0.28228875411520343
525.0, 0.28150840862297305
526.0, 0.27989794078818675
527.0, 0.29778689147940385
528.0, 0.30165636038254834
529.0, 0.283110124944609
530.0, 0.30696531040797914
531.0, 0.3160959739211462
532.0, 0.32497604300890826
533.0, 0.3362238620227197
534.0, 0.331246033567375
535.0, 0.3310078767330801
536.0, 0.34089020948297943
537.0, 0.35562031950066464
538.0, 0.34403300951580174
539.0, 0.33773863817134453
540.0, 0.3391964722465587
541.0, 0.3482658271168282
542.0, 0.36239889356548693
543.0, 0.3652611017123198
544.0, 0.3524179196950554
545.0, 0.3301174368728415
546.0, 0.31646677284403
547.0, 0.3237947615938893
548.0, 0.3565764242139431
549.0, 0.3868189730312398
550.0, 0.3583556351751543
551.0, 0.36121377937901117
552.0, 0.3723925048263336
553.0, 0.37732043609094473
554.0, 0.35706344500178905
555.0, 0.3788468160481053
556.0, 0.39441903935038264
557.0, 0.3963829216938146
558.0, 0.378844276956635
559.0, 0.38976206542663794
560.0, 0.39378247595622523
561.0, 0.4077038511372074
562.0, 0.4421511290891891
563.0, 0.41747654136673523
564.0, 0.3870497570902415
565.0, 0.3837909618357806
566.0, 0.41815763384639393
567.0, 0.38731851788424604
568.0, 0.3682807975437125
569.0, 0.37072143517424255
570.0, 0.3932860944019759
571.0, 0.40116608419191885
572.0, 0.39241767079904105
573.0, 0.39590427527744165
574.0, 0.40743866885855584
575.0, 0.3759874661669685
576.0, 0.37434138680086176
577.0, 0.37696696395780865
578.0, 0.36995833614768253
579.0, 0.33107561406133
580.0, 0.3112649990589498
581.0, 0.29540526218121865
582.0, 0.27559668212784116
583.0, 0.2413191521223416
584.0, 0.23588851043718218
585.0, 0.21850799369233054
586.0, 0.20539211434362042
587.0, 0.21815636957243156
588.0, 0.17087010915729964
589.0, 0.15787699596131047
590.0, 0.15420140372075178
591.0, 0.139678875679944
592.0, 0.12759926469771496
593.0, 0.13270588338951914
594.0, 0.13422020773970328
595.0, 0.12157098626178195
596.0, 0.10043978674002717
597.0, 0.11308978787936085
598.0, 0.12217425113103375
599.0, 0.11585311345238127
600.0, 0.09924173829153876
601.0, 0.11508246115737887
602.0, 0.10985221073334056
603.0, 0.09107880508371607
604.0, 0.10484242986860212
605.0, 0.11605132692888323
606.0, 0.10593113972028402
607.0, 0.08893542766532057
608.0, 0.09024114543290881
609.0, 0.1000089952736106
610.0, 0.10772733760042541
611.0, 0.1053109260640082
612.0, 0.08727318592780636
613.0, 0.10280641824227948
614.0, 0.10602194799358808
615.0, 0.09975993170142244
616.0, 0.08807881483469425
617.0, 0.08913905791900059
618.0, 0.06667988000614451
619.0, 0.07158420135426309
620.0, 0.10470472429119479
621.0, 0.09399557999213762
622.0, 0.10774679183358976
623.0, 0.10061105125417406
624.0, 0.07866118356346226
625.0, 0.07691296540738772
626.0, 0.08112195495873614
627.0, 0.07770949832358519
628.0, 0.07528920700853685
629.0, 0.08681532530210234
630.0, 0.10516401225502713
631.0, 0.09371827826734454
632.0, 0.07444981285136054
633.0, 0.06560525254929289
634.0, 0.06562993244598182
635.0, 0.07623584489597321
636.0, 0.07070358735028773
637.0, 0.04593239708703989
638.0, 0.049861384543883405
639.0, 0.0775201222974333
640.0, 0.07649744167093227
641.0, 0.06377141881856815
642.0, 0.11798207032634037
643.0, 0.08974987282605942
644.0, 0.07575504386660513
645.0, 0.07365717835359749
646.0, 0.06461344651668761
647.0, 0.043870938245750744
648.0, 0.04204243663265595
649.0, 0.041087880000571474
650.0, 0.028737738981765085
651.0, 0.04279063691542899
652.0, 0.0543334505196379
653.0, 0.04435165422553149
654.0, 0.018903887822048215
655.0, 0.04508672837065923
656.0, 0.05333017377068006
657.0, 0.05506252057712803
658.0, 0.0559277394233633
659.0, 0.06290062088099842
660.0, 0.049410653682996714
661.0, 0.04719461141179408
662.0, 0.04353474009564599
663.0, 0.020959195424908126
664.0, 0.02308119675086779
665.0, 0.028931702423846812
666.0, 0.03511855677621093
667.0, 0.03883983197313665
668.0, 0.036037790843596956
669.0, 0.015143590151247839
670.0, 0.010366636972255054
671.0, 0.024649611145384158
672.0, 0.03184162925580062
673.0, 0.023550685738282503
674.0, 0.032272264253465376
675.0, 0.04522709403049518
676.0, 0.03595704094645931
677.0, 0.0168578825766346
678.0, 0.034751983252410815
679.0, 0.04459678928359981
680.0, 0.016932780203465066
681.0, 0.034607961550675546
682.0, 0.03368379214990082
683.0, 0.02710715661476738
684.0, 0.022749432426515746
685.0, 0.030484072469165294
686.0, 0.02073319032384085
687.0, 0.0166763882970454
688.0, 0.02074851503318184
689.0, 0.030165815442611297
690.0, 0.0457811900909839
691.0, 0.038455636617229144
692.0, 0.026247921534396722
693.0, 0.02489759971587583
694.0, 0.024171241557744874
695.0, 0.01942165907089044
696.0, 0.024316292493107967
697.0, 0.03660607442559494
698.0, 0.027124534931984492
699.0, 0.02794741461774626
700.0, 0.04091425129469639
701.0, 0.04835313132608151
702.0, 0.02126307870484148
703.0, 0.03432664391955599
704.0, 0.03756259354153339
705.0, 0.035403630455657115
706.0, 0.03318350469326411
707.0, 0.03756777383837759
708.0, 0.030485252934328046
709.0, 0.02739489290411533
710.0, 0.0276990636527648
711.0, 0.011929193745127782
712.0, 0.009306921989773955
713.0, 0.0047932331799135286
714.0, 0.00675291358278112
715.0, 0.028283303233470197
716.0, 0.012536121406742508
717.0, 0.01709966961435318
718.0, 0.02190621766487972
719.0, 0.01664662786392737
720.0, 0.019567787869561835
721.0, 0.014418160366743484
722.0, 0.006855010311203209
723.0, 0.0031766945636454774
724.0, 0.014169946980617517
725.0, 0.011613725629649739
726.0, 0.03657176417544414
727.0, 0.054865499166586326
728.0, 0.03391468579043794
729.0, 0.045975160796367716
730.0, 0.060874093127197944
731.0, 0.048023594642753624
732.0, 0.013550543381745998
733.0, 0.030602099653398076
734.0, 0.02900894785238098
735.0, 0.04095814593563647
736.0, 0.05297969613598146
737.0, 0.03827879100674719
738.0, 0.022826233806803806
739.0, 0.02742702388473097
740.0, 0.04185002570501689
741.0, 0.05417190497464678
742.0, 0.03586597138102712
743.0, 0.040479185312670085
744.0, 0.044276850704245974
745.0, 0.04205225468796497
746.0, 0.0356272365017622
747.0, 0.04707876800467824
748.0, 0.03434052904319207
749.0, 0.02770756931600067
750.0, 0.04847259911188899
751.0, 0.02779492811325031
752.0, 0.04134888580512179
753.0, 0.046099369414428416
754.0, 0.040356221043277934
755.0, 0.061018935343729604
756.0, 0.04267381062308199
757.0, 0.03047429485460511
758.0, 0.028960694542233562
759.0, 0.03702232406368047
760.0, 0.03789417392189857
761.0, 0.03371338466327556
762.0, 0.029965511939265613
763.0, 0.028243893212775005
764.0, 0.02565987320869308
765.0, 0.019492543209731088
766.0, 0.01962124509713997
767.0, 0.02226856529729107
768.0, 0.021281470536320946
769.0, 0.026837834638979027
770.0, 0.03095451241826933
771.0, 0.03131785661833973
772.0, 0.029121438048676767
773.0, 0.03348106332221086
774.0, 0.03244902106307785
775.0, 0.03350261191991446
776.0, 0.03633498753734513
777.0, 0.038757547104537514
778.0, 0.037084875418883244
779.0, 0.03984759792834332
780.0, 0.03898779650175359
781.0, 0.032202412223171904
782.0, 0.028307760001687696
783.0, 0.030507842527098934
784.0, 0.025204943544441864
785.0, 0.018727393094584377
786.0, 0.022825738460790758
787.0, 0.01803001590527002
788.0, 0.020075074225306196
789.0, 0.01649753721249229
790.0, 0.005223396864722404
791.0, 0.005767333942524417
792.0, 0.04345366725013643
793.0, 0.040207709827102325
794.0, 0.021495196524465354
795.0, 0.03752933660693231
796.0, 0.017919131349845588
797.0, 0.018254733029330686
798.0, 0.0328842124719657
799.0, 0.050471234515710166
800.0, 0.040948273353814776
801.0, 0.02720176934078986
802.0, 0.02848269457354205
803.0, 0.034601658576206853
804.0, 0.029570705783823682
805.0, 0.012826802351928396
806.0, 0.025367179952700408
807.0, 0.03784464549512941
808.0, 0.038243086907488344
809.0, 0.030574054164586445
810.0, 0.046170051273747105
811.0, 0.037138670162367556
812.0, 0.022018965063383793
813.0, 0.02467584047122235
814.0, 0.03153336588963079
815.0, 0.03260578168846541
816.0, 0.025405635176727375
817.0, 0.01396188798360093
818.0, 0.010204418857469609
819.0, 0.018604503717789364
820.0, 0.01871737660208944
821.0, 0.021313174669766476
822.0, 0.03241467673721353
823.0, 0.022494660400788652
824.0, 0.029262800901188726
825.0, 0.02621411297895657
826.0, 0.017069993699812935
827.0, 0.021257814467880828
828.0, 0.02388813729997555
829.0, 0.016153722461657333
830.0, 0.010673643751308056
831.0, 0.011944457274378699
832.0, 0.003416160587772609
833.0, 0.00908827587243794
834.0, 0.01528206627279057
835.0, 0.01440469241905176
836.0, 0.0012962590401579637
837.0, 0.004392519024415539
838.0, 0.016465421101416265
839.0, 0.029665478086023704
840.0, 0.03385505229740362
841.0, 0.01053019389916702
842.0, 0.007593360645936781
843.0, 0.004107779514402083
844.0, 0.002779421170802829
845.0, 0.006238933460129953
846.0, 0.005259678143786705
847.0, 0.0020991105833344376
848.0, 0.0014469531481841838
849.0, 0.004158486697916859
850.0, 0.009348487706821368
851.0, 0.029179843908693125
852.0, 0.03861585894028172
853.0, 0.035389113561677885
854.0, 0.022725056518563398
855.0, 0.016040326629932603
856.0, 0.011095406356900506
857.0, 0.007351607225962926
858.0, 0.00514888913602492
859.0, 0.007156747177641157
860.0, 0.03955234423922052
861.0, 0.019554451851646844
862.0, 0.0042981068094612735
863.0, 0.007986811260299494
864.0, 0.02050567046880042
865.0, 0.007567212280426207
866.0, 0.0077715406336584
867.0, 0.010318591838819936
868.0, 0.012154805136329012
869.0, 0.032845268504557906
870.0, 0.021368621607149703
871.0, 0.013589363893162527
872.0, 0.0176440663109461
873.0, 0.0332690068521438
874.0, 0.025970156453776084
875.0, 0.018880687131387103
876.0, 0.02234873166879442
877.0, 0.03186285589953558
878.0, 0.03165585186321061
879.0, 0.029102630476025803
880.0, 0.01494922212313998
881.0, 0.010200471984108813
882.0, 0.018508905783016213
883.0, 0.0047119263956096604
884.0, 0.0165474115408175
885.0, 0.023436324048196035
886.0, 0.019682781659025483
887.0, 0.006623047473039037
888.0, 0.008834858159547166
889.0, 0.007873849755716847
890.0, 0.005239827627319293
891.0, 0.004841806327678052
892.0, 0.012031232468684603
893.0, 0.01125131678084546
894.0, 0.017271492318975415
895.0, 0.025283500938250204
896.0, 0.035067409547245514
897.0, 0.0531068465439756
898.0, 0.022091422529854424
899.0, 0.03040216335646007
900.0, 0.035339904737315485
901.0, 0.009969513457273461
902.0, 0.022132190753983205
903.0, 0.045774588054691374
904.0, 0.046157963039381675
905.0, 0.03556347911023645
906.0, 0.03610114256738309
907.0, 0.029720372403311983
908.0, 0.024787945620596153
909.0, 0.043282739470790026
910.0, 0.06384113677185409
911.0, 0.03385708789400116
912.0, 0.06245814400775766
913.0, 0.03226903080041607
914.0, 0.017247663726584993
915.0, 0.03851339047358168
916.0, 0.037956308643426924
917.0, 0.02302026536596285
918.0, 0.028246053980436697
919.0, 0.033289420322831505
920.0, 0.022041842827911853
921.0, 0.006357134739307798
922.0, 0.017728437112703874
923.0, 0.029802035071532167
924.0, 0.02921334693354654
925.0, 0.014795557941649683
926.0, 0.07037236972466007
927.0, 0.031294231313396356
928.0, 0.027449860172475516
929.0, 0.04945298088663555
930.0, 0.02540017851673101
931.0, 0.03399520967606465
932.0, 0.061657014151987946
933.0, 0.05064415694338521
934.0, 0.01991317888743773
935.0, 0.06772878497461822
936.0, 0.05694322000899616
937.0, 0.04763205306034068
938.0, 0.03959300643748877
939.0, 0.03069354502673715
940.0, 0.017557117137697118
941.0, 0.0199691249464291
942.0, 0.017585494104156787
943.0, 0.019919427339439258
944.0, 0.03281583563843955
945.0, 0.04061236457659883
946.0, 0.04928880703509523
947.0, 0.04936571824071227
948.0, 0.046594968761364326
949.0, 0.04581304517540643
950.0, 0.023370071175473336
951.0, 0.041436883288245824
952.0, 0.06123903438011173
953.0, 0.06338639969744271
954.0, 0.04139350965725775
955.0, 0.08482798053933165
956.0, 0.05312406511982337
957.0, 0.048700339663055585
958.0, 0.07086738778676097
959.0, 0.06132474526492498
960.0, 0.06305665107968557
961.0, 0.06676753690431642
962.0, 0.06153985828281782
963.0, 0.050703488293471856
964.0, 0.0513056292973392
965.0, 0.03145109968981005
966.0, 0.050824576926256256
967.0, 0.07858561307467526
968.0, 0.09674540289758511
969.0, 0.10512527640818535
970.0, 0.08325524354810915
971.0, 0.07352385136506333
972.0, 0.06407091627099282
973.0, 0.050175074300399816
974.0, 0.04713431372359281
975.0, 0.107448584273659
976.0, 0.0875405484488986
977.0, 0.06663068911760098
978.0, 0.08749243618597957
979.0, 0.03163901201435709
980.0, 0.05475177636617805
981.0, 0.07741947717602782
982.0, 0.06764222443648743
983.0, 0.026785191272537038
984.0, 0.05923777352476002
985.0, 0.05376511221840115
986.0, 0.055482476466189985
987.0, 0.06441478173258451
988.0, 0.06975966224055706
989.0, 0.048551791466585385
990.0, 0.06606608205296277
991.0, 0.06650357912506044
992.0, 0.06260609824703456
993.0, 0.07817982946825705
994.0, 0.09827205956592985
995.0, 0.07958631437273517
996.0, 0.06841955924501258
997.0, 0.06906877583982514
998.0, 0.07243339824649701
999.0, 0.0645477611301646
1000.0, 0.056040432275593736
1001.0, 0.057040503058881926
1002.0, 0.062126973747714524
1003.0, 0.06083195720048859
1004.0, 0.05134523401118292
1005.0, 0.050283380096655915
1006.0, 0.04809991179383297
1007.0, 0.052385436163272105
1008.0, 0.07084458202279392
1009.0, 0.03651293510878897
1010.0, 0.056532386919115725
1011.0, 0.06035598617176055
1012.0, 0.054499614381638986
1013.0, 0.07320247464815018
1014.0, 0.0804719668236707
1015.0, 0.08134878472003576
1016.0, 0.08538524448786022
1017.0, 0.08930820511781534
1018.0, 0.08521995064302573
1019.0, 0.08048641204805133
1020.0, 0.09584370583594036
1021.0, 0.09713493542682594
1022.0, 0.08736042560670905
1023.0, 0.08534340464579372
1024.0, 0.09278564857496295
1025.0, 0.08570602267662694
1026.0, 0.08691681081158985
1027.0, 0.09088686674250168
1028.0, 0.08411678220197859
1029.0, 0.10420206473677224
1030.0, 0.09255379974891637
1031.0, 0.0752019634313237
1032.0, 0.07578794683820603
1033.0, 0.10722893263167532
1034.0, 0.08787241260090548
1035.0, 0.07978694480339284
1036.0, 0.07784916533088786
1037.0, 0.08022078560741831
1038.0, 0.0862907715412272
1039.0, 0.0987413681675171
1040.0, 0.09601004318871444
1041.0, 0.095051465634515
1042.0, 0.09643736254140603
1043.0, 0.09616755668056538
1044.0, 0.09399358020484024
1045.0, 0.0924980696191923
1046.0, 0.09729636247080091
1047.0, 0.10362312001473116
1048.0, 0.1077947335122707
1049.0, 0.12673170089439662
1050.0, 0.12885426594314964
1051.0, 0.12299242641127987
1052.0, 0.1086202502695442
1053.0, 0.09072222893183755
1054.0, 0.1023650058934177
1055.0, 0.09454807641382829
1056.0, 0.10431513172412707
1057.0, 0.1123915266787762
1058.0, 0.10463134730356757
1059.0, 0.10788434992512388
1060.0, 0.10668878618069802
1061.0, 0.09886668352652284
1062.0, 0.09918018136483786
1063.0, 0.10806719689411186
1064.0, 0.09073671024120797
1065.0, 0.10348474975608721
1066.0, 0.09789532341945086
1067.0, 0.08612345024105919
1068.0, 0.08450657583915794
1069.0, 0.10959906511193639
1070.0, 0.08079087838761255
1071.0, 0.09188681761579114
1072.0, 0.0941329176808071
1073.0, 0.07612921313601376
1074.0, 0.07200844788596031
1075.0, 0.10572965883809485
1076.0, 0.12728384398121864
1077.0, 0.12327846707828055
1078.0, 0.10813146114979773
1079.0, 0.1134767766326764
1080.0, 0.0911817246623342
1081.0, 0.09063830894190222
1082.0, 0.1050097011780574
1083.0, 0.1100923852250434
1084.0, 0.08335517218197756
1085.0, 0.09704392798771531
1086.0, 0.07410847751302543
1087.0, 0.06529202905729961
1088.0, 0.07853917873467042
1089.0, 0.09770417155327044
1090.0, 0.056632159498882916
1091.0, 0.05461051663513314
1092.0, 0.07365335030821134
1093.0, 0.07688828241205935
1094.0, 0.05194775149306557
1095.0, 0.06585477866909523
1096.0, 0.06702399662028502
1097.0, 0.07259641299470956
1098.0, 0.07344220023533878
1099.0, 0.06697365568528776
1100.0, 0.0652383180544907
1101.0, 0.09790674880485328
1102.0, 0.08599222478690563
1103.0, 0.069437405269709
1104.0, 0.07063348540955046
1105.0, 0.0888792113288131
1106.0, 0.07002652239658548
1107.0, 0.06823318035478891
1108.0, 0.06744811815405968
1109.0, 0.06405525335029139
1110.0, 0.06212845559142727
1111.0, 0.07240781379330113
1112.0, 0.06946819882146231
1113.0, 0.0598303513080647
1114.0, 0.05477138545626707
1115.0, 0.05523243516333719
1116.0, 0.01474739763384613
1117.0, 0.01889555878146481
1118.0, 0.03550243617340697
1119.0, 0.038133030227117844
1120.0, 0.025274807646103688
1121.0, 0.04329238273583019
1122.0, 0.03361887698388915
1123.0, 0.04083929719297966
1124.0, 0.048879273990354605
1125.0, 0.046925494505228364
1126.0, 0.03419786256565502
1127.0, 0.050806118805520446
1128.0, 0.06151045310836234
1129.0, 0.06679487635581419
1130.0, 0.059943144779700835
1131.0, 0.037963400984309045
1132.0, 0.04827043431107357
1133.0, 0.049070452520054174
1134.0, 0.056077312626906246
1135.0, 0.05115816022046361
1136.0, 0.03005976992961798
1137.0, 0.052741470809351806
1138.0, 0.02806263402263673
1139.0, 0.026860868989461197
1140.0, 0.033162867144841304
1141.0, 0.02811758516593963
1142.0, 0.001172511887178953
1143.0, 0.032605782694234364
1144.0, 0.032541829930656616
1145.0, 0.01647521265482475
1146.0, 0.014328171292395442
1147.0, 0.050588168136298406
1148.0, 0.03593940508402082
1149.0, 0.034574925958996666
1150.0, 0.021386027265831855
1151.0, 0.01246329968680849
1152.0, 0.02067754081573146
1153.0, 0.015316581444885628
1154.0, 0.038074070852314325
1155.0, 0.035923250756129795
1156.0, 0.025495747200754242
1157.0, 0.01930036811923623
1158.0, 0.015591244900894816
1159.0, 0.0031372835411189962
1160.0, 0.007828279374172882
1161.0, 0.010604203033166976
1162.0, 0.008887964901299929
1163.0, 0.009415804258615084
1164.0, 0.01755650933051639
1165.0, 0.021043855487576858
1166.0, 0.022970319162882787
1167.0, 0.016229614757292597
1168.0, 0.006363143940610369
1169.0, 0.03129693984380637
1170.0, 0.011786840973913653
1171.0, 0.009477348853551051
1172.0, 0.006898622343136249
1173.0, 0.008085013057329938
1174.0, 0.03313104984236949
1175.0, 0.013210520869112886
1176.0, 0.0430530881888599
1177.0, 0.034006626399006944
1178.0, 0.010032887656848483
1179.0, 0.01737486149409734
1180.0, 0.04104952746602439
1181.0, 0.017245849484654775
1182.0, 0.027451976248498912
1183.0, 0.03403727109391025
1184.0, 0.02101845136596602
1185.0, 0.015489911542729762
1186.0, 0.05507262102655898
1187.0, 0.05016744396433576
1188.0, 0.03445026025426367
1189.0, 0.030993841782150817
1190.0, 0.045571311692876704
1191.0, 0.03145153495138767
1192.0, 0.03243128095276692
1193.0, 0.0415783336109591
1194.0, 0.038575421748152455
1195.0, 0.025221319735890042
1196.0, 0.03730559233878207
1197.0, 0.04038387716571981
1198.0, 0.026734506596122566
1199.0, 0.024960816384614365
1200.0, 0.028702568019837907
1201.0, 0.01882214448000888
1202.0, 0.010602490471173162
1203.0, 0.0350716240458528
1204.0, 0.030139387647958718
1205.0, 0.03477370889903505
1206.0, 0.057083356634303056
1207.0, 0.03472887918100019
1208.0, 0.030068577999874082
1209.0, 0.0251423392679393
1210.0, 0.02431698254835589
1211.0, 0.027917584756953533
1212.0, 0.03230569662407473
1213.0, 0.02580994061524474
1214.0, 0.022193685276486633
1215.0, 0.03452365642313173
1216.0, 0.036699421634905
1217.0, 0.022534809653703417
1218.0, 0.021392778730023314
1219.0, 0.06314662585083938
1220.0, 0.03829898169183824
1221.0, 0.03147256416029388
1222.0, 0.05298311249284384
1223.0, 0.06921124376935131
1224.0, 0.015552701449731032
1225.0, 0.04028295322597101
1226.0, 0.021257842862191213
1227.0, 0.026109111956301105
1228.0, 0.06162671010843843
1229.0, 0.054085110789850246
1230.0, 0.06110604977123301
1231.0, 0.04111068730878659
1232.0, 0.05191576404769224
1233.0, 0.05739810495315182
1234.0, 0.028195886401303834
1235.0, 0.03469444144822937
1236.0, 0.0269119921261068
1237.0, 0.02850980614326422
1238.0, 0.03774461066802348
1239.0, 0.047403027491137645
1240.0, 0.05173243022735937
1241.0, 0.07645859449859195
1242.0, 0.07232096308189638
1243.0, 0.04853754130113337
1244.0, 0.03609471884182122
1245.0, 0.04150989357770453
1246.0, 0.026048012377890232
1247.0, 0.020363034433136546
1248.0, 0.03049558617708719
1249.0, 0.048062498906683564
1250.0, 0.04840347178495001
1251.0, 0.02349357414990034
1252.0, 0.047078272493333725
1253.0, 0.033273018499688035
1254.0, 0.040257545554869295
1255.0, 0.04998827533516639
1256.0, 0.05644899779727886
1257.0, 0.06784382820591872
1258.0, 0.060939803008220904
1259.0, 0.037697838558585196
1260.0, 0.029102176992091566
1261.0, 0.027594104050299634
1262.0, 0.02164742302537453
1263.0, 0.009948993807878398
1264.0, 0.02691045963127504
1265.0, 0.02550397156799606
1266.0, 0.022390244675801627
1267.0, 0.034047593953099836
1268.0, 0.05682204038499249
1269.0, 0.026168438103219366
1270.0, 0.04004102908857816
1271.0, 0.039709314916309094
1272.0, 0.02641565518276676
1273.0, 0.02178818088895414
1274.0, 0.047647334911398796
1275.0, 0.05012332290587493
1276.0, 0.04756952758607452
1277.0, 0.0509754001259267
1278.0, 0.053124223553278005
1279.0, 0.04981694872158207
1280.0, 0.045719513132021286
1281.0, 0.052642515064221254
1282.0, 0.041282275814193164
1283.0, 0.041689059607447176
1284.0, 0.05024633935610123
1285.0, 0.048261188859245865
1286.0, 0.011308418765409788
1287.0, 0.03442632028321356
1288.0, 0.014448883363478075
1289.0, 0.024203890074899943
1290.0, 0.048698938454580086
1291.0, 0.04143011362159153
1292.0, 0.012738290418507006
1293.0, 0.022939489692154313
1294.0, 0.02740524366202466
1295.0, 0.022834769360874398
1296.0, 0.02769928514568417
1297.0, 0.05850887892586809
1298.0, 0.046123981325741636
1299.0, 0.029420485389206746
1300.0, 0.04201980436391578
1301.0, 0.0476700444854034
1302.0, 0.03751712048093453
1303.0, 0.038798660921309125
1304.0, 0.03294835297837916
1305.0, 0.016221591507874073
1306.0, 0.007031149685645703
1307.0, 0.004995725888682654
1308.0, 0.008359405794025603
1309.0, 0.01838534982351368
1310.0, 0.011578999967928298
1311.0, 0.006862742990809816
1312.0, 0.004711373894422028
1313.0, 0.008116766300214373
1314.0, 0.017162498855721228
1315.0, 0.025171679040045587
1316.0, 0.006015965373040381
1317.0, 0.005392088335445619
1318.0, 0.0071684267392339565
1319.0, 0.01543491551337273
1320.0, 0.03036819777684344
1321.0, 0.02342737543623691
1322.0, 0.012749880056822205
1323.0, 0.02951952212443877
1324.0, 0.024024519571177832
1325.0, 0.007329567643524844
1326.0, 0.015252979381179577
1327.0, 0.05771384070020863
1328.0, 0.023635156869771218
1329.0, 0.009749571786623574
1330.0, 0.0114856979204276
1331.0, 0.012932263396732924
1332.0, 0.009992850958712631
1333.0, 0.05178508030370815
1334.0, 0.015290763004806607
1335.0, 0.016444045307799714
1336.0, 0.03252248019781042
1337.0, 0.04127194692461308
1338.0, 0.03558684433572844
1339.0, 0.03654233945750698
1340.0, 0.05126599081790378
1341.0, 0.03853178621409594
1342.0, 0.03793413466002111
1343.0, 0.03990103076736434
1344.0, 0.012940021797601387
1345.0, 0.010119249168209587
1346.0, 0.052789914728625036
1347.0, 0.032852782216472816
1348.0, 0.027453198794388164
1349.0, 0.04582226009201558
1350.0, 0.04210718637505015
1351.0, 0.027694291067066064
1352.0, 0.05214449499631415
1353.0, 0.03509370172924739
1354.0, 0.020948371494792544
1355.0, 0.025229976632005036
1356.0, 0.02929776559783066
1357.0, 0.012962786320067365
1358.0, 0.005695689288021561
1359.0, 0.028642491756198717
1360.0, 0.032266950289412656
1361.0, 0.02043568446514217
1362.0, 0.032998118146358627
1363.0, 0.06646680964820842
1364.0, 0.033581495038685495
1365.0, 0.048418235189290754
1366.0, 0.060729600257668555
1367.0, 0.05433187129162284
1368.0, 0.04756964661743711
1369.0, 0.05266907606244718
1370.0, 0.05903758793939771
1371.0, 0.06394988828374738
1372.0, 0.06838155871044078
1373.0, 0.060082107629803747
1374.0, 0.03661530753401655
1375.0, 0.0524169838258437
1376.0, 0.06396979331456484
1377.0, 0.04017757597737529
1378.0, 0.06406664488419503
1379.0, 0.09030879438659671
1380.0, 0.052349109373115106
1381.0, 0.0308823675969745
1382.0, 0.07217408731925737
1383.0, 0.07398122792951765
1384.0, 0.08465402559592951
1385.0, 0.10386513512120639
1386.0, 0.11146541163441116
1387.0, 0.10271025419884731
1388.0, 0.10188295390475643
1389.0, 0.09212316285886868
1390.0, 0.07667759034158578
1391.0, 0.06455231448497392
1392.0, 0.05698401547328944
1393.0, 0.04041525241309397
1394.0, 0.04219986388452117
1395.0, 0.07540534052552199
1396.0, 0.07239808592609688
1397.0, 0.07110192756391155
1398.0, 0.0947392564839395
1399.0, 0.1032157987307602
1400.0, 0.05864504170711586
1401.0, 0.07130429837155845
1402.0, 0.07657067740071577
1403.0, 0.06998085109763746
1404.0, 0.0625640600465322
1405.0, 0.06306395391010952
1406.0, 0.04976221916913004
1407.0, 0.04892195395547901
1408.0, 0.06093470538062846
1409.0, 0.05603803660195919
1410.0, 0.04921289701750783
1411.0, 0.06923400799860109
1412.0, 0.057421949856381965
1413.0, 0.039257437876238664
1414.0, 0.05941027979855798
1415.0, 0.07247499331661868
1416.0, 0.06541131097727679
1417.0, 0.052331134475706656
1418.0, 0.05615557364075058
1419.0, 0.04576966657421467
1420.0, 0.045650398087172805
1421.0, 0.04412794416009252
1422.0, 0.04185145067712548
1423.0, 0.045501074359198215
1424.0, 0.06148407844480748
1425.0, 0.07835824618007016
1426.0, 0.045314689684348174
1427.0, 0.028379939074802046
1428.0, 0.03990345665353385
1429.0, 0.052645841708469004
1430.0, 0.03140126532308393
1431.0, 0.047065925359081856
1432.0, 0.07115805173647526
1433.0, 0.06908986953066808
1434.0, 0.06323087209018606
1435.0, 0.05985788175478187
1436.0, 0.054703089997902486
1437.0, 0.0602310378002405
1438.0, 0.0742296694256907
1439.0, 0.04089109943797907
1440.0, 0.08311275609929755
1441.0, 0.11375944546362268
1442.0, 0.062351669011621834
1443.0, 0.04158066253558772
1444.0, 0.0751022653579424
1445.0, 0.052486113858279136
1446.0, 0.051178167694351184
1447.0, 0.0698104989770837
1448.0, 0.07696384498249689
1449.0, 0.04668540792684581
1450.0, 0.029262864043634
1451.0, 0.049634786830283724
1452.0, 0.045717726662576536
1453.0, 0.04796672386071375
1454.0, 0.0634666053511423
1455.0, 0.07022956017880792
1456.0, 0.030903120423353872
1457.0, 0.06365546979309722
1458.0, 0.05647899752486957
1459.0, 0.0503211506053953
1460.0, 0.06807399403151772
1461.0, 0.09167762722057789
1462.0, 0.07340123881586312
1463.0, 0.06628435955516246
1464.0, 0.04744200226648118
1465.0, 0.03500765993241832
1466.0, 0.0445342573017459
1467.0, 0.05725335891278749
1468.0, 0.04178872371869836
1469.0, 0.003951142696081437
1470.0, 0.050546811520626914
1471.0, 0.04762296656425513
1472.0, 0.046242994971712074
1473.0, 0.06858377675495343
1474.0, 0.09236559020021383
1475.0, 0.06326607074248414
1476.0, 0.018035005232302493
1477.0, 0.039253864444650746
1478.0, 0.031746483026160954
1479.0, 0.03221424775881292
1480.0, 0.05574934705772358
1481.0, 0.07018690922152955
1482.0, 0.008683878980758356
1483.0, 0.05968662610095844
1484.0, 0.052733020358369194
1485.0, 0.040121563494953466
1486.0, 0.04199660340760076
1487.0, 0.043723213050972765
1488.0, 0.014587095965098287
1489.0, 0.0022296623640367707
1490.0, 0.04293937761077139
1491.0, 0.03937802774299411
1492.0, 0.04180423710798799
1493.0, 0.04809979767655446
1494.0, 0.030072842451035815
1495.0, 0.019852874985083098
1496.0, 0.040935524435837325
1497.0, 0.01710253905154986
1498.0, 0.009853212497887998
1499.0, 0.011110133303458712
1500.0, 0.006327015233985137
1501, 0.0
1502, 0.0
1503, 0.0
1504, 0.0
1505, 0.0
1506, 0.0
1507, 0.0
1508, 0.0
1509, 0.0
1510, 0.0
1511, 0.0
1512, 0.0
1513, 0.0
1514, 0.0
1515, 0.0
1516, 0.0
1517, 0.0
1518, 0.0
1519, 0.0
1520, 0.0
1521, 0.0
1522, 0.0
1523, 0.0
1524, 0.0
1525, 0.0
1526, 0.0
1527, 0.0
1528, 0.0
1529, 0.0
1530, 0.0
1531, 0.0
1532, 0.0
1533, 0.0
1534, 0.0
1535, 0.0
1536, 0.0
1537, 0.0
1538, 0.0
1539, 0.0
1540, 0.0
1541, 0.0
1542, 0.0
1543, 0.0
1544, 0.0
1545, 0.0
1546, 0.0
1547, 0.0
1548, 0.0
1549, 0.0
1550, 0.0
1551, 0.0
1552, 0.0
1553, 0.0
1554, 0.0
1555, 0.0
1556, 0.0
1557, 0.0
1558, 0.0
1559, 0.0
1560, 0.0
1561, 0.0
1562, 0.0
1563, 0.0
1564, 0.0
1565, 0.0
1566, 0.0
1567, 0.0
1568, 0.0
1569, 0.0
1570, 0.0
1571, 0.0
1572, 0.0
1573, 0.0
1574, 0.0
1575, 0.0
1576, 0.0
1577, 0.0
1578, 0.0
1579, 0.0
1580, 0.0
1581, 0.0
1582, 0.0
1583, 0.0
1584, 0.0
1585, 0.0
1586, 0.0
1587, 0.0
1588, 0.0
1589, 0.0
1590, 0.0
1591, 0.0
1592, 0.0
1593, 0.0
1594, 0.0
1595, 0.0
1596, 0.0
1597, 0.0
1598, 0.0
1599, 0.0
