30, 0.0
31, 0.0
32, 0.0
33, 0.0
34, 0.0
35, 0.0
36, 0.0
37, 0.0
38, 0.0
39, 0.0
40, 0.0
41, 0.0
42, 0.0
43, 0.0
44, 0.0
45, 0.0
46, 0.0
47, 0.0
48, 0.0
49, 0.0
50, 0.0
51, 0.0
52, 0.0
53, 0.0
54, 0.0
55, 0.0
56, 0.0
57, 0.0
58, 0.0
59, 0.0
60, 0.0
61, 0.0
62, 0.0
63, 0.0
64, 0.0
65, 0.0
66, 0.0
67, 0.0
68, 0.0
69, 0.0
70, 0.0
71, 0.0
72, 0.0
73, 0.0
74, 0.0
75, 0.0
76, 0.0
77, 0.0
78, 0.0
79, 0.0
80, 0.0
81, 0.0
82, 0.0
83, 0.0
84, 0.0
85, 0.0
86, 0.0
87, 0.0
88, 0.0
89, 0.0
90, 0.0
91, 0.0
92, 0.0
93, 0.0
94, 0.0
95, 0.0
96, 0.0
97, 0.0
98, 0.0
99, 0.0
100, 0.0
101, 0.0
102, 0.0
103, 0.0
104, 0.0
105, 0.0
106, 0.0
107, 0.0
108, 0.0
109, 0.0
110, 0.0
111, 0.0
112, 0.0
113, 0.0
114, 0.0
115, 0.0
116, 0.0
117, 0.0
118, 0.0
119, 0.0
120, 0.0
121, 0.0
122, 0.0
123, 0.0
124, 0.0
125, 0.0
126, 0.0
127, 0.0
128, 0.0
129, 0.0
130, 0.0
131, 0.0
132, 0.0
133, 0.0
134, 0.0
135, 0.0
136, 0.0
137, 0.0
138, 0.0
139, 0.0
140, 0.0
141, 0.0
142, 0.0
143, 0.0
144, 0.0
145, 0.0
146, 0.0
147, 0.0
148, 0.0
149, 0.0
150, 0.0
151, 0.0
152, 0.0
153.0, 0.004239097042398233
154.0, 0.008479830092372522
155.0, 0.01967853693983278
156.0, 0.018631695188242786
157.0, 0.014350859280630148
158.0, 0.01516970801700237
159.0, 0.016910980399657584
160.0, 0.01625976709472148
161.0, 0.012759981448856294
162.0, 0.006939482664078028
163.0, 0.004615423979383528
164.0, 0.008671733269371661
165.0, 0.0072532784518256725
166.0, 0.007997907700742615
167.0, 0.008975354494518872
168.0, 0.005396256352453213
169.0, 0.005625671892542485
170.0, 0.006763715485512091
171.0, 0.006561834458486847
172.0, 0.00431273745410446
173.0, 0.0010028907725895752
174.0, 0.0027819739677361005
175.0, 0.002910725158042706
176.0, 0.00330352701088183
177.0, 0.0026749741407025847
178.0, 0.0002904663898934327
179.0, 0.0005459677794906838
180.0, 0.0002541558302641755
181.0, 0.0011759124015435188
182.0, 0.00032790474034476765
183.0, 0.001181095851941411
184.0, 0.0027556648664440343
185.0, 0.0027884168147056286
186.0, 0.0017693004670707598
187.0, 0.0022253386783474406
188.0, 0.005230489334546232
189.0, 0.007303223455225708
190.0, 0.011253870638308709
191.0, 0.017795413825003836
192.0, 0.022574192459609378
193.0, 0.02271538657587799
194.0, 0.029948305712995348
195.0, 0.0349536193361362
196.0, 0.0349080620241518
197.0, 0.032700120561725575
198.0, 0.03493109774432872
199.0, 0.03279888011861015
200.0, 0.03236302945866231
201.0, 0.034368606872903995
202.0, 0.03258862999428306
203.0, 0.024549968588203096
204.0, 0.020691608990092362
205.0, 0.021498315229435565
206.0, 0.021928238059720245
207.0, 0.01607997265283462
208.0, 0.015217165198888213
209.0, 0.01934831689456441
210.0, 0.02463526223655094
211.0, 0.030114450405769308
212.0, 0.03265974775194329
213.0, 0.038752427092959146
214.0, 0.04428528050986333
215.0, 0.04358541900033202
216.0, 0.04555376759639029
217.0, 0.04324444966123441
218.0, 0.042973254249654376
219.0, 0.04446142870108683
220.0, 0.034261367272786794
221.0, 0.02809003287023856
222.0, 0.02288184400794254
223.0, 0.015745697532736865
224.0, 0.0073549826958801395
225.0, 0.015121939861547239
226.0, 0.012501805707141902
227.0, 0.005226886202038529
228.0, 0.003629568127418702
229.0, 0.004223231740972976
230.0, 0.0012193656657181896
231.0, 0.0014581877869782327
232.0, 0.0021850080686458082
233.0, 0.008099490019994457
234.0, 0.0033340123978432504
235.0, 0.0047658583449593644
236.0, 0.00805545515346336
237.0, 0.00437658877062444
238.0, 0.005721554472592222
239.0, 0.001498697854181016
240.0, 0.0064856573425795296
241.0, 0.009337861559258032
242.0, 0.014796081022069505
243.0, 0.017633509457715066
244.0, 0.01987207582053934
245.0, 0.025670710399471355
246.0, 0.035527178962385615
247.0, 0.04321227710545291
248.0, 0.046720900480315235
249.0, 0.05083329371342043
250.0, 0.05553904673893082
251.0, 0.05688729474103894
252.0, 0.061341755008026966
253.0, 0.06272182441387633
254.0, 0.06228470401764243
255.0, 0.06119919611357166
256.0, 0.05291566467746567
257.0, 0.050420619500287235
258.0, 0.04785960762757673
259.0, 0.043629822371703306
260.0, 0.042107413385754126
261.0, 0.03791236785587797
262.0, 0.03900586230252128
263.0, 0.0396536296063397
264.0, 0.03565133141103182
265.0, 0.03925949688539634
266.0, 0.03924579260871054
267.0, 0.03988322994160332
268.0, 0.04154798779513913
269.0, 0.04091337879289759
270.0, 0.04506366021775584
271.0, 0.042506673544263344
272.0, 0.04086399769849424
273.0, 0.04463538525043331
274.0, 0.04241908514439013
275.0, 0.035188751558373844
276.0, 0.03601631488957134
277.0, 0.042970737273614425
278.0, 0.04646931196040266
279.0, 0.04608973435684556
280.0, 0.043694861644620255
281.0, 0.04625359813495636
282.0, 0.05265907059875204
283.0, 0.05325415809339566
284.0, 0.06075867436434287
285.0, 0.06419776240015548
286.0, 0.06810436249449979
287.0, 0.0788757686783279
288.0, 0.08287889778422537
289.0, 0.08971154623781927
290.0, 0.09540564292562755
291.0, 0.09979209183934629
292.0, 0.10814709314630776
293.0, 0.11700494088059551
294.0, 0.1257695784921915
295.0, 0.13496178456000996
296.0, 0.1438402381860848
297.0, 0.15255695534606367
298.0, 0.16769817094335246
299.0, 0.17708115705072103
300.0, 0.18113967463345063
301.0, 0.18831634938512629
302.0, 0.20155896862897515
303.0, 0.2070458857982055
304.0, 0.21028921613839788
305.0, 0.21630586025767684
306.0, 0.22404618634457235
307.0, 0.2226762713335594
308.0, 0.2178170310436951
309.0, 0.2152096737872562
310.0, 0.2138667003851465
311.0, 0.20578244863930098
312.0, 0.19826363123863788
313.0, 0.19091442375611342
314.0, 0.18382065240928105
315.0, 0.1773284450357109
316.0, 0.1702312657132894
317.0, 0.15802132052856432
318.0, 0.15155768642310924
319.0, 0.1492694240725653
320.0, 0.13856956026392067
321.0, 0.13089289545189067
322.0, 0.12967394052510023
323.0, 0.1276630403306549
324.0, 0.12165261043833367
325.0, 0.1193635824348123
326.0, 0.1117447511115709
327.0, 0.10937650382964069
328.0, 0.10917081056725772
329.0, 0.10360562468240428
330.0, 0.09503264472992506
331.0, 0.0917703245834119
332.0, 0.08471804962960748
333.0, 0.07729455704292358
334.0, 0.08076074723206307
335.0, 0.07599252246182875
336.0, 0.06691101000275161
337.0, 0.05884821397507715
338.0, 0.052830966176281476
339.0, 0.04563699092857872
340.0, 0.042383905555755094
341.0, 0.037608775210478326
342.0, 0.03186479351824486
343.0, 0.027377927088522356
344.0, 0.023334079898846484
345.0, 0.022790018506166233
346.0, 0.022217480787565833
347.0, 0.021625624248161293
348.0, 0.022906299768242412
349.0, 0.02427253363381554
350.0, 0.020204490328952125
351.0, 0.01830948831963159
352.0, 0.0187541665426371
353.0, 0.01592691859214017
354.0, 0.014194822850298166
355.0, 0.00933287777447458
356.0, 0.006454565877322294
357.0, 0.005236149409147765
358.0, 0.0007783943433454143
359.0, 0.0008714421223589904
360.0, 0.0032592443353518788
361.0, 0.004731115817865034
362.0, 0.003794201596752089
363.0, 0.00669593183220253
364.0, 0.007524958352603762
365.0, 0.004251244082667972
366.0, 0.0029318964656300903
367.0, 0.005904361193318906
368.0, 0.003696175581466154
369.0, 0.003134354582760613
370.0, 0.0003032087747277877
371.0, 0.0016685515928137238
372.0, 0.0020583375229731036
373.0, 0.0033616866420587413
374.0, 0.008092802364971485
375.0, 0.011811267799999737
376.0, 0.013694344670495167
377.0, 0.014278518727478791
378.0, 0.02202603320125942
379.0, 0.023396260512562092
380.0, 0.026559621577969487
381.0, 0.034103785764328924
382.0, 0.040307099005477735
383.0, 0.04904413609577667
384.0, 0.0535365051541805
385.0, 0.05670458299763757
386.0, 0.0611368334277647
387.0, 0.06665443668303479
388.0, 0.07396337987215434
389.0, 0.08100531711843596
390.0, 0.08591848977894141
391.0, 0.09063194526720471
392.0, 0.09781606718463863
393.0, 0.09695476223314237
394.0, 0.10325968135789078
395.0, 0.11272058779286132
396.0, 0.11960594547583638
397.0, 0.1244841933381038
398.0, 0.1271422316381793
399.0, 0.134669917313892
400.0, 0.14368733436682024
401.0, 0.15105801161460458
402.0, 0.15925960974452946
403.0, 0.16753864767128948
404.0, 0.1759784743149598
405.0, 0.18067135818751867
406.0, 0.18288541860023794
407.0, 0.19172731482889074
408.0, 0.2002756700890648
409.0, 0.2094089550749384
410.0, 0.21709595647548188
411.0, 0.221472884632215
412.0, 0.22455735945301658
413.0, 0.2251681068859694
414.0, 0.22793485472625058
415.0, 0.23263194330733122
416.0, 0.23425617673257743
417.0, 0.22836330179748068
418.0, 0.2243164769264292
419.0, 0.21916541309933085
420.0, 0.21424063629154794
421.0, 0.21053398630664272
422.0, 0.20627428618843138
423.0, 0.19902608622958548
424.0, 0.19354285643621857
425.0, 0.18721348797771006
426.0, 0.17845565030734908
427.0, 0.17017203941198936
428.0, 0.16876191282464947
429.0, 0.1639793645766647
430.0, 0.15611802509292327
431.0, 0.15023711364474412
432.0, 0.14476537806757717
433.0, 0.13652783166056695
434.0, 0.1320925130668961
435.0, 0.1274188452158347
436.0, 0.12025717287008096
437.0, 0.11806068842323568
438.0, 0.11783950398483832
439.0, 0.11508055691621939
440.0, 0.10967777877424792
441.0, 0.105639620092989
442.0, 0.10762773622332715
443.0, 0.10583800452672754
444.0, 0.09682927861910087
445.0, 0.08959085892920343
446.0, 0.08681546965553075
447.0, 0.08096054298900505
448.0, 0.07892458593826793
449.0, 0.07559136734998378
450.0, 0.0715012362139694
451.0, 0.06815794635845236
452.0, 0.06529485311989382
453.0, 0.05984551600817209
454.0, 0.053262097505752136
455.0, 0.05023647414395548
456.0, 0.048579548893687687
457.0, 0.042444189703221766
458.0, 0.039530444857716285
459.0, 0.036679978685675844
460.0, 0.03339191207086996
461.0, 0.030223335511855826
462.0, 0.027315919887440483
463.0, 0.024391217252288665
464.0, 0.022255361228252092
465.0, 0.02027346606415328
466.0, 0.017287988854933874
467.0, 0.013069945984725518
468.0, 0.01313788819504888
469.0, 0.009588145216587424
470.0, 0.006079591960956871
471.0, 0.005204364353164328
472.0, 0.006242768512416662
473.0, 0.0065207942360238635
474.0, 0.005756975751900301
475.0, 0.005070421413786081
476.0, 0.004061624263619126
477.0, 0.0023739239924655867
478.0, 0.0011469754950507248
479.0, 0.0020791794125872994
480.0, 0.003645266130083029
481.0, 0.005172636395098174
482.0, 0.005066143879964944
483.0, 0.001614592924348919
484.0, 0.0006896405965807156
485.0, 0.0007115301150539588
486.0, 0.0015443089886981877
487.0, 0.000845435507129794
488.0, 0.0008946422929686485
489.0, 0.00021478735239001298
490.0, 0.0009771702668896895
491.0, 0.0021086238997997868
492.0, 0.0008435792803337999
493.0, 0.0020090848968013723
494.0, 0.004626607128923906
495.0, 0.004089480599587123
496.0, 0.0014640641052481172
497.0, 0.0009601351143413225
498.0, 0.0015727187539626832
499.0, 0.0003847785205390234
500.0, 0.002712823046235658
501.0, 0.0014635567156315
502.0, 0.0032615967849115323
503.0, 0.0021839155786030208
504.0, 0.001707497256275881
505.0, 0.0038929822866685094
506.0, 0.0038388223581624402
507.0, 0.0025325675084853488
508.0, 0.0008325526039927324
509.0, 0.0008904647401911576
510.0, 0.005641761745795654
511.0, 0.005431080639488177
512.0, 0.00539495966747853
513.0, 0.007032572072546855
514.0, 0.007540024615738394
515.0, 0.007194372097711553
516.0, 0.007895880886101663
517.0, 0.008611408332740326
518.0, 0.009334011924062968
519.0, 0.009795109165153356
520.0, 0.008972277338708343
521.0, 0.0068525024192787965
522.0, 0.007406088526914031
523.0, 0.006256761891833571
524.0, 0.003977369377128922
525.0, 0.004625513801650168
526.0, 0.00428879310327156
527.0, 0.0015298316667143857
528.0, 0.003154653767843364
529.0, 0.0032809081461379567
530.0, 0.000749026402169951
531.0, 0.001177051337003981
532.0, 0.0003647366601000208
533.0, 0.0014183918213579968
534.0, 0.0028229885917296377
535.0, 0.002660694410094773
536.0, 0.0005295841990409485
537.0, 0.0010879812964781966
538.0, 0.00045718898498432086
539.0, 0.0012528022262851494
540.0, 0.0030417323613585482
541.0, 0.003305357616192301
542.0, 0.00032735072528862594
543.0, 0.0017842843986680375
544.0, 0.0005940189484674458
545.0, 0.002270865324179181
546.0, 0.0011003632146498407
547.0, 0.0015308044585428642
548.0, 0.0008066882506302301
549.0, 0.0005081042184767416
550.0, 0.0005604459180658319
551.0, 0.001328477307545083
552.0, 0.0017770784729242801
553.0, 0.003983560651958148
554.0, 0.0063733954116766516
555.0, 0.008372189759049884
556.0, 0.007941134581506639
557.0, 0.00873095814104083
558.0, 0.01608498449323189
559.0, 0.015589173450817569
560.0, 0.017030910234030257
561.0, 0.018588571238270978
562.0, 0.019184737338627855
563.0, 0.019743009287222543
564.0, 0.02067919368155998
565.0, 0.01943551627963609
566.0, 0.0186211573450559
567.0, 0.01959380514648954
568.0, 0.020428781326939698
569.0, 0.01898195422156802
570.0, 0.01900642072499743
571.0, 0.015279425435883249
572.0, 0.015607969659041532
573.0, 0.01900933384517798
574.0, 0.021200592998568416
575.0, 0.023536616116857388
576.0, 0.021361250653039843
577.0, 0.02356494449402986
578.0, 0.02671030738953301
579.0, 0.028835310109595343
580.0, 0.032397764008087894
581.0, 0.034965086030502225
582.0, 0.03713796860862647
583.0, 0.03946640707811991
584.0, 0.04223614903325081
585.0, 0.044978614465211224
586.0, 0.0470338050187036
587.0, 0.05114121097371866
588.0, 0.05232525524987479
589.0, 0.052415086007149295
590.0, 0.05310156418857606
591.0, 0.054700191339045634
592.0, 0.055762000423279626
593.0, 0.054462866514322555
594.0, 0.05430886662812854
595.0, 0.05212467475735739
596.0, 0.04915732933468731
597.0, 0.049299691129636995
598.0, 0.046525610842481704
599.0, 0.04040242465972596
600.0, 0.03874099528059537
601.0, 0.03759223682802586
602.0, 0.03379503192459168
603.0, 0.03104979332372079
604.0, 0.028863514704621326
605.0, 0.026093385549863162
606.0, 0.023274166603238493
607.0, 0.02216307721574825
608.0, 0.022811129587112865
609.0, 0.021294753364166637
610.0, 0.01602004276336336
611.0, 0.01718114872174107
612.0, 0.016337843617772477
613.0, 0.013006722006919809
614.0, 0.014112853991497473
615.0, 0.015520848701067244
616.0, 0.011387106126523105
617.0, 0.011589894346649953
618.0, 0.014533240962997936
619.0, 0.014479502672586271
620.0, 0.011984990847868872
621.0, 0.013076706565375166
622.0, 0.011834425633643003
623.0, 0.009674081121508511
624.0, 0.009481504390797259
625.0, 0.010762340807010459
626.0, 0.009821443870737731
627.0, 0.006332095651645876
628.0, 0.003119771077541366
629.0, 0.002371374143848525
630.0, 0.0026204098904450655
631.0, 0.002315205731225906
632.0, 0.002637017423338711
633.0, 0.0006090311107971531
634.0, 0.0007759626554665715
635.0, 0.0006480099621750419
636.0, 0.0003326345706472418
637.0, 0.00027810254529300033
638.0, 0.002348847712385459
639.0, 0.00339682725445233
640.0, 0.0025201987299876974
641.0, 0.0025629390096137965
642.0, 0.0012247843491932711
643.0, 0.0004278038698336604
644.0, 0.001418587647935246
645.0, 0.0017520468377879286
646.0, 0.0015690376071267442
647.0, 0.0014285210956057805
648.0, 0.0037402819342726066
649.0, 0.005868129911952665
650.0, 0.006167945602566652
651.0, 0.005727714475885411
652.0, 0.011117020222347403
653.0, 0.01544783781328393
654.0, 0.02031169188793608
655.0, 0.030524162009582138
656.0, 0.02855787649627594
657.0, 0.034657652053856736
658.0, 0.04199268793426175
659.0, 0.049313630912702466
660.0, 0.05668445090487787
661.0, 0.06434499336601435
662.0, 0.07604350354458042
663.0, 0.08446953255148537
664.0, 0.0888866504205358
665.0, 0.09120570643083602
666.0, 0.09518285218626726
667.0, 0.10131843532645082
668.0, 0.09398848786840161
669.0, 0.0909696381473003
670.0, 0.08691202585633674
671.0, 0.07994612588986938
672.0, 0.07309393583848597
673.0, 0.06838340768677954
674.0, 0.06263810778167646
675.0, 0.05860325027625957
676.0, 0.05282512280285872
677.0, 0.04996787623365448
678.0, 0.051692438964114816
679.0, 0.05480516020620113
680.0, 0.05601250875543159
681.0, 0.05594229241097999
682.0, 0.05860806601198803
683.0, 0.06085961066546107
684.0, 0.06328340440202172
685.0, 0.06815433367483294
686.0, 0.07131659619012051
687.0, 0.07366203583356415
688.0, 0.07583372625944095
689.0, 0.07708101952033322
690.0, 0.07802537522717537
691.0, 0.07925926233724857
692.0, 0.07869550188257234
693.0, 0.07496387999281422
694.0, 0.06870568104452501
695.0, 0.0652036419070242
696.0, 0.06355472257178459
697.0, 0.05936136961699805
698.0, 0.05005373130606297
699.0, 0.044972985306449324
700.0, 0.03839906241064472
701.0, 0.03259973693728226
702.0, 0.02955342095046895
703.0, 0.028172356212122877
704.0, 0.02576543632295421
705.0, 0.022852394255117505
706.0, 0.01795284770466064
707.0, 0.017351308568376023
708.0, 0.016573410875223786
709.0, 0.014146170806344434
710.0, 0.01358498563515192
711.0, 0.009739920460598196
712.0, 0.012629088779650034
713.0, 0.013570285577105119
714.0, 0.013538438234925709
715.0, 0.013649474833595411
716.0, 0.012336338849254285
717.0, 0.010824777877976994
718.0, 0.00847621104004815
719.0, 0.006375818883098556
720.0, 0.009382614198453418
721.0, 0.00868098578712952
722.0, 0.0020901246386241363
723.0, 0.006168485960764499
724.0, 0.008067271630406575
725.0, 0.009232067961558971
726.0, 0.007242430015566621
727.0, 0.004249441157652275
728.0, 0.003922700193282848
729.0, 0.005200078065348596
730.0, 0.003502024776508254
731.0, 0.008412491067372027
732.0, 0.007897674762054469
733.0, 0.0059888494369093135
734.0, 0.005805598979764097
735.0, 0.006059964679879336
736.0, 0.007734226724726479
737.0, 0.006487131655764869
738.0, 0.001485016762180176
739.0, 0.003398873237187085
740.0, 0.0032215587414826147
741.0, 0.0018725193778658133
742.0, 0.0003258741308966713
743.0, 0.0008738132340025712
744.0, 0.002240298524947886
745.0, 0.0005757675594766877
746.0, 0.0012962325211938346
747.0, 0.0021764061158764557
748.0, 0.003604928208943747
749.0, 0.0021530396428421712
750.0, 0.0007734695870219035
751.0, 0.0017533376086152172
752.0, 0.0019020250743890577
753.0, 0.0005245604746389965
754.0, 0.002407977991194858
755.0, 0.002964728895238603
756.0, 0.0016612818234255742
757.0, 0.005374788849778376
758.0, 0.008502099448615654
759.0, 0.008289772144514889
760.0, 0.007552278155616928
761.0, 0.00979058215791959
762.0, 0.013351032393414635
763.0, 0.016498660954183647
764.0, 0.018943683385004673
765.0, 0.024680940826024574
766.0, 0.02847761878875754
767.0, 0.028219917236758995
768.0, 0.03314848811886045
769.0, 0.04413199497990358
770.0, 0.04566749462963499
771.0, 0.049156776652382335
772.0, 0.052021514027088676
773.0, 0.05403743978426203
774.0, 0.058149634481694884
775.0, 0.05999979580014844
776.0, 0.062285743054489716
777.0, 0.06136669252718513
778.0, 0.06217536382859755
779.0, 0.06459644451012085
780.0, 0.0650110153862227
781.0, 0.061571323954765965
782.0, 0.05669356863050971
783.0, 0.06015146230440451
784.0, 0.061763711511858825
785.0, 0.060383009936955175
786.0, 0.056218986802513186
787.0, 0.05295667032385661
788.0, 0.05613641126794838
789.0, 0.0526862543470716
790.0, 0.04736398725240044
791.0, 0.046209213301381336
792.0, 0.046999312009624594
793.0, 0.044671951161005974
794.0, 0.041679658117729584
795.0, 0.04538918499124114
796.0, 0.04583349117429753
797.0, 0.042310580972445236
798.0, 0.04419074053821065
799.0, 0.04535664203061408
800.0, 0.043045272198616855
801.0, 0.04243124288791694
802.0, 0.04381576719375696
803.0, 0.045689242071840504
804.0, 0.052647077574638185
805.0, 0.05249513162708875
806.0, 0.05559630863338981
807.0, 0.06391776000177828
808.0, 0.06663014417396522
809.0, 0.07140733916296595
810.0, 0.07511248690268073
811.0, 0.08062439066211112
812.0, 0.08509488520109959
813.0, 0.09214779524729023
814.0, 0.1012046010476869
815.0, 0.10711277391884592
816.0, 0.11410039536155996
817.0, 0.12053663188186145
818.0, 0.12101308379663864
819.0, 0.12770333608637696
820.0, 0.13138271560140985
821.0, 0.12727053205065736
822.0, 0.12723445692039542
823.0, 0.12584844060414582
824.0, 0.12164267156427339
825.0, 0.1167799298730076
826.0, 0.11513202970696564
827.0, 0.10882260978676034
828.0, 0.09716046552829709
829.0, 0.08981294692376383
830.0, 0.08203799422268042
831.0, 0.070787404044505
832.0, 0.06549317194272851
833.0, 0.0599781504615322
834.0, 0.05185832613716881
835.0, 0.04573839551622871
836.0, 0.04420517011119943
837.0, 0.04144175153773232
838.0, 0.03734287944982756
839.0, 0.036872784433800626
840.0, 0.04252313180663552
841.0, 0.041992016369108695
842.0, 0.0358623272744775
843.0, 0.037742659064733335
844.0, 0.04298013128835945
845.0, 0.04260669193644653
846.0, 0.04413714076214297
847.0, 0.04150065614805751
848.0, 0.03892111299089887
849.0, 0.03658638326052746
850.0, 0.028897174273858187
851.0, 0.021536352347461173
852.0, 0.013516629742866012
853.0, 0.013561628166120616
854.0, 0.008553267098787537
855.0, 0.005704722460541509
856.0, 0.0061855828557286245
857.0, 0.00262272842811476
858.0, 0.0024395519430768908
859.0, 0.00035016775513482107
860.0, 0.0002843208611908995
861.0, 0.0006338748188800861
862.0, 0.0006329177521807666
863.0, 0.0010247129341345777
864.0, 0.0015545488768002888
865.0, 0.002116172859042599
866.0, 0.009793154635841957
867.0, 0.0016618869190119095
868.0, 0.001748764320349963
869.0, 0.0007505478418039222
870.0, 0.0019259690924934225
871.0, 0.001015124797178812
872.0, 0.002221649496441932
873.0, 0.0024012689243867206
874.0, 0.0030822786244513074
875.0, 0.002262811355525635
876.0, 0.003171035478261921
877.0, 0.006173268290162671
878.0, 0.009101639610351094
879.0, 0.01070149812130808
880.0, 0.012802247962736248
881.0, 0.016559803625944454
882.0, 0.015989660642786334
883.0, 0.01789616993352563
884.0, 0.022345548362565266
885.0, 0.02742085775796094
886.0, 0.030836512568570548
887.0, 0.032249769467864786
888.0, 0.03775426026364422
889.0, 0.04117752017584701
890.0, 0.04320121934778573
891.0, 0.04819305889915859
892.0, 0.05409791479189952
893.0, 0.058629689296801554
894.0, 0.0643651129732687
895.0, 0.07422267109221567
896.0, 0.0782888879151689
897.0, 0.08284682460641257
898.0, 0.09095885338021155
899.0, 0.09420215956858066
900.0, 0.09764053216374025
901.0, 0.10485632636114593
902.0, 0.10943819180606962
903.0, 0.1186668036423733
904.0, 0.11298557422376358
905.0, 0.11266201180300642
906.0, 0.10504434838111139
907.0, 0.09966053216841857
908.0, 0.09812774989380689
909.0, 0.09130167492682204
910.0, 0.08338968296954512
911.0, 0.08084794834447363
912.0, 0.07492338723362592
913.0, 0.07038574107138386
914.0, 0.06796938965986701
915.0, 0.06417391267809462
916.0, 0.058802209573974376
917.0, 0.055121346249893954
918.0, 0.05103009034448688
919.0, 0.045304806693809666
920.0, 0.04339090015505813
921.0, 0.043684781373481446
922.0, 0.03853627682319575
923.0, 0.03128905159676518
924.0, 0.03124126873663123
925.0, 0.035708403451165556
926.0, 0.03152529006552502
927.0, 0.027737646086033782
928.0, 0.02760119911912543
929.0, 0.022721823360489866
930.0, 0.021111482370219165
931.0, 0.020405364781949892
932.0, 0.017329802547989787
933.0, 0.019570655435308247
934.0, 0.016524705983818527
935.0, 0.01557682524906277
936.0, 0.015321127355051646
937.0, 0.014539950485664917
938.0, 0.008666763341971131
939.0, 0.003235279806021142
940.0, 0.0035785353505522624
941.0, 0.002385641366394651
942.0, 0.0009661202528775665
943.0, 0.0030700865267397296
944.0, 0.00060858468533481
945.0, 0.0020871519035255475
946.0, 0.006184339531932492
947.0, 0.004845935966948981
948.0, 0.001049363409398419
949.0, 0.0038280126241247367
950.0, 0.004492049372552367
951.0, 0.0013118468280141325
952.0, 0.002450104316359497
953.0, 0.002754471154736728
954.0, 0.0038472562950083093
955.0, 0.007386969769808415
956.0, 0.010060280874043707
957.0, 0.011616636189306712
958.0, 0.01629041707474813
959.0, 0.017399579953117195
960.0, 0.017402114468337254
961.0, 0.01898785933502661
962.0, 0.024644719005899637
963.0, 0.028541231168606972
964.0, 0.028383214405304603
965.0, 0.029522870862897562
966.0, 0.030466487868321027
967.0, 0.034893424571122225
968.0, 0.036217904388749236
969.0, 0.03826397539556156
970.0, 0.0429835755257517
971.0, 0.05176562143997939
972.0, 0.05939291844957218
973.0, 0.06245959356488126
974.0, 0.06871461593437389
975.0, 0.07312018163202293
976.0, 0.0903928639271066
977.0, 0.09958791079866965
978.0, 0.1144465638384037
979.0, 0.12425744328439674
980.0, 0.13064360235066402
981.0, 0.1473141378060996
982.0, 0.16450904405231298
983.0, 0.18043654967722436
984.0, 0.19718116467083505
985.0, 0.2152286477748219
986.0, 0.23743401023981206
987.0, 0.26041804268299007
988.0, 0.280372015028687
989.0, 0.30228534844142846
990.0, 0.3285913018131958
991.0, 0.34087088799327625
992.0, 0.34922932115898725
993.0, 0.3585789125907565
994.0, 0.3480072187078485
995.0, 0.3323138518993835
996.0, 0.3164695346512354
997.0, 0.28950765417800506
998.0, 0.2550165953119785
999.0, 0.22803528080107083
1000.0, 0.1936532012397214
1001.0, 0.16299533670416902
1002.0, 0.13643587683194694
1003.0, 0.11270528213810604
1004.0, 0.09014115126722863
1005.0, 0.07242185167870667
1006.0, 0.059170958274249986
1007.0, 0.045944857882020164
1008.0, 0.03623015570526231
1009.0, 0.022992938536983257
1010.0, 0.015407704132584268
1011.0, 0.012501182817608933
1012.0, 0.007321708763187156
1013.0, 0.004970732156919711
1014.0, 0.0011848986087300418
1015.0, 0.004093025691457455
1016.0, 0.0015135646610791387
1017.0, 0.002772094509818132
1018.0, 0.00048372982746702027
1019.0, 0.005057377089831185
1020.0, 0.006823724966808205
1021.0, 0.016029536597651026
1022.0, 0.0280362599244005
1023.0, 0.03744547411594788
1024.0, 0.050991099765250535
1025.0, 0.07229929715031533
1026.0, 0.09676828341965209
1027.0, 0.1313936473364281
1028.0, 0.17305435753956827
1029.0, 0.22157860380099653
1030.0, 0.27919637293816624
1031.0, 0.34846364546273534
1032.0, 0.4225705045955763
1033.0, 0.49891524721503955
1034.0, 0.5873521100084117
1035.0, 0.669075598874019
1036.0, 0.7504271437597279
1037.0, 0.8171313514263033
1038.0, 0.8827207447122013
1039.0, 0.9371686967734321
1040.0, 0.9776511209160113
1041.0, 0.9988591651917794
1042.0, 0.999981281656253
1043.0, 0.9921210503068497
1044.0, 0.9602454637404548
1045.0, 0.9107550859259602
1046.0, 0.8462683558567425
1047.0, 0.7782210178487456
1048.0, 0.7148545402170928
1049.0, 0.6457961573330773
1050.0, 0.5716244118013739
1051.0, 0.495232720874168
1052.0, 0.4081215371767576
1053.0, 0.3224616349132017
1054.0, 0.2436525033396772
1055.0, 0.17987683072517724
1056.0, 0.12640623307086585
1057.0, 0.08237447079069536
1058.0, 0.05416162009773818
1059.0, 0.03737278811772352
1060.0, 0.024832187957771635
1061.0, 0.017860312896413173
1062.0, 0.013701463981926487
1063.0, 0.006426492528606383
1064.0, 0.0013550151058744954
1065.0, 0.0007672583243521829
1066.0, 0.005418555121076234
1067.0, 0.007257570067271434
1068.0, 0.0045800458853504505
1069.0, 0.0036059585746650497
1070.0, 0.00594737430443242
1071.0, 0.008661770367121511
1072.0, 0.013144686522989913
1073.0, 0.016111226456918804
1074.0, 0.01687888142908554
1075.0, 0.0214468397831507
1076.0, 0.022457292332372734
1077.0, 0.025757292809041064
1078.0, 0.031143105774288846
1079.0, 0.03501851631749904
1080.0, 0.03871033264957242
1081.0, 0.038506459460819174
1082.0, 0.04538468935002927
1083.0, 0.051386489848860656
1084.0, 0.057975554196850264
1085.0, 0.059883677876022376
1086.0, 0.06261765462401227
1087.0, 0.06646500884642778
1088.0, 0.06842005772486345
1089.0, 0.06805815644672705
1090.0, 0.06919349240376997
1091.0, 0.07564705742731574
1092.0, 0.0762065996345195
1093.0, 0.07713806139899197
1094.0, 0.07826772647656177
1095.0, 0.07558241097381267
1096.0, 0.07642699693972761
1097.0, 0.07680323771846874
1098.0, 0.07187513182642911
1099.0, 0.064936115209412
1100.0, 0.059238635163222385
1101.0, 0.05680653353496596
1102.0, 0.05136503685801151
1103.0, 0.04006046283935183
1104.0, 0.03905615286029881
1105.0, 0.0331680873625781
1106.0, 0.027607627011078252
1107.0, 0.025895290453456496
1108.0, 0.021305796484099283
1109.0, 0.015106161520749279
1110.0, 0.013335109297840325
1111.0, 0.009104712457213423
1112.0, 0.004337152043236715
1113.0, 0.004689141364508852
1114.0, 0.004208951793816215
1115.0, 0.0009701904789274616
1116.0, 0.004926064986519321
1117.0, 0.004241951785363889
1118.0, 0.0009540125101573021
1119.0, 0.0010244669722462951
1120.0, 0.004637800336347985
1121.0, 0.005200321892796283
1122.0, 0.0017997332894846474
1123.0, 0.0018542896582324556
1124.0, 0.0006371926125129369
1125.0, 0.0008387529382692614
1126.0, 0.0032659569498352916
1127.0, 0.0034530086256025815
1128.0, 0.0002480630746754342
1129.0, 0.00020116697905984848
1130.0, 0.0013779072084420928
1131.0, 0.003975051644698307
1132.0, 0.0008084792469768993
1133.0, 0.0007683956136102284
1134.0, 0.0004726694587999012
1135.0, 0.001351548348750271
1136.0, 0.004589922722346774
1137.0, 0.003315343310585969
1138.0, 0.003168552925208419
1139.0, 0.00600836103066618
1140.0, 0.006200721180476598
1141.0, 0.005964298570511931
1142.0, 0.008592443125565
1143.0, 0.010398374083494475
1144.0, 0.012618036372089693
1145.0, 0.013556487273801734
1146.0, 0.013433366835433707
1147.0, 0.014526448529242238
1148.0, 0.01569879000863055
1149.0, 0.01663732303627175
1150.0, 0.01780447873038935
1151.0, 0.019719211091933753
1152.0, 0.022322978605013397
1153.0, 0.021219708746752698
1154.0, 0.025244286269794032
1155.0, 0.02644659420941605
1156.0, 0.02704655604264893
1157.0, 0.029195651091937697
1158.0, 0.035006217658090984
1159.0, 0.03680394244340848
1160.0, 0.03609818173321537
1161.0, 0.037736964977190805
1162.0, 0.040898937844951716
1163.0, 0.04517863269690287
1164.0, 0.04635068228443355
1165.0, 0.04808905200578229
1166.0, 0.04930871821815429
1167.0, 0.05700021845009467
1168.0, 0.059603978300936875
1169.0, 0.06342122778215833
1170.0, 0.06477468502889014
1171.0, 0.06389077041085953
1172.0, 0.069021628193904
1173.0, 0.07616157950916423
1174.0, 0.07616711373865474
1175.0, 0.07828574053984508
1176.0, 0.08060783865379488
1177.0, 0.08623391828532714
1178.0, 0.0907555862074686
1179.0, 0.09005636253173813
1180.0, 0.08789631819344691
1181.0, 0.08837959173716316
1182.0, 0.09592681056838313
1183.0, 0.10004117714003265
1184.0, 0.0970835992268164
1185.0, 0.09936554688463474
1186.0, 0.10073466588536346
1187.0, 0.10250232704873519
1188.0, 0.10082346754133874
1189.0, 0.10008842101749023
1190.0, 0.1017158356335804
1191.0, 0.0984047886540597
1192.0, 0.10663584615251742
1193.0, 0.10709519752427679
1194.0, 0.10122424255795869
1195.0, 0.09980409950703703
1196.0, 0.09724151313757269
1197.0, 0.09402815300007542
1198.0, 0.09521406717624425
1199.0, 0.09276414827379004
1200.0, 0.09339743481575533
1201.0, 0.09179038111593145
1202.0, 0.09031488467417766
1203.0, 0.08350622479003729
1204.0, 0.07901737095097715
1205.0, 0.0782669360928889
1206.0, 0.07675805690019503
1207.0, 0.07529128346392408
1208.0, 0.07366673255073343
1209.0, 0.06885890673712261
1210.0, 0.07117282013188106
1211.0, 0.07196949546778873
1212.0, 0.07014110810568774
1213.0, 0.07181384674684109
1214.0, 0.0718516108123778
1215.0, 0.06731521827558759
1216.0, 0.06808073633332937
1217.0, 0.06901756845209053
1218.0, 0.06553424857886478
1219.0, 0.06148785482618653
1220.0, 0.062009981572884024
1221.0, 0.06532064588770747
1222.0, 0.06447308272419193
1223.0, 0.06980460844014942
1224.0, 0.06741571249614582
1225.0, 0.06176870345042106
1226.0, 0.061465919596769544
1227.0, 0.0593344887783127
1228.0, 0.056602582047574096
1229.0, 0.05891614076762041
1230.0, 0.06196401472387488
1231.0, 0.060747658409974016
1232.0, 0.05682587667579993
1233.0, 0.0543533415114056
1234.0, 0.054367910300667587
1235.0, 0.053808054995394
1236.0, 0.049020554285214936
1237.0, 0.05101382205365764
1238.0, 0.04804332614740817
1239.0, 0.04680773322963842
1240.0, 0.04664386927848457
1241.0, 0.044911712148297374
1242.0, 0.040273294830042716
1243.0, 0.03708428083825834
1244.0, 0.03499121804138297
1245.0, 0.033962714972901306
1246.0, 0.03420296216503361
1247.0, 0.030611525138325556
1248.0, 0.02957097752320876
1249.0, 0.020825240348598922
1250.0, 0.01902564109161464
1251.0, 0.018205481438615362
1252.0, 0.023353124738833945
1253.0, 0.02033991640651409
1254.0, 0.01533851589167289
1255.0, 0.016308167297416586
1256.0, 0.015764193220328095
1257.0, 0.010339619228685999
1258.0, 0.007273446657681314
1259.0, 0.007467355132924387
1260.0, 0.007347450086386247
1261.0, 0.010133746956198769
1262.0, 0.006609385512635186
1263.0, 0.0010747262414083887
1264.0, 0.0007069602215414908
1265.0, 0.00273347766291317
1266.0, 0.003766689139143505
1267.0, 0.0028211502007342505
1268.0, 0.0015961030434531519
1269.0, 0.0002425265861186437
1270.0, 0.0014413537059931344
1271.0, 0.0009999366374416172
1272.0, 0.0018695525249671587
1273.0, 0.003037856804959562
1274.0, 0.001303340524413462
1275.0, 0.0018693758794425374
1276.0, 0.0006370841927787171
1277.0, 0.004670538159941048
1278.0, 0.0008264285712101689
1279.0, 0.0008125955799396295
1280.0, 0.0034056642705202734
1281.0, 0.0009638888690648215
1282.0, 0.0013037464459469464
1283.0, 0.0011957701224327782
1284.0, 0.006369992584544228
1285.0, 0.003807196942657941
1286.0, 0.0006613378895990403
1287.0, 0.0051091693334538845
1288.0, 0.008884297430686966
1289.0, 0.008017750804780175
1290.0, 0.0038326972575327607
1291.0, 0.00660566889382239
1292.0, 0.01011469312955894
1293.0, 0.008297825341739489
1294.0, 0.008840600550721304
1295.0, 0.005737831352787553
1296.0, 0.005679757820653514
1297.0, 0.0071997717873682615
1298.0, 0.0026945181513184898
1299.0, 0.0024429914966063782
1300.0, 0.006721191001577533
1301.0, 0.004259892405867376
1302.0, 9.977146510385597e-05
1303.0, 0.0003550265538627878
1304, 0.0
1305, 0.0
1306, 0.0
1307, 0.0
1308, 0.0
1309, 0.0
1310, 0.0
1311, 0.0
1312, 0.0
1313, 0.0
1314, 0.0
1315, 0.0
1316, 0.0
1317, 0.0
1318, 0.0
1319, 0.0
1320, 0.0
1321, 0.0
1322, 0.0
1323, 0.0
1324, 0.0
1325, 0.0
1326, 0.0
1327, 0.0
1328, 0.0
1329, 0.0
1330, 0.0
1331, 0.0
1332, 0.0
1333, 0.0
1334, 0.0
1335, 0.0
1336, 0.0
1337, 0.0
1338, 0.0
1339, 0.0
1340, 0.0
1341, 0.0
1342, 0.0
1343, 0.0
1344, 0.0
1345, 0.0
1346, 0.0
1347, 0.0
1348, 0.0
1349, 0.0
1350, 0.0
1351, 0.0
1352, 0.0
1353, 0.0
1354, 0.0
1355, 0.0
1356, 0.0
1357, 0.0
1358, 0.0
1359, 0.0
1360, 0.0
1361, 0.0
1362, 0.0
1363, 0.0
1364, 0.0
1365, 0.0
1366, 0.0
1367, 0.0
1368, 0.0
1369, 0.0
1370, 0.0
1371, 0.0
1372, 0.0
1373, 0.0
1374, 0.0
1375, 0.0
1376, 0.0
1377, 0.0
1378, 0.0
1379, 0.0
1380, 0.0
1381, 0.0
1382, 0.0
1383, 0.0
1384, 0.0
1385, 0.0
1386, 0.0
1387, 0.0
1388, 0.0
1389, 0.0
1390, 0.0
1391, 0.0
1392, 0.0
1393, 0.0
1394, 0.0
1395, 0.0
1396, 0.0
1397, 0.0
1398, 0.0
1399, 0.0
1400, 0.0
1401, 0.0
1402, 0.0
1403, 0.0
1404, 0.0
1405, 0.0
1406, 0.0
1407, 0.0
1408, 0.0
1409, 0.0
1410, 0.0
1411, 0.0
1412, 0.0
1413, 0.0
1414, 0.0
1415, 0.0
1416, 0.0
1417, 0.0
1418, 0.0
1419, 0.0
1420, 0.0
1421, 0.0
1422, 0.0
1423, 0.0
1424, 0.0
1425, 0.0
1426, 0.0
1427, 0.0
1428, 0.0
1429, 0.0
1430, 0.0
1431, 0.0
1432, 0.0
1433, 0.0
1434, 0.0
1435, 0.0
1436, 0.0
1437, 0.0
1438, 0.0
1439, 0.0
1440, 0.0
1441, 0.0
1442, 0.0
1443, 0.0
1444, 0.0
1445, 0.0
1446, 0.0
1447, 0.0
1448, 0.0
1449, 0.0
1450, 0.0
1451, 0.0
1452, 0.0
1453, 0.0
1454, 0.0
1455, 0.0
1456, 0.0
1457, 0.0
1458, 0.0
1459, 0.0
1460, 0.0
1461, 0.0
1462, 0.0
1463, 0.0
1464, 0.0
1465, 0.0
1466, 0.0
1467, 0.0
1468, 0.0
1469, 0.0
1470, 0.0
1471, 0.0
1472, 0.0
1473, 0.0
1474, 0.0
1475, 0.0
1476, 0.0
1477, 0.0
1478, 0.0
1479, 0.0
1480, 0.0
1481, 0.0
1482, 0.0
1483, 0.0
1484, 0.0
1485, 0.0
1486, 0.0
1487, 0.0
1488, 0.0
1489, 0.0
1490, 0.0
1491, 0.0
1492, 0.0
1493, 0.0
1494, 0.0
1495, 0.0
1496, 0.0
1497, 0.0
1498, 0.0
1499, 0.0
1500, 0.0
1501, 0.0
1502, 0.0
1503, 0.0
1504, 0.0
1505, 0.0
1506, 0.0
1507, 0.0
1508, 0.0
1509, 0.0
1510, 0.0
1511, 0.0
1512, 0.0
1513, 0.0
1514, 0.0
1515, 0.0
1516, 0.0
1517, 0.0
1518, 0.0
1519, 0.0
1520, 0.0
1521, 0.0
1522, 0.0
1523, 0.0
1524, 0.0
1525, 0.0
1526, 0.0
1527, 0.0
1528, 0.0
1529, 0.0
1530, 0.0
1531, 0.0
1532, 0.0
1533, 0.0
1534, 0.0
1535, 0.0
1536, 0.0
1537, 0.0
1538, 0.0
1539, 0.0
1540, 0.0
1541, 0.0
1542, 0.0
1543, 0.0
1544, 0.0
1545, 0.0
1546, 0.0
1547, 0.0
1548, 0.0
1549, 0.0
1550, 0.0
1551, 0.0
1552, 0.0
1553, 0.0
1554, 0.0
1555, 0.0
1556, 0.0
1557, 0.0
1558, 0.0
1559, 0.0
1560, 0.0
1561, 0.0
1562, 0.0
1563, 0.0
1564, 0.0
1565, 0.0
1566, 0.0
1567, 0.0
1568, 0.0
1569, 0.0
1570, 0.0
1571, 0.0
1572, 0.0
1573, 0.0
1574, 0.0
1575, 0.0
1576, 0.0
1577, 0.0
1578, 0.0
1579, 0.0
1580, 0.0
1581, 0.0
1582, 0.0
1583, 0.0
1584, 0.0
1585, 0.0
1586, 0.0
1587, 0.0
1588, 0.0
1589, 0.0
1590, 0.0
1591, 0.0
1592, 0.0
1593, 0.0
1594, 0.0
1595, 0.0
1596, 0.0
1597, 0.0
1598, 0.0
1599, 0.0
