30, 0.0
31, 0.0
32, 0.0
33, 0.0
34, 0.0
35, 0.0
36, 0.0
37, 0.0
38, 0.0
39, 0.0
40, 0.0
41, 0.0
42, 0.0
43, 0.0
44, 0.0
45, 0.0
46, 0.0
47, 0.0
48, 0.0
49, 0.0
50, 0.0
51, 0.0
52, 0.0
53, 0.0
54, 0.0
55, 0.0
56, 0.0
57, 0.0
58, 0.0
59, 0.0
60, 0.0
61, 0.0
62, 0.0
63, 0.0
64, 0.0
65, 0.0
66, 0.0
67, 0.0
68, 0.0
69, 0.0
70, 0.0
71, 0.0
72, 0.0
73, 0.0
74, 0.0
75, 0.0
76, 0.0
77, 0.0
78, 0.0
79, 0.0
80, 0.0
81, 0.0
82, 0.0
83, 0.0
84, 0.0
85, 0.0
86, 0.0
87, 0.0
88, 0.0
89, 0.0
90, 0.0
91, 0.0
92, 0.0
93, 0.0
94, 0.0
95, 0.0
96, 0.0
97, 0.0
98, 0.0
99, 0.0
100, 0.0
101, 0.0
102, 0.0
103, 0.0
104, 0.0
105, 0.0
106, 0.0
107, 0.0
108, 0.0
109, 0.0
110, 0.0
111, 0.0
112, 0.0
113, 0.0
114, 0.0
115, 0.0
116, 0.0
117, 0.0
118, 0.0
119, 0.0
120, 0.0
121, 0.0
122, 0.0
123, 0.0
124, 0.0
125, 0.0
126, 0.0
127, 0.0
128, 0.0
129, 0.0
130, 0.0
131, 0.0
132, 0.0
133, 0.0
134, 0.0
135, 0.0
136, 0.0
137, 0.0
138, 0.0
139, 0.0
140, 0.0
141, 0.0
142, 0.0
143, 0.0
144, 0.0
145, 0.0
146, 0.0
147, 0.0
148, 0.0
149, 0.0
150, 0.0
151, 0.0
152, 0.0
153, 0.0
154, 0.0
155, 0.0
156, 0.0
157, 0.0
158, 0.0
159, 0.0
160, 0.0
161, 0.0
162, 0.0
163, 0.0
164, 0.0
165, 0.0
166, 0.0
167, 0.0
168, 0.0
169, 0.0
170, 0.0
171, 0.0
172, 0.0
173, 0.0
174, 0.0
175, 0.0
176, 0.0
177, 0.0
178, 0.0
179, 0.0
180, 0.0
181, 0.0
182, 0.0
183, 0.0
184, 0.0
185, 0.0
186, 0.0
187, 0.0
188, 0.0
189, 0.0
190, 0.0
191, 0.0
192, 0.0
193, 0.0
194, 0.0
195, 0.0
196, 0.0
197, 0.0
198, 0.0
199, 0.0
200, 0.0
201, 0.0
202, 0.0
203, 0.0
204, 0.0
205, 0.0
206, 0.0
207, 0.0
208, 0.0
209, 0.0
210, 0.0
211, 0.0
212, 0.0
213, 0.0
214.0, 0.00030886763011811106
215.0, 0.002636016289870467
216.0, 0.014008459223161365
217.0, 0.02033229044784527
218.0, 0.0322369460872946
219.0, 0.04549863947706044
220.0, 0.052860191435304245
221.0, 0.05114983119819717
222.0, 0.062251949788131866
223.0, 0.06553571672906838
224.0, 0.061100971175464855
225.0, 0.05667345449628094
226.0, 0.05779264779084961
227.0, 0.05416423428116542
228.0, 0.06111524930741122
229.0, 0.07689656064277284
230.0, 0.09239689559970884
231.0, 0.11087300672500096
232.0, 0.14245530312990837
233.0, 0.18759074883725027
234.0, 0.23432395350378304
235.0, 0.2824193066963044
236.0, 0.29633460851460036
237.0, 0.3157751536109244
238.0, 0.3317938584210019
239.0, 0.3252548948676593
240.0, 0.3025016373510577
241.0, 0.2745045429650864
242.0, 0.2269117903878238
243.0, 0.17364747718812576
244.0, 0.1312646605249579
245.0, 0.09212572748005812
246.0, 0.059624646618483636
247.0, 0.03926020936946805
248.0, 0.02513913369044226
249.0, 0.009377868479302073
250.0, 0.0028646965774563405
251.0, 0.006922975403749171
252.0, 0.011556568935603438
253.0, 0.008076996274907315
254.0, 0.004555580818990692
255.0, 0.0027360808381767946
256.0, 0.005593297406921174
257.0, 0.00051088862927051
258.0, 0.017451184665821257
259.0, 0.02358631106330946
260.0, 0.0342344684620115
261.0, 0.047742506229774016
262.0, 0.061213314969930425
263.0, 0.07406005788117709
264.0, 0.09079942739454562
265.0, 0.11242312852656666
266.0, 0.13468803325557402
267.0, 0.15787586346494828
268.0, 0.18170962294468654
269.0, 0.20732131188595868
270.0, 0.22628618647284882
271.0, 0.25091420416105453
272.0, 0.2817272743632311
273.0, 0.3092734508821269
274.0, 0.3414056640929425
275.0, 0.3758573939404408
276.0, 0.4131994933094271
277.0, 0.4534237013854229
278.0, 0.4943972271821837
279.0, 0.5308360136597396
280.0, 0.5793772020279029
281.0, 0.6192049169650301
282.0, 0.6435189351593066
283.0, 0.6831979589232476
284.0, 0.697916885522684
285.0, 0.7105033392383574
286.0, 0.7185993307398277
287.0, 0.7133040321857204
288.0, 0.702437568087869
289.0, 0.685323335472568
290.0, 0.6478492824135389
291.0, 0.5935012377478139
292.0, 0.5428102177707789
293.0, 0.5114763384987101
294.0, 0.4733681075804145
295.0, 0.43551141792457726
296.0, 0.40115529283197293
297.0, 0.3687453373675963
298.0, 0.34585781746984084
299.0, 0.3295743741928294
300.0, 0.31085313470409187
301.0, 0.29088101102519637
302.0, 0.27334140730034173
303.0, 0.24024763149320583
304.0, 0.216982223977581
305.0, 0.19031814071303282
306.0, 0.16361719304740985
307.0, 0.15220493377638328
308.0, 0.13213315912444168
309.0, 0.10880404473327805
310.0, 0.08859304172885056
311.0, 0.07133157722144683
312.0, 0.05392934151638183
313.0, 0.03749439951052339
314.0, 0.017672269718466
315.0, 0.0051498723347064256
316.0, 0.0014246865055452728
317.0, 0.006059365547959437
318.0, 0.003885083265277565
319.0, 0.013087576615660214
320.0, 0.017389341611524143
321.0, 0.011173757869369094
322.0, 0.0020718522399293384
323.0, 0.00916127731734604
324.0, 0.01875607806760165
325.0, 0.032988281571843234
326.0, 0.04695813074314027
327.0, 0.04917030987256348
328.0, 0.06432678533491358
329.0, 0.06168401872612425
330.0, 0.05420919831308219
331.0, 0.04935678108361193
332.0, 0.04038902600139163
333.0, 0.03311384097899873
334.0, 0.019122409790954236
335.0, 0.00809441318837662
336.0, 0.006721118350126923
337.0, 0.012660637421940388
338.0, 0.009038644344930388
339.0, 0.014959056422584095
340.0, 0.01506258225357695
341.0, 0.011887709098131966
342.0, 0.02216319061368062
343.0, 0.02488504049134966
344.0, 0.030726131463079547
345.0, 0.04140000271269104
346.0, 0.05337300607249099
347.0, 0.06041952282725331
348.0, 0.06061837002443249
349.0, 0.07637404471820204
350.0, 0.08459568908189369
351.0, 0.08238756593081131
352.0, 0.0844612815380301
353.0, 0.09697545224849383
354.0, 0.10661309943029657
355.0, 0.10156780193691874
356.0, 0.09181613311848026
357.0, 0.09095584204485438
358.0, 0.09944726108014129
359.0, 0.11402137500862324
360.0, 0.11916836321502808
361.0, 0.12467978557785336
362.0, 0.14219036074088895
363.0, 0.16563486746053827
364.0, 0.18314272160812264
365.0, 0.21783479405256537
366.0, 0.25012375776424356
367.0, 0.2801781561458398
368.0, 0.32723222827436604
369.0, 0.36732022946629783
370.0, 0.40936448081472465
371.0, 0.44735641781600927
372.0, 0.48282323145434686
373.0, 0.5185972473931901
374.0, 0.5360314038327508
375.0, 0.5494278512957939
376.0, 0.5545610261232936
377.0, 0.5492966353452461
378.0, 0.5354784693632421
379.0, 0.5091071979548828
380.0, 0.47565121949260886
381.0, 0.4367830035188609
382.0, 0.40225563340580783
383.0, 0.37906192116851506
384.0, 0.3571191214734722
385.0, 0.32485802223671295
386.0, 0.2920295092904065
387.0, 0.2685541661970527
388.0, 0.2541839868559111
389.0, 0.24095939477889425
390.0, 0.23030136101561632
391.0, 0.21881830870169097
392.0, 0.21256681090938467
393.0, 0.20962437974202153
394.0, 0.20065828648636777
395.0, 0.19219634867017893
396.0, 0.191654863668986
397.0, 0.19756169063937615
398.0, 0.19807812041835146
399.0, 0.19210205300973676
400.0, 0.20264197675146436
401.0, 0.20384463378100534
402.0, 0.1861278337566213
403.0, 0.18118594463915258
404.0, 0.19731385267640075
405.0, 0.19893024229223877
406.0, 0.18710907496732931
407.0, 0.17687208078514371
408.0, 0.16522855395580383
409.0, 0.15350821444202464
410.0, 0.1495647464119382
411.0, 0.1437564195060287
412.0, 0.13195412487732128
413.0, 0.12268877098250358
414.0, 0.11287423862614775
415.0, 0.09809159886579359
416.0, 0.08689491432896834
417.0, 0.07539788419696915
418.0, 0.05948740971881824
419.0, 0.05430968607481687
420.0, 0.05371428784193676
421.0, 0.03135748407261621
422.0, 0.026675956726494233
423.0, 0.023121277078521
424.0, 0.015086570850434662
425.0, 0.008069302953496778
426.0, 0.010335460365517203
427.0, 0.016030406995373055
428.0, 0.0055486683125045505
429.0, 0.008223194405556399
430.0, 0.014308435426216109
431.0, 0.007898934531148906
432.0, 0.00566416967557392
433.0, 0.008728089911517578
434.0, 0.014778311428893754
435.0, 0.009177440553505039
436.0, 0.0015109617545324987
437.0, 0.0023298883210558247
438.0, 0.005632978801532259
439.0, 0.002674522096072372
440.0, 0.008582766605817532
441.0, 0.015889947434743597
442.0, 0.02342684150574982
443.0, 0.027952985711366556
444.0, 0.04090704535723366
445.0, 0.042633376714991074
446.0, 0.04986185871329295
447.0, 0.05508839479156
448.0, 0.05103602382883282
449.0, 0.06006161650165169
450.0, 0.07042918325351934
451.0, 0.07172717748772774
452.0, 0.07072429788353546
453.0, 0.07459484436449391
454.0, 0.0810100983384779
455.0, 0.0869944682526725
456.0, 0.09936950235944605
457.0, 0.10775156870084059
458.0, 0.11959673768719434
459.0, 0.13653511442380883
460.0, 0.1457234298230222
461.0, 0.1666270835662277
462.0, 0.17730402649741245
463.0, 0.1939848915574319
464.0, 0.21681448142346035
465.0, 0.2326945812703363
466.0, 0.24962604799186777
467.0, 0.2713631740275314
468.0, 0.2931120864669161
469.0, 0.31555188664014694
470.0, 0.33979665417192706
471.0, 0.36313295261837514
472.0, 0.38431988326287614
473.0, 0.41803997698597906
474.0, 0.45356524953532296
475.0, 0.4836677272201508
476.0, 0.5138496394382848
477.0, 0.5551248063991632
478.0, 0.6038811171538895
479.0, 0.6537132243441444
480.0, 0.6981808373455306
481.0, 0.7448266006476184
482.0, 0.7988239728747766
483.0, 0.850835617519524
484.0, 0.8831485939226116
485.0, 0.9207340713044755
486.0, 0.9538615421098262
487.0, 0.9762312202929013
488.0, 0.9917692229244577
489.0, 0.9949652827804216
490.0, 0.9999127107784703
491.0, 0.9894771412623872
492.0, 0.961408938579556
493.0, 0.9237741025074724
494.0, 0.8775899299710777
495.0, 0.821101403794307
496.0, 0.7666899124187562
497.0, 0.718299225365062
498.0, 0.6722970393404817
499.0, 0.6273835418722674
500.0, 0.5842968100485709
501.0, 0.5358474770750105
502.0, 0.4932955464728661
503.0, 0.4552861936469389
504.0, 0.4188045088134815
505.0, 0.3841183940261292
506.0, 0.3534457477402135
507.0, 0.32264334968811276
508.0, 0.28768269255909185
509.0, 0.2623473968594606
510.0, 0.24116075180574234
511.0, 0.21523081640878486
512.0, 0.1953718796303677
513.0, 0.176652118177427
514.0, 0.15663678226382022
515.0, 0.14736574903242552
516.0, 0.1354864055210645
517.0, 0.11122937703810636
518.0, 0.10682445686674975
519.0, 0.09334257778755753
520.0, 0.08140959549192645
521.0, 0.0750350181934026
522.0, 0.061404149480019384
523.0, 0.04356280476321934
524.0, 0.04828979754415211
525.0, 0.03973330517698554
526.0, 0.04091028867677882
527.0, 0.029507179517525486
528.0, 0.014326650446420735
529.0, 0.01824303806053072
530.0, 0.013978783713466676
531.0, 0.009817643262930734
532.0, 0.0030455832462816797
533.0, 0.000719766667622473
534.0, 0.0011727818228200648
535.0, 0.004980204005423744
536.0, 0.022117024447757056
537.0, 0.01023280149380865
538.0, 0.008533314826216746
539.0, 0.0015389046646904969
540.0, 0.00716459462992245
541.0, 0.002107862218592272
542.0, 0.004536734780143789
543.0, 0.0019693865292145824
544.0, 0.0038577073020252695
545.0, 0.0031773985569495773
546.0, 0.0011621261780092442
547.0, 0.002177165252859199
548.0, 0.0006754429086734217
549.0, 0.008225850829617824
550.0, 0.0021338146617495713
551.0, 0.0022745309765352622
552.0, 0.008523887922956072
553.0, 0.010575897439350349
554.0, 0.006930202071296302
555.0, 0.015333286673883662
556.0, 0.018462811981749778
557.0, 0.017198577577014474
558.0, 0.025017073471806102
559.0, 0.037041437244673105
560.0, 0.036478176355160985
561.0, 0.04039660771539288
562.0, 0.04708348995524536
563.0, 0.05836009558003128
564.0, 0.05845376884601133
565.0, 0.051108652423410075
566.0, 0.051748986663562736
567.0, 0.05374800579444329
568.0, 0.048702371945843946
569.0, 0.05215977121327152
570.0, 0.05071277501476877
571.0, 0.04856193767932461
572.0, 0.05141590713844593
573.0, 0.04865687201505512
574.0, 0.05574783432427743
575.0, 0.05376166648172761
576.0, 0.048613224843284605
577.0, 0.046760777800107414
578.0, 0.04612807188543852
579.0, 0.042029616334859805
580.0, 0.04074991711049978
581.0, 0.035004264922473605
582.0, 0.03316336321527739
583.0, 0.03421405828113387
584.0, 0.035021946531232855
585.0, 0.034468540319046184
586.0, 0.030862652579497264
587.0, 0.020960579032179637
588.0, 0.02918682452823828
589.0, 0.027673745839099716
590.0, 0.021936994619671142
591.0, 0.02336401803080231
592.0, 0.01251167363766919
593.0, 0.017003442213263432
594.0, 0.018202058368007767
595.0, 0.015112143849792032
596.0, 0.012374398840928924
597.0, 0.013449371012925797
598.0, 0.015478245937130293
599.0, 0.010411939923529278
600.0, 0.009068063079714955
601.0, 0.012198606574016406
602.0, 0.013571448109708686
603.0, 0.010773585157645775
604.0, 0.010483142178155578
605.0, 0.015562576802925904
606.0, 0.0030819210762062983
607.0, 0.005867115331684233
608.0, 0.008535891846052943
609.0, 0.007719737428283502
610.0, 0.006844238420871815
611.0, 0.006120978002316747
612.0, 0.011250785795887815
613.0, 0.01002333825863605
614.0, 0.009653823982507491
615.0, 0.008050597016576863
616.0, 0.009250715963414655
617.0, 0.011183217349770678
618.0, 0.004360316824100044
619.0, 0.010955611389963862
620.0, 0.005135399132709456
621.0, 0.01012183969234064
622.0, 0.011174291243213593
623.0, 0.007074925051938661
624.0, 0.009188297279098978
625.0, 0.006232348474004385
626.0, 0.013203210066305607
627.0, 0.013558003337578043
628.0, 0.015514679370440187
629.0, 0.012521613278256133
630.0, 0.0038674084088788554
631.0, 0.000619017378155326
632.0, 0.004601316365361019
633.0, 0.004882598567366139
634.0, 0.011288992856446491
635.0, 0.0046283039639328
636.0, 0.0008757398840646467
637.0, 0.00296484634717251
638.0, 0.0012973188262955277
639.0, 0.008865825668009246
640.0, 0.013809325272662033
641.0, 0.010798128801665795
642.0, 0.012340180301497314
643.0, 0.014648277231093151
644.0, 0.011046496542250935
645.0, 0.012257565983402167
646.0, 0.01178640528440158
647.0, 0.012858779332756146
648.0, 0.014420764155244634
649.0, 0.01650745806149182
650.0, 0.019603405043698563
651.0, 0.020855336366994156
652.0, 0.013445702114643633
653.0, 0.022365307764792657
654.0, 0.020282354274718636
655.0, 0.02331634477950222
656.0, 0.0269867062595325
657.0, 0.025925123901900618
658.0, 0.02521605250754199
659.0, 0.023950952736948063
660.0, 0.025691081890433787
661.0, 0.028063451260962057
662.0, 0.02375823121692541
663.0, 0.021981739157747177
664.0, 0.023174471951564916
665.0, 0.02078874698355491
666.0, 0.020300969778848852
667.0, 0.025264347324540457
668.0, 0.018535348334860566
669.0, 0.014864178573402576
670.0, 0.018231537041243678
671.0, 0.023978261648701385
672.0, 0.02325391806345794
673.0, 0.01250780449402141
674.0, 0.01734581993702578
675.0, 0.01990740849649303
676.0, 0.019251425840924638
677.0, 0.020236457922206668
678.0, 0.020594903869306864
679.0, 0.01890153019916966
680.0, 0.019986925057343636
681.0, 0.0193894816190506
682.0, 0.013464589205766844
683.0, 0.013288201844113832
684.0, 0.010911333721828993
685.0, 0.011423105886495118
686.0, 0.01625124811134896
687.0, 0.00791248207867986
688.0, 0.009089618215020615
689.0, 0.010563743382744201
690.0, 0.01260482801964239
691.0, 0.004728006065650516
692.0, 0.0020424281653145075
693.0, 0.006358911458946924
694.0, 0.005688750534149987
695.0, 0.00818735070293895
696.0, 0.00977896645525171
697.0, 0.001706144836520273
698.0, 0.00047176634445401705
699.0, 0.003232094576072751
700.0, 0.004307004239827385
701.0, 0.00020387421362462433
702.0, 0.0030246403189065144
703.0, 0.004704531682961053
704.0, 0.004234982017156042
705.0, 0.0020251535710149775
706.0, 0.001317164684294069
707.0, 0.005411006221401846
708.0, 0.007183806328752266
709.0, 0.009405163853324296
710.0, 0.0052455265951932
711.0, 0.0013232552440585082
712.0, 0.0035292177763441837
713.0, 0.000903120573391984
714.0, 0.004380900475024488
715.0, 0.008520491273436546
716.0, 0.009428805682268858
717.0, 0.0029210254978896157
718.0, 0.010544640166733532
719.0, 0.013805665701818442
720.0, 0.016815829665245693
721.0, 0.018382254550394765
722.0, 0.021593227952602916
723.0, 0.02983635700417976
724.0, 0.03615765016982118
725.0, 0.03998189688285517
726.0, 0.045001506393611876
727.0, 0.052046500965629516
728.0, 0.05860215497199057
729.0, 0.06888995494421414
730.0, 0.0845812070012392
731.0, 0.10068921615028621
732.0, 0.1156001765773905
733.0, 0.13432218037462448
734.0, 0.15935411243290312
735.0, 0.1875089854782998
736.0, 0.2149906829251552
737.0, 0.23552026064379722
738.0, 0.2515468128262985
739.0, 0.27396228464212513
740.0, 0.2978978214075892
741.0, 0.3140188244917358
742.0, 0.3145436549038117
743.0, 0.30903719929233325
744.0, 0.2979275120250356
745.0, 0.27056188412765436
746.0, 0.23027090410737033
747.0, 0.204114527869434
748.0, 0.1721717873472021
749.0, 0.14002792683095455
750.0, 0.11171757759411376
751.0, 0.08425729101853528
752.0, 0.06630209897056387
753.0, 0.04910567983961083
754.0, 0.02444150924673385
755.0, 0.011363728921355943
756.0, 0.0012057469410713844
757.0, 0.006967788056847558
758.0, 0.009193362118299122
759.0, 0.017981018950515862
760.0, 0.024021720963151433
761.0, 0.024536056550460723
762.0, 0.02258618997120706
763.0, 0.014560367925308055
764.0, 0.022195944544493355
765.0, 0.024416604109287407
766.0, 0.016346731739370932
767.0, 0.008595652400356821
768.0, 0.002319488209517129
769.0, 0.01126974366679785
770.0, 0.015341755220012007
771.0, 0.03056179779939438
772.0, 0.04579864573363822
773.0, 0.05816495642113068
774.0, 0.0701414430365851
775.0, 0.08519310529419181
776.0, 0.10356221849307898
777.0, 0.11709146648982507
778.0, 0.13129914487310132
779.0, 0.16226330597481892
780.0, 0.18940809088545427
781.0, 0.21575975981752007
782.0, 0.2348947590818602
783.0, 0.2707286644149506
784.0, 0.30567134536217416
785.0, 0.3401726462993997
786.0, 0.38179549231686444
787.0, 0.413173880189639
788.0, 0.4491630342014213
789.0, 0.48226416659763677
790.0, 0.5198351775792676
791.0, 0.5469142774290358
792.0, 0.5708944449644587
793.0, 0.5996218122812325
794.0, 0.6272365182280105
795.0, 0.6446841276357251
796.0, 0.6498476445000055
797.0, 0.6697502999373955
798.0, 0.6684655415201318
799.0, 0.6858320628606034
800.0, 0.6946025174999895
801.0, 0.7076593959074113
802.0, 0.7334874275845762
803.0, 0.762596882659851
804.0, 0.7969953887897124
805.0, 0.8267751215982718
806.0, 0.8581398157377007
807.0, 0.8931185967780052
808.0, 0.9348209507847053
809.0, 0.9513423690859739
810.0, 0.951169393640888
811.0, 0.9488817659193607
812.0, 0.9279946493741661
813.0, 0.9033353574700799
814.0, 0.8691834083961738
815.0, 0.8036374463521911
816.0, 0.7494568013792561
817.0, 0.6999884663664906
818.0, 0.645061609720335
819.0, 0.589928714773577
820.0, 0.5357800218897342
821.0, 0.48066925205755723
822.0, 0.4390750676106216
823.0, 0.4165509626395463
824.0, 0.3825658968517227
825.0, 0.36090543204974807
826.0, 0.35367721243208394
827.0, 0.351874291881572
828.0, 0.3514725206747446
829.0, 0.3612761248651581
830.0, 0.3851873283359072
831.0, 0.38829135240426677
832.0, 0.4065584576741475
833.0, 0.42659143191641885
834.0, 0.44650230309778016
835.0, 0.45286121058397394
836.0, 0.44308453989554425
837.0, 0.4277206476180084
838.0, 0.40908247583519874
839.0, 0.3740560242094044
840.0, 0.32853402821542205
841.0, 0.29347441855414963
842.0, 0.2541087966831375
843.0, 0.2235509454070378
844.0, 0.19243084724556977
845.0, 0.16216572172282767
846.0, 0.14224538810411694
847.0, 0.1238119783136468
848.0, 0.10102285263308904
849.0, 0.09602651066426715
850.0, 0.08993896848888851
851.0, 0.0749261310167246
852.0, 0.07017776913393407
853.0, 0.0683195244629773
854.0, 0.07668271319363681
855.0, 0.08482221645268788
856.0, 0.08705512635459647
857.0, 0.10116207621763063
858.0, 0.11607516355194263
859.0, 0.14259742846450266
860.0, 0.1635081127543869
861.0, 0.19190195419683095
862.0, 0.22362543873065877
863.0, 0.26321887740681504
864.0, 0.3054568817341788
865.0, 0.34463380970477714
866.0, 0.39048386498158383
867.0, 0.44103172695070236
868.0, 0.48657824102249253
869.0, 0.5323601778569479
870.0, 0.5727634139808788
871.0, 0.6085239229059761
872.0, 0.6483713156588423
873.0, 0.6862322831846305
874.0, 0.7284719911449677
875.0, 0.773453579368984
876.0, 0.8009696628810479
877.0, 0.8345555578849451
878.0, 0.8540285235047962
879.0, 0.9012609763181412
880.0, 0.935426633002712
881.0, 0.9434057533054545
882.0, 0.9482282613100665
883.0, 0.9508923565956893
884.0, 0.9342016865037525
885.0, 0.908430757030624
886.0, 0.88791448600744
887.0, 0.8651747549178523
888.0, 0.8307029435066622
889.0, 0.8045710589501506
890.0, 0.770710491698471
891.0, 0.7306712513337248
892.0, 0.6924318105029801
893.0, 0.662638028367846
894.0, 0.6392204069116916
895.0, 0.6097996470690263
896.0, 0.5680209207005125
897.0, 0.5370323224066273
898.0, 0.5054074195593589
899.0, 0.47923919201404125
900.0, 0.45308817589208966
901.0, 0.41645087307428547
902.0, 0.3772584592927169
903.0, 0.34841250307236515
904.0, 0.3185447481473644
905.0, 0.275173593332333
906.0, 0.24784313262391897
907.0, 0.21935335408097542
908.0, 0.1925119083961813
909.0, 0.168341507974625
910.0, 0.13813693556497775
911.0, 0.12104333673811778
912.0, 0.10334746327009502
913.0, 0.08143383015432042
914.0, 0.07011669802323195
915.0, 0.059885141892005986
916.0, 0.042182827936242076
917.0, 0.041374936402255376
918.0, 0.029191002838532827
919.0, 0.01995120663183686
920.0, 0.0074522726352899745
921.0, 0.001904296951346839
922.0, 0.0005863070894642173
923.0, 0.0027644166489397015
924.0, 0.006217836818258889
925.0, 0.008989401569494404
926.0, 0.008034660544025624
927.0, 0.01045208506385131
928.0, 0.005649601694844348
929.0, 0.011590097166056853
930.0, 0.009407484980492877
931.0, 0.004780459234003018
932.0, 0.009304004139032939
933.0, 0.007316526042490102
934.0, 0.0019243212776687787
935.0, 0.005387345904231705
936.0, 0.008932748298205217
937.0, 0.0058493812669269665
938.0, 0.0008089393620944218
939.0, 0.0024451253828658534
940.0, 0.00492162982455817
941.0, 0.0034729924981130008
942.0, 0.006162675083686271
943.0, 0.005671754043330762
944.0, 0.004199220678828749
945.0, 0.003428113203276983
946.0, 0.0038993683288793945
947.0, 0.006221357468645669
948.0, 0.0018808098389409137
949.0, 0.0023550213000746952
950.0, 0.0023343205575009325
951.0, 0.0023436874496329764
952.0, 0.004249125979678335
953.0, 0.0077378046804319105
954.0, 0.00960842331506971
955.0, 0.01119962959211314
956.0, 0.012285620522027453
957.0, 0.013656656341493071
958.0, 0.02058229284139659
959.0, 0.013142422340748609
960.0, 0.01746730280059094
961.0, 0.021300085955690846
962.0, 0.014602377135572747
963.0, 0.022633615497104933
964.0, 0.022437262999131364
965.0, 0.027561124356529233
966.0, 0.02601063052049717
967.0, 0.022352217000410513
968.0, 0.025913402588192833
969.0, 0.027984329154566227
970.0, 0.029296735130232635
971.0, 0.03783700369584791
972.0, 0.037620883392864554
973.0, 0.04414940838228432
974.0, 0.03865277301687488
975.0, 0.039186062668138025
976.0, 0.0459153533409415
977.0, 0.0426459040826551
978.0, 0.0417882054177952
979.0, 0.043298501624681525
980.0, 0.040543542009297315
981.0, 0.040317455805034375
982.0, 0.04571077387795787
983.0, 0.05142639743095967
984.0, 0.0478764396787481
985.0, 0.048508899667220245
986.0, 0.0474519974499994
987.0, 0.049195385079964946
988.0, 0.04110192195979411
989.0, 0.04188886839674534
990.0, 0.04207289451147963
991.0, 0.04265603078688161
992.0, 0.03990778565434379
993.0, 0.028847837329714743
994.0, 0.026947359612111695
995.0, 0.030075078053984114
996.0, 0.04340462329575456
997.0, 0.0474311094365534
998.0, 0.045022713860259356
999.0, 0.04644430613914338
1000.0, 0.05394674888860446
1001.0, 0.040979731130014636
1002.0, 0.03679670194134599
1003.0, 0.045107020631061874
1004.0, 0.045856510405316145
1005.0, 0.04420732636979969
1006.0, 0.0464957481228434
1007.0, 0.04195714250854714
1008.0, 0.03822858482695637
1009.0, 0.03369723670738802
1010.0, 0.033178002714124896
1011.0, 0.034601605454437724
1012.0, 0.03006680611463941
1013.0, 0.030922979411547098
1014.0, 0.02627280431554473
1015.0, 0.024641065684068597
1016.0, 0.02404336416563317
1017.0, 0.023440491271130008
1018.0, 0.02816613854471637
1019.0, 0.02736847885580991
1020.0, 0.019104929654137248
1021.0, 0.01749078612021973
1022.0, 0.011921221087766942
1023.0, 0.02517308331875735
1024.0, 0.014358638494602054
1025.0, 0.01377004091625989
1026.0, 0.010329263586350475
1027.0, 0.010556512418974184
1028.0, 0.012702463078220495
1029.0, 0.013263936603315008
1030.0, 0.014635567501658344
1031.0, 0.01794927523018256
1032.0, 0.018726710118726186
1033.0, 0.012104542099003418
1034.0, 0.007683530091401989
1035.0, 0.01692132634777344
1036.0, 0.01989240390443792
1037.0, 0.02381137790274068
1038.0, 0.020267131015589832
1039.0, 0.0155333978851705
1040.0, 0.015202836680545057
1041.0, 0.020183701377557477
1042.0, 0.021312953835652834
1043.0, 0.0192576819965508
1044.0, 0.01906048850218819
1045.0, 0.017109871458960195
1046.0, 0.014983884419144286
1047.0, 0.020141047789787658
1048.0, 0.01956473926046958
1049.0, 0.0191884778364885
1050.0, 0.01918414279431505
1051.0, 0.019198282133276248
1052.0, 0.02292452906910235
1053.0, 0.025235854106352918
1054.0, 0.02186906512376612
1055.0, 0.017734605315715645
1056.0, 0.013017813558334472
1057.0, 0.013483039963686334
1058.0, 0.024174793698429883
1059.0, 0.02823029253574917
1060.0, 0.021054091733608057
1061.0, 0.022829493138156604
1062.0, 0.025933553718044542
1063.0, 0.022333934378412384
1064.0, 0.020347164460084458
1065.0, 0.022713705481081366
1066.0, 0.021527780477850686
1067.0, 0.025368725378998154
1068.0, 0.021992222845139648
1069.0, 0.024224415342763754
1070.0, 0.027840515861247576
1071.0, 0.0263184312035768
1072.0, 0.02482757210990313
1073.0, 0.027985415201738674
1074.0, 0.03007790183551957
1075.0, 0.027463364955470478
1076.0, 0.025821730509501695
1077.0, 0.023341202948856783
1078.0, 0.025325516880268045
1079.0, 0.028522750236089852
1080.0, 0.027690037854956252
1081.0, 0.019750870029690545
1082.0, 0.023258271931872
1083.0, 0.024476038146715944
1084.0, 0.023095112319604802
1085.0, 0.022887758522718345
1086.0, 0.018073529486500615
1087.0, 0.011871742340156097
1088.0, 0.01137578204747926
1089.0, 0.0115583521575648
1090.0, 0.00798530290416249
1091.0, 0.008245709682345018
1092.0, 0.013863115985135621
1093.0, 0.013177692568423929
1094.0, 0.0044474166515119035
1095.0, 0.010007342877921465
1096.0, 0.01021093224832062
1097.0, 0.010919657108503381
1098.0, 0.01063008834811457
1099.0, 0.01103323178859434
1100.0, 0.008121617348724693
1101.0, 0.004395923302855013
1102.0, 0.0055371428924367635
1103.0, 0.00470370774764884
1104.0, 0.0005565428458820516
1105.0, 0.0006963914448593731
1106.0, 0.002556221526873579
1107.0, 0.0023032149364960617
1108.0, 0.004129192094487826
1109.0, 0.004578909878409077
1110.0, 0.0015061631079304285
1111.0, 0.009880332032176576
1112.0, 0.0037811202487403545
1113.0, 0.0031372166200798464
1114.0, 0.006291430210803448
1115.0, 0.006616414363235827
1116.0, 0.00963102789331676
1117.0, 0.004044523862971525
1118.0, 0.000421145136326385
1119.0, 0.0009639670919096638
1120.0, 0.0046390593933734545
1121.0, 0.008901771436773214
1122.0, 0.0046074382076841175
1123.0, 0.0007080667693343105
1124.0, 0.0015328380119640137
1125.0, 0.0007707174227007991
1126.0, 0.0012113296204851276
1127.0, 0.004913737472283997
1128.0, 0.002607589469911267
1129.0, 0.0015405229482912469
1130.0, 0.009940459262832676
1131.0, 0.0024835142810192027
1132.0, 0.005112424584091615
1133.0, 0.0008978798179839597
1134.0, 0.001050090833838359
1135.0, 0.0007243574347160628
1136.0, 0.0016958135442741622
1137.0, 0.003112434610792892
1138.0, 0.0011331443926840662
1139.0, 0.0015059017595123992
1140.0, 0.003265573159518819
1141.0, 0.0012979023029544923
1142.0, 0.0017857080997198654
1143.0, 0.004378087391513743
1144.0, 0.005289143329540559
1145.0, 0.0057789381141109646
1146.0, 0.0016493827603702123
1147.0, 0.0027387869771981583
1148.0, 0.00367500370804672
1149.0, 0.0012184990695597963
1150.0, 0.0013057669958178148
1151.0, 0.005582716097360466
1152.0, 0.007016944392031214
1153.0, 0.005450053145319205
1154.0, 0.004863281338483446
1155.0, 0.0009476964003935784
1156.0, 0.005545087499933592
1157.0, 0.009324527601177128
1158.0, 0.006435598876813776
1159.0, 0.005277998840239383
1160.0, 0.006779356194252852
1161.0, 0.007604784205424255
1162.0, 0.0038301510809574295
1163.0, 0.0014211421415645717
1164.0, 0.004099158668019634
1165.0, 0.006297727968487587
1166.0, 0.007552752188401751
1167.0, 0.005362378241398792
1168.0, 0.0001952054741904437
1169.0, 0.0016014991261487027
1170.0, 0.0016527803033754766
1171.0, 0.008674954803633882
1172.0, 0.005192439635538031
1173.0, 0.00765786832457461
1174.0, 0.0010349588310625477
1175.0, 0.0007621106935287068
1176.0, 0.004444226462011155
1177.0, 0.003995640094592511
1178.0, 0.006062430359839432
1179.0, 0.0024119848283525357
1180.0, 0.003712502730746608
1181.0, 0.012056253222034755
1182.0, 0.009558472699455854
1183.0, 0.006296247572849918
1184.0, 0.008982137090270166
1185.0, 0.008821583216322433
1186.0, 0.009414937853550298
1187.0, 0.009418633132426931
1188.0, 0.004730588191191191
1189.0, 0.008965739063996572
1190.0, 0.010615154189735082
1191.0, 0.012915330969934852
1192.0, 0.012600354647322527
1193.0, 0.00959940879786248
1194.0, 0.006194092288720681
1195.0, 0.019302860748716247
1196.0, 0.015418349559079378
1197.0, 0.011494563992380741
1198.0, 0.013477586738649993
1199.0, 0.004587130820380562
1200.0, 0.014682675211128076
1201.0, 0.009169424050027892
1202.0, 0.011450802515362332
1203.0, 0.00469676749930502
1204.0, 0.001672735230088024
1205.0, 0.0015636501321480629
1206.0, 0.00824118547574205
1207.0, 0.01245628525552169
1208.0, 0.0032667731012158805
1209.0, 0.0025141430715628697
1210.0, 0.007877330459680022
1211.0, 0.011742653856118798
1212.0, 0.014481783142018414
1213.0, 0.011904478769064874
1214.0, 0.014456528995101853
1215.0, 0.012256703740184026
1216.0, 0.018206657551914997
1217.0, 0.011780223253279298
1218.0, 0.011480645728455243
1219.0, 0.010590747759842617
1220.0, 0.0201094394863404
1221.0, 0.018417377453598022
1222.0, 0.013844462951429182
1223.0, 0.016434763876976004
1224.0, 0.010141685348930186
1225.0, 0.017450242578713016
1226.0, 0.014178993446934662
1227.0, 0.011661814264993041
1228.0, 0.01274743316629083
1229.0, 0.013576886430740079
1230.0, 0.012467806844631056
1231.0, 0.017795086608812738
1232.0, 0.018260519089604934
1233.0, 0.017187611608763472
1234.0, 0.011297756118531194
1235.0, 0.006320342973955626
1236.0, 0.0075853202827812
1237.0, 0.0037201478253187144
1238.0, 0.00047577357667295806
1239.0, 0.001652261857307853
1240.0, 0.0030978203276946334
1241.0, 0.007283847457441432
1242.0, 0.011422928017579539
1243.0, 0.013230644089417445
1244.0, 0.012245768852256205
1245.0, 0.016604168932186945
1246.0, 0.016076709662042925
1247.0, 0.017738111532867168
1248.0, 0.015364614740260263
1249.0, 0.009984713089729324
1250.0, 0.009118626134743863
1251.0, 0.010240528400424834
1252.0, 0.012778542040744838
1253.0, 0.007582518669413622
1254.0, 0.010568192205636248
1255.0, 0.006101673742834632
1256.0, 0.003173524881506196
1257.0, 0.004696482114754008
1258.0, 0.010980800971186835
1259.0, 0.010785658226964045
1260.0, 0.0022235413787935776
1261.0, 0.00017761336420458733
1262, 0.0
1263, 0.0
1264, 0.0
1265, 0.0
1266, 0.0
1267, 0.0
1268, 0.0
1269, 0.0
1270, 0.0
1271, 0.0
1272, 0.0
1273, 0.0
1274, 0.0
1275, 0.0
1276, 0.0
1277, 0.0
1278, 0.0
1279, 0.0
1280, 0.0
1281, 0.0
1282, 0.0
1283, 0.0
1284, 0.0
1285, 0.0
1286, 0.0
1287, 0.0
1288, 0.0
1289, 0.0
1290, 0.0
1291, 0.0
1292, 0.0
1293, 0.0
1294, 0.0
1295, 0.0
1296, 0.0
1297, 0.0
1298, 0.0
1299, 0.0
1300, 0.0
1301, 0.0
1302, 0.0
1303, 0.0
1304, 0.0
1305, 0.0
1306, 0.0
1307, 0.0
1308, 0.0
1309, 0.0
1310, 0.0
1311, 0.0
1312, 0.0
1313, 0.0
1314, 0.0
1315, 0.0
1316, 0.0
1317, 0.0
1318, 0.0
1319, 0.0
1320, 0.0
1321, 0.0
1322, 0.0
1323, 0.0
1324, 0.0
1325, 0.0
1326, 0.0
1327, 0.0
1328, 0.0
1329, 0.0
1330, 0.0
1331, 0.0
1332, 0.0
1333, 0.0
1334, 0.0
1335, 0.0
1336, 0.0
1337, 0.0
1338, 0.0
1339, 0.0
1340, 0.0
1341, 0.0
1342, 0.0
1343, 0.0
1344, 0.0
1345, 0.0
1346, 0.0
1347, 0.0
1348, 0.0
1349, 0.0
1350, 0.0
1351, 0.0
1352, 0.0
1353, 0.0
1354, 0.0
1355, 0.0
1356, 0.0
1357, 0.0
1358, 0.0
1359, 0.0
1360, 0.0
1361, 0.0
1362, 0.0
1363, 0.0
1364, 0.0
1365, 0.0
1366, 0.0
1367, 0.0
1368, 0.0
1369, 0.0
1370, 0.0
1371, 0.0
1372, 0.0
1373, 0.0
1374, 0.0
1375, 0.0
1376, 0.0
1377, 0.0
1378, 0.0
1379, 0.0
1380, 0.0
1381, 0.0
1382, 0.0
1383, 0.0
1384, 0.0
1385, 0.0
1386, 0.0
1387, 0.0
1388, 0.0
1389, 0.0
1390, 0.0
1391, 0.0
1392, 0.0
1393, 0.0
1394, 0.0
1395, 0.0
1396, 0.0
1397, 0.0
1398, 0.0
1399, 0.0
1400, 0.0
1401, 0.0
1402, 0.0
1403, 0.0
1404, 0.0
1405, 0.0
1406, 0.0
1407, 0.0
1408, 0.0
1409, 0.0
1410, 0.0
1411, 0.0
1412, 0.0
1413, 0.0
1414, 0.0
1415, 0.0
1416, 0.0
1417, 0.0
1418, 0.0
1419, 0.0
1420, 0.0
1421, 0.0
1422, 0.0
1423, 0.0
1424, 0.0
1425, 0.0
1426, 0.0
1427, 0.0
1428, 0.0
1429, 0.0
1430, 0.0
1431, 0.0
1432, 0.0
1433, 0.0
1434, 0.0
1435, 0.0
1436, 0.0
1437, 0.0
1438, 0.0
1439, 0.0
1440, 0.0
1441, 0.0
1442, 0.0
1443, 0.0
1444, 0.0
1445, 0.0
1446, 0.0
1447, 0.0
1448, 0.0
1449, 0.0
1450, 0.0
1451, 0.0
1452, 0.0
1453, 0.0
1454, 0.0
1455, 0.0
1456, 0.0
1457, 0.0
1458, 0.0
1459, 0.0
1460, 0.0
1461, 0.0
1462, 0.0
1463, 0.0
1464, 0.0
1465, 0.0
1466, 0.0
1467, 0.0
1468, 0.0
1469, 0.0
1470, 0.0
1471, 0.0
1472, 0.0
1473, 0.0
1474, 0.0
1475, 0.0
1476, 0.0
1477, 0.0
1478, 0.0
1479, 0.0
1480, 0.0
1481, 0.0
1482, 0.0
1483, 0.0
1484, 0.0
1485, 0.0
1486, 0.0
1487, 0.0
1488, 0.0
1489, 0.0
1490, 0.0
1491, 0.0
1492, 0.0
1493, 0.0
1494, 0.0
1495, 0.0
1496, 0.0
1497, 0.0
1498, 0.0
1499, 0.0
1500, 0.0
1501, 0.0
1502, 0.0
1503, 0.0
1504, 0.0
1505, 0.0
1506, 0.0
1507, 0.0
1508, 0.0
1509, 0.0
1510, 0.0
1511, 0.0
1512, 0.0
1513, 0.0
1514, 0.0
1515, 0.0
1516, 0.0
1517, 0.0
1518, 0.0
1519, 0.0
1520, 0.0
1521, 0.0
1522, 0.0
1523, 0.0
1524, 0.0
1525, 0.0
1526, 0.0
1527, 0.0
1528, 0.0
1529, 0.0
1530, 0.0
1531, 0.0
1532, 0.0
1533, 0.0
1534, 0.0
1535, 0.0
1536, 0.0
1537, 0.0
1538, 0.0
1539, 0.0
1540, 0.0
1541, 0.0
1542, 0.0
1543, 0.0
1544, 0.0
1545, 0.0
1546, 0.0
1547, 0.0
1548, 0.0
1549, 0.0
1550, 0.0
1551, 0.0
1552, 0.0
1553, 0.0
1554, 0.0
1555, 0.0
1556, 0.0
1557, 0.0
1558, 0.0
1559, 0.0
1560, 0.0
1561, 0.0
1562, 0.0
1563, 0.0
1564, 0.0
1565, 0.0
1566, 0.0
1567, 0.0
1568, 0.0
1569, 0.0
1570, 0.0
1571, 0.0
1572, 0.0
1573, 0.0
1574, 0.0
1575, 0.0
1576, 0.0
1577, 0.0
1578, 0.0
1579, 0.0
1580, 0.0
1581, 0.0
1582, 0.0
1583, 0.0
1584, 0.0
1585, 0.0
1586, 0.0
1587, 0.0
1588, 0.0
1589, 0.0
1590, 0.0
1591, 0.0
1592, 0.0
1593, 0.0
1594, 0.0
1595, 0.0
1596, 0.0
1597, 0.0
1598, 0.0
1599, 0.0
