30, 0.0
31, 0.0
32, 0.0
33, 0.0
34, 0.0
35, 0.0
36, 0.0
37, 0.0
38, 0.0
39, 0.0
40, 0.0
41, 0.0
42, 0.0
43, 0.0
44, 0.0
45, 0.0
46, 0.0
47, 0.0
48, 0.0
49, 0.0
50, 0.0
51, 0.0
52, 0.0
53, 0.0
54, 0.0
55, 0.0
56, 0.0
57, 0.0
58, 0.0
59, 0.0
60, 0.0
61, 0.0
62, 0.0
63, 0.0
64, 0.0
65, 0.0
66, 0.0
67, 0.0
68, 0.0
69, 0.0
70, 0.0
71, 0.0
72, 0.0
73, 0.0
74, 0.0
75, 0.0
76, 0.0
77, 0.0
78, 0.0
79, 0.0
80, 0.0
81, 0.0
82, 0.0
83, 0.0
84, 0.0
85, 0.0
86, 0.0
87, 0.0
88, 0.0
89, 0.0
90, 0.0
91, 0.0
92, 0.0
93, 0.0
94, 0.0
95, 0.0
96, 0.0
97, 0.0
98, 0.0
99, 0.0
100, 0.0
101, 0.0
102, 0.0
103, 0.0
104, 0.0
105, 0.0
106, 0.0
107, 0.0
108, 0.0
109, 0.0
110, 0.0
111, 0.0
112, 0.0
113, 0.0
114, 0.0
115, 0.0
116, 0.0
117, 0.0
118, 0.0
119, 0.0
120, 0.0
121, 0.0
122, 0.0
123, 0.0
124, 0.0
125, 0.0
126, 0.0
127, 0.0
128, 0.0
129.0, 0.00014072886537129674
130.0, 0.0014648902552215808
131.0, 0.004921582411021758
132.0, 0.0038557318703967185
133.0, 0.00401530985358474
134.0, 0.005925271920756337
135.0, 0.010897095425304705
136.0, 0.01630467501922328
137.0, 0.021825336848145114
138.0, 0.027361833910655116
139.0, 0.03441266015853251
140.0, 0.04161698345123887
141.0, 0.048957188153833125
142.0, 0.056437857496384025
143.0, 0.06174376965712952
144.0, 0.0651039715960578
145.0, 0.06635457768553168
146.0, 0.06391690262631831
147.0, 0.06369440269412054
148.0, 0.06246229931654303
149.0, 0.056486028206179185
150.0, 0.05379820749271442
151.0, 0.05131293328053509
152.0, 0.04919381411272846
153.0, 0.04998332671709012
154.0, 0.05035009419705652
155.0, 0.0505629094605913
156.0, 0.050749364960399536
157.0, 0.05280800678822217
158.0, 0.05426200302526628
159.0, 0.05485481490486617
160.0, 0.053846958840583166
161.0, 0.05733614446859618
162.0, 0.05996110153441751
163.0, 0.06024018782133266
164.0, 0.05969868034975401
165.0, 0.06122373499441909
166.0, 0.06317814067939644
167.0, 0.06371852079329657
168.0, 0.06505356907168167
169.0, 0.06699821329135047
170.0, 0.06954157062024345
171.0, 0.07280296627939321
172.0, 0.07737728764478609
173.0, 0.08156165947337568
174.0, 0.08436459233995307
175.0, 0.09174133499804449
176.0, 0.09715924869584691
177.0, 0.10162159794260288
178.0, 0.10730016255982328
179.0, 0.11617380811308294
180.0, 0.12642881260441985
181.0, 0.13713413129378715
182.0, 0.14231384300549077
183.0, 0.14898680029834172
184.0, 0.15376204774586377
185.0, 0.15302448483740835
186.0, 0.1538911946922778
187.0, 0.1537392745377613
188.0, 0.15224139049372973
189.0, 0.14867315971197853
190.0, 0.14263483644465427
191.0, 0.13774808498077246
192.0, 0.13522036628960168
193.0, 0.12700396159964883
194.0, 0.11614721980432123
195.0, 0.1047044843385446
196.0, 0.09541029002780396
197.0, 0.08472191062676962
198.0, 0.07482715016057565
199.0, 0.06568203395688266
200.0, 0.05561134132908932
201.0, 0.04889692149355279
202.0, 0.042587032422375784
203.0, 0.03520841259479793
204.0, 0.029638542815966985
205.0, 0.023915691272831423
206.0, 0.018485616533310954
207.0, 0.0142279227421102
208.0, 0.012499408141547007
209.0, 0.010415854952668504
210.0, 0.007538629614656124
211.0, 0.004357370010606934
212.0, 0.0024409034290530855
213.0, 0.0012916508959486322
214.0, 0.0007072830041436298
215.0, 0.0017561440212858074
216.0, 0.003039589627020817
217.0, 0.004067655463449637
218.0, 0.00381730732069959
219.0, 0.003389690400418345
220.0, 0.0028697864271937544
221.0, 0.0023067062491002274
222.0, 0.0019456582325918501
223.0, 0.0022423676337701218
224.0, 0.0020833332957966725
225.0, 0.0006773553754389645
226.0, 0.0019744599189720543
227.0, 0.002408080885562729
228.0, 0.0026737615300319473
229.0, 0.004289313838869965
230.0, 0.004360718463749873
231.0, 0.003701991141262385
232.0, 0.002650849230598238
233.0, 0.0024707693463873405
234.0, 0.001878732673462514
235.0, 0.0010754419423565347
236.0, 0.0001566330085282792
237.0, 0.002393653868831884
238.0, 0.003292284301414826
239.0, 0.0043220792197233
240.0, 0.008188733482917128
241.0, 0.012393031292594975
242.0, 0.01534826309623959
243.0, 0.01735363335519108
244.0, 0.021347441708682743
245.0, 0.02437808252034374
246.0, 0.02798169220802406
247.0, 0.03291410613034912
248.0, 0.03673190120009742
249.0, 0.041521903921312456
250.0, 0.04660148965202672
251.0, 0.051079583735905966
252.0, 0.05472613791805396
253.0, 0.05946610084357905
254.0, 0.06486171378541254
255.0, 0.0685491480602342
256.0, 0.07350752982569893
257.0, 0.07746105684608395
258.0, 0.0796394057941051
259.0, 0.08147948029625666
260.0, 0.08294095366340108
261.0, 0.08424903966484869
262.0, 0.08558882302861508
263.0, 0.08566594755689112
264.0, 0.08505761310563487
265.0, 0.08374729083313627
266.0, 0.08150518576653705
267.0, 0.07962511256617033
268.0, 0.07597406534932785
269.0, 0.07026518815833116
270.0, 0.06383441374752115
271.0, 0.05810551699505807
272.0, 0.05340543439853796
273.0, 0.049939752595974746
274.0, 0.042747527216532855
275.0, 0.03776868446445414
276.0, 0.03341246009502992
277.0, 0.027559405068804922
278.0, 0.02347105511839628
279.0, 0.020480047571831365
280.0, 0.018078807625093913
281.0, 0.014887260074453719
282.0, 0.014292611857951906
283.0, 0.01355222368881571
284.0, 0.01207160194789424
285.0, 0.012028394664067943
286.0, 0.01271897430999838
287.0, 0.013073609036341772
288.0, 0.012319119940814131
289.0, 0.015170426862923771
290.0, 0.016779319714523937
291.0, 0.018013492344480367
292.0, 0.020282432024057072
293.0, 0.023579022002506764
294.0, 0.027163519201579178
295.0, 0.03101177169617306
296.0, 0.03539874749028347
297.0, 0.042573072397229225
298.0, 0.04909964699737113
299.0, 0.05433798535008921
300.0, 0.06287373194955326
301.0, 0.07296271801351939
302.0, 0.0816596830594431
303.0, 0.08683930317366928
304.0, 0.09465877423115235
305.0, 0.09933312444738962
306.0, 0.10111477613187922
307.0, 0.10001375841413773
308.0, 0.10148933106493865
309.0, 0.09893333563687888
310.0, 0.09308740028315651
311.0, 0.08793506504268483
312.0, 0.08343977097454677
313.0, 0.08015448817399862
314.0, 0.07853431076625929
315.0, 0.08055903248330357
316.0, 0.08562390975473733
317.0, 0.09398720180383068
318.0, 0.10611020789970753
319.0, 0.12424324266747637
320.0, 0.1497616173393026
321.0, 0.1801686578273334
322.0, 0.21339375163363508
323.0, 0.24997277536194248
324.0, 0.2861035255341356
325.0, 0.31555765636162164
326.0, 0.3247417868388598
327.0, 0.3121778246009631
328.0, 0.28782736966810246
329.0, 0.25363226351409013
330.0, 0.2103624497553182
331.0, 0.16971427919240814
332.0, 0.13606500345691205
333.0, 0.11070627856355306
334.0, 0.08962076673742418
335.0, 0.0726105245254745
336.0, 0.05973161265223398
337.0, 0.05124852593127726
338.0, 0.042926483877813976
339.0, 0.03911588015601952
340.0, 0.03685899185405732
341.0, 0.032932969145093645
342.0, 0.03196700419388236
343.0, 0.028909688986097224
344.0, 0.025300439745666835
345.0, 0.024779968524496373
346.0, 0.024140129753937506
347.0, 0.02419125208228055
348.0, 0.024701880665054982
349.0, 0.024407189922967087
350.0, 0.025581440426077823
351.0, 0.026601487302935906
352.0, 0.027425220165738846
353.0, 0.03106888118424286
354.0, 0.034917013635340735
355.0, 0.03924395073896085
356.0, 0.044026157551883924
357.0, 0.0458292818057401
358.0, 0.0510450872354365
359.0, 0.05757502394589954
360.0, 0.06376695025595122
361.0, 0.06704741979027265
362.0, 0.0731923707373097
363.0, 0.07864998145259638
364.0, 0.07826383943421286
365.0, 0.07986690167630824
366.0, 0.08079548965232852
367.0, 0.08036014651917388
368.0, 0.07731719764547405
369.0, 0.07337982385885201
370.0, 0.06991887867047258
371.0, 0.06703468582002846
372.0, 0.06431257284645785
373.0, 0.059677190332264644
374.0, 0.05535542712780166
375.0, 0.05189817852751509
376.0, 0.04886714399696231
377.0, 0.045043237488918184
378.0, 0.04203080933384577
379.0, 0.040500010868521605
380.0, 0.03960651900442946
381.0, 0.0373121732541954
382.0, 0.03508110037830217
383.0, 0.03389686112629876
384.0, 0.03426993118375346
385.0, 0.03283196265482392
386.0, 0.032053957550662766
387.0, 0.034443225168363706
388.0, 0.03314727273214071
389.0, 0.03197561718435884
390.0, 0.03158275725526997
391.0, 0.032864096901759544
392.0, 0.03388008943656487
393.0, 0.033932014740899595
394.0, 0.03388091753857867
395.0, 0.03564636055520195
396.0, 0.03832853156923325
397.0, 0.03960846746780147
398.0, 0.03987062136590675
399.0, 0.04118997998766666
400.0, 0.040612672572236046
401.0, 0.04331554730355995
402.0, 0.04856512587923409
403.0, 0.048310697648785365
404.0, 0.051913349563489246
405.0, 0.05523398984789567
406.0, 0.05737270569378291
407.0, 0.06081982360729852
408.0, 0.06549972563931486
409.0, 0.07083305252519365
410.0, 0.0767866200675654
411.0, 0.08524434127404698
412.0, 0.09275284774068722
413.0, 0.10054558242510664
414.0, 0.1092961166047203
415.0, 0.11821742610273597
416.0, 0.12744861818161382
417.0, 0.13566899971714944
418.0, 0.1417945069932153
419.0, 0.14348185096722216
420.0, 0.1417380103850499
421.0, 0.1367212397601043
422.0, 0.12844318404305657
423.0, 0.11983268580525734
424.0, 0.1081994201308573
425.0, 0.09611416513262946
426.0, 0.0867948812338068
427.0, 0.07536465059511263
428.0, 0.06634331877661696
429.0, 0.05897177182677887
430.0, 0.05189870861967111
431.0, 0.04818059225330976
432.0, 0.045034589073165626
433.0, 0.04243227824176656
434.0, 0.04075625918567027
435.0, 0.03832604683505726
436.0, 0.0364992216070283
437.0, 0.03430315115930087
438.0, 0.02916094101620919
439.0, 0.030501672245666113
440.0, 0.02814847009324864
441.0, 0.02297694866317069
442.0, 0.0211404440427948
443.0, 0.018459905615927245
444.0, 0.015623433544586002
445.0, 0.012892880804461337
446.0, 0.01072280623832033
447.0, 0.009565950505149195
448.0, 0.008203940705178369
449.0, 0.006723072965381907
450.0, 0.0064170537395283845
451.0, 0.005796453798213542
452.0, 0.00488341161171386
453.0, 0.0038886740945791648
454.0, 0.0037031061899656147
455.0, 0.003643843663444342
456.0, 0.004074085685009713
457.0, 0.004936400823587948
458.0, 0.005420183425351741
459.0, 0.0058611463828661566
460.0, 0.006266772499001354
461.0, 0.006454097070982969
462.0, 0.005402840011150103
463.0, 0.006004420566253302
464.0, 0.006883389350682714
465.0, 0.0075710763698638665
466.0, 0.008098326929706945
467.0, 0.00911520463702814
468.0, 0.010193128569241847
469.0, 0.01123066156931444
470.0, 0.012610087723910786
471.0, 0.013441596243526175
472.0, 0.014640152148165416
473.0, 0.01648822457864549
474.0, 0.018358254682256474
475.0, 0.023173124777336084
476.0, 0.029239575629443168
477.0, 0.03602263656714348
478.0, 0.04453773794918412
479.0, 0.05586961722018113
480.0, 0.06847749738759203
481.0, 0.081624697873889
482.0, 0.09448318338131062
483.0, 0.10212734721670522
484.0, 0.10776286908642824
485.0, 0.11127466514933836
486.0, 0.10192617046288613
487.0, 0.09116289974571427
488.0, 0.07968915156233622
489.0, 0.06769700427071722
490.0, 0.054511818566728466
491.0, 0.0439517730630322
492.0, 0.03636807843772773
493.0, 0.031139756045100792
494.0, 0.02255885603496515
495.0, 0.020108486500961475
496.0, 0.01827565835268402
497.0, 0.015038662564575669
498.0, 0.01150219661976085
499.0, 0.00833403702098919
500.0, 0.006286434463501847
501.0, 0.005502631183453219
502.0, 0.005037300547300167
503.0, 0.004612416973649898
504.0, 0.004027826043137918
505.0, 0.0033987416536056816
506.0, 0.003738814031462663
507.0, 0.0024600370215405024
508.0, 0.0016598952851863023
509.0, 0.001784776541163829
510.0, 0.0017308241301620465
511.0, 0.002017622572065842
512.0, 0.0025711790832628916
513.0, 0.0036417011099045757
514.0, 0.006378740829664211
515.0, 0.007333924246785421
516.0, 0.008586883549315362
517.0, 0.009825157581041046
518.0, 0.007964904222974259
519.0, 0.008008094893558079
520.0, 0.007672151406771792
521.0, 0.006736709589660019
522.0, 0.006074770319333348
523.0, 0.005468697793247858
524.0, 0.0046878635016108314
525.0, 0.003736277595257411
526.0, 0.002733075797097334
527.0, 0.0018710865219804898
528.0, 0.00098703632790867
529.0, 0.0004144828402848124
530.0, 0.0009718055511742903
531.0, 0.001412119840449691
532.0, 0.001218582995724103
533.0, 0.0010930093770571284
534.0, 0.002462953024733248
535.0, 0.0017223135543791757
536.0, 0.0030288143036655006
537.0, 0.004187647625537565
538.0, 0.0013028161472605462
539.0, 0.0024666607246640548
540.0, 0.0023985035767865592
541.0, 0.0015834912792030075
542.0, 0.0009468421611957576
543.0, 0.002812185713721797
544.0, 0.0028193636551600036
545.0, 0.0024721847576102073
546.0, 0.003319953673363577
547.0, 0.0010922447958380654
548.0, 0.001102529316688835
549.0, 0.0019218303921113577
550.0, 0.002370764568367205
551.0, 0.0023439018892248975
552.0, 0.0022603137850109025
553.0, 0.00215475413614911
554.0, 0.002008908202182671
555.0, 0.001380527938855247
556.0, 0.0007967607334026878
557.0, 0.0004515442901746211
558.0, 0.0003938354540775879
559.0, 0.0002887942793060006
560.0, 0.000349220514328276
561.0, 0.0004936636258997248
562.0, 0.0006263545145610281
563.0, 0.0004304718840461967
564.0, 0.0009835357021271592
565.0, 0.001025324168993448
566.0, 0.0007367333753078812
567.0, 0.0018355630589952537
568.0, 0.0043457143219988534
569.0, 0.0053191010910101895
570.0, 0.004953647579683194
571.0, 0.004973441667112674
572.0, 0.004563221738604083
573.0, 0.005314422555837405
574.0, 0.006407635243716644
575.0, 0.006135858522547113
576.0, 0.007338563307679078
577.0, 0.008949973830800694
578.0, 0.00977226120927095
579.0, 0.008447266552055896
580.0, 0.011099458023083666
581.0, 0.011812106974635344
582.0, 0.012072683727021916
583.0, 0.0132590817161606
584.0, 0.015984204236941576
585.0, 0.018249686919623014
586.0, 0.019333944445591233
587.0, 0.019332088639078242
588.0, 0.0231351655957489
589.0, 0.025043139734549785
590.0, 0.02730118933831991
591.0, 0.03071436216717393
592.0, 0.034625189635677886
593.0, 0.03786173884558609
594.0, 0.04221583938495121
595.0, 0.04803089502936321
596.0, 0.054870186391024034
597.0, 0.060501789669696195
598.0, 0.06864976201994895
599.0, 0.07982738354115544
600.0, 0.09386368639101927
601.0, 0.10773745192041953
602.0, 0.12636699741516996
603.0, 0.14884347884281585
604.0, 0.17339013946350693
605.0, 0.20880964072905472
606.0, 0.25494466909996916
607.0, 0.30893755684907326
608.0, 0.3686311813682678
609.0, 0.4446088926844155
610.0, 0.5357451459614594
611.0, 0.6334843924822933
612.0, 0.7337476450907626
613.0, 0.8422537784942163
614.0, 0.9222083751533192
615.0, 0.9745756582666614
616.0, 0.9947398163346834
617.0, 0.963797559479873
618.0, 0.8963505628876345
619.0, 0.8019402379835403
620.0, 0.6947084627011577
621.0, 0.6024530486178418
622.0, 0.5050154745454898
623.0, 0.4203917935792693
624.0, 0.34999783543159274
625.0, 0.293119708981174
626.0, 0.24853961585717174
627.0, 0.21349703596779734
628.0, 0.18456476107314715
629.0, 0.15876380369364917
630.0, 0.13801021449601292
631.0, 0.12182339369245322
632.0, 0.10787268525855857
633.0, 0.09542794780627994
634.0, 0.08719192936382736
635.0, 0.0779536701161952
636.0, 0.07031225697642685
637.0, 0.06435206015939049
638.0, 0.0580947975261914
639.0, 0.05328781642153499
640.0, 0.049968164447272256
641.0, 0.04720116461028635
642.0, 0.04340572977202916
643.0, 0.040527897947357484
644.0, 0.03848415945538351
645.0, 0.03635793842144276
646.0, 0.03338603381220905
647.0, 0.032422069065707784
648.0, 0.03190506353831986
649.0, 0.030054589041507224
650.0, 0.02679258003920993
651.0, 0.02789562750440053
652.0, 0.02412404821686857
653.0, 0.021996416969931626
654.0, 0.022493954238690092
655.0, 0.022693785782074236
656.0, 0.021584471106066278
657.0, 0.020624261823320774
658.0, 0.019486902341966223
659.0, 0.017355578268247775
660.0, 0.019291621267413142
661.0, 0.01881259150478524
662.0, 0.0174880180776514
663.0, 0.016972757559526194
664.0, 0.018579197464254498
665.0, 0.01684515081352371
666.0, 0.0154115573440419
667.0, 0.015573947142810522
668.0, 0.015259474906596371
669.0, 0.01389269404046764
670.0, 0.014251950452105224
671.0, 0.015114285066678503
672.0, 0.012262949586619028
673.0, 0.01183950346918746
674.0, 0.010096927213249871
675.0, 0.008596604656696333
676.0, 0.009441973818196612
677.0, 0.010210623222130727
678.0, 0.009329790712536704
679.0, 0.008003229482785645
680.0, 0.007024189265173474
681.0, 0.006584604663915726
682.0, 0.0062064530426037415
683.0, 0.005677212036866292
684.0, 0.005276663805047075
685.0, 0.005970913559166722
686.0, 0.0047610504824108085
687.0, 0.004642985657640262
688.0, 0.0052076013852456835
689.0, 0.005414659089343011
690.0, 0.004048082046940711
691.0, 0.00554278543304129
692.0, 0.006629138064589381
693.0, 0.0054223181938380305
694.0, 0.005205668337960853
695.0, 0.004050242197762738
696.0, 0.004152887448228792
697.0, 0.005186260091117534
698.0, 0.00405776192122441
699.0, 0.005209218563119709
700.0, 0.005404334495072322
701.0, 0.005502330170300158
702.0, 0.007188366860257148
703.0, 0.008816452312000438
704.0, 0.008366574180603017
705.0, 0.007928794901995412
706.0, 0.008444758204948543
707.0, 0.006425471725447938
708.0, 0.008013594783476167
709.0, 0.010073042021924524
710.0, 0.011292413803470298
711.0, 0.01071145541909467
712.0, 0.010271637281307512
713.0, 0.010464909721051848
714.0, 0.011631171246908904
715.0, 0.013935236587355808
716.0, 0.012780163429243246
717.0, 0.013658638771161854
718.0, 0.014192913685431047
719.0, 0.013837052199711743
720.0, 0.0167848310253398
721.0, 0.016165004675449634
722.0, 0.015213203654509613
723.0, 0.014850952796619531
724.0, 0.015413953056246899
725.0, 0.018501749177813533
726.0, 0.018855471984251842
727.0, 0.018932567719686898
728.0, 0.021032596457989695
729.0, 0.022431501010913988
730.0, 0.023979409098923998
731.0, 0.024838116136830582
732.0, 0.025653729687516953
733.0, 0.029716844317388864
734.0, 0.031628037588809985
735.0, 0.03176371387401505
736.0, 0.032337176250379664
737.0, 0.03616543798658973
738.0, 0.036506156419550725
739.0, 0.03754129642658445
740.0, 0.03798354568107007
741.0, 0.03719309025958008
742.0, 0.03595836806174538
743.0, 0.03437007552280515
744.0, 0.03335035126404411
745.0, 0.03150000082875897
746.0, 0.025711274715030707
747.0, 0.02548469382276387
748.0, 0.024438665364970105
749.0, 0.02176799754977309
750.0, 0.017764634550438408
751.0, 0.01887960691584721
752.0, 0.017120060096010952
753.0, 0.015689617532790256
754.0, 0.015046909592862378
755.0, 0.013533727056144017
756.0, 0.015904556083587127
757.0, 0.01640740883316139
758.0, 0.017476923848923017
759.0, 0.021539651084316783
760.0, 0.01761620104384916
761.0, 0.018946488020200113
762.0, 0.02035709222556337
763.0, 0.02040326605862034
764.0, 0.021896147672306618
765.0, 0.023683345005300865
766.0, 0.024684750839838947
767.0, 0.02501120083107831
768.0, 0.02506089387507979
769.0, 0.026238118448466817
770.0, 0.025771949818329126
771.0, 0.023535904086112287
772.0, 0.020462189799232436
773.0, 0.02042124500861547
774.0, 0.01796259177307059
775.0, 0.016524972463828794
776.0, 0.016180994275490808
777.0, 0.016152386409043873
778.0, 0.013655265110964447
779.0, 0.012140441771001625
780.0, 0.010942323584777404
781.0, 0.009943745394249309
782.0, 0.010355693627812072
783.0, 0.010158353398208468
784.0, 0.009650047366509196
785.0, 0.009145422229047113
786.0, 0.00902192872001918
787.0, 0.009028458484870867
788.0, 0.007938641360744174
789.0, 0.007704753944047048
790.0, 0.008656155388399756
791.0, 0.0072595682026212974
792.0, 0.007904347404476044
793.0, 0.008427912635433752
794.0, 0.008884722680206814
795.0, 0.009883191023829318
796.0, 0.010562340533403318
797.0, 0.009897552653301235
798.0, 0.009309214156941985
799.0, 0.0098891204280695
800.0, 0.012836283923628714
801.0, 0.012547258270997187
802.0, 0.012822467305760539
803.0, 0.014280120683018588
804.0, 0.01676244772140417
805.0, 0.01649472292152767
806.0, 0.016611538529244657
807.0, 0.018180525295931557
808.0, 0.021206157499620105
809.0, 0.023966760163828017
810.0, 0.025263408787525504
811.0, 0.02581397798240149
812.0, 0.027037675154634462
813.0, 0.029981408411647092
814.0, 0.027817177838644326
815.0, 0.029974049637937736
816.0, 0.03220289250418364
817.0, 0.033450297554570664
818.0, 0.035546888309642755
819.0, 0.03568996100527983
820.0, 0.03595494542009231
821.0, 0.035557698308954014
822.0, 0.03382690709281182
823.0, 0.03239149219581567
824.0, 0.028737192467173274
825.0, 0.02516983376368289
826.0, 0.021720285674792006
827.0, 0.017030252397758332
828.0, 0.016424314824017072
829.0, 0.013549959889110303
830.0, 0.01094282833335215
831.0, 0.01027597725607489
832.0, 0.010031073838709468
833.0, 0.007347373279144219
834.0, 0.006480075125429214
835.0, 0.006684919673499505
836.0, 0.005600487329781109
837.0, 0.004620649745268413
838.0, 0.003356002708208336
839.0, 0.0025383137358766833
840.0, 0.00234400523332806
841.0, 0.0021449844730677993
842.0, 0.0026173165064207124
843.0, 0.0016382175853987514
844.0, 0.0005049115960498227
845.0, 0.0006740968316575243
846.0, 0.001026310857376096
847.0, 0.0015302307671859398
848.0, 0.0011104170776878816
849.0, 0.0001840053064280357
850.0, 0.000302462922913905
851.0, 0.00127205978383508
852.0, 0.0013521639104614545
853.0, 0.0012703314841211427
854.0, 0.0012977064518979173
855.0, 0.0002111923084001158
856.0, 0.0006240161500589312
857.0, 0.0006700202708517834
858.0, 0.00046383371456066094
859.0, 0.0005252183909561851
860.0, 0.00036611673988000957
861.0, 0.000793955177238531
862.0, 0.0011438783572978305
863.0, 0.001204633333984663
864.0, 0.0011113931258787822
865.0, 0.00028183615152072657
866.0, 2.4111912881906637e-05
867.0, 0.0001595820464072095
868.0, 0.0004887914712991789
869.0, 0.0010354895507120373
870.0, 0.0011825252684073639
871.0, 0.0010570830528046351
872.0, 0.0007777528920689833
873.0, 0.0005436917240082579
874.0, 0.0016630523320839573
875.0, 0.001223101444575928
876.0, 0.000655263222907385
877.0, 0.0003893582957832778
878.0, 3.3828759410940154e-05
879.0, 0.0010366314169371106
880.0, 0.0009573673544710886
881.0, 0.0009253160955560173
882.0, 0.0016105899186541384
883.0, 0.001829264075921721
884.0, 0.0007594385763236688
885.0, 0.0007401090414446009
886.0, 0.0014587159220334615
887.0, 0.0019302657123812718
888.0, 0.0008897354455332008
889.0, 0.00037172402539199903
890.0, 0.0008050820713681951
891.0, 0.0016316914613312954
892.0, 0.0014389571054450071
893.0, 0.00035790985737446543
894.0, 0.0003083739038325981
895.0, 0.0005845969083293611
896.0, 0.0009750446787770946
897.0, 0.002400035690505364
898.0, 0.0020350644406590948
899.0, 0.0015634615115777191
900.0, 0.0009582118852912254
901.0, 0.0003434410450984738
902.0, 0.002127352710405414
903.0, 0.002285944384871362
904.0, 0.001833866004523928
905.0, 0.0011760217870440733
906.0, 0.0005717769197775118
907.0, 0.00041702312835369403
908.0, 0.0008300635426864096
909.0, 0.0009075457637868716
910.0, 0.000780520026276063
911.0, 0.0016318711228621883
912.0, 0.000405406727338415
913.0, 0.0006434307814994626
914.0, 0.001426207265401978
915.0, 0.0018714644428672066
916.0, 0.001338823399303361
917.0, 0.0005089619075447191
918.0, 0.00031287317905298145
919.0, 0.0005948958809573284
920.0, 0.0009228796695237599
921.0, 0.00022498916104732124
922.0, 0.0008923676408981746
923.0, 0.0014777345005460613
924.0, 0.001518587957229216
925.0, 0.000904849827406949
926.0, 0.0003467156535039101
927.0, 0.0005593172362113201
928.0, 0.0009108556949399278
929.0, 0.0014127037297702193
930.0, 0.0025231841820293594
931.0, 0.0019665266941788946
932.0, 0.0028720292607784174
933.0, 0.002996434397517737
934.0, 0.0019378317729001407
935.0, 0.0020328997919502197
936.0, 0.001531414123603157
937.0, 0.001163220710717962
938.0, 0.0015412048496521715
939.0, 0.0028319891380388512
940.0, 0.004053968333538533
941.0, 0.0035764130411204756
942.0, 0.0024660362937463983
943.0, 0.002269819179173215
944.0, 0.0037818938765240904
945.0, 0.0032161077754080465
946.0, 0.004706955664131308
947.0, 0.0043257245238416345
948.0, 0.0033050126551558033
949.0, 0.0040608872181279836
950.0, 0.0033298223954388952
951.0, 0.003797351892201408
952.0, 0.004310652533792069
953.0, 0.004553387633645729
954.0, 0.004629442671500154
955.0, 0.005062339583023721
956.0, 0.0040222939988263234
957.0, 0.004251099467960634
958.0, 0.00544770706298336
959.0, 0.004577121328071279
960.0, 0.004633983726039012
961.0, 0.005123435770808673
962.0, 0.004868512509011456
963.0, 0.0041209930625881455
964.0, 0.005233377568616512
965.0, 0.005608732709290191
966.0, 0.006123577638947668
967.0, 0.0058988210778193155
968.0, 0.004928940275069949
969.0, 0.005242508769308945
970.0, 0.0058881787024603355
971.0, 0.004994527013398839
972.0, 0.004932214275971028
973.0, 0.006828521227929599
974.0, 0.006811267788582236
975.0, 0.00889937932054638
976.0, 0.009015874007161239
977.0, 0.008499967460951977
978.0, 0.008720217524596601
979.0, 0.007377485860827376
980.0, 0.007577056559391398
981.0, 0.008648905902034335
982.0, 0.009762861927112378
983.0, 0.010443009937905694
984.0, 0.012799084404175758
985.0, 0.010760128594798335
986.0, 0.01020789391554873
987.0, 0.011694976563662007
988.0, 0.013812096558793065
989.0, 0.012245335891977608
990.0, 0.012612508141326223
991.0, 0.014887761797310935
992.0, 0.01724380389866036
993.0, 0.01751302442225326
994.0, 0.01832379161598889
995.0, 0.01926426782870297
996.0, 0.02039699770059177
997.0, 0.021803781180425707
998.0, 0.023537432445291218
999.0, 0.025258467454035392
1000.0, 0.026841460346386146
1001.0, 0.028842417266299422
1002.0, 0.03146464781683179
1003.0, 0.03466956986615589
1004.0, 0.03763418039236923
1005.0, 0.040314398890956504
1006.0, 0.04415451736696004
1007.0, 0.04909465786911849
1008.0, 0.054195453487989424
1009.0, 0.05927357680411124
1010.0, 0.06612101067708356
1011.0, 0.07419222274104131
1012.0, 0.08332018212031635
1013.0, 0.09358454798712074
1014.0, 0.10689521428149708
1015.0, 0.12268843516440579
1016.0, 0.1393502209592481
1017.0, 0.15780018918015715
1018.0, 0.18029055828326004
1019.0, 0.20281368320162796
1020.0, 0.22371635001643395
1021.0, 0.247767381679422
1022.0, 0.2715452625751047
1023.0, 0.2870396717651467
1024.0, 0.3036256344712912
1025.0, 0.3105554707576372
1026.0, 0.3090592127152746
1027.0, 0.3025010174404079
1028.0, 0.2952590990519044
1029.0, 0.27794301326258414
1030.0, 0.2599715320986966
1031.0, 0.24015592738825384
1032.0, 0.21947552722507999
1033.0, 0.2000573348101481
1034.0, 0.18162676777230546
1035.0, 0.1631918360852867
1036.0, 0.14759696222515906
1037.0, 0.13511804849145476
1038.0, 0.12449502574059615
1039.0, 0.11297251873679762
1040.0, 0.10641646881555247
1041.0, 0.09804984884119955
1042.0, 0.08921517303976476
1043.0, 0.08403289338265718
1044.0, 0.07940594965473577
1045.0, 0.07255384309974287
1046.0, 0.06752039546346228
1047.0, 0.0641552604195064
1048.0, 0.06090514773269426
1049.0, 0.057416619614501396
1050.0, 0.05419597084835964
1051.0, 0.05164200600075646
1052.0, 0.04880351362054501
1053.0, 0.04490224709149166
1054.0, 0.04217560522991057
1055.0, 0.039500245239511574
1056.0, 0.038519416407164164
1057.0, 0.037620989195875684
1058.0, 0.03511485057288885
1059.0, 0.0317681170388173
1060.0, 0.03208620100178564
1061.0, 0.02896753708190714
1062.0, 0.02758152671787307
1063.0, 0.030373054987648477
1064.0, 0.026834199361401474
1065.0, 0.023510764970933157
1066.0, 0.02169717920811131
1067.0, 0.020519986158369277
1068.0, 0.019702681977467502
1069.0, 0.020678226428086942
1070.0, 0.019045074167746496
1071.0, 0.01706292024681381
1072.0, 0.016902798121057497
1073.0, 0.018007116767494426
1074.0, 0.016138964071560707
1075.0, 0.013688617492312538
1076.0, 0.014950417191662395
1077.0, 0.014966459137463738
1078.0, 0.013321793598159428
1079.0, 0.013817538552002684
1080.0, 0.012844836299569687
1081.0, 0.011301087332986995
1082.0, 0.011319205621752865
1083.0, 0.011945337496809923
1084.0, 0.010732162541604346
1085.0, 0.01051352143263788
1086.0, 0.010708665360055072
1087.0, 0.010663611907679017
1088.0, 0.009941592475243953
1089.0, 0.008553435708869543
1090.0, 0.008614721262259605
1091.0, 0.008748902147562023
1092.0, 0.00905226073640821
1093.0, 0.009449205569909552
1094.0, 0.009756877311868872
1095.0, 0.009567410799966779
1096.0, 0.007149072004936232
1097.0, 0.007916423197040941
1098.0, 0.008572867246687108
1099.0, 0.007338102095163106
1100.0, 0.007371625396705628
1101.0, 0.0077834350507715215
1102.0, 0.006706269118654307
1103.0, 0.007025465046305698
1104.0, 0.008789812117849148
1105.0, 0.008817286410698308
1106.0, 0.010112250065601784
1107.0, 0.00849787445031185
1108.0, 0.008360612372342648
1109.0, 0.009150887446993676
1110.0, 0.007938527403206837
1111.0, 0.00982836177843987
1112.0, 0.011409074219723855
1113.0, 0.011344280235215236
1114.0, 0.010781883672766699
1115.0, 0.011346164931882433
1116.0, 0.013008339875960206
1117.0, 0.012104717958617311
1118.0, 0.014052913194248513
1119.0, 0.015953432257461545
1120.0, 0.01589203627492552
1121.0, 0.016965591645679002
1122.0, 0.019798990022293284
1123.0, 0.021054460002705406
1124.0, 0.0236791651829696
1125.0, 0.026773984527749525
1126.0, 0.02529201932968781
1127.0, 0.026197101134616388
1128.0, 0.02856896296818535
1129.0, 0.02816733023564992
1130.0, 0.0256332891781314
1131.0, 0.024054054747435886
1132.0, 0.024036338865539013
1133.0, 0.0215490545961733
1134.0, 0.01900937419400349
1135.0, 0.016813139908136782
1136.0, 0.015362816223795548
1137.0, 0.016693018263311724
1138.0, 0.015021529556177048
1139.0, 0.012625280368094443
1140.0, 0.01105587655720069
1141.0, 0.01015857324767984
1142.0, 0.007655195566295605
1143.0, 0.008703905256458134
1144.0, 0.007566966614249376
1145.0, 0.007580492673575327
1146.0, 0.00740300408611895
1147.0, 0.00396926037381391
1148.0, 0.004768193972963958
1149.0, 0.0052514686026482495
1150.0, 0.005610825930594926
1151.0, 0.0049362849519015905
1152.0, 0.0032065477093209645
1153.0, 0.003806418837508138
1154.0, 0.0034547230815177386
1155.0, 0.0038779790366428087
1156.0, 0.0027689076835659895
1157.0, 0.0006397298078816319
1158.0, 0.0015330707782596775
1159.0, 0.00037113256232039677
1160.0, 0.0003936975047224564
1161.0, 0.0007022468594092698
1162.0, 0.0009930493092086025
1163.0, 0.0012841517720903937
1164.0, 0.0015757173595795661
1165.0, 0.0020917192174437255
1166.0, 0.0023786159871689487
1167.0, 0.0026980260700612962
1168.0, 0.002726793438854127
1169.0, 0.0006858381755972323
1170.0, 0.0012335232926285985
1171.0, 0.0010587759246864867
1172.0, 0.000762877725083727
1173.0, 0.0008104829705409603
1174.0, 0.0012745800263271254
1175.0, 0.0006053666130709716
1176.0, 0.0009606379681018281
1177.0, 0.0025549442534132556
1178.0, 0.0033942730629795965
1179.0, 0.0021114042250560384
1180.0, 0.0011590847727478313
1181.0, 0.003243138301617609
1182.0, 0.0022345422776544966
1183.0, 0.0017721373208732655
1184.0, 0.002487789200822533
1185.0, 0.0012547645461419494
1186.0, 0.0020299671241838313
1187.0, 0.0029676030545225823
1188.0, 0.002982377510322243
1189.0, 0.002436023140835918
1190.0, 0.002008890457655668
1191.0, 0.0013394246427921464
1192.0, 0.0007926701588688743
1193.0, 0.0017686494435643321
1194.0, 0.0020735927949067285
1195.0, 0.0011532727717961174
1196.0, 0.0009579307644233178
1197.0, 0.002158002245035364
1198.0, 0.001069124969250459
1199.0, 0.0003176654097672502
1200.0, 0.00018908691148040944
1201.0, 0.00017777391215152819
1202.0, 0.0008725009573885372
1203.0, 0.001228271571022074
1204.0, 0.0007026900752635035
1205.0, 0.0002204837798362347
1206.0, 0.00019718365230471152
1207.0, 0.00020077476000256167
1208.0, 0.0003716931906900507
1209.0, 0.0005944833283179722
1210.0, 0.0003979388022563817
1211.0, 0.00014632936746322275
1212.0, 0.0005565088187934229
1213.0, 0.002390144706642792
1214.0, 0.0006710617955552136
1215.0, 0.001997423376521424
1216.0, 0.003693878615065541
1217.0, 0.0036317861083265198
1218.0, 0.001587241256173925
1219.0, 0.00030637780462717797
1220.0, 0.0031575198890710352
1221.0, 0.0034447062735832516
1222.0, 0.0029303152168752068
1223.0, 0.003945599770144663
1224.0, 0.0027389167210147276
1225.0, 0.0017601636072600794
1226.0, 0.0026605359184646554
1227.0, 0.0026213100348816696
1228.0, 0.0014504611604866278
1229.0, 0.0012322473624990123
1230.0, 0.003328780470055614
1231.0, 0.002600532489537805
1232.0, 0.0031957159171481747
1233.0, 0.004078125214848222
1234.0, 0.0036514976506089895
1235.0, 0.0015327699493319334
1236.0, 0.0004948186570974599
1237.0, 0.0018059045246241446
1238.0, 0.0019473827608734876
1239.0, 0.0011716909256027596
1240.0, 0.0011044429048105682
1241.0, 0.00013808920871918482
1242.0, 0.002109328710628574
1243.0, 0.0018563571166931882
1244.0, 0.0010478756453639094
1245.0, 0.0011873029653542216
1246.0, 0.002319062377721979
1247.0, 0.000679143967493065
1248.0, 0.0006641452841832563
1249.0, 0.0020832864799614943
1250.0, 0.00224936029025961
1251.0, 0.0003692190661811587
1252.0, 0.001185194074109546
1253.0, 0.0013816898811534464
1254.0, 0.0021798094023664544
1255.0, 0.001701856711122886
1256.0, 0.00046452781978548836
1257.0, 9.534700812281757e-05
1258.0, 0.0004981650519387021
1259.0, 0.0018306991856652985
1260.0, 0.0031467280111959653
1261.0, 0.0032275201943760975
1262.0, 0.0027370208400675595
1263.0, 0.0037637709201724977
1264.0, 0.0018079325513237687
1265.0, 0.0027858083539306104
1266.0, 0.0030718927356694994
1267.0, 0.0019184924664067489
1268.0, 0.000675159181596675
1269.0, 0.0027753354531091443
1270.0, 0.0007889323811071033
1271.0, 0.0014383301965322647
1272.0, 0.001402860761045037
1273.0, 0.0008144621101851492
1274.0, 0.0008049399962893139
1275.0, 6.379000604260905e-05
1276.0, 0.000325795814786051
1277.0, 0.00018602695830486333
1278.0, 0.0006662253207426385
1279.0, 0.0011879212278737127
1280.0, 0.0004513862428512728
1281.0, 0.0008196025862439275
1282.0, 0.0030891118694712795
1283.0, 0.001838640886758546
1284.0, 0.0013671460845672884
1285.0, 0.0031233638371706506
1286.0, 0.0035413232137680396
1287.0, 0.0013498713444575576
1288.0, 0.0027300281098034188
1289.0, 0.002175950969023542
1290.0, 0.0015510533024546264
1291.0, 0.0027101585945692253
1292.0, 0.003959146162680566
1293.0, 0.0006468019001367958
1294.0, 0.0008750122103785168
1295.0, 0.0018405524805895535
1296.0, 0.002372930789305463
1297.0, 0.0023003775211701944
1298.0, 0.002087889891396331
1299.0, 0.0017909456246980333
1300.0, 0.0008698116059973168
1301.0, 0.0013794506470277837
1302.0, 0.00222059376762218
1303.0, 0.0018291029105577776
1304.0, 0.0034552638182052823
1305.0, 0.00238490608187728
1306.0, 0.0011443119115513687
1307.0, 0.0013274207234060726
1308.0, 0.0017129057817795077
1309.0, 0.0005994890500089336
1310.0, 0.0038947864131682634
1311.0, 0.002464440990212266
1312.0, 0.002273777078496299
1313.0, 0.0022697062666564016
1314.0, 0.0018701625989779494
1315.0, 0.0016517613664574938
1316.0, 0.0015834530626518781
1317.0, 0.003677819120337555
1318.0, 0.0033271634337270835
1319.0, 0.0026281611537856864
1320.0, 0.00305868724038926
1321.0, 0.003886647799480824
1322.0, 0.0030411453543995113
1323.0, 0.0032342743158252658
1324.0, 0.0034899334158081663
1325.0, 0.003141041257628877
1326.0, 0.0026683881142746148
1327.0, 0.003501074062193301
1328.0, 0.0022218833763357274
1329.0, 0.0013396820989569874
1330.0, 0.0034738854477132943
1331.0, 0.004811556776408392
1332.0, 0.003482737207263566
1333.0, 0.0027383195346242497
1334.0, 0.004487666017820763
1335.0, 0.001980823113648769
1336.0, 0.0005409377784129216
1337.0, 0.001729675688473261
1338.0, 0.0035728410080763176
1339.0, 0.001289250030586722
1340.0, 0.0024628611431054106
1341.0, 0.003970418690111144
1342.0, 0.0035471599649504783
1343.0, 0.0032016701332822197
1344.0, 0.0036206146250526714
1345.0, 0.0017708684862037583
1346.0, 0.002916910573339597
1347.0, 0.0032620661814341196
1348.0, 0.0016424923558378238
1349.0, 0.0016364630287188312
1350.0, 0.004547540942833163
1351.0, 0.005849231268841816
1352.0, 0.0014664407140951071
1353.0, 0.002604188793271234
1354.0, 0.003988353611211528
1355.0, 0.003684596808581786
1356.0, 0.0024823176978612327
1357.0, 0.0031588782765077567
1358.0, 0.0009811033102412137
1359.0, 0.0027062368593218085
1360.0, 0.0037027639029081675
1361.0, 0.0026964709904113648
1362.0, 0.0015553159229649647
1363.0, 0.004195702958765107
1364.0, 0.004271212627427729
1365.0, 0.002553774043987006
1366.0, 0.003181261113698203
1367.0, 0.003848431177208878
1368.0, 0.0025482625102325194
1369.0, 0.00018329387242470464
1370.0, 0.001111688753707899
1371.0, 0.0009387361639343406
1372.0, 0.001399911415489697
1373.0, 0.002595366132057604
1374.0, 0.0032225354270156653
1375.0, 0.001822716140621984
1376.0, 0.0035487752333042432
1377.0, 0.0030347102529591015
1378.0, 0.0016743509973760839
1379.0, 0.002426550915764202
1380.0, 0.003532569598996849
1381.0, 0.0010019120440926323
1382.0, 0.0030236241307978274
1383.0, 0.004755122096788419
1384.0, 0.0028767155726408962
1385.0, 0.0024784614114766877
1386.0, 0.0035280039164922437
1387.0, 0.002693026355301523
1388.0, 0.002105800616734176
1389.0, 0.003209498073302611
1390.0, 0.002823814786467057
1391.0, 0.0016305570833418284
1392.0, 0.0025621628027705547
1393.0, 0.005996635226648398
1394.0, 0.0027358206444161644
1395.0, 0.0009504740148768981
1396.0, 0.0038397269786476698
1397.0, 0.003045943387114867
1398.0, 0.0014906680241345972
1399.0, 0.0031175119307921047
1400.0, 0.003372715637256293
1401.0, 0.0017063989376253897
1402.0, 0.0029036040784833233
1403.0, 0.004731085806222156
1404.0, 0.003963147943225978
1405.0, 0.0019100537357057596
1406.0, 0.004927699635345012
1407.0, 0.002822836543964407
1408.0, 0.0014815144458246387
1409.0, 0.003410754556926115
1410.0, 0.0033063435907586033
1411.0, 0.0011515489658049456
1412.0, 0.0023422729457655096
1413.0, 0.0037902727899454276
1414.0, 0.00305054943738865
1415.0, 0.002997513227147305
1416.0, 0.004096510571954891
1417.0, 0.004820455003225091
1418.0, 0.003808376954759318
1419.0, 0.003741598105456096
1420.0, 0.000812233360316566
1421.0, 0.0008769644026705746
1422.0, 0.0013415254360007649
1423.0, 0.0011946028076686183
1424.0, 0.0010260376347229817
1425.0, 0.00242619315929004
1426.0, 0.0029430412316098394
1427.0, 0.0027908674302051704
1428.0, 0.0025581687601204215
1429.0, 0.002939506999450068
1430.0, 0.0032206386231861525
1431.0, 0.0018914745758255571
1432.0, 0.0031682525766274163
1433.0, 0.0014347171921132687
1434.0, 0.0016978719166434921
1435.0, 0.0027503308039295436
1436.0, 0.002399875599561253
1437.0, 0.00041864201649625683
1438.0, 0.0026284737937588183
1439.0, 0.0018651949627151434
1440.0, 0.002053914432778198
1441.0, 0.0026843888612178126
1442.0, 0.004077914361320962
1443.0, 0.005014213325402167
1444.0, 0.0019718330497955905
1445.0, 0.006180947338424288
1446.0, 0.003020561252821286
1447.0, 0.0018538026196820228
1448.0, 0.0033999345043861846
1449.0, 0.004333172757513149
1450.0, 0.0016338302553676098
1451.0, 0.002385097268641191
1452.0, 0.0018954937380052082
1453.0, 0.001640940632088332
1454.0, 0.0026635158837513377
1455.0, 0.0039307528685550795
1456.0, 0.0037566703933869885
1457.0, 0.0019078748577687093
1458.0, 0.0037795750018680286
1459.0, 0.002102014164269172
1460.0, 0.0015664390425641464
1461.0, 0.002989561001848412
1462.0, 0.003926544088363675
1463.0, 0.001473952740723856
1464.0, 0.003171235203334707
1465.0, 0.004380657483705555
1466.0, 0.0038690610533363384
1467.0, 0.004119364350091342
1468.0, 0.004871668597810426
1469.0, 0.0045120028834932085
1470.0, 0.0032480791199294527
1471.0, 0.005127705044880193
1472.0, 0.003792548382546458
1473.0, 0.0028839489010214323
1474.0, 0.00447971895812261
1475.0, 0.005798495694762927
1476.0, 0.001692291367838199
1477.0, 0.0008664979193916267
1478.0, 0.004593397529186318
1479.0, 0.0020434360842501178
1480.0, 0.002234402964198162
1481.0, 0.0038863031478029194
1482.0, 0.002356572558255276
1483.0, 0.001646629783430405
1484.0, 0.002527646836765293
1485.0, 0.0024283674371024964
1486.0, 0.002779399827132492
1487.0, 0.003353083000981364
1488.0, 0.003432062927996946
1489.0, 0.002571290794714315
1490.0, 0.0014836502746349532
1491.0, 0.0019226227096640874
1492.0, 0.0028384292920606625
1493.0, 0.0017456011709482471
1494.0, 0.0012835787676982952
1495.0, 0.0029478992774836167
1496.0, 0.002977803929699775
1497.0, 0.00451625682842542
1498.0, 0.002817471451561826
1499.0, 0.0031433973036656703
1500.0, 0.0036812625217215005
1501.0, 0.002517284622167423
1502.0, 0.0002915852094675087
1503.0, 0.0016635756134268202
1504.0, 0.0037427764624698608
1505.0, 0.002651522309823608
1506.0, 0.002967683430972943
1507.0, 0.002714669209011843
1508.0, 0.0009964853331075217
1509.0, 0.00010791870910417572
1510.0, 0.00044331255431589685
1511.0, 0.0017673245840155683
1512.0, 0.000909237960108774
1513.0, 0.0007585217747029397
1514.0, 0.0013519131870842935
1515.0, 0.0016431440515156102
1516.0, 0.0015473655024441676
1517.0, 0.0011516735842809966
1518.0, 0.001535336501008586
1519.0, 0.0006264990612815747
1520, 0.0
1521, 0.0
1522, 0.0
1523, 0.0
1524, 0.0
1525, 0.0
1526, 0.0
1527, 0.0
1528, 0.0
1529, 0.0
1530, 0.0
1531, 0.0
1532, 0.0
1533, 0.0
1534, 0.0
1535, 0.0
1536, 0.0
1537, 0.0
1538, 0.0
1539, 0.0
1540, 0.0
1541, 0.0
1542, 0.0
1543, 0.0
1544, 0.0
1545, 0.0
1546, 0.0
1547, 0.0
1548, 0.0
1549, 0.0
1550, 0.0
1551, 0.0
1552, 0.0
1553, 0.0
1554, 0.0
1555, 0.0
1556, 0.0
1557, 0.0
1558, 0.0
1559, 0.0
1560, 0.0
1561, 0.0
1562, 0.0
1563, 0.0
1564, 0.0
1565, 0.0
1566, 0.0
1567, 0.0
1568, 0.0
1569, 0.0
1570, 0.0
1571, 0.0
1572, 0.0
1573, 0.0
1574, 0.0
1575, 0.0
1576, 0.0
1577, 0.0
1578, 0.0
1579, 0.0
1580, 0.0
1581, 0.0
1582, 0.0
1583, 0.0
1584, 0.0
1585, 0.0
1586, 0.0
1587, 0.0
1588, 0.0
1589, 0.0
1590, 0.0
1591, 0.0
1592, 0.0
1593, 0.0
1594, 0.0
1595, 0.0
1596, 0.0
1597, 0.0
1598, 0.0
1599, 0.0
