30, 0.0
31, 0.0
32, 0.0
33, 0.0
34, 0.0
35, 0.0
36, 0.0
37, 0.0
38, 0.0
39, 0.0
40, 0.0
41, 0.0
42, 0.0
43, 0.0
44, 0.0
45, 0.0
46, 0.0
47, 0.0
48, 0.0
49, 0.0
50, 0.0
51, 0.0
52, 0.0
53, 0.0
54, 0.0
55, 0.0
56, 0.0
57, 0.0
58, 0.0
59, 0.0
60, 0.0
61, 0.0
62, 0.0
63, 0.0
64, 0.0
65, 0.0
66, 0.0
67, 0.0
68, 0.0
69, 0.0
70, 0.0
71, 0.0
72, 0.0
73, 0.0
74, 0.0
75, 0.0
76, 0.0
77, 0.0
78, 0.0
79, 0.0
80, 0.0
81, 0.0
82, 0.0
83, 0.0
84, 0.0
85, 0.0
86, 0.0
87, 0.0
88, 0.0
89, 0.0
90, 0.0
91, 0.0
92, 0.0
93, 0.0
94, 0.0
95, 0.0
96, 0.0
97, 0.0
98, 0.0
99, 0.0
100, 0.0
101, 0.0
102, 0.0
103, 0.0
104, 0.0
105, 0.0
106, 0.0
107, 0.0
108, 0.0
109, 0.0
110, 0.0
111, 0.0
112, 0.0
113, 0.0
114, 0.0
115, 0.0
116, 0.0
117, 0.0
118, 0.0
119, 0.0
120, 0.0
121, 0.0
122, 0.0
123, 0.0
124, 0.0
125, 0.0
126, 0.0
127, 0.0
128, 0.0
129, 0.0
130, 0.0
131, 0.0
132, 0.0
133, 0.0
134, 0.0
135, 0.0
136, 0.0
137, 0.0
138, 0.0
139, 0.0
140, 0.0
141, 0.0
142, 0.0
143, 0.0
144, 0.0
145, 0.0
146, 0.0
147, 0.0
148, 0.0
149, 0.0
150, 0.0
151, 0.0
152, 0.0
153, 0.0
154, 0.0
155, 0.0
156, 0.0
157, 0.0
158, 0.0
159, 0.0
160, 0.0
161, 0.0
162, 0.0
163, 0.0
164, 0.0
165, 0.0
166, 0.0
167, 0.0
168, 0.0
169, 0.0
170, 0.0
171, 0.0
172, 0.0
173, 0.0
174, 0.0
175.0, 0.0006286281188822783
176.0, 0.004107317493188369
177.0, 0.0008518863124518485
178.0, 0.00023476867991507094
179.0, 0.0011260510761401281
180.0, 0.001498476545017917
181.0, 0.0042146825476800966
182.0, 0.007501081753024407
183.0, 0.008205728460929146
184.0, 0.008113118221287768
185.0, 0.01597477761173573
186.0, 0.025146647541687536
187.0, 0.027019332513193446
188.0, 0.028037958736015646
189.0, 0.041661409527419674
190.0, 0.05031432371756708
191.0, 0.050596819252545853
192.0, 0.050135679053868586
193.0, 0.05618679538858304
194.0, 0.06466287542711431
195.0, 0.07344946779614052
196.0, 0.07448388450327148
197.0, 0.07841850286247347
198.0, 0.08249714542577868
199.0, 0.09236404475169147
200.0, 0.09675202308831829
201.0, 0.10578350031739678
202.0, 0.11109915968543939
203.0, 0.10711436206086843
204.0, 0.1145436685831379
205.0, 0.11960602346383158
206.0, 0.1083276066915538
207.0, 0.10688900606806286
208.0, 0.10219704630819525
209.0, 0.09687411599322997
210.0, 0.09621764058071476
211.0, 0.10370559088870812
212.0, 0.08156311105147239
213.0, 0.06727767305484696
214.0, 0.06712533595318172
215.0, 0.06598510714612103
216.0, 0.0621353259429201
217.0, 0.06428710941132489
218.0, 0.06095923444504499
219.0, 0.05326720707166736
220.0, 0.05593731961488251
221.0, 0.049629191243605264
222.0, 0.052722947451394754
223.0, 0.06024424957980634
224.0, 0.054173799679897716
225.0, 0.048928873169474446
226.0, 0.04527288223978165
227.0, 0.036786301460063606
228.0, 0.02447371550944571
229.0, 0.02677295401621758
230.0, 0.017495614011642374
231.0, 0.014299374586537343
232.0, 0.01667294032815316
233.0, 0.008092262746963523
234.0, 0.0045365506204032
235.0, 0.005888298700884497
236.0, 0.009001143902855632
237.0, 0.010309836011273709
238.0, 0.003990485057565801
239.0, 0.002892614212281496
240.0, 0.009560194636275988
241.0, 0.018816613946972406
242.0, 0.01922039028946006
243.0, 0.0045949152607735935
244.0, 0.000973710433397802
245.0, 0.004267957661238667
246.0, 0.007768321312636966
247.0, 0.010051577427590214
248.0, 0.006436872204998333
249.0, 0.005447468104538378
250.0, 0.008035424482089227
251.0, 0.007781357848015289
252.0, 0.005792175299086058
253.0, 0.0015445961326452998
254.0, 0.0015946953292208113
255.0, 0.00831272696634388
256.0, 0.010677156275381698
257.0, 0.00796555697380622
258.0, 0.003157760264092389
259.0, 0.00648929931666885
260.0, 0.006028920615545437
261.0, 0.004934100672807143
262.0, 0.0037692411061060996
263.0, 0.0029255889128668605
264.0, 0.0012849313965029618
265.0, 0.006299237860263134
266.0, 0.00708827322769539
267.0, 0.008145765763115391
268.0, 0.0021864845981564886
269.0, 0.013114953243868846
270.0, 0.012416988639871557
271.0, 0.0044996891383570665
272.0, 0.008667817662628889
273.0, 0.025497853316633682
274.0, 0.026709831893242407
275.0, 0.017664417986050698
276.0, 0.02311422409801835
277.0, 0.03270318933909256
278.0, 0.02472769973822699
279.0, 0.01939460018476436
280.0, 0.01917707075464245
281.0, 0.028317486014731913
282.0, 0.038799330163895085
283.0, 0.032556954235341475
284.0, 0.031041665190231518
285.0, 0.03721948981374288
286.0, 0.0553274124938161
287.0, 0.08408975326972634
288.0, 0.09945784635684653
289.0, 0.07880708560719857
290.0, 0.07069327400788186
291.0, 0.0893787253315264
292.0, 0.10443250637048507
293.0, 0.09316323938134641
294.0, 0.08392855379669388
295.0, 0.08692356311358714
296.0, 0.09567854953840381
297.0, 0.09922472511270312
298.0, 0.10073466038592072
299.0, 0.10813697643027159
300.0, 0.11263456491711288
301.0, 0.10859183729796469
302.0, 0.12946256875071246
303.0, 0.14161043295776457
304.0, 0.1481384250110457
305.0, 0.15150903173387942
306.0, 0.1463285891338449
307.0, 0.15182919866051192
308.0, 0.15696933376654168
309.0, 0.16538421864580277
310.0, 0.1767852102854447
311.0, 0.175573501503991
312.0, 0.18065392033114888
313.0, 0.19339509727598184
314.0, 0.19986728053644529
315.0, 0.1940456101796401
316.0, 0.20449669637180942
317.0, 0.21313391079656568
318.0, 0.21092687144122252
319.0, 0.20137122041294656
320.0, 0.1988284401925566
321.0, 0.20165037592761403
322.0, 0.2058218118954554
323.0, 0.19884676683438499
324.0, 0.18507024993717194
325.0, 0.19050202377519532
326.0, 0.17796066568008465
327.0, 0.16847207111382526
328.0, 0.1651701838419227
329.0, 0.16120076636464595
330.0, 0.1560771207430015
331.0, 0.14702336357224277
332.0, 0.13488816541834664
333.0, 0.12349787435177707
334.0, 0.11651498163583644
335.0, 0.10360796200491544
336.0, 0.08881041837918334
337.0, 0.08724953724046203
338.0, 0.09451096134037969
339.0, 0.08416726113764364
340.0, 0.07350665918872433
341.0, 0.07224491774043883
342.0, 0.07159067805976976
343.0, 0.06387830023530733
344.0, 0.058432428223593985
345.0, 0.050006306593754254
346.0, 0.047607575398651396
347.0, 0.04888871625414661
348.0, 0.043536646950413156
349.0, 0.029809996776246524
350.0, 0.02719731404281532
351.0, 0.022331709693510837
352.0, 0.013106327741645857
353.0, 0.009719153293018062
354.0, 0.006866978039599122
355.0, 0.009047968380274109
356.0, 0.0028986375689226854
357.0, 0.005999524126143707
358.0, 0.004526637554349153
359.0, 0.0007053402684444754
360.0, 0.0017965575385102345
361.0, 0.004711952066389331
362.0, 0.0021575462925574516
363.0, 0.008053802077092852
364.0, 0.0018429436901775753
365.0, 0.0017671529807183253
366.0, 0.0015921852747081216
367.0, 0.004481349217663314
368.0, 0.005391537434688412
369.0, 0.011377319651768154
370.0, 0.01642735850470431
371.0, 0.011907549251557141
372.0, 0.012032813070403013
373.0, 0.014502412834394789
374.0, 0.014191156173988353
375.0, 0.012993879691699682
376.0, 0.009530969324217969
377.0, 0.0040235044589413405
378.0, 0.009986982777278174
379.0, 0.015268325396262123
380.0, 0.010843608753967376
381.0, 0.004139721773161233
382.0, 0.005473590599946308
383.0, 0.005841627220161385
384.0, 0.005980800742701288
385.0, 0.008123414794839346
386.0, 0.016522621054968132
387.0, 0.019651804039684487
388.0, 0.021925465433615867
389.0, 0.023366065393800838
390.0, 0.025072966670305008
391.0, 0.02805866934637922
392.0, 0.031851771803684585
393.0, 0.030746644410109887
394.0, 0.04755184408614068
395.0, 0.061337690185434675
396.0, 0.06403021757196055
397.0, 0.08008275327588785
398.0, 0.06910522045544056
399.0, 0.07861160161170296
400.0, 0.09477596178950588
401.0, 0.11009953803929759
402.0, 0.1529785825513846
403.0, 0.15906142241799848
404.0, 0.17347709716669465
405.0, 0.1957287916982584
406.0, 0.21301103424094836
407.0, 0.23741313561722827
408.0, 0.262681512825298
409.0, 0.2882475137439549
410.0, 0.31555824565253715
411.0, 0.3365030305663342
412.0, 0.33303449041238115
413.0, 0.35522420748874417
414.0, 0.3865537594935346
415.0, 0.4024710262007452
416.0, 0.39584024197661616
417.0, 0.37932287527377806
418.0, 0.3734346916721581
419.0, 0.38556536562505767
420.0, 0.38262054890848873
421.0, 0.35304792934177076
422.0, 0.33586515884204743
423.0, 0.3387127733461807
424.0, 0.31779742747567913
425.0, 0.2871629825034043
426.0, 0.268066058937788
427.0, 0.2587814876995937
428.0, 0.23998424371797
429.0, 0.23891892445960047
430.0, 0.23870342400921704
431.0, 0.22128314889543033
432.0, 0.2094559281051307
433.0, 0.2332446901580947
434.0, 0.2318178733278564
435.0, 0.21864947326882944
436.0, 0.2200547920202453
437.0, 0.22409331356050377
438.0, 0.24058813687118938
439.0, 0.2502307911198195
440.0, 0.25744425492186523
441.0, 0.2678054935142279
442.0, 0.2745834283162924
443.0, 0.289963941443099
444.0, 0.30842787307275077
445.0, 0.33013414274381025
446.0, 0.3569917956754722
447.0, 0.38669501714140403
448.0, 0.4007784564071725
449.0, 0.4241861788962896
450.0, 0.4509468057151639
451.0, 0.477416573714799
452.0, 0.5092585513612029
453.0, 0.514079574729227
454.0, 0.5436867348731829
455.0, 0.576652486707756
456.0, 0.6029703734698747
457.0, 0.6378803129955904
458.0, 0.6544497348795268
459.0, 0.6722856121868717
460.0, 0.6985191877960225
461.0, 0.7153714154527123
462.0, 0.7138679884057992
463.0, 0.7395404167697087
464.0, 0.7787325634928643
465.0, 0.792472773097509
466.0, 0.7921891398104256
467.0, 0.8060180339962757
468.0, 0.8159592503458507
469.0, 0.8208682366304133
470.0, 0.8449564118508628
471.0, 0.8672605357825658
472.0, 0.8633545080994456
473.0, 0.8643050173812918
474.0, 0.8913509251682991
475.0, 0.8985904713635222
476.0, 0.902536556642418
477.0, 0.920529736726742
478.0, 0.9229302919893285
479.0, 0.9340845332088364
480.0, 0.9613535465751973
481.0, 0.9818736714163
482.0, 0.9866038008063931
483.0, 0.992109790060793
484.0, 0.9923653755647384
485.0, 0.9915840160132486
486.0, 0.9907416472275679
487.0, 0.9930365475125635
488.0, 0.9998509701390539
489.0, 0.988373647823224
490.0, 0.9626601789252887
491.0, 0.9405364815518122
492.0, 0.9169124160071346
493.0, 0.8825010094510012
494.0, 0.8572477596928184
495.0, 0.8308224086485215
496.0, 0.7916523252000192
497.0, 0.7497445172067306
498.0, 0.7194534869065198
499.0, 0.6973448467961801
500.0, 0.648894009570365
501.0, 0.6051516008420044
502.0, 0.560121851957227
503.0, 0.5152947872242718
504.0, 0.494175253200374
505.0, 0.4480377903480257
506.0, 0.4243254624859242
507.0, 0.3844461080178208
508.0, 0.32816590332569334
509.0, 0.29392698153220576
510.0, 0.27668092445369247
511.0, 0.2470490541072554
512.0, 0.2219730721859591
513.0, 0.1994140606230689
514.0, 0.17434999251865432
515.0, 0.16491862698593648
516.0, 0.14345757112551083
517.0, 0.12243719252480549
518.0, 0.10136761961563724
519.0, 0.08552442653926003
520.0, 0.09214216367441669
521.0, 0.08889572324497938
522.0, 0.06834446298050394
523.0, 0.053862061505512954
524.0, 0.04363411953964911
525.0, 0.023311698177112324
526.0, 0.019249213610674974
527.0, 0.02890518043336337
528.0, 0.03290610334553815
529.0, 0.02094280815550115
530.0, 0.003980428844411379
531.0, 0.006931955744468603
532.0, 0.007428966637656233
533.0, 0.002215292459981577
534.0, 0.00280122494442179
535.0, 0.007743618894277768
536.0, 0.014229115234879667
537.0, 0.0037444565408236838
538.0, 0.003232406554252951
539.0, 0.0054148928274828315
540.0, 0.018276586718796933
541.0, 0.025924234261679016
542.0, 0.004324904249783612
543.0, 0.002481846447229451
544.0, 0.0012122998596165366
545.0, 0.003535855791203725
546.0, 0.008755267781619065
547.0, 0.0005010633841318367
548.0, 0.004636660593043134
549.0, 0.0073026709026115565
550.0, 0.003377800392242442
551.0, 0.007854020842567337
552.0, 0.0017126429136015155
553.0, 0.00490206484586213
554.0, 0.005315074377136065
555.0, 0.004606970318837491
556.0, 0.009121786359197116
557.0, 0.01065169504061904
558.0, 0.0030325709161318176
559.0, 0.002916684171053648
560.0, 0.004356154046293534
561.0, 0.0011281123112788216
562.0, 0.001578573648408304
563.0, 0.001961361456156092
564.0, 0.004708405706399297
565.0, 0.003512244165431552
566.0, 0.010240837756404827
567.0, 0.008759261336361351
568.0, 0.001081643758825395
569.0, 0.0100439425801114
570.0, 0.0100211043986354
571.0, 0.002330448004951747
572.0, 0.01195671263258662
573.0, 0.00977574287956971
574.0, 0.015884487191959947
575.0, 0.014020081771349939
576.0, 0.011180048985893707
577.0, 0.007620891569176139
578.0, 0.006343088939378004
579.0, 0.012895615221661716
580.0, 0.024421210113145478
581.0, 0.021735093003826887
582.0, 0.01932249152292838
583.0, 0.009906926969967561
584.0, 0.01767699762944835
585.0, 0.03706168070399274
586.0, 0.019016394327231748
587.0, 0.03572919078743769
588.0, 0.024622702853982104
589.0, 0.02832905231357596
590.0, 0.03881656505276524
591.0, 0.02657943146554358
592.0, 0.028069617619216357
593.0, 0.023860913409330282
594.0, 0.030862910561426826
595.0, 0.03276000754151238
596.0, 0.028034677595816616
597.0, 0.03451931234540295
598.0, 0.03586562243845061
599.0, 0.03085342156573754
600.0, 0.0413441908977668
601.0, 0.05021367621498053
602.0, 0.04329965495655335
603.0, 0.03309188367409914
604.0, 0.03860987382493404
605.0, 0.04666624784644328
606.0, 0.03275691880530821
607.0, 0.023714945948826838
608.0, 0.04002373820879073
609.0, 0.03922770650754682
610.0, 0.047145069502162844
611.0, 0.0485567642983942
612.0, 0.04853819619416299
613.0, 0.04691911348908798
614.0, 0.03797917158567362
615.0, 0.03567222306338322
616.0, 0.030523404152967476
617.0, 0.03740235260020352
618.0, 0.04804926334763293
619.0, 0.04717704718509509
620.0, 0.034310260129719786
621.0, 0.024367874164525488
622.0, 0.027058035200534705
623.0, 0.0367481560760617
624.0, 0.03922275108049152
625.0, 0.0328026464207986
626.0, 0.03281978448630804
627.0, 0.04339997108282704
628.0, 0.041861749831892774
629.0, 0.035669912023254376
630.0, 0.034111517664818854
631.0, 0.03670986076108963
632.0, 0.03456548528983688
633.0, 0.03227254578616655
634.0, 0.02570904195297285
635.0, 0.03262045343860286
636.0, 0.04903907962643004
637.0, 0.05229127813120671
638.0, 0.03209747058952662
639.0, 0.03857599275481673
640.0, 0.04695094902731698
641.0, 0.048199808933654005
642.0, 0.046523872286204554
643.0, 0.04936188034374201
644.0, 0.06115497544980805
645.0, 0.06165527713012207
646.0, 0.058694450088217366
647.0, 0.05554406389052005
648.0, 0.05657293261531588
649.0, 0.06366180131324366
650.0, 0.06724533605400898
651.0, 0.059904025646128414
652.0, 0.05807597865126936
653.0, 0.060494001858535436
654.0, 0.05643838175758908
655.0, 0.044634841377780475
656.0, 0.05503715132147856
657.0, 0.05518450540510762
658.0, 0.04792596387964401
659.0, 0.041625819072951556
660.0, 0.046880683854068655
661.0, 0.05874005633789949
662.0, 0.047953324743986274
663.0, 0.04972257523018363
664.0, 0.04558534411500098
665.0, 0.03834360046984916
666.0, 0.02999044322626689
667.0, 0.019622348329309616
668.0, 0.0352021629689616
669.0, 0.03126445837216405
670.0, 0.03378498011251509
671.0, 0.033499343072651656
672.0, 0.025517074924673075
673.0, 0.023765895643663545
674.0, 0.03117977179723893
675.0, 0.0264100207446803
676.0, 0.028527750100346836
677.0, 0.020745462169768043
678.0, 0.009234310676140762
679.0, 0.015456024663318052
680.0, 0.02430975190035015
681.0, 0.016006225673530147
682.0, 0.009433900637170155
683.0, 0.015218348849707818
684.0, 0.022181571124719298
685.0, 0.018278367708595308
686.0, 0.017880605621905465
687.0, 0.01926350165715553
688.0, 0.00516758950671453
689.0, 0.005946857666572264
690.0, 0.0020570058462835686
691.0, 0.010078876660959692
692.0, 0.01791504797503197
693.0, 0.0017427246612239664
694.0, 0.013477081454073662
695.0, 0.021924949326138612
696.0, 0.016010301649271568
697.0, 0.01518306393899227
698.0, 0.02632557024136407
699.0, 0.021725590887266492
700.0, 0.015513092437142455
701.0, 0.009478230765473425
702.0, 0.0025455325294624826
703.0, 0.003946161021026026
704.0, 0.021339387231011715
705.0, 0.030254234825844918
706.0, 0.008327891160077074
707.0, 0.006844299614672197
708.0, 0.019315497990279474
709.0, 0.02454921073770605
710.0, 0.021171160277487444
711.0, 0.018512809676341318
712.0, 0.01649381997708515
713.0, 0.021360348177084154
714.0, 0.020555686102307194
715.0, 0.01149027602179846
716.0, 0.008419409869057207
717.0, 0.017749902209004673
718.0, 0.006143275107264824
719.0, 0.012584868836808734
720.0, 0.013713611555043793
721.0, 0.012609784822028732
722.0, 0.021500429090306417
723.0, 0.024981274927026023
724.0, 0.028088947480450082
725.0, 0.020671376547722786
726.0, 0.012798401027933217
727.0, 0.009515361829466454
728.0, 0.007290882830695435
729.0, 0.006316377458512795
730.0, 0.015933638402395475
731.0, 0.008656556604276089
732.0, 0.013028493038076724
733.0, 0.028449155472107718
734.0, 0.022706245146041866
735.0, 0.01645331628241364
736.0, 0.011843335941866963
737.0, 0.019025278539533622
738.0, 0.02164304881908109
739.0, 0.011663401778689157
740.0, 0.006431620111586755
741.0, 0.017784300765673753
742.0, 0.026854988684482318
743.0, 0.01010100769781859
744.0, 0.0033636805617353587
745.0, 0.004400976105794351
746.0, 0.014291606667978511
747.0, 0.015791187411343745
748.0, 0.010124844675136012
749.0, 0.004972295346178272
750.0, 0.012743574610853996
751.0, 0.007128036989509685
752.0, 0.02501945409584339
753.0, 0.02673285881028984
754.0, 0.028211806430644838
755.0, 0.03776757709403009
756.0, 0.024867773977137516
757.0, 0.02469695984059779
758.0, 0.02200571438949507
759.0, 0.018336230535042304
760.0, 0.02846244904060906
761.0, 0.04755415523557658
762.0, 0.03665040164263065
763.0, 0.0442747616576172
764.0, 0.04301925720919625
765.0, 0.03722642421938497
766.0, 0.038759881752462755
767.0, 0.04100807889200749
768.0, 0.03175122922174682
769.0, 0.04692081869282577
770.0, 0.052727350165786314
771.0, 0.04400294528057355
772.0, 0.049196135191293414
773.0, 0.05750823347218264
774.0, 0.05111167876939416
775.0, 0.05505100872968695
776.0, 0.056862044806183266
777.0, 0.03787067299998746
778.0, 0.03722831125855929
779.0, 0.04397069581147014
780.0, 0.042858628354662164
781.0, 0.044258928255435835
782.0, 0.04315295568122644
783.0, 0.04390604862759937
784.0, 0.04936493590093558
785.0, 0.048227822136984476
786.0, 0.05015546439664658
787.0, 0.05215305926998523
788.0, 0.03466205911165456
789.0, 0.04839592804649488
790.0, 0.051337136567655005
791.0, 0.05920033816772825
792.0, 0.053798365430302336
793.0, 0.03976296908822204
794.0, 0.037503756075751855
795.0, 0.03906650285261389
796.0, 0.03490873397279144
797.0, 0.03369715155076678
798.0, 0.04084638421703507
799.0, 0.05393614424629329
800.0, 0.052995966887663726
801.0, 0.03611293296122278
802.0, 0.04427872200678871
803.0, 0.03486318676920032
804.0, 0.036735460175722136
805.0, 0.04273321712812518
806.0, 0.03667541637082879
807.0, 0.019470038465134114
808.0, 0.013127061403670438
809.0, 0.026012746811248325
810.0, 0.01969074178535008
811.0, 0.01187018321931258
812.0, 0.020711844644831157
813.0, 0.021459103012303304
814.0, 0.008808461259346954
815.0, 0.007962041617502816
816.0, 0.014713022143148815
817.0, 0.023547333903667093
818.0, 0.011916139588377683
819.0, 0.006266642066163814
820.0, 0.006357862209503495
821.0, 0.004387538245459783
822.0, 0.006688166350565686
823.0, 0.0062792846210313145
824.0, 0.00792075272495201
825.0, 0.002803486650099045
826.0, 0.008438528522430103
827.0, 0.0061627401516443185
828.0, 0.006924008553854149
829.0, 0.017589273262787523
830.0, 0.005781733758086802
831.0, 0.004493237193989937
832.0, 0.003125716327186351
833.0, 0.0014281895295527567
834.0, 0.014583529976603678
835.0, 0.024769133735031937
836.0, 0.010589621253267333
837.0, 0.0009891807525779662
838.0, 0.0030809072745326934
839.0, 0.01319619051327189
840.0, 0.01116042607018099
841.0, 0.008875562872016227
842.0, 0.00930632427071856
843.0, 0.000280072214251291
844.0, 0.0021748241204036897
845.0, 0.003733557789143019
846.0, 0.017434110800950003
847.0, 0.013683992430394872
848.0, 0.004025340752884497
849.0, 0.005464083681664261
850.0, 0.012878892593318909
851.0, 0.013815450126255598
852.0, 0.0056531336206441475
853.0, 0.021436558054703733
854.0, 0.015172074391961481
855.0, 0.010390595279679303
856.0, 0.014401301643531884
857.0, 0.008949754350008596
858.0, 0.010555660787299016
859.0, 0.018738500269125036
860.0, 0.029690932989914647
861.0, 0.01061046944737534
862.0, 0.0025495393545052554
863.0, 0.0017225274500902092
864.0, 0.008237953302334455
865.0, 0.03541214801722616
866.0, 0.023184398737479545
867.0, 0.01583922680236231
868.0, 0.005280850602517675
869.0, 0.012114021159282059
870.0, 0.013100980146940687
871.0, 0.0036433094472574463
872.0, 0.017206949547243906
873.0, 0.029064718474704945
874.0, 0.017554743285703674
875.0, 0.009411948894278934
876.0, 0.015748151093179938
877.0, 0.01413919682751605
878.0, 0.020171448798732956
879.0, 0.043596514290489094
880.0, 0.03321481056001993
881.0, 0.009359806872386543
882.0, 0.011500446061457767
883.0, 0.004153538068147603
884.0, 0.01425892221072574
885.0, 0.02547980487775484
886.0, 0.02027343099928736
887.0, 0.027440477771172613
888.0, 0.03657777946723753
889.0, 0.03348071896264111
890.0, 0.022141811394652912
891.0, 0.0032795070589534715
892.0, 0.009508638365830541
893.0, 0.025001040274915662
894.0, 0.018234082152248948
895.0, 0.020991043478263947
896.0, 0.019535759603056497
897.0, 0.01687069730057522
898.0, 0.02043938062733494
899.0, 0.01965749283820822
900.0, 0.02195084742934871
901.0, 0.026710430929155746
902.0, 0.018959473103389524
903.0, 0.02519797298601061
904.0, 0.03508898825357907
905.0, 0.040426456524970115
906.0, 0.021877968967621054
907.0, 0.01814932284718719
908.0, 0.033510727522783515
909.0, 0.03592530308693868
910.0, 0.023313186965605807
911.0, 0.03330585382504983
912.0, 0.020357797776026608
913.0, 0.0011540088704534495
914.0, 0.023233823402039624
915.0, 0.03941412979117594
916.0, 0.02184098368229726
917.0, 0.017072653717009396
918.0, 0.013946454647908028
919.0, 0.014992507342196938
920.0, 0.01516260867758415
921.0, 0.022606212262285666
922.0, 0.032519225542056156
923.0, 0.029614433719683475
924.0, 0.02305494849402942
925.0, 0.029606240880029316
926.0, 0.012008427893792853
927.0, 0.015118764345386445
928.0, 0.012343203723571628
929.0, 0.0034034862615603635
930.0, 0.002450812109788333
931.0, 0.009791796621317479
932.0, 0.008724361326930793
933.0, 0.004082730598744875
934.0, 0.00556514839939667
935.0, 0.008829289709341328
936.0, 0.011073369277395776
937.0, 0.019660740317470025
938.0, 0.02327467989080902
939.0, 0.017197911191917617
940.0, 0.010255340265544392
941.0, 0.016427957930499237
942.0, 0.029454527204472555
943.0, 0.005722398158686673
944.0, 0.0017889030461264055
945.0, 0.013436607243726072
946.0, 0.015660769284538557
947.0, 0.010027357540762234
948.0, 0.007964723942842568
949.0, 0.00324551215993397
950.0, 0.0033418531386182767
951.0, 0.011563818608843765
952.0, 0.007046628570378207
953.0, 0.005929057961874435
954.0, 0.007240113752625114
955.0, 0.0026937724511037447
956.0, 0.004189296784223607
957.0, 0.016798816132004582
958.0, 0.010903674945308323
959.0, 0.008025839437949168
960.0, 0.012197585152545657
961.0, 0.007160012365438435
962.0, 0.021472554351349597
963.0, 0.03106212595417346
964.0, 0.01757980982272128
965.0, 0.012140289488215252
966.0, 0.01406195598933347
967.0, 0.027010628380317113
968.0, 0.013128945827548947
969.0, 0.0027282898646704204
970.0, 0.0023860493649388525
971.0, 0.006035392271715274
972.0, 0.00577791497495952
973.0, 0.0007387535103206203
974.0, 0.010776496702535873
975.0, 0.006575980897420485
976.0, 0.010065776220876937
977.0, 0.006551373569413724
978.0, 0.01531866675322439
979.0, 0.027854528065578497
980.0, 0.022580713689985533
981.0, 0.008815816935676572
982.0, 0.015666833281544924
983.0, 0.01120727074694811
984.0, 0.014426671439053814
985.0, 0.0048606203892488965
986.0, 0.010061848684306799
987.0, 0.016800690764832923
988.0, 0.01286750766297577
989.0, 0.01647166996234758
990.0, 0.0313340671075093
991.0, 0.014943414049936226
992.0, 0.019235784998779898
993.0, 0.01190346500453278
994.0, 0.017965671181747193
995.0, 0.0217195311942134
996.0, 0.012070558871004427
997.0, 0.0013278226501731633
998.0, 0.008942321638971835
999.0, 0.03168557503308029
1000.0, 0.01999494786539414
1001.0, 0.013097226352855273
1002.0, 0.019671998206555085
1003.0, 0.014134300649955824
1004.0, 0.018888907403319395
1005.0, 0.0187280531999397
1006.0, 0.017147165646271778
1007.0, 0.03303883523393959
1008.0, 0.007916485546081486
1009.0, 0.014621902916948893
1010.0, 0.012600178465274585
1011.0, 0.014524970660775974
1012.0, 0.01643181790380748
1013.0, 0.02308641968549462
1014.0, 0.021675894377942453
1015.0, 0.017158607436432494
1016.0, 0.028264990570352626
1017.0, 0.013800144064856844
1018.0, 0.019814604942994796
1019.0, 0.021571093004234373
1020.0, 0.012816529712784894
1021.0, 0.012273214011015639
1022.0, 0.02429621416556302
1023.0, 0.03164673523558865
1024.0, 0.01834848586899802
1025.0, 0.0013410857336403706
1026.0, 0.01458387569251204
1027.0, 0.006705433183382706
1028.0, 0.004947349516989269
1029.0, 0.005268807287049964
1030.0, 0.010170307650246346
1031.0, 0.005905743105950873
1032.0, 0.012253011576508934
1033.0, 0.02782379404076495
1034.0, 0.013779585304898097
1035.0, 0.003991552070724217
1036.0, 0.0007565404749191066
1037.0, 0.009607946123801446
1038.0, 0.011421830154093262
1039.0, 0.010370783666113948
1040.0, 0.0025201879383246477
1041.0, 0.0069616660649414585
1042.0, 0.0026411845794348477
1043.0, 0.002285121464867
1044.0, 0.004437448542452822
1045.0, 0.012371127208512047
1046.0, 0.011232211145514029
1047.0, 0.0030123990583241582
1048.0, 0.009638196246437978
1049.0, 0.005244626946917458
1050.0, 0.005262649976854334
1051.0, 0.002552378886399199
1052.0, 0.0049333000054027805
1053.0, 0.004454304383373444
1054.0, 0.0009216766335309793
1055.0, 0.01414635142549524
1056.0, 0.01525558674922511
1057.0, 0.007772942312473965
1058.0, 0.008085709772053976
1059.0, 0.01328796233793814
1060.0, 0.00804244355808597
1061.0, 0.009562622158157305
1062.0, 0.012826925815141017
1063.0, 0.019227379793563572
1064.0, 0.005671085251311552
1065.0, 0.020661137780723312
1066.0, 0.021117838173985253
1067.0, 0.012007668245086223
1068.0, 0.007382785388216875
1069.0, 0.016360602867913687
1070.0, 0.030989841267506674
1071.0, 0.02613290085865797
1072.0, 0.03695974897276504
1073.0, 0.038131880983620525
1074.0, 0.033975896496791315
1075.0, 0.03359521351753578
1076.0, 0.036324022842995386
1077.0, 0.035799867474021314
1078.0, 0.039459788308040644
1079.0, 0.05277081335207643
1080.0, 0.05790453710677207
1081.0, 0.04918607298733299
1082.0, 0.07139511600016146
1083.0, 0.0692203707482449
1084.0, 0.06224505727337358
1085.0, 0.07906538707693346
1086.0, 0.07285225400330146
1087.0, 0.06715401529836733
1088.0, 0.07356766143817639
1089.0, 0.07380440322889759
1090.0, 0.07897186512111537
1091.0, 0.08803428179483808
1092.0, 0.10009598192498337
1093.0, 0.10096578221839565
1094.0, 0.10029334783835721
1095.0, 0.09413569409065393
1096.0, 0.08855939920742939
1097.0, 0.0931639250538925
1098.0, 0.08755173725811893
1099.0, 0.0744756741536159
1100.0, 0.09528938287215753
1101.0, 0.09036449587790113
1102.0, 0.09647941165268907
1103.0, 0.085900665244342
1104.0, 0.09480550033892964
1105.0, 0.10322976337495
1106.0, 0.10188428178561047
1107.0, 0.0962016388828631
1108.0, 0.09419306041096258
1109.0, 0.09493195270770856
1110.0, 0.09322607901493547
1111.0, 0.097122365731153
1112.0, 0.0899632830268096
1113.0, 0.0838877684576342
1114.0, 0.08894617788162656
1115.0, 0.09107967080238823
1116.0, 0.10266615336877563
1117.0, 0.10184034274812094
1118.0, 0.09744269546946309
1119.0, 0.10079210983946492
1120.0, 0.08999013353638345
1121.0, 0.09652252248392638
1122.0, 0.0930198584716271
1123.0, 0.10761798793855132
1124.0, 0.09567421242822477
1125.0, 0.0847370299063036
1126.0, 0.08528685565953657
1127.0, 0.09049969885348835
1128.0, 0.08322462099488201
1129.0, 0.07973215721522842
1130.0, 0.09115957970359871
1131.0, 0.07508910057118802
1132.0, 0.07794676527885006
1133.0, 0.07930434578585908
1134.0, 0.0730561682435663
1135.0, 0.0732411868541916
1136.0, 0.08164240877403733
1137.0, 0.07262390289547158
1138.0, 0.07398077204888064
1139.0, 0.07777742806410096
1140.0, 0.06702771764050011
1141.0, 0.07030762831592485
1142.0, 0.058296661221256076
1143.0, 0.06597699231183703
1144.0, 0.06843827789024816
1145.0, 0.0714242984862191
1146.0, 0.058767365606404394
1147.0, 0.05156257578812622
1148.0, 0.05079093574308848
1149.0, 0.050040019315676115
1150.0, 0.06357369645338913
1151.0, 0.06389742094107057
1152.0, 0.06008999625355597
1153.0, 0.06161498539778672
1154.0, 0.04865772467650008
1155.0, 0.04592520036435932
1156.0, 0.05728996045390588
1157.0, 0.04088535810329957
1158.0, 0.04157927658994499
1159.0, 0.0414441255450229
1160.0, 0.048825856443420745
1161.0, 0.05417023453186936
1162.0, 0.037907834406769175
1163.0, 0.04301801813334904
1164.0, 0.047385465906341157
1165.0, 0.04225400289238135
1166.0, 0.03851652729586499
1167.0, 0.023866954300479883
1168.0, 0.03141916320357886
1169.0, 0.034823203730789745
1170.0, 0.03485277092848763
1171.0, 0.035431575582236294
1172.0, 0.030928313505472642
1173.0, 0.0183829549818011
1174.0, 0.008519383575162881
1175.0, 0.027315634840159926
1176.0, 0.022344998461836397
1177.0, 0.017277227093197643
1178.0, 0.015039202274482624
1179.0, 0.020076566471978856
1180.0, 0.010193555214070112
1181.0, 0.017360208197166195
1182.0, 0.028482137125395577
1183.0, 0.026646338195723582
1184.0, 0.019956383835120037
1185.0, 0.012121184742864303
1186.0, 0.014859062751462622
1187.0, 0.02247372384938364
1188.0, 0.013383651296745777
1189.0, 0.001310130380203595
1190.0, 0.021008945783487998
1191.0, 0.01346155746575841
1192.0, 0.013070175263495765
1193.0, 0.025338092323407176
1194.0, 0.025193247541282698
1195.0, 0.00994844370191638
1196.0, 0.0006873226900090043
1197.0, 0.010736514443672455
1198.0, 0.020429674562672535
1199.0, 0.004212161845851958
1200.0, 0.020282265774554335
1201.0, 0.01995093554762921
1202.0, 0.005860672419098181
1203.0, 0.001701948634035275
1204.0, 0.011609998081962707
1205.0, 0.0021535132929201553
1206.0, 0.005345766988590212
1207.0, 0.005884704576135441
1208.0, 0.002235721546754667
1209.0, 0.004841491016388455
1210.0, 0.012100627156654126
1211.0, 0.013435753013542134
1212.0, 0.014172964065592037
1213.0, 0.01725680697460305
1214.0, 0.007629059687830455
1215.0, 0.010094782291848256
1216.0, 0.008013326639804209
1217.0, 0.01064891878496196
1218.0, 0.002938348537959305
1219.0, 0.012932838756069428
1220.0, 0.010495736273396413
1221.0, 0.015167874990046223
1222.0, 0.002222761388232226
1223.0, 0.019015641599243866
1224.0, 0.016911956000490752
1225.0, 0.0033488456656109245
1226.0, 0.005691282914610738
1227.0, 0.003879800710057427
1228.0, 0.015495959907308671
1229.0, 0.014057496657365715
1230.0, 0.005441489576847133
1231.0, 0.015153591886990607
1232.0, 0.01575542006712858
1233.0, 0.00819139317943846
1234.0, 0.005352776725031453
1235.0, 0.02038444845061492
1236.0, 0.0074795645782691775
1237.0, 0.011779309877872686
1238.0, 0.0493461196707864
1239.0, 0.020092699304569805
1240.0, 0.00915590178000437
1241.0, 0.006368021236052465
1242.0, 0.009883476199280445
1243.0, 0.016854591228449223
1244.0, 0.025740363540778157
1245.0, 0.03337661622431666
1246.0, 0.02868245374307497
1247.0, 0.0371888350686499
1248.0, 0.040956882730904115
1249.0, 0.030670512150118723
1250.0, 0.01051769974435957
1251.0, 0.011915195821541723
1252.0, 0.017719931052260995
1253.0, 0.010487446803181248
1254.0, 0.012943829103546198
1255.0, 0.006899230771081647
1256.0, 0.020922618329174643
1257.0, 0.021228273974770846
1258.0, 0.023879557952920065
1259.0, 0.04846207830524079
1260.0, 0.0333709531176142
1261.0, 0.035806542514424174
1262.0, 0.01626002823343243
1263.0, 0.012235014508042425
1264.0, 0.019895464596243764
1265.0, 0.037046148131184904
1266.0, 0.0309656383349847
1267.0, 0.013503788108884883
1268.0, 0.015576400516762262
1269.0, 0.032648882688709
1270.0, 0.025845832887150016
1271.0, 0.00583147735771228
1272.0, 0.022440369303809042
1273.0, 0.050259822018108434
1274.0, 0.03205489143715049
1275.0, 0.00132298917258277
1276.0, 0.008231885921320545
1277.0, 0.019566551869417578
1278.0, 0.021571668701035215
1279.0, 0.005374484886306105
1280.0, 0.02401372596770635
1281.0, 0.02267564232540941
1282.0, 0.025268505655593486
1283.0, 0.009673361759124659
1284.0, 0.004959661871733462
1285.0, 0.02072082972228224
1286.0, 0.020120691470262436
1287.0, 0.008490593306562384
1288.0, 0.012780281011343115
1289.0, 0.022416129072753886
1290.0, 0.022125945993434235
1291.0, 0.0258615584566478
1292.0, 0.020271172262477415
1293.0, 0.008029612868884338
1294.0, 0.01975764919927241
1295.0, 0.02048906699525336
1296.0, 0.011870658985796905
1297.0, 0.012799849358906667
1298.0, 0.020865172031774598
1299.0, 0.015040233491360064
1300.0, 0.0023439625241997025
1301.0, 0.005752612676017227
1302.0, 0.012888534990558824
1303.0, 0.01344719788516274
1304.0, 0.013080662370000705
1305.0, 0.006373483487775153
1306.0, 0.0012038718157894755
1307.0, 0.007621365200191637
1308.0, 0.003507471363769007
1309.0, 0.0103362145182438
1310.0, 0.007631086756013764
1311.0, 0.016141047961630232
1312.0, 0.009041129957796382
1313.0, 0.00018288087840262924
1314.0, 0.006076389606689711
1315, 0.0
1316, 0.0
1317, 0.0
1318, 0.0
1319, 0.0
1320, 0.0
1321, 0.0
1322, 0.0
1323, 0.0
1324, 0.0
1325, 0.0
1326, 0.0
1327, 0.0
1328, 0.0
1329, 0.0
1330, 0.0
1331, 0.0
1332, 0.0
1333, 0.0
1334, 0.0
1335, 0.0
1336, 0.0
1337, 0.0
1338, 0.0
1339, 0.0
1340, 0.0
1341, 0.0
1342, 0.0
1343, 0.0
1344, 0.0
1345, 0.0
1346, 0.0
1347, 0.0
1348, 0.0
1349, 0.0
1350, 0.0
1351, 0.0
1352, 0.0
1353, 0.0
1354, 0.0
1355, 0.0
1356, 0.0
1357, 0.0
1358, 0.0
1359, 0.0
1360, 0.0
1361, 0.0
1362, 0.0
1363, 0.0
1364, 0.0
1365, 0.0
1366, 0.0
1367, 0.0
1368, 0.0
1369, 0.0
1370, 0.0
1371, 0.0
1372, 0.0
1373, 0.0
1374, 0.0
1375, 0.0
1376, 0.0
1377, 0.0
1378, 0.0
1379, 0.0
1380, 0.0
1381, 0.0
1382, 0.0
1383, 0.0
1384, 0.0
1385, 0.0
1386, 0.0
1387, 0.0
1388, 0.0
1389, 0.0
1390, 0.0
1391, 0.0
1392, 0.0
1393, 0.0
1394, 0.0
1395, 0.0
1396, 0.0
1397, 0.0
1398, 0.0
1399, 0.0
1400, 0.0
1401, 0.0
1402, 0.0
1403, 0.0
1404, 0.0
1405, 0.0
1406, 0.0
1407, 0.0
1408, 0.0
1409, 0.0
1410, 0.0
1411, 0.0
1412, 0.0
1413, 0.0
1414, 0.0
1415, 0.0
1416, 0.0
1417, 0.0
1418, 0.0
1419, 0.0
1420, 0.0
1421, 0.0
1422, 0.0
1423, 0.0
1424, 0.0
1425, 0.0
1426, 0.0
1427, 0.0
1428, 0.0
1429, 0.0
1430, 0.0
1431, 0.0
1432, 0.0
1433, 0.0
1434, 0.0
1435, 0.0
1436, 0.0
1437, 0.0
1438, 0.0
1439, 0.0
1440, 0.0
1441, 0.0
1442, 0.0
1443, 0.0
1444, 0.0
1445, 0.0
1446, 0.0
1447, 0.0
1448, 0.0
1449, 0.0
1450, 0.0
1451, 0.0
1452, 0.0
1453, 0.0
1454, 0.0
1455, 0.0
1456, 0.0
1457, 0.0
1458, 0.0
1459, 0.0
1460, 0.0
1461, 0.0
1462, 0.0
1463, 0.0
1464, 0.0
1465, 0.0
1466, 0.0
1467, 0.0
1468, 0.0
1469, 0.0
1470, 0.0
1471, 0.0
1472, 0.0
1473, 0.0
1474, 0.0
1475, 0.0
1476, 0.0
1477, 0.0
1478, 0.0
1479, 0.0
1480, 0.0
1481, 0.0
1482, 0.0
1483, 0.0
1484, 0.0
1485, 0.0
1486, 0.0
1487, 0.0
1488, 0.0
1489, 0.0
1490, 0.0
1491, 0.0
1492, 0.0
1493, 0.0
1494, 0.0
1495, 0.0
1496, 0.0
1497, 0.0
1498, 0.0
1499, 0.0
1500, 0.0
1501, 0.0
1502, 0.0
1503, 0.0
1504, 0.0
1505, 0.0
1506, 0.0
1507, 0.0
1508, 0.0
1509, 0.0
1510, 0.0
1511, 0.0
1512, 0.0
1513, 0.0
1514, 0.0
1515, 0.0
1516, 0.0
1517, 0.0
1518, 0.0
1519, 0.0
1520, 0.0
1521, 0.0
1522, 0.0
1523, 0.0
1524, 0.0
1525, 0.0
1526, 0.0
1527, 0.0
1528, 0.0
1529, 0.0
1530, 0.0
1531, 0.0
1532, 0.0
1533, 0.0
1534, 0.0
1535, 0.0
1536, 0.0
1537, 0.0
1538, 0.0
1539, 0.0
1540, 0.0
1541, 0.0
1542, 0.0
1543, 0.0
1544, 0.0
1545, 0.0
1546, 0.0
1547, 0.0
1548, 0.0
1549, 0.0
1550, 0.0
1551, 0.0
1552, 0.0
1553, 0.0
1554, 0.0
1555, 0.0
1556, 0.0
1557, 0.0
1558, 0.0
1559, 0.0
1560, 0.0
1561, 0.0
1562, 0.0
1563, 0.0
1564, 0.0
1565, 0.0
1566, 0.0
1567, 0.0
1568, 0.0
1569, 0.0
1570, 0.0
1571, 0.0
1572, 0.0
1573, 0.0
1574, 0.0
1575, 0.0
1576, 0.0
1577, 0.0
1578, 0.0
1579, 0.0
1580, 0.0
1581, 0.0
1582, 0.0
1583, 0.0
1584, 0.0
1585, 0.0
1586, 0.0
1587, 0.0
1588, 0.0
1589, 0.0
1590, 0.0
1591, 0.0
1592, 0.0
1593, 0.0
1594, 0.0
1595, 0.0
1596, 0.0
1597, 0.0
1598, 0.0
1599, 0.0
