30, 0.0
31, 0.0
32, 0.0
33, 0.0
34, 0.0
35, 0.0
36, 0.0
37, 0.0
38, 0.0
39, 0.0
40, 0.0
41, 0.0
42, 0.0
43, 0.0
44, 0.0
45, 0.0
46, 0.0
47, 0.0
48, 0.0
49, 0.0
50, 0.0
51, 0.0
52, 0.0
53, 0.0
54, 0.0
55, 0.0
56, 0.0
57, 0.0
58, 0.0
59, 0.0
60, 0.0
61, 0.0
62, 0.0
63, 0.0
64, 0.0
65, 0.0
66, 0.0
67, 0.0
68, 0.0
69, 0.0
70, 0.0
71, 0.0
72, 0.0
73, 0.0
74, 0.0
75, 0.0
76, 0.0
77, 0.0
78, 0.0
79, 0.0
80, 0.0
81, 0.0
82, 0.0
83, 0.0
84, 0.0
85, 0.0
86, 0.0
87, 0.0
88, 0.0
89, 0.0
90, 0.0
91, 0.0
92, 0.0
93, 0.0
94, 0.0
95, 0.0
96, 0.0
97, 0.0
98, 0.0
99, 0.0
100, 0.0
101, 0.0
102, 0.0
103, 0.0
104, 0.0
105, 0.0
106, 0.0
107, 0.0
108, 0.0
109, 0.0
110, 0.0
111, 0.0
112, 0.0
113, 0.0
114, 0.0
115, 0.0
116, 0.0
117, 0.0
118, 0.0
119, 0.0
120, 0.0
121, 0.0
122, 0.0
123, 0.0
124.0, 2.325785099192589e-05
125.0, 0.00018323338722909567
126.0, 0.00168581097578861
127.0, 0.005112291292511451
128.0, 0.008724585820337121
129.0, 0.012716545620123997
130.0, 0.017697700635999545
131.0, 0.02339910328595512
132.0, 0.027790075268864643
133.0, 0.030089822382291527
134.0, 0.028500940136425987
135.0, 0.023446160381832157
136.0, 0.017461490460963548
137.0, 0.011441524889942538
138.0, 0.007455407922836981
139.0, 0.005176886384166864
140.0, 0.003931313678524855
141.0, 0.0051926015474966156
142.0, 0.0086262575253936
143.0, 0.013006458419985363
144.0, 0.017818661238883517
145.0, 0.023670798525631018
146.0, 0.029500415803563978
147.0, 0.03480215251385826
148.0, 0.03942619521389524
149.0, 0.04357825011190584
150.0, 0.04518920694277607
151.0, 0.045316710245299804
152.0, 0.04399896527249019
153.0, 0.04104358746786843
154.0, 0.038328017706122604
155.0, 0.03517118613414029
156.0, 0.03170001193345568
157.0, 0.028555374571546877
158.0, 0.026466075424337147
159.0, 0.025063091474805173
160.0, 0.02450392367656298
161.0, 0.024581554849781244
162.0, 0.025185592874045377
163.0, 0.02703586702351328
164.0, 0.02837316326241966
165.0, 0.029718777880698474
166.0, 0.03139456719351261
167.0, 0.033237350896414976
168.0, 0.034529118922744274
169.0, 0.03598678040138468
170.0, 0.036803768542427784
171.0, 0.03625904044503353
172.0, 0.036455012727997387
173.0, 0.0360029282378442
174.0, 0.03512826443416659
175.0, 0.034408576802167135
176.0, 0.033882835974730616
177.0, 0.032480134889988826
178.0, 0.030588999371607542
179.0, 0.029064849089400654
180.0, 0.028336481015215992
181.0, 0.026839612451037484
182.0, 0.025004288848146723
183.0, 0.023261050792631487
184.0, 0.02185221349394565
185.0, 0.02086151345054889
186.0, 0.01872750341615374
187.0, 0.01747099656302659
188.0, 0.017068798550414887
189.0, 0.016285170904217064
190.0, 0.014993971155392154
191.0, 0.013031487697461111
192.0, 0.01124117556077912
193.0, 0.009754660260477109
194.0, 0.007668918114111765
195.0, 0.007136647027891672
196.0, 0.006346264876036825
197.0, 0.004875713611711418
198.0, 0.0036127788658597867
199.0, 0.0029256060288327715
200.0, 0.0017037781663652761
201.0, 0.003195033786240072
202.0, 0.005076022986693705
203.0, 0.0012991707984094198
204.0, 0.00010931876356883205
205.0, 0.0005392198548218504
206.0, 0.0007321968681078129
207.0, 0.0008169218401706359
208.0, 0.001267602418773687
209.0, 0.002015594042048738
210.0, 0.0023194207193279978
211.0, 0.0024998986305536375
212.0, 0.00323726543579824
213.0, 0.003106575830391151
214.0, 0.0027800760398976276
215.0, 0.0023291317469366643
216.0, 0.0016228230232993293
217.0, 0.0007144789774916245
218.0, 0.0004650032546709941
219.0, 0.000717324973524542
220.0, 0.002853914010920594
221.0, 0.004923680405015718
222.0, 0.006424795145368823
223.0, 0.008178582991723964
224.0, 0.009919371879988377
225.0, 0.011640663813931603
226.0, 0.013688266467077555
227.0, 0.015334727787069308
228.0, 0.016808794983166387
229.0, 0.018420398804538815
230.0, 0.0198451065448681
231.0, 0.020078384547940996
232.0, 0.021221650563157488
233.0, 0.02180316741894924
234.0, 0.02197190306679335
235.0, 0.022434779137271967
236.0, 0.021804634528553017
237.0, 0.020814236557860338
238.0, 0.01943553453227156
239.0, 0.01753165025551962
240.0, 0.015143500856498536
241.0, 0.012496276046730263
242.0, 0.01115523055024908
243.0, 0.010192065616199009
244.0, 0.008801724098355095
245.0, 0.007473431166279982
246.0, 0.006756102410195109
247.0, 0.0058860392017190555
248.0, 0.005496162815978024
249.0, 0.006285506026016711
250.0, 0.007326341643536848
251.0, 0.008514500192816554
252.0, 0.010071964988677816
253.0, 0.011838470790751874
254.0, 0.013635722914018586
255.0, 0.016275400870689863
256.0, 0.018512452173154604
257.0, 0.021977910756944132
258.0, 0.027069636821582206
259.0, 0.03191155660850707
260.0, 0.03697787449559461
261.0, 0.04179656200624018
262.0, 0.046494789609162784
263.0, 0.05090322904319793
264.0, 0.05408322159512146
265.0, 0.05745756655198192
266.0, 0.059144276148957856
267.0, 0.06081693717621208
268.0, 0.06399287793496122
269.0, 0.0659370966979732
270.0, 0.0675168221521107
271.0, 0.06930123020634077
272.0, 0.07077641474603719
273.0, 0.0711852113499462
274.0, 0.07012916311186279
275.0, 0.06809985481743902
276.0, 0.06543522510588994
277.0, 0.06207538272648276
278.0, 0.057739111719770184
279.0, 0.05254253439160187
280.0, 0.04562020755752357
281.0, 0.03947364569947278
282.0, 0.03470890100486756
283.0, 0.029760802699434586
284.0, 0.025106480255329366
285.0, 0.02204832394494221
286.0, 0.01989366179226231
287.0, 0.017865068688010455
288.0, 0.015930273848368988
289.0, 0.014813804525763022
290.0, 0.01427675625477837
291.0, 0.01488891545013547
292.0, 0.016478831010337595
293.0, 0.017393873692787304
294.0, 0.017969230411767977
295.0, 0.019901247854550563
296.0, 0.022865706021110183
297.0, 0.025957319006624194
298.0, 0.029152183650233254
299.0, 0.03200688542354778
300.0, 0.03591177848655974
301.0, 0.0401594163647654
302.0, 0.04384930946370275
303.0, 0.047853270343501515
304.0, 0.051947364978991696
305.0, 0.05535572400629358
306.0, 0.05747781126566843
307.0, 0.05825160080889798
308.0, 0.058120134364334955
309.0, 0.05738504052214361
310.0, 0.055188960215078756
311.0, 0.051004630846537294
312.0, 0.045166851220738234
313.0, 0.039209393956717985
314.0, 0.03392341082420168
315.0, 0.0284608478427686
316.0, 0.023061281392225873
317.0, 0.018366822598341773
318.0, 0.0143837194276888
319.0, 0.010958351213779973
320.0, 0.008448413216257835
321.0, 0.0065216029416859545
322.0, 0.005042541695051165
323.0, 0.005721827561405515
324.0, 0.004451704906162725
325.0, 0.004681859902783161
326.0, 0.006214210031557903
327.0, 0.0067214959817079156
328.0, 0.0066962808286544695
329.0, 0.007690341127665141
330.0, 0.008984625922338847
331.0, 0.00965455762620065
332.0, 0.0096345166390257
333.0, 0.01002191525206834
334.0, 0.010607781675060483
335.0, 0.010520242557873257
336.0, 0.010011148918393683
337.0, 0.010934643007343738
338.0, 0.01758235721168137
339.0, 0.014658801205966285
340.0, 0.011443664110913066
341.0, 0.010796841021048217
342.0, 0.010881489796297565
343.0, 0.011104157019240479
344.0, 0.011556450523440981
345.0, 0.01187017237441065
346.0, 0.011250606328184516
347.0, 0.009974602820477876
348.0, 0.009602592300012947
349.0, 0.009215563009615834
350.0, 0.007804681864616534
351.0, 0.006437943480735205
352.0, 0.0055620542038301
353.0, 0.004340079675493663
354.0, 0.003734359764805897
355.0, 0.002949461811723661
356.0, 0.0018229333164299537
357.0, 0.0007922084253235034
358.0, 0.00024772316473819036
359.0, 0.0012660182711880079
360.0, 0.0021568629403880073
361.0, 0.0021649831348872434
362.0, 0.0019122392321744516
363.0, 0.0020361288908591416
364.0, 0.0020893750528857575
365.0, 0.0015273976100598629
366.0, 0.00045236263018369493
367.0, 0.0005510797771663427
368.0, 0.0012011240217517335
369.0, 0.002629565709683872
370.0, 0.004478594443418924
371.0, 0.006548665859516147
372.0, 0.00878430243232185
373.0, 0.011119466564811265
374.0, 0.013564667343186558
375.0, 0.015928377755742462
376.0, 0.018741606909084916
377.0, 0.02243468195002949
378.0, 0.026582373920774987
379.0, 0.029196063410140066
380.0, 0.03313688195756963
381.0, 0.03556431532198055
382.0, 0.03867524593513839
383.0, 0.0432406369924836
384.0, 0.04641699769437556
385.0, 0.04846444019929189
386.0, 0.0519094047364624
387.0, 0.05496683412703617
388.0, 0.057261749505446574
389.0, 0.05975655871476064
390.0, 0.06014593161931048
391.0, 0.0612609387933137
392.0, 0.06129099332946691
393.0, 0.06036817379098214
394.0, 0.05969371561146183
395.0, 0.058625194948952644
396.0, 0.05744669440907463
397.0, 0.055292442199923644
398.0, 0.052456011170914175
399.0, 0.04947213614946669
400.0, 0.04619610778119008
401.0, 0.04314716273769179
402.0, 0.04025678149846435
403.0, 0.03788149918376122
404.0, 0.03583015501714325
405.0, 0.03358702315643656
406.0, 0.031786365406959324
407.0, 0.030027984204411762
408.0, 0.02780566068642765
409.0, 0.02538657280371526
410.0, 0.023390944534174764
411.0, 0.022095772976054383
412.0, 0.022360070232476856
413.0, 0.01957402009489189
414.0, 0.016245173407250468
415.0, 0.015099658024597375
416.0, 0.013635426397123762
417.0, 0.011397904387532836
418.0, 0.01005066021513476
419.0, 0.008422597240116373
420.0, 0.006626408293419344
421.0, 0.005539919592861029
422.0, 0.004135393812515253
423.0, 0.003076222209601651
424.0, 0.0029958694626884465
425.0, 0.002546692260841752
426.0, 0.001076309073654067
427.0, 0.0006100366500459545
428.0, 0.000500898106865959
429.0, 0.00012234802784903188
430.0, 0.0002508565293895973
431.0, 0.00022599171833873614
432.0, 0.0004263063583339134
433.0, 0.0007966839174499877
434.0, 0.0007548402902990063
435.0, 0.0007554207923889879
436.0, 0.0008543011614582059
437.0, 0.000863463391514463
438.0, 0.000775269562895059
439.0, 0.0009534316633233329
440.0, 0.0009649784615857242
441.0, 0.000723506013650068
442.0, 0.00030110404950991896
443.0, 4.555999926110868e-05
444.0, 5.489931114166972e-05
445.0, 0.00041414374528246347
446.0, 0.0007820342746429521
447.0, 0.0010719398119465435
448.0, 0.0017519005015381975
449.0, 0.00278580210459847
450.0, 0.002606645297380196
451.0, 0.003160626990456508
452.0, 0.0036321157116912138
453.0, 0.003947727922475698
454.0, 0.004721623422509626
455.0, 0.005374475961343682
456.0, 0.006090682456878471
457.0, 0.006871928277060886
458.0, 0.007802463759553947
459.0, 0.008642385852985799
460.0, 0.009252347901138025
461.0, 0.01039974574234691
462.0, 0.01147569745685531
463.0, 0.012727568595080322
464.0, 0.01393204656721599
465.0, 0.015341796081268542
466.0, 0.017879412540783745
467.0, 0.020096513403004532
468.0, 0.02163770794987648
469.0, 0.02348159459039319
470.0, 0.025628710811082513
471.0, 0.02753704860794464
472.0, 0.029486644936130527
473.0, 0.030664321176335572
474.0, 0.03137518650612104
475.0, 0.032035968537282855
476.0, 0.03267516851383164
477.0, 0.03292785674658009
478.0, 0.03220016926045149
479.0, 0.03093093794424494
480.0, 0.029061315755815498
481.0, 0.026513461854085627
482.0, 0.023736154929417982
483.0, 0.02147400285758163
484.0, 0.01952703053312339
485.0, 0.017684613647634004
486.0, 0.015692039536281767
487.0, 0.01413245854855638
488.0, 0.013362641969494767
489.0, 0.012823701445272541
490.0, 0.011680321783012747
491.0, 0.011385455484151607
492.0, 0.010628132351468518
493.0, 0.009467733677695971
494.0, 0.008989085064692218
495.0, 0.008404094384113391
496.0, 0.007740520091382543
497.0, 0.007905587972904353
498.0, 0.008039292298344687
499.0, 0.008355001699145109
500.0, 0.00940421228608377
501.0, 0.009579217946559412
502.0, 0.010060101003722337
503.0, 0.010902465007743965
504.0, 0.011834549982404194
505.0, 0.013106240730792501
506.0, 0.014868400882614607
507.0, 0.015532932111854164
508.0, 0.016590800546819988
509.0, 0.016275997423296572
510.0, 0.014991810440282577
511.0, 0.013922138202265604
512.0, 0.01309441256758969
513.0, 0.012847056759624413
514.0, 0.012576077122382127
515.0, 0.013074129676348304
516.0, 0.013281106126677277
517.0, 0.013288834696932329
518.0, 0.014874683504901995
519.0, 0.015254674844264232
520.0, 0.015198231409492285
521.0, 0.01620724001452573
522.0, 0.017590090014676762
523.0, 0.018590591763884758
524.0, 0.020010436555226677
525.0, 0.02150235742896372
526.0, 0.023881507810712195
527.0, 0.026325310625837865
528.0, 0.028697284864744925
529.0, 0.031621380144916875
530.0, 0.03554800385196878
531.0, 0.03843924491658648
532.0, 0.04292635124873902
533.0, 0.04727165403455315
534.0, 0.05138110071118385
535.0, 0.05561533240581958
536.0, 0.05910686590554903
537.0, 0.06289844478769535
538.0, 0.06529042793816121
539.0, 0.06734576985034084
540.0, 0.06744065330113118
541.0, 0.06503719127958094
542.0, 0.06252682113209299
543.0, 0.059092425675966016
544.0, 0.054848539409419396
545.0, 0.05078414352151975
546.0, 0.04706316756367381
547.0, 0.04299748219066963
548.0, 0.03836083064846295
549.0, 0.03453595137479225
550.0, 0.03146241318877207
551.0, 0.02842959124212081
552.0, 0.025691233996744934
553.0, 0.02330975040934984
554.0, 0.021000652292520922
555.0, 0.019181129642298355
556.0, 0.01732536353694046
557.0, 0.015307791076452432
558.0, 0.01402023739482989
559.0, 0.012793389548894706
560.0, 0.010859951176486917
561.0, 0.010033159840038336
562.0, 0.009727073671381758
563.0, 0.008156798466526737
564.0, 0.006852596348017677
565.0, 0.006278266665137511
566.0, 0.005647712168398737
567.0, 0.0043170719663109544
568.0, 0.0041263972279984565
569.0, 0.0030757354296757447
570.0, 0.002778016668143039
571.0, 0.0027745382276728446
572.0, 0.0024220803450567376
573.0, 0.002171676007270032
574.0, 0.0016511574081716361
575.0, 0.0012307704372761018
576.0, 0.0009400327788820139
577.0, 0.0007445163735165933
578.0, 0.0007173114068769819
579.0, 0.000826152941681755
580.0, 0.0006781666652796675
581.0, 0.00017957954981401351
582.0, 0.0005361152808502606
583.0, 0.0006719831491859927
584.0, 0.00021882398085790763
585.0, 0.0003603340701869843
586.0, 0.00038833814709859324
587.0, 0.000402680335803503
588.0, 0.0004568727829508884
589.0, 0.00011366368812588051
590.0, 0.00012689594970368567
591.0, 0.0003879669564509224
592.0, 0.00018976661387347992
593.0, 0.00030740935234584507
594.0, 0.00016586171039501414
595.0, 0.00035900151143401315
596.0, 0.0005830649562291805
597.0, 0.0005312213483641122
598.0, 0.00036362518178790435
599.0, 0.00018344969781414333
600.0, 0.0002770684889557837
601.0, 0.0002558948324013783
602.0, 0.00034269398545629863
603.0, 0.00040661484189543593
604.0, 0.0004026004008295376
605.0, 0.00045036127640648215
606.0, 0.00047677663759846355
607.0, 0.0011302729225032824
608.0, 0.0010257332685931217
609.0, 0.001197763597949822
610.0, 0.0015510792472417788
611.0, 0.0013322578922914143
612.0, 0.0016288120360068348
613.0, 0.0015886979062659566
614.0, 0.0012299273123242266
615.0, 0.0019351332406958477
616.0, 0.0022554535350511216
617.0, 0.002072761589724746
618.0, 0.0027800772721871263
619.0, 0.0027850842468193034
620.0, 0.0027552374730104795
621.0, 0.0027976117421669028
622.0, 0.0030734911502814486
623.0, 0.0032425502573523025
624.0, 0.003351433698443132
625.0, 0.003666649899113018
626.0, 0.003226559053238106
627.0, 0.003886919816313124
628.0, 0.004579904671616008
629.0, 0.0048123956775963555
630.0, 0.004739585285016886
631.0, 0.004752466184420919
632.0, 0.005018855457814818
633.0, 0.0049864925331358015
634.0, 0.005368824618440401
635.0, 0.005466768118019142
636.0, 0.005375604417118912
637.0, 0.005216103580410979
638.0, 0.005048453674303222
639.0, 0.005281309227953741
640.0, 0.005746767874297621
641.0, 0.0056973386078972045
642.0, 0.00545548131971249
643.0, 0.005179535375548322
644.0, 0.0049314766790859105
645.0, 0.004905939262924127
646.0, 0.004987429242940372
647.0, 0.004868020123034113
648.0, 0.004760534629872489
649.0, 0.004762530862958429
650.0, 0.004621144828468311
651.0, 0.004268980346051178
652.0, 0.00396105120936172
653.0, 0.0034192188995217014
654.0, 0.003509991889809272
655.0, 0.003491704079533406
656.0, 0.003193327444277625
657.0, 0.0027911695847213287
658.0, 0.002632174271788879
659.0, 0.0029622574263325364
660.0, 0.0028400879339744944
661.0, 0.002435136248542252
662.0, 0.002496387738873749
663.0, 0.0019750826442389846
664.0, 0.0014054502409955494
665.0, 0.001480305070005608
666.0, 0.0014157275649447421
667.0, 0.0011984541783432122
668.0, 0.0009377768232418413
669.0, 0.0009734375759463111
670.0, 0.0005436242826942016
671.0, 0.0002447051608167435
672.0, 0.0004215026892504115
673.0, 0.0003844393186451462
674.0, 0.00031841213419729207
675.0, 0.0003659422813277197
676.0, 0.0002968000259599855
677.0, 0.0005350610153428012
678.0, 0.00031766864704001625
679.0, 0.0001485834239343408
680.0, 0.00010239795652456348
681.0, 9.259097974063466e-05
682.0, 0.0003240534882246024
683.0, 0.0007204841694135422
684.0, 0.0011158757070034578
685.0, 0.00131237855234694
686.0, 0.0011155438229393344
687.0, 0.0007269450806019629
688.0, 0.0010136587603361011
689.0, 0.0008914614132285221
690.0, 0.0011291208923543254
691.0, 0.0013634002383573886
692.0, 0.0013279674062381367
693.0, 0.001056423299321523
694.0, 0.0007957267697590253
695.0, 0.0008055580563729117
696.0, 0.0010881583948228596
697.0, 0.0011046387006186866
698.0, 0.0007837195421971772
699.0, 0.0003524678645652422
700.0, 8.757465657639897e-05
701.0, 0.00011204248593108969
702.0, 0.00032281623499986676
703.0, 6.481453865643698e-05
704.0, 0.0008257621955951439
705.0, 0.0005796882118318921
706.0, 0.0004801875853311501
707.0, 0.00035141419252381686
708.0, 0.00011935143334746059
709.0, 0.0003819705435824679
710.0, 0.0005194938485448998
711.0, 5.497095428338235e-05
712.0, 0.0007676885744830823
713.0, 0.0008887321821254603
714.0, 0.0010151680314360852
715.0, 0.0013438536891142393
716.0, 0.001221179142599697
717.0, 0.0014958788806897164
718.0, 0.0019477437268426883
719.0, 0.0021555915645483695
720.0, 0.0021252737316635453
721.0, 0.002215087164679901
722.0, 0.002568808697012794
723.0, 0.0028825829862216645
724.0, 0.0029743877100026125
725.0, 0.0032181127240919548
726.0, 0.002734934350835781
727.0, 0.00382306429305661
728.0, 0.004480192274919367
729.0, 0.004503133124846469
730.0, 0.004766442587995872
731.0, 0.005301534914646786
732.0, 0.00547098211451703
733.0, 0.005737108664169386
734.0, 0.0071415892242053785
735.0, 0.008316126010791491
736.0, 0.009428486315855383
737.0, 0.010186270638812897
738.0, 0.010766612381710653
739.0, 0.011957688299348797
740.0, 0.013512716953925193
741.0, 0.014333815009996862
742.0, 0.015816279104657133
743.0, 0.016187954409716293
744.0, 0.017702990208601208
745.0, 0.02015616221161287
746.0, 0.021948783661153087
747.0, 0.023417821902012356
748.0, 0.025556614718607353
749.0, 0.02792367686622792
750.0, 0.030383924130109652
751.0, 0.03364917665374823
752.0, 0.036231210630527054
753.0, 0.03947470062432742
754.0, 0.04341656373560739
755.0, 0.04638487827346711
756.0, 0.051519430733629176
757.0, 0.057165653894494274
758.0, 0.06082308354592363
759.0, 0.06701200915013679
760.0, 0.0747519256051741
761.0, 0.08171546244628833
762.0, 0.0885288405356364
763.0, 0.09744214483879297
764.0, 0.10779777346359946
765.0, 0.1176068391954662
766.0, 0.12946807403149288
767.0, 0.1413204193671637
768.0, 0.1520600561821578
769.0, 0.16340563282096923
770.0, 0.1760584122576611
771.0, 0.18830528160811033
772.0, 0.1988463994485821
773.0, 0.20952372178105752
774.0, 0.21975061672206428
775.0, 0.23081748870202712
776.0, 0.2417988685293619
777.0, 0.25411040560241915
778.0, 0.26988769603204454
779.0, 0.2891890305534638
780.0, 0.3115753365339609
781.0, 0.3394071818683331
782.0, 0.3724149530177543
783.0, 0.4114472269910947
784.0, 0.4577193335381264
785.0, 0.5097507752464462
786.0, 0.5670192997556459
787.0, 0.6309932685272802
788.0, 0.7010069140364539
789.0, 0.7692270625844747
790.0, 0.8368242093839701
791.0, 0.8992385948851097
792.0, 0.9542596243659811
793.0, 0.9860911999907325
794.0, 0.9978617261882733
795.0, 0.992718487208853
796.0, 0.9548007041570291
797.0, 0.9118454690586165
798.0, 0.8433216666302561
799.0, 0.7632631826516568
800.0, 0.6783077245673343
801.0, 0.5953350798416096
802.0, 0.5182041704156046
803.0, 0.44833184416741084
804.0, 0.3867957179819234
805.0, 0.33326148971577085
806.0, 0.2868261960232179
807.0, 0.24787423508218137
808.0, 0.21355992489479203
809.0, 0.18585454657448258
810.0, 0.16325559706301118
811.0, 0.142798939451666
812.0, 0.12466730073276568
813.0, 0.1105947517514584
814.0, 0.0967582018697231
815.0, 0.08713139008977976
816.0, 0.07736698579900954
817.0, 0.06850644448300384
818.0, 0.06078266178816112
819.0, 0.054480300678193386
820.0, 0.04892123883000055
821.0, 0.043580085705558484
822.0, 0.0395022984084485
823.0, 0.03625923887476481
824.0, 0.03729460311985111
825.0, 0.032148150265339764
826.0, 0.027523161121366622
827.0, 0.024879423471459633
828.0, 0.02308418761394102
829.0, 0.021662176510673137
830.0, 0.020184940805240876
831.0, 0.01936257847684949
832.0, 0.017734573359964444
833.0, 0.01595426806861511
834.0, 0.0156029088692979
835.0, 0.015680648019869146
836.0, 0.014819383158996348
837.0, 0.013863305913144913
838.0, 0.013428008601685094
839.0, 0.012743137144273888
840.0, 0.012007881789229354
841.0, 0.010235238528508477
842.0, 0.009845877662262513
843.0, 0.009420953565614287
844.0, 0.00842824629458175
845.0, 0.007984992371870666
846.0, 0.007923355210012467
847.0, 0.007577151524744821
848.0, 0.007194410520944028
849.0, 0.006586486860598192
850.0, 0.005899509356620041
851.0, 0.005657564525036702
852.0, 0.005267036297307943
853.0, 0.004500807831860336
854.0, 0.003675262375217624
855.0, 0.0028569981757560876
856.0, 0.001869580644342234
857.0, 0.0010345799812632522
858.0, 0.0007230668921428055
859.0, 0.00014452754284944823
860.0, 0.0003519823745846437
861.0, 0.0008514848394122998
862.0, 0.0012981437942948513
863.0, 0.0014744868705415576
864.0, 0.0019176040959952986
865.0, 0.0023800950926524144
866.0, 0.002604770833452697
867.0, 0.0034114902170830465
868.0, 0.0034676342788650897
869.0, 0.003647394701166399
870.0, 0.003311332757600406
871.0, 0.002916822213863863
872.0, 0.0026057630428150034
873.0, 0.0024204436717306732
874.0, 0.0018840441909748157
875.0, 0.0013400558556983244
876.0, 0.0010661002881884958
877.0, 0.00015975110012839223
878.0, 0.0015074823973023118
879.0, 0.0026012566156080677
880.0, 0.0036156006714518855
881.0, 0.00439680799038964
882.0, 0.005139445408419009
883.0, 0.0057517054922012435
884.0, 0.0059429770776275575
885.0, 0.005948913165873204
886.0, 0.006003293240204587
887.0, 0.005541395641787527
888.0, 0.004771788661024568
889.0, 0.00441600680892362
890.0, 0.004352509390719237
891.0, 0.003932945059714373
892.0, 0.00360338601000211
893.0, 0.003054252737946982
894.0, 0.0024827718524128278
895.0, 0.0023152370585988284
896.0, 0.0023120592022726955
897.0, 0.0025088354719034933
898.0, 0.0026860515639954776
899.0, 0.0028319814886405043
900.0, 0.0037552459671490067
901.0, 0.0040160377454604105
902.0, 0.004780468902306937
903.0, 0.006111203642524296
904.0, 0.007198843310404861
905.0, 0.008100359184684363
906.0, 0.009122369476471626
907.0, 0.009983081659975314
908.0, 0.011338091254832665
909.0, 0.013032825601157986
910.0, 0.015674700841018012
911.0, 0.017413315896045663
912.0, 0.019802529362098226
913.0, 0.022397811315317467
914.0, 0.024350602129833733
915.0, 0.02703799233616029
916.0, 0.030728309825067853
917.0, 0.03368690590207311
918.0, 0.03610180248441616
919.0, 0.0393074113152736
920.0, 0.04244804586302569
921.0, 0.0461455748801414
922.0, 0.05022794613132835
923.0, 0.054083346065912793
924.0, 0.058724457534656216
925.0, 0.06407332784339767
926.0, 0.06984400990890909
927.0, 0.07683915002046166
928.0, 0.08380699471712358
929.0, 0.0927887723453645
930.0, 0.10492265508654017
931.0, 0.11538088835339065
932.0, 0.12975892667041677
933.0, 0.1459217430400901
934.0, 0.16397378301917062
935.0, 0.1825735342315391
936.0, 0.2008619171971512
937.0, 0.2201838236711837
938.0, 0.2383368288970456
939.0, 0.2560317945221374
940.0, 0.2709832559332579
941.0, 0.28427952708312426
942.0, 0.2921497217287256
943.0, 0.2967841347873329
944.0, 0.29769058501182233
945.0, 0.29303693762269595
946.0, 0.2854206731906347
947.0, 0.27633278029697
948.0, 0.26391514403525607
949.0, 0.2513886981212928
950.0, 0.23836960283633832
951.0, 0.22484402445972443
952.0, 0.2117303058585602
953.0, 0.19894469612146953
954.0, 0.1885219046347501
955.0, 0.1779961590741388
956.0, 0.1677484280995046
957.0, 0.15867260634269603
958.0, 0.14960432844398333
959.0, 0.1408129437046828
960.0, 0.13441583410597024
961.0, 0.1283064839279921
962.0, 0.1218668386994568
963.0, 0.11650739470115398
964.0, 0.11111542937722264
965.0, 0.10613435417094691
966.0, 0.10265095179738529
967.0, 0.0981726083353321
968.0, 0.09359816300106281
969.0, 0.0899941971737404
970.0, 0.08659275814309217
971.0, 0.08393387777528634
972.0, 0.08154705773343827
973.0, 0.07936504272303299
974.0, 0.07758805488811782
975.0, 0.07542961774496429
976.0, 0.07358813024482351
977.0, 0.07173391323120393
978.0, 0.068569982037977
979.0, 0.06515237758159627
980.0, 0.06189888322752467
981.0, 0.05768795266836379
982.0, 0.05345877921112439
983.0, 0.05019846069422429
984.0, 0.04511209045739283
985.0, 0.040394767932515785
986.0, 0.03711984491774493
987.0, 0.03380417609828862
988.0, 0.030376930069103476
989.0, 0.027149356975349943
990.0, 0.02448643991038623
991.0, 0.021987021807481695
992.0, 0.019507956361386712
993.0, 0.01756629960028602
994.0, 0.015982621502925762
995.0, 0.01434531996637641
996.0, 0.01346508616078842
997.0, 0.012074273821863126
998.0, 0.011253601372512722
999.0, 0.010063714173889368
1000.0, 0.009304799276170846
1001.0, 0.008771674761150386
1002.0, 0.00792664002199316
1003.0, 0.006941532792044112
1004.0, 0.006006062161921585
1005.0, 0.0055081532599965555
1006.0, 0.005141579567669946
1007.0, 0.004433800699414981
1008.0, 0.004005688212838126
1009.0, 0.003331466626899763
1010.0, 0.0029568540587758055
1011.0, 0.002570831821084578
1012.0, 0.00262752191714317
1013.0, 0.0016086035932842953
1014.0, 0.0012749704833903233
1015.0, 0.0013823744668325275
1016.0, 0.0011430557592332197
1017.0, 0.0009671065136118678
1018.0, 0.0007432258400388358
1019.0, 0.0002780941934985803
1020.0, 8.23830383380281e-05
1021.0, 5.25136565633212e-05
1022.0, 0.0002535006069707026
1023.0, 0.0007242951983800938
1024.0, 0.00045557686028910955
1025.0, 0.00031500898004227995
1026.0, 0.0005675554368235622
1027.0, 0.00026679465441436834
1028.0, 0.0005161718967204084
1029.0, 0.0005996096696856888
1030.0, 0.00040638352025424866
1031.0, 0.00027173710777801576
1032.0, 0.00038333653135497284
1033.0, 0.0005559491345412768
1034.0, 0.00027125681892738857
1035.0, 0.0005976765801789278
1036.0, 0.00043362503938505575
1037.0, 0.00029469006325240544
1038.0, 0.0006314781898314992
1039.0, 0.0006150564085877598
1040.0, 0.0008723126191406374
1041.0, 0.0005524850631492623
1042.0, 9.502613186819576e-05
1043.0, 0.00038384365413974213
1044.0, 0.00024579017653067025
1045.0, 0.000247333130738502
1046.0, 0.00024114777884144608
1047.0, 0.0003861057474606769
1048.0, 0.00042026446504700205
1049.0, 0.000283856537193243
1050.0, 5.350714118601782e-05
1051.0, 0.0002343218826282415
1052.0, 0.00026516489919264463
1053.0, 0.0004023800194192053
1054.0, 0.00028578300619384314
1055.0, 0.00039560284507794306
1056.0, 0.0011064846607706036
1057.0, 0.0009660038212043777
1058.0, 0.0008212484731265174
1059.0, 0.001029200995006378
1060.0, 0.0010104300257887209
1061.0, 0.0009427805909847798
1062.0, 0.0012065244757701085
1063.0, 0.0013111895771937985
1064.0, 0.001425477719524866
1065.0, 0.001806717557867399
1066.0, 0.001202546137472282
1067.0, 0.0018076791341798922
1068.0, 0.0016553214963502473
1069.0, 0.0014228192494445346
1070.0, 0.0013692583534476387
1071.0, 0.0015578917983036468
1072.0, 0.0019797898106001743
1073.0, 0.001769693115797357
1074.0, 0.0013515951852736405
1075.0, 0.0015705516107740853
1076.0, 0.0017569457448478915
1077.0, 0.0019041207809430156
1078.0, 0.002479424173520065
1079.0, 0.0018142016312203268
1080.0, 0.002142444724473278
1081.0, 0.0026835817600675657
1082.0, 0.0027538566519719164
1083.0, 0.0024790845871421
1084.0, 0.0020420927392494313
1085.0, 0.002081358222103141
1086.0, 0.002657761326048235
1087.0, 0.0027885708254595663
1088.0, 0.0027433063459265457
1089.0, 0.003316298787327504
1090.0, 0.00756114771473369
1091.0, 0.009373422759832013
1092.0, 0.004198725982891505
1093.0, 0.003401959761589315
1094.0, 0.0031731463097240484
1095.0, 0.0033821442666024477
1096.0, 0.0038245483900926102
1097.0, 0.003798425895850194
1098.0, 0.0036181021684571677
1099.0, 0.003593296437484033
1100.0, 0.0038399093053886045
1101.0, 0.0038221254387124154
1102.0, 0.004095927247941977
1103.0, 0.0038309486189003123
1104.0, 0.0037062348335149395
1105.0, 0.003667971527917232
1106.0, 0.003614057774492306
1107.0, 0.0037056703500256893
1108.0, 0.0035983031104878447
1109.0, 0.0035352732274638336
1110.0, 0.003816107644101394
1111.0, 0.0033593003258788937
1112.0, 0.0032800260050692225
1113.0, 0.0033894432609257595
1114.0, 0.0036614976268744084
1115.0, 0.003770661028976152
1116.0, 0.003957630010521045
1117.0, 0.00376004372043239
1118.0, 0.003602898434461213
1119.0, 0.0037763981429430955
1120.0, 0.0038640082970045303
1121.0, 0.0032567998212411444
1122.0, 0.0030032817200503696
1123.0, 0.0030485470410058276
1124.0, 0.00283379352667408
1125.0, 0.00278513744595217
1126.0, 0.00276123883079808
1127.0, 0.002608021369959718
1128.0, 0.002387486472978762
1129.0, 0.0027066853489567224
1130.0, 0.002678712528639342
1131.0, 0.002275462185323555
1132.0, 0.0022450320293455565
1133.0, 0.002318243917005937
1134.0, 0.0021788523016478046
1135.0, 0.0023250434824300496
1136.0, 0.001973683274693308
1137.0, 0.0015996713527299882
1138.0, 0.0015066624880112497
1139.0, 0.0010921663837453544
1140.0, 0.001361137129454031
1141.0, 0.0016372480483838566
1142.0, 0.0014389881950221677
1143.0, 0.0015196388770298626
1144.0, 0.0013311054548004028
1145.0, 0.0009527342786014475
1146.0, 0.0008417264381718636
1147.0, 0.000658313826819136
1148.0, 0.0009583371104878283
1149.0, 0.0007954049046137166
1150.0, 0.0009178503809646531
1151.0, 0.0006665038209146424
1152.0, 0.0010214062256530836
1153.0, 0.0008778560308850641
1154.0, 0.0008404786081016451
1155.0, 0.0005502261554448903
1156.0, 0.00025711875116096814
1157.0, 0.00048300669992928236
1158.0, 0.00027672239878941574
1159.0, 4.41220424602765e-05
1160.0, 0.0003516491792272226
1161.0, 0.00013024967792630416
1162.0, 0.00011784818925961047
1163.0, 0.0005005632984848467
1164.0, 0.00015091815509362517
1165.0, 0.0003394900760667097
1166.0, 0.000636827480183163
1167.0, 0.00012367284721951402
1168.0, 0.00020158862957585347
1169.0, 8.975935488210664e-05
1170.0, 0.0002581408288278402
1171.0, 5.35211829543705e-05
1172.0, 0.0004022045760632295
1173.0, 0.000414929502917088
1174.0, 0.00010828850530546832
1175.0, 0.00023274201309198895
1176.0, 0.0004092646270686184
1177.0, 0.0005597957631070873
1178.0, 0.0004080523087232049
1179.0, 0.00015177342800808607
1180.0, 0.0006728799269221027
1181.0, 0.0006011459446022348
1182.0, 0.00022473446711706937
1183.0, 0.0003773564534270678
1184.0, 0.00042762776688439434
1185.0, 0.0006699392725403213
1186.0, 0.0009628635793996464
1187.0, 0.0006906912611297605
1188.0, 0.0005927223987673042
1189.0, 0.0009329953656918737
1190.0, 0.0009065741646921765
1191.0, 0.0004689284403453859
1192.0, 0.0011300690809658792
1193.0, 0.0012549131367270156
1194.0, 0.0013268590479485031
1195.0, 0.0008597186854227526
1196.0, 0.0014469863528187047
1197.0, 0.0014407188314295855
1198.0, 0.0016500254886269324
1199.0, 0.0014427042357525322
1200.0, 0.0016596266794252359
1201.0, 0.0009999533953688128
1202.0, 0.0010269341552248902
1203.0, 0.0009821564773986428
1204.0, 0.0009379207563649192
1205.0, 0.0013969815490055245
1206.0, 0.0014201675171567195
1207.0, 0.001495724327058437
1208.0, 0.0019482579825066922
1209.0, 0.00206845874199238
1210.0, 0.0020789422425087473
1211.0, 0.0020763677272176866
1212.0, 0.002037360764468701
1213.0, 0.002341698204353127
1214.0, 0.002705490297955647
1215.0, 0.0028634093891670986
1216.0, 0.0033634478110423378
1217.0, 0.003440213092171717
1218.0, 0.0032000091120192916
1219.0, 0.003016838058558218
1220.0, 0.0038179503530442163
1221.0, 0.00376376517770402
1222.0, 0.003606545431811637
1223.0, 0.003684081207459547
1224.0, 0.0032801455055461093
1225.0, 0.0034051525959940486
1226.0, 0.0033114465614714848
1227.0, 0.0030156982671271848
1228.0, 0.002929756977355169
1229.0, 0.0023154548501385904
1230.0, 0.0020760721752798874
1231.0, 0.001559632529930827
1232.0, 0.001095502435643617
1233.0, 0.001318481400317254
1234.0, 0.001008742411032349
1235.0, 0.00032217223135376554
1236.0, 0.00047319785162476443
1237.0, 0.00037314880995067956
1238.0, 0.00027497128031776904
1239.0, 7.662747388832564e-05
1240.0, 2.7281374013114464e-05
1241.0, 0.00021225139465611285
1242.0, 0.0003741126953975183
1243.0, 0.0005564715438271977
1244.0, 0.0004557413922763498
1245.0, 0.00045153373308109827
1246.0, 0.00036443846782733766
1247.0, 0.0005498270867673705
1248.0, 0.001093787740030249
1249.0, 0.0011220272598180673
1250.0, 0.0010284594713078424
1251.0, 0.0013660607457429102
1252.0, 0.0018134823260052447
1253.0, 0.001538607083677101
1254.0, 0.0014949605327884315
1255.0, 0.0019142050375942211
1256.0, 0.0021376489476419005
1257.0, 0.0021913149067863745
1258.0, 0.001732372610155362
1259.0, 0.002125882558116984
1260.0, 0.0015790381985685052
1261.0, 0.001184840806329498
1262.0, 0.0012632877019165762
1263.0, 0.0011445103628537976
1264.0, 0.0004118288316987237
1265.0, 4.016757830624876e-05
1266.0, 8.316345538557033e-07
1267, 0.0
1268, 0.0
1269, 0.0
1270, 0.0
1271, 0.0
1272, 0.0
1273, 0.0
1274, 0.0
1275, 0.0
1276, 0.0
1277, 0.0
1278, 0.0
1279, 0.0
1280, 0.0
1281, 0.0
1282, 0.0
1283, 0.0
1284, 0.0
1285, 0.0
1286, 0.0
1287, 0.0
1288, 0.0
1289, 0.0
1290, 0.0
1291, 0.0
1292, 0.0
1293, 0.0
1294, 0.0
1295, 0.0
1296, 0.0
1297, 0.0
1298, 0.0
1299, 0.0
1300, 0.0
1301, 0.0
1302, 0.0
1303, 0.0
1304, 0.0
1305, 0.0
1306, 0.0
1307, 0.0
1308, 0.0
1309, 0.0
1310, 0.0
1311, 0.0
1312, 0.0
1313, 0.0
1314, 0.0
1315, 0.0
1316, 0.0
1317, 0.0
1318, 0.0
1319, 0.0
1320, 0.0
1321, 0.0
1322, 0.0
1323, 0.0
1324, 0.0
1325, 0.0
1326, 0.0
1327, 0.0
1328, 0.0
1329, 0.0
1330, 0.0
1331, 0.0
1332, 0.0
1333, 0.0
1334, 0.0
1335, 0.0
1336, 0.0
1337, 0.0
1338, 0.0
1339, 0.0
1340, 0.0
1341, 0.0
1342, 0.0
1343, 0.0
1344, 0.0
1345, 0.0
1346, 0.0
1347, 0.0
1348, 0.0
1349, 0.0
1350, 0.0
1351, 0.0
1352, 0.0
1353, 0.0
1354, 0.0
1355, 0.0
1356, 0.0
1357, 0.0
1358, 0.0
1359, 0.0
1360, 0.0
1361, 0.0
1362, 0.0
1363, 0.0
1364, 0.0
1365, 0.0
1366, 0.0
1367, 0.0
1368, 0.0
1369, 0.0
1370, 0.0
1371, 0.0
1372, 0.0
1373, 0.0
1374, 0.0
1375, 0.0
1376, 0.0
1377, 0.0
1378, 0.0
1379, 0.0
1380, 0.0
1381, 0.0
1382, 0.0
1383, 0.0
1384, 0.0
1385, 0.0
1386, 0.0
1387, 0.0
1388, 0.0
1389, 0.0
1390, 0.0
1391, 0.0
1392, 0.0
1393, 0.0
1394, 0.0
1395, 0.0
1396, 0.0
1397, 0.0
1398, 0.0
1399, 0.0
1400, 0.0
1401, 0.0
1402, 0.0
1403, 0.0
1404, 0.0
1405, 0.0
1406, 0.0
1407, 0.0
1408, 0.0
1409, 0.0
1410, 0.0
1411, 0.0
1412, 0.0
1413, 0.0
1414, 0.0
1415, 0.0
1416, 0.0
1417, 0.0
1418, 0.0
1419, 0.0
1420, 0.0
1421, 0.0
1422, 0.0
1423, 0.0
1424, 0.0
1425, 0.0
1426, 0.0
1427, 0.0
1428, 0.0
1429, 0.0
1430, 0.0
1431, 0.0
1432, 0.0
1433, 0.0
1434, 0.0
1435, 0.0
1436, 0.0
1437, 0.0
1438, 0.0
1439, 0.0
1440, 0.0
1441, 0.0
1442, 0.0
1443, 0.0
1444, 0.0
1445, 0.0
1446, 0.0
1447, 0.0
1448, 0.0
1449, 0.0
1450, 0.0
1451, 0.0
1452, 0.0
1453, 0.0
1454, 0.0
1455, 0.0
1456, 0.0
1457, 0.0
1458, 0.0
1459, 0.0
1460, 0.0
1461, 0.0
1462, 0.0
1463, 0.0
1464, 0.0
1465, 0.0
1466, 0.0
1467, 0.0
1468, 0.0
1469, 0.0
1470, 0.0
1471, 0.0
1472, 0.0
1473, 0.0
1474, 0.0
1475, 0.0
1476, 0.0
1477, 0.0
1478, 0.0
1479, 0.0
1480, 0.0
1481, 0.0
1482, 0.0
1483, 0.0
1484, 0.0
1485, 0.0
1486, 0.0
1487, 0.0
1488, 0.0
1489, 0.0
1490, 0.0
1491, 0.0
1492, 0.0
1493, 0.0
1494, 0.0
1495, 0.0
1496, 0.0
1497, 0.0
1498, 0.0
1499, 0.0
1500, 0.0
1501, 0.0
1502, 0.0
1503, 0.0
1504, 0.0
1505, 0.0
1506, 0.0
1507, 0.0
1508, 0.0
1509, 0.0
1510, 0.0
1511, 0.0
1512, 0.0
1513, 0.0
1514, 0.0
1515, 0.0
1516, 0.0
1517, 0.0
1518, 0.0
1519, 0.0
1520, 0.0
1521, 0.0
1522, 0.0
1523, 0.0
1524, 0.0
1525, 0.0
1526, 0.0
1527, 0.0
1528, 0.0
1529, 0.0
1530, 0.0
1531, 0.0
1532, 0.0
1533, 0.0
1534, 0.0
1535, 0.0
1536, 0.0
1537, 0.0
1538, 0.0
1539, 0.0
1540, 0.0
1541, 0.0
1542, 0.0
1543, 0.0
1544, 0.0
1545, 0.0
1546, 0.0
1547, 0.0
1548, 0.0
1549, 0.0
1550, 0.0
1551, 0.0
1552, 0.0
1553, 0.0
1554, 0.0
1555, 0.0
1556, 0.0
1557, 0.0
1558, 0.0
1559, 0.0
1560, 0.0
1561, 0.0
1562, 0.0
1563, 0.0
1564, 0.0
1565, 0.0
1566, 0.0
1567, 0.0
1568, 0.0
1569, 0.0
1570, 0.0
1571, 0.0
1572, 0.0
1573, 0.0
1574, 0.0
1575, 0.0
1576, 0.0
1577, 0.0
1578, 0.0
1579, 0.0
1580, 0.0
1581, 0.0
1582, 0.0
1583, 0.0
1584, 0.0
1585, 0.0
1586, 0.0
1587, 0.0
1588, 0.0
1589, 0.0
1590, 0.0
1591, 0.0
1592, 0.0
1593, 0.0
1594, 0.0
1595, 0.0
1596, 0.0
1597, 0.0
1598, 0.0
1599, 0.0
