30, 0.0
31, 0.0
32, 0.0
33, 0.0
34, 0.0
35, 0.0
36, 0.0
37, 0.0
38, 0.0
39, 0.0
40, 0.0
41, 0.0
42, 0.0
43, 0.0
44, 0.0
45, 0.0
46, 0.0
47, 0.0
48, 0.0
49, 0.0
50, 0.0
51, 0.0
52, 0.0
53, 0.0
54, 0.0
55, 0.0
56, 0.0
57, 0.0
58, 0.0
59, 0.0
60, 0.0
61, 0.0
62, 0.0
63, 0.0
64, 0.0
65, 0.0
66, 0.0
67, 0.0
68, 0.0
69, 0.0
70, 0.0
71, 0.0
72, 0.0
73, 0.0
74, 0.0
75, 0.0
76, 0.0
77, 0.0
78, 0.0
79, 0.0
80, 0.0
81, 0.0
82, 0.0
83, 0.0
84, 0.0
85, 0.0
86, 0.0
87, 0.0
88, 0.0
89, 0.0
90, 0.0
91, 0.0
92, 0.0
93, 0.0
94, 0.0
95, 0.0
96, 0.0
97, 0.0
98, 0.0
99, 0.0
100, 0.0
101, 0.0
102, 0.0
103, 0.0
104, 0.0
105, 0.0
106, 0.0
107, 0.0
108, 0.0
109, 0.0
110, 0.0
111, 0.0
112, 0.0
113, 0.0
114, 0.0
115, 0.0
116, 0.0
117, 0.0
118, 0.0
119, 0.0
120, 0.0
121, 0.0
122, 0.0
123, 0.0
124, 0.0
125, 0.0
126, 0.0
127, 0.0
128, 0.0
129, 0.0
130, 0.0
131, 0.0
132, 0.0
133, 0.0
134, 0.0
135, 0.0
136, 0.0
137, 0.0
138, 0.0
139, 0.0
140, 0.0
141, 0.0
142, 0.0
143, 0.0
144, 0.0
145, 0.0
146, 0.0
147, 0.0
148.0, 0.005767380914593627
149.0, 0.017578729380696177
150.0, 0.002240748902707236
151.0, 0.029062647267324153
152.0, 0.05252096270229815
153.0, 0.05596538830868453
154.0, 0.042375183903057105
155.0, 0.03868853591263428
156.0, 0.05213681722986078
157.0, 0.049595068798444844
158.0, 0.044057342810055876
159.0, 0.04146853852344239
160.0, 0.04242365396973974
161.0, 0.04724412229284218
162.0, 0.06688680336616919
163.0, 0.08414668695697555
164.0, 0.09780463932925129
165.0, 0.10874522836849175
166.0, 0.11397098552596492
167.0, 0.10476109471970159
168.0, 0.09800141519780363
169.0, 0.10343824266881456
170.0, 0.11780023654176464
171.0, 0.12661798199904414
172.0, 0.11223262984810856
173.0, 0.09269790424751155
174.0, 0.0835641988138787
175.0, 0.07656139193378063
176.0, 0.06279005194619414
177.0, 0.054295320525274075
178.0, 0.04731739959837237
179.0, 0.04296461098491927
180.0, 0.03543749572187434
181.0, 0.025939408337183695
182.0, 0.022850466273405708
183.0, 0.025129750919462686
184.0, 0.015906944816136973
185.0, 0.018991868421205687
186.0, 0.030146269291669886
187.0, 0.03770909101032288
188.0, 0.04123427955332919
189.0, 0.05361035116575696
190.0, 0.06836306009133464
191.0, 0.07990978038339641
192.0, 0.08815473103249365
193.0, 0.09861471066061464
194.0, 0.10875855790262409
195.0, 0.11645815820311474
196.0, 0.1252941750059738
197.0, 0.136466048177712
198.0, 0.14945610491317227
199.0, 0.16138198493962633
200.0, 0.1719073095793874
201.0, 0.18708276824427747
202.0, 0.19121649770686594
203.0, 0.1866756108461755
204.0, 0.19257651273336115
205.0, 0.16378376967349176
206.0, 0.1276736767686542
207.0, 0.10308129520327769
208.0, 0.09781321343464774
209.0, 0.1064862830995517
210.0, 0.09935330758349535
211.0, 0.11732012209424225
212.0, 0.13215293903552225
213.0, 0.14398621786887314
214.0, 0.15536250582971034
215.0, 0.16787203206186144
216.0, 0.16828778390257337
217.0, 0.1845757065596739
218.0, 0.1960115474725531
219.0, 0.20278813448503136
220.0, 0.2122176840513282
221.0, 0.2340650950545086
222.0, 0.2499671158347091
223.0, 0.260773092849125
224.0, 0.2739932836878407
225.0, 0.28787555040426344
226.0, 0.2983041743257665
227.0, 0.3278131342097483
228.0, 0.3460435925399741
229.0, 0.3551499694602607
230.0, 0.37735234583518906
231.0, 0.4187045926100871
232.0, 0.4547126415085854
233.0, 0.4347543533053869
234.0, 0.43072392182047664
235.0, 0.4390328508157725
236.0, 0.4567809140706211
237.0, 0.4780533813860191
238.0, 0.48550819111085153
239.0, 0.4854618787331187
240.0, 0.5147087890910624
241.0, 0.5312888296733567
242.0, 0.5239113776614813
243.0, 0.5189848804034828
244.0, 0.5390443866445462
245.0, 0.5501035003202097
246.0, 0.5555222552591195
247.0, 0.5565372638577402
248.0, 0.5568469234758476
249.0, 0.565308197550505
250.0, 0.5684543230018636
251.0, 0.5720667185416706
252.0, 0.5690851770602873
253.0, 0.5649322794081841
254.0, 0.5683501547041462
255.0, 0.5717711260540748
256.0, 0.5744249423934041
257.0, 0.5665245129232697
258.0, 0.5532062294415905
259.0, 0.5371798205126966
260.0, 0.5163195306507462
261.0, 0.48642668419053553
262.0, 0.456063007971013
263.0, 0.42115099205736917
264.0, 0.38691349562544786
265.0, 0.35653106841886856
266.0, 0.32420969207171474
267.0, 0.28967347090619644
268.0, 0.26629108646446603
269.0, 0.2369070898524724
270.0, 0.20982046807516128
271.0, 0.19583671004101477
272.0, 0.16469199798237713
273.0, 0.15474580441205807
274.0, 0.14087239309936378
275.0, 0.12523994211190315
276.0, 0.11269307033023306
277.0, 0.10533420872691243
278.0, 0.08382577898267753
279.0, 0.07631518188947291
280.0, 0.06320393771217896
281.0, 0.04856905719765832
282.0, 0.03667059543289695
283.0, 0.024942959540684193
284.0, 0.016602322609873835
285.0, 0.015807394390991193
286.0, 0.014637836622677616
287.0, 0.009866291543355122
288.0, 0.00308984462488998
289.0, 0.002492986287450878
290.0, 0.005778346871628459
291.0, 0.0037690443545693223
292.0, 0.0018596406608010255
293.0, 0.002859428162237162
294.0, 0.0058363840386220795
295.0, 0.0031394223773803485
296.0, 0.0041882725785450355
297.0, 0.0033564358035309536
298.0, 0.00437553449266001
299.0, 0.005483608599963535
300.0, 0.0017349311138290927
301.0, 0.003686202138153059
302.0, 0.005928328534337859
303.0, 0.004162156548840182
304.0, 0.0028756204512820896
305.0, 0.0052723055917176815
306.0, 0.010367894705751932
307.0, 0.012488187012704165
308.0, 0.005155503049579894
309.0, 0.005845417935870016
310.0, 0.00805636530236113
311.0, 0.0058820036802911336
312.0, 0.006187624099762596
313.0, 0.013207800387911032
314.0, 0.012447659459437075
315.0, 0.006835390945998675
316.0, 0.002123746781444013
317.0, 0.002070536730896883
318.0, 0.0032827092639156497
319.0, 0.001628323974218364
320.0, 0.010801691963470762
321.0, 0.015103048700238956
322.0, 0.009805765585604934
323.0, 0.0007364755606794394
324.0, 0.0048610900200537575
325.0, 0.026575642797158024
326.0, 0.013085705298814476
327.0, 0.0027374634785339727
328.0, 0.005181243523962476
329.0, 0.00697009040298944
330.0, 0.0008015569491816553
331.0, 0.01076692070558735
332.0, 0.014058493121461981
333.0, 0.01594152517158403
334.0, 0.01858789212721378
335.0, 0.018995593391650682
336.0, 0.01278050416578207
337.0, 0.02222118299378374
338.0, 0.031747546477663785
339.0, 0.03337007123238275
340.0, 0.0325787993298537
341.0, 0.0421980123800528
342.0, 0.043276870870792905
343.0, 0.05023508408552647
344.0, 0.051388679990116634
345.0, 0.051743316599771716
346.0, 0.05430908398235539
347.0, 0.05724591898785419
348.0, 0.06604487378428041
349.0, 0.05943987951868121
350.0, 0.06285800075276356
351.0, 0.07123229164811834
352.0, 0.07407253416695517
353.0, 0.06556341552454553
354.0, 0.0694523508509359
355.0, 0.07002189955258488
356.0, 0.07354717170058571
357.0, 0.07726884244868677
358.0, 0.08008867264294113
359.0, 0.0849264462592116
360.0, 0.0834560370731025
361.0, 0.08186873070245936
362.0, 0.08464095024357293
363.0, 0.08536636065479641
364.0, 0.08183203979911269
365.0, 0.07990571684296723
366.0, 0.06753862688816334
367.0, 0.08068931520432146
368.0, 0.07946178998651791
369.0, 0.07393611828075068
370.0, 0.07505659279679125
371.0, 0.07700273102516567
372.0, 0.07447583680229049
373.0, 0.07779196062311185
374.0, 0.08273830436832792
375.0, 0.07957556488177592
376.0, 0.07285344932157178
377.0, 0.08238317113197466
378.0, 0.07184328447402864
379.0, 0.07752920259533544
380.0, 0.08390339037173562
381.0, 0.08367794335858275
382.0, 0.08084968162669535
383.0, 0.08820202991829725
384.0, 0.09341230387635227
385.0, 0.09106120142608551
386.0, 0.0952655539395027
387.0, 0.10029279842717462
388.0, 0.10353082089759942
389.0, 0.10958985398446133
390.0, 0.11078105170470895
391.0, 0.10866307718007669
392.0, 0.11040568076801344
393.0, 0.11199432765391243
394.0, 0.11255339167086854
395.0, 0.11599483847676849
396.0, 0.12197181711023442
397.0, 0.1255759334516001
398.0, 0.12889976749495252
399.0, 0.12993975298126048
400.0, 0.1307032084760795
401.0, 0.13352671588189427
402.0, 0.12147016646504
403.0, 0.1237671358739049
404.0, 0.12900219846752647
405.0, 0.13965900565587677
406.0, 0.1425468308302036
407.0, 0.12685888971828024
408.0, 0.13896536297502332
409.0, 0.143928911726626
410.0, 0.14751342307456944
411.0, 0.15001808246517645
412.0, 0.14945244485089254
413.0, 0.1456882199601248
414.0, 0.1471698000865215
415.0, 0.1539788390756403
416.0, 0.16245155574978948
417.0, 0.1623853261968697
418.0, 0.15417354780257547
419.0, 0.14644085114581137
420.0, 0.1518256767715151
421.0, 0.13840919285389586
422.0, 0.14025338362909903
423.0, 0.14372899097132102
424.0, 0.13802020488583233
425.0, 0.12554836229938487
426.0, 0.125390581707484
427.0, 0.12039407134507407
428.0, 0.11019847553396223
429.0, 0.10304605359182337
430.0, 0.09638617426526294
431.0, 0.08809282731099595
432.0, 0.08088667007801864
433.0, 0.08316542701723557
434.0, 0.06818596604670084
435.0, 0.05581079308157209
436.0, 0.05079772306758497
437.0, 0.047851305748413446
438.0, 0.03731077948868091
439.0, 0.019639040926048904
440.0, 0.022554417754954346
441.0, 0.022447823348347756
442.0, 0.022696306516652748
443.0, 0.016848469118642254
444.0, 0.0014581794401648297
445.0, 0.0017583680611612286
446.0, 0.002584391159484487
447.0, 0.005218038039194542
448.0, 0.00794245769629176
449.0, 0.0070544132467332075
450.0, 0.003296139190612278
451.0, 0.005907784814400657
452.0, 0.015660141971688742
453.0, 0.008392827045344733
454.0, 0.0063206824934254925
455.0, 0.012313980930868827
456.0, 0.01958635989436499
457.0, 0.019697770699377202
458.0, 0.02461021779612771
459.0, 0.019277765526516753
460.0, 0.028844776688826384
461.0, 0.033395328973879174
462.0, 0.03276962860749723
463.0, 0.03942310586185087
464.0, 0.0378073748688152
465.0, 0.03317115706658916
466.0, 0.03618862200667428
467.0, 0.036858006606596105
468.0, 0.03490308529761736
469.0, 0.03632882633018481
470.0, 0.04680466676165138
471.0, 0.040861795124633636
472.0, 0.03468567422394401
473.0, 0.03598102578196662
474.0, 0.036810495519266004
475.0, 0.03158050592761987
476.0, 0.024932593883568856
477.0, 0.03388894333665614
478.0, 0.03730175534192423
479.0, 0.030051770523376667
480.0, 0.02392047493664253
481.0, 0.01943882630990826
482.0, 0.012194964463710998
483.0, 0.011708255858570866
484.0, 0.02432851200957161
485.0, 0.01743316347046736
486.0, 0.01918597443012889
487.0, 0.02595300961771584
488.0, 0.028205632742543445
489.0, 0.02811902361052411
490.0, 0.016336814484350842
491.0, 0.017644189887149834
492.0, 0.013189565227704302
493.0, 0.005793931270715067
494.0, 0.00213650609025024
495.0, 0.0050794062280188085
496.0, 0.005799431461348062
497.0, 0.003429396988575341
498.0, 0.0013464176244560137
499.0, 0.007052949514814421
500.0, 0.012332049078266129
501.0, 0.01033621019345452
502.0, 0.009553726614279123
503.0, 0.004255115241272325
504.0, 0.0012633224776822426
505.0, 0.0013290412509323805
506.0, 0.0020781842193853613
507.0, 0.0048247696070574594
508.0, 0.01149237888048712
509.0, 0.009940774711477668
510.0, 0.007613647710017807
511.0, 0.005194765269491481
512.0, 0.00647915528610759
513.0, 0.011973559564633128
514.0, 0.015337308429897467
515.0, 0.004790752687837277
516.0, 0.006654342398910548
517.0, 0.012144570688462152
518.0, 0.009098323631452028
519.0, 0.007267285110218416
520.0, 0.007958989940249833
521.0, 0.004351127518677655
522.0, 0.0034259760376180214
523.0, 0.01351037215002943
524.0, 0.01582320611936207
525.0, 0.010391363849354228
526.0, 0.010262207717723112
527.0, 0.015404603884821413
528.0, 0.0033035979676811367
529.0, 0.0009007798728981437
530.0, 0.0024404393145276712
531.0, 0.001174669204692123
532.0, 0.0016678731753750349
533.0, 0.0062708973876375255
534.0, 0.01243264528247314
535.0, 0.013520431942994224
536.0, 0.021266989195385222
537.0, 0.02787908844973961
538.0, 0.02992779768447462
539.0, 0.034370848701580956
540.0, 0.04506425497322842
541.0, 0.05753207173447068
542.0, 0.0656444751883647
543.0, 0.0715067932591947
544.0, 0.0875342758375845
545.0, 0.09666936232843523
546.0, 0.1095433701271075
547.0, 0.13355454667112013
548.0, 0.14315262443899693
549.0, 0.1550183666764964
550.0, 0.1612523117304901
551.0, 0.18246616725070813
552.0, 0.20258809564425226
553.0, 0.21457507432511957
554.0, 0.22147141686882416
555.0, 0.2159053559146422
556.0, 0.23843646814938801
557.0, 0.24093261307587668
558.0, 0.24405055896813582
559.0, 0.24683424429679957
560.0, 0.24755393100518608
561.0, 0.2486536483980074
562.0, 0.23458614358864566
563.0, 0.22356175461728126
564.0, 0.21729870916398525
565.0, 0.20963364996010045
566.0, 0.20077065660029408
567.0, 0.19326721028746796
568.0, 0.18705007763990258
569.0, 0.17624554161086722
570.0, 0.16493262741042766
571.0, 0.15522437356937874
572.0, 0.14685028720231091
573.0, 0.13858817481574115
574.0, 0.13105452957097946
575.0, 0.12854164158953732
576.0, 0.1199232688974768
577.0, 0.11782101908004274
578.0, 0.1103629346242813
579.0, 0.10748053671733131
580.0, 0.10810452201777108
581.0, 0.10350758993310384
582.0, 0.10073526476489697
583.0, 0.09961648845828036
584.0, 0.09746146734584192
585.0, 0.09522294229102855
586.0, 0.0941820172345124
587.0, 0.0944277298956425
588.0, 0.09497529398944529
589.0, 0.0957040770738105
590.0, 0.08636787932697435
591.0, 0.09279835894629825
592.0, 0.09157275986690971
593.0, 0.08808877277593023
594.0, 0.09111790678025972
595.0, 0.09843274293645675
596.0, 0.10459369164944464
597.0, 0.09455379312592473
598.0, 0.09317610008724557
599.0, 0.09142642764360942
600.0, 0.09262480648927733
601.0, 0.09641592131943238
602.0, 0.09250174158279009
603.0, 0.09016285134838672
604.0, 0.08748967055600251
605.0, 0.0876893335058871
606.0, 0.0890635577628948
607.0, 0.09179015838930876
608.0, 0.09517296120912141
609.0, 0.0969682036991316
610.0, 0.1038797587506897
611.0, 0.10485897382772448
612.0, 0.11109476733271945
613.0, 0.1117279404965475
614.0, 0.10854198634958429
615.0, 0.1079743950818478
616.0, 0.11041629527841058
617.0, 0.11128627302201238
618.0, 0.13439088415369105
619.0, 0.14787759685638302
620.0, 0.1364407573941438
621.0, 0.12950111347701754
622.0, 0.14126174788481902
623.0, 0.13545266716182033
624.0, 0.14629655074620054
625.0, 0.1506705747442465
626.0, 0.15557665645160315
627.0, 0.16094350248290137
628.0, 0.16567431592347165
629.0, 0.17026975528688013
630.0, 0.17780775782661046
631.0, 0.19119690550707555
632.0, 0.20377167192186438
633.0, 0.22345661573131517
634.0, 0.23967783552042873
635.0, 0.24620504439063642
636.0, 0.25346807456459186
637.0, 0.281564851167707
638.0, 0.29969358061557066
639.0, 0.30726331764520254
640.0, 0.3322770746119471
641.0, 0.35755375154962615
642.0, 0.380989654705696
643.0, 0.40803793957971235
644.0, 0.4405795768278999
645.0, 0.47212146729563265
646.0, 0.5236965028969883
647.0, 0.5553304701892766
648.0, 0.5817209954196002
649.0, 0.6064321873988057
650.0, 0.6288009288108947
651.0, 0.6482321767420975
652.0, 0.658322668089176
653.0, 0.6583747076160957
654.0, 0.6612077998083623
655.0, 0.6592527195890433
656.0, 0.6630585600043292
657.0, 0.6733944724495022
658.0, 0.6701516914361603
659.0, 0.6219848460756767
660.0, 0.6015191240077373
661.0, 0.5441328053511642
662.0, 0.5048298957036484
663.0, 0.47855394015804387
664.0, 0.4554586335070218
665.0, 0.44004166136980927
666.0, 0.4448003674396742
667.0, 0.42658255486973784
668.0, 0.42224283494702863
669.0, 0.41905505568283646
670.0, 0.41749945642335445
671.0, 0.4157211843679926
672.0, 0.41533907124445424
673.0, 0.4253751531648314
674.0, 0.4309631815403439
675.0, 0.44508783630561477
676.0, 0.4524264383857382
677.0, 0.4680516368767095
678.0, 0.4756183585003199
679.0, 0.4708730955730981
680.0, 0.47906729740472703
681.0, 0.49258125441418565
682.0, 0.5074116204980905
683.0, 0.5200312210329705
684.0, 0.5277744492978332
685.0, 0.5412535929553739
686.0, 0.5588968200737858
687.0, 0.5702295256284069
688.0, 0.5836169489583631
689.0, 0.6020382445557539
690.0, 0.6028929866098688
691.0, 0.6151394366457952
692.0, 0.6251614971930988
693.0, 0.6268450240755483
694.0, 0.6256796198906416
695.0, 0.6269735280953526
696.0, 0.6332576572063365
697.0, 0.6391796491440247
698.0, 0.6439689474961594
699.0, 0.654849054729678
700.0, 0.6601370926939211
701.0, 0.6594309067928392
702.0, 0.6677157954382617
703.0, 0.6672398933344661
704.0, 0.6686384614580696
705.0, 0.6661901965143113
706.0, 0.6653241232029393
707.0, 0.6686948091422139
708.0, 0.6715367834538164
709.0, 0.6688529844508802
710.0, 0.6660079528077706
711.0, 0.6671258676452517
712.0, 0.6555624076573753
713.0, 0.6395570042232049
714.0, 0.6282261616819628
715.0, 0.6237550511138211
716.0, 0.6193760081494741
717.0, 0.6070258852155036
718.0, 0.5985870317117701
719.0, 0.5896309522810712
720.0, 0.584008037905518
721.0, 0.570188330423473
722.0, 0.5473889685042023
723.0, 0.5265014122790295
724.0, 0.5161123110388559
725.0, 0.5059008871602296
726.0, 0.4799980169102489
727.0, 0.47935333010404774
728.0, 0.4707146401681713
729.0, 0.4506075631904913
730.0, 0.43193002943788983
731.0, 0.4211453135056274
732.0, 0.4094522767652381
733.0, 0.3886951150166139
734.0, 0.3674655148718726
735.0, 0.3503279966207155
736.0, 0.34450525418432876
737.0, 0.3343377810166747
738.0, 0.3224317237289109
739.0, 0.31542926976426994
740.0, 0.30274237155093175
741.0, 0.2933474947996298
742.0, 0.29430271190315493
743.0, 0.2813879997935076
744.0, 0.2717929948041975
745.0, 0.2685924246906325
746.0, 0.26466000101189946
747.0, 0.2554430299394932
748.0, 0.25022754762299865
749.0, 0.24715540427565283
750.0, 0.24367937832476036
751.0, 0.24314955165785546
752.0, 0.24172133324029027
753.0, 0.23709908387764958
754.0, 0.23204708574559527
755.0, 0.22937676985591954
756.0, 0.21875939071091297
757.0, 0.21516364773877006
758.0, 0.2072376201324608
759.0, 0.2082403565421211
760.0, 0.20290504517902633
761.0, 0.19068460342308305
762.0, 0.1836554089354955
763.0, 0.1855208039868974
764.0, 0.16740199352033422
765.0, 0.16811874823592532
766.0, 0.16382069082456416
767.0, 0.15522789760404637
768.0, 0.14536953926156054
769.0, 0.1399445272599301
770.0, 0.13632073028189134
771.0, 0.1219679730124207
772.0, 0.12432880177251328
773.0, 0.11231349610289072
774.0, 0.12007106459742073
775.0, 0.11282880218152727
776.0, 0.10607307348746976
777.0, 0.10378622461082879
778.0, 0.09460691640009826
779.0, 0.0859869273319278
780.0, 0.09040874888731645
781.0, 0.08766455496959745
782.0, 0.07756030306078295
783.0, 0.07891045692017933
784.0, 0.08385530490370441
785.0, 0.08444121330532088
786.0, 0.08256495659999666
787.0, 0.07929590543788116
788.0, 0.061729682618206924
789.0, 0.0659939248692819
790.0, 0.061158898408595
791.0, 0.0542743942760333
792.0, 0.05129293448168571
793.0, 0.05071380748503823
794.0, 0.047113795555892554
795.0, 0.040191690588064086
796.0, 0.04395926383243201
797.0, 0.03377904200171138
798.0, 0.033347673546222215
799.0, 0.027706048328135346
800.0, 0.020051699551947143
801.0, 0.022954029850050173
802.0, 0.03130093515766906
803.0, 0.011704288494511883
804.0, 0.011574712735945111
805.0, 0.002901030162022337
806.0, 0.014645090559909757
807.0, 0.0121531709276979
808.0, 0.003479803481011537
809.0, 0.003313905396342311
810.0, 0.007854684069561205
811.0, 0.0014613595976805936
812.0, 0.005472204483290171
813.0, 0.004847935000527714
814.0, 0.004513735270966238
815.0, 0.0033973561955779985
816.0, 0.008316146121603972
817.0, 0.0110876536013959
818.0, 0.004238782868564177
819.0, 0.004069310312224369
820.0, 0.020418569580202568
821.0, 0.021919050910890556
822.0, 0.018139207978643674
823.0, 0.013908335209793768
824.0, 0.013515407060708213
825.0, 0.014105069050290096
826.0, 0.012513984404838882
827.0, 0.011217369057031459
828.0, 0.009301893117043004
829.0, 0.0070716131882101185
830.0, 0.007893876250716666
831.0, 0.012198311615516842
832.0, 0.011941668340346679
833.0, 0.010892625590353954
834.0, 0.011876526701086755
835.0, 0.009557783247692884
836.0, 0.005232816827185998
837.0, 0.012568050346753377
838.0, 0.00456049080234195
839.0, 0.0063427367372945265
840.0, 0.010115670035500098
841.0, 0.00870410971623521
842.0, 0.0040778603882543245
843.0, 0.0027187337129134094
844.0, 0.004839470031884277
845.0, 0.0012419247487797437
846.0, 0.0018872618799695637
847.0, 0.007452380066638743
848.0, 0.016734918322668994
849.0, 0.021886252077127168
850.0, 0.02163529154824546
851.0, 0.02277508973686619
852.0, 0.02939253882362901
853.0, 0.025971608578853885
854.0, 0.03391240826548865
855.0, 0.04131331052221725
856.0, 0.04524892966119871
857.0, 0.05636312499777001
858.0, 0.0638437520710603
859.0, 0.06567331728223087
860.0, 0.07634336738816683
861.0, 0.09255183221733823
862.0, 0.09081325512514311
863.0, 0.09905668102341006
864.0, 0.10882441240983147
865.0, 0.11517045409728316
866.0, 0.12176357926588469
867.0, 0.13296750481829336
868.0, 0.14602694239672948
869.0, 0.15439312836590924
870.0, 0.1693288439506475
871.0, 0.18785302522881364
872.0, 0.1893642162151444
873.0, 0.2182567460304782
874.0, 0.23233557525627813
875.0, 0.24071623006055776
876.0, 0.25904086626139233
877.0, 0.2737574620997694
878.0, 0.2739364271126196
879.0, 0.3056221477657096
880.0, 0.3131112545388364
881.0, 0.3277645789841974
882.0, 0.343368903552564
883.0, 0.36285033073012235
884.0, 0.3798240824818791
885.0, 0.3962736943168803
886.0, 0.4217875448148809
887.0, 0.43035346537467467
888.0, 0.443345035823425
889.0, 0.4793639458570838
890.0, 0.49623230929677203
891.0, 0.5134129563443554
892.0, 0.5340303854634683
893.0, 0.5517188804957542
894.0, 0.5681344224251893
895.0, 0.5907027844932169
896.0, 0.5965676998406598
897.0, 0.6301689635041703
898.0, 0.6409363966716941
899.0, 0.6620199587922245
900.0, 0.6836188453062403
901.0, 0.7103746235362488
902.0, 0.7361214721467667
903.0, 0.7521204059448726
904.0, 0.7752671667744935
905.0, 0.8068791998518883
906.0, 0.8195883681548508
907.0, 0.842440955054096
908.0, 0.8577399514168407
909.0, 0.8770294122808692
910.0, 0.8949074828496523
911.0, 0.9106988887364683
912.0, 0.928700992807873
913.0, 0.937134377263916
914.0, 0.9538627819772701
915.0, 0.9642249342274645
916.0, 0.9748708153207607
917.0, 0.9818696902500388
918.0, 0.9811208856086442
919.0, 0.9795660627559039
920.0, 0.9869956077819069
921.0, 0.9961815601894445
922.0, 0.9827870288502167
923.0, 0.9854593708630729
924.0, 0.9713002694266988
925.0, 0.9590304682752055
926.0, 0.9524486204359062
927.0, 0.9519413647670858
928.0, 0.9456057377361938
929.0, 0.930557142869786
930.0, 0.9165432942279034
931.0, 0.9041573500311267
932.0, 0.872583312663679
933.0, 0.8663562648210347
934.0, 0.845671276525752
935.0, 0.8306317209299586
936.0, 0.8164842100391776
937.0, 0.7957935046084681
938.0, 0.7748796606513844
939.0, 0.7559992380834243
940.0, 0.7206168803234568
941.0, 0.6841890507521463
942.0, 0.664814784456922
943.0, 0.6406151080609872
944.0, 0.6235991518857256
945.0, 0.6063456807527796
946.0, 0.5775971818423921
947.0, 0.5532006980556035
948.0, 0.5392316232372989
949.0, 0.5105405992606871
950.0, 0.49839560840369995
951.0, 0.458570712248307
952.0, 0.44931965704334675
953.0, 0.41615676462139733
954.0, 0.3953607561116029
955.0, 0.37430244027410964
956.0, 0.35133236948367147
957.0, 0.33005169147997565
958.0, 0.3049886678693883
959.0, 0.2911311252664049
960.0, 0.27710230480592346
961.0, 0.246147277469993
962.0, 0.24411915356068492
963.0, 0.222013392994276
964.0, 0.20132194353971006
965.0, 0.18240232945896911
966.0, 0.15927629933345386
967.0, 0.1433533495371536
968.0, 0.14316001350529398
969.0, 0.12542930263622978
970.0, 0.11389884840579949
971.0, 0.09580368356342249
972.0, 0.09878044038740647
973.0, 0.09429510138618591
974.0, 0.08338195349458419
975.0, 0.07603344584154037
976.0, 0.07298433490488505
977.0, 0.06929159394254017
978.0, 0.06561265779421058
979.0, 0.0600925637041166
980.0, 0.05323879795559598
981.0, 0.050194763570763044
982.0, 0.047956355624719935
983.0, 0.049707367031717624
984.0, 0.050628966506118464
985.0, 0.047383096002057284
986.0, 0.04563027096096003
987.0, 0.05036087022675802
988.0, 0.04637895332329828
989.0, 0.05109785210053798
990.0, 0.05195372316023641
991.0, 0.04728092480641365
992.0, 0.04985391537440996
993.0, 0.0521128444211061
994.0, 0.05535412979701548
995.0, 0.06038355063442274
996.0, 0.06081019150927992
997.0, 0.05959907106262534
998.0, 0.06099959991090948
999.0, 0.06719229705347782
1000.0, 0.0742936220308549
1001.0, 0.0756049982443304
1002.0, 0.08153004105379158
1003.0, 0.08400317725096533
1004.0, 0.08642690652993619
1005.0, 0.09171337995132423
1006.0, 0.09432329455147713
1007.0, 0.1063190837840948
1008.0, 0.11397155975710088
1009.0, 0.11601474742502597
1010.0, 0.12135792308792664
1011.0, 0.12718240126919853
1012.0, 0.13386245102946967
1013.0, 0.14301560776503497
1014.0, 0.15017774842166007
1015.0, 0.15940901199644159
1016.0, 0.1767790048631194
1017.0, 0.1770807704379893
1018.0, 0.18096897037291843
1019.0, 0.18641668533356073
1020.0, 0.1869987682455442
1021.0, 0.19971176053968187
1022.0, 0.21646947841849978
1023.0, 0.21535381629850062
1024.0, 0.21565664688458755
1025.0, 0.23133611477810634
1026.0, 0.23353212887379093
1027.0, 0.22165269692846945
1028.0, 0.25103888856808243
1029.0, 0.22965099195609898
1030.0, 0.2288999721114009
1031.0, 0.23382891171837536
1032.0, 0.22224026443203682
1033.0, 0.2193469465761685
1034.0, 0.21587374301465148
1035.0, 0.20937358393374408
1036.0, 0.2164512604963321
1037.0, 0.20247106804479403
1038.0, 0.1972537763596601
1039.0, 0.1901015382731984
1040.0, 0.18450089632816202
1041.0, 0.19111338064774014
1042.0, 0.18117251359491027
1043.0, 0.16313100404614306
1044.0, 0.15820887537520345
1045.0, 0.1591680766795724
1046.0, 0.15154046353376702
1047.0, 0.14933282571239057
1048.0, 0.13415702926571518
1049.0, 0.12852174187306442
1050.0, 0.1250780219898187
1051.0, 0.1179028373276653
1052.0, 0.11292560708902796
1053.0, 0.10910133620585549
1054.0, 0.10453208809625449
1055.0, 0.09977302360886474
1056.0, 0.09810046813953434
1057.0, 0.09911732744032231
1058.0, 0.0941212390872533
1059.0, 0.09906413534868902
1060.0, 0.0890051191099456
1061.0, 0.08713198825268696
1062.0, 0.0886661975000131
1063.0, 0.09515804486386417
1064.0, 0.09055164608977635
1065.0, 0.08766852116268832
1066.0, 0.08991466482176769
1067.0, 0.08713315008006103
1068.0, 0.08962077103811601
1069.0, 0.07764314957391116
1070.0, 0.09343222418267011
1071.0, 0.09712204616005994
1072.0, 0.08774928819215212
1073.0, 0.08552866502801508
1074.0, 0.09335358911455709
1075.0, 0.09496183900772993
1076.0, 0.09420980299839815
1077.0, 0.0952125081592178
1078.0, 0.09151732493537315
1079.0, 0.09477489133998053
1080.0, 0.09035474541424393
1081.0, 0.09638873112802779
1082.0, 0.07921733542899242
1083.0, 0.07619516486093701
1084.0, 0.08761197010237942
1085.0, 0.08295503846100526
1086.0, 0.07631170343002064
1087.0, 0.07561353044488547
1088.0, 0.07434648621853451
1089.0, 0.07241421968543581
1090.0, 0.06460198515987366
1091.0, 0.06641426043197582
1092.0, 0.06309927095482688
1093.0, 0.06557976028642695
1094.0, 0.06341523268515607
1095.0, 0.06423546571094
1096.0, 0.06423123233415684
1097.0, 0.06489776996479042
1098.0, 0.06423964555611492
1099.0, 0.060330213806072855
1100.0, 0.05722246362086054
1101.0, 0.05526589048569188
1102.0, 0.052775408040388605
1103.0, 0.054537047443044516
1104.0, 0.04279353919770272
1105.0, 0.0527906466498436
1106.0, 0.045398899445765806
1107.0, 0.043358460404249725
1108.0, 0.04340854139298144
1109.0, 0.043760329027675356
1110.0, 0.04218873856471671
1111.0, 0.033022223419011225
1112.0, 0.029830676295042012
1113.0, 0.026696552364567243
1114.0, 0.008685284969025295
1115.0, 0.020115491230463772
1116.0, 0.027009298499728024
1117.0, 0.029158787294731876
1118.0, 0.01580245265865124
1119.0, 0.012128175650347517
1120.0, 0.014001061354281131
1121.0, 0.010355438520291155
1122.0, 0.010911603226748334
1123.0, 0.015840204223371332
1124.0, 0.0023599362309306895
1125.0, 0.012756118321960611
1126.0, 0.012480251831229262
1127.0, 0.016859520270410173
1128.0, 0.01249660115451663
1129.0, 0.008837987873075012
1130.0, 0.01310865067389457
1131.0, 0.017922263522346212
1132.0, 0.016237494339480896
1133.0, 0.009484173720919337
1134.0, 0.005597702793862131
1135.0, 0.011102888969303963
1136.0, 0.011359345875867937
1137.0, 0.0021833943355174697
1138.0, 0.005592817371651112
1139.0, 0.006764894556389397
1140.0, 0.0038233517620561326
1141.0, 0.0061510400489679104
1142.0, 0.009299896255467541
1143.0, 0.00582659244808192
1144.0, 0.0012824055145322702
1145.0, 0.001755469293716
1146.0, 0.0019523731119652898
1147.0, 0.0024828828382721783
1148.0, 0.005451633929272219
1149.0, 0.0019436681903367296
1150.0, 0.013466384979478486
1151.0, 0.003293331961335557
1152.0, 0.0013578435999441415
1153.0, 0.0038198455866461944
1154.0, 0.005516749653226374
1155.0, 0.006206174640350105
1156.0, 0.008697382549442854
1157.0, 0.010047229771545476
1158.0, 0.005395588746815284
1159.0, 0.003924471835062377
1160.0, 0.002493955434167661
1161.0, 0.00440113186059214
1162.0, 0.0030730587087567734
1163.0, 0.0010023339817849778
1164.0, 0.0024077650338824616
1165.0, 0.007096422854450749
1166.0, 0.004549196937280351
1167.0, 0.0011062334804468
1168.0, 0.005227385312626027
1169.0, 0.010713784068061828
1170.0, 0.009312407492741254
1171.0, 0.006170399110586682
1172.0, 0.0009550263179712018
1173.0, 0.008992382283215458
1174.0, 0.008143559398135037
1175.0, 0.006953178854003061
1176.0, 0.005642591871226566
1177.0, 0.0070028812475033874
1178.0, 0.012041781224366424
1179.0, 0.015526366694245824
1180.0, 0.011379447318187923
1181.0, 0.004368645281554407
1182.0, 0.0022143760095937465
1183.0, 0.002149478547661732
1184.0, 0.005718215015743721
1185.0, 0.006766392480157855
1186.0, 0.011500116071354236
1187.0, 0.001483999929460105
1188.0, 0.00633403569965949
1189.0, 0.002893767801179865
1190.0, 0.001089204551355294
1191.0, 0.0014899032146180715
1192.0, 0.002319420561171582
1193.0, 0.0033251700796973994
1194.0, 0.004265844211888608
1195.0, 0.005103285216841267
1196.0, 0.005673063813419264
1197.0, 0.004609772293124308
1198.0, 0.003246618833631881
1199.0, 0.003122416744065777
1200.0, 0.002061528013001789
1201.0, 0.0035555421804014035
1202.0, 0.009452408839419273
1203.0, 0.004384516749495551
1204.0, 0.004344785665612909
1205.0, 0.010356538337948034
1206.0, 0.007993794724042292
1207.0, 0.0032863014916779563
1208.0, 0.008596990766799546
1209.0, 0.007628879156843621
1210.0, 0.012378311839402316
1211.0, 0.0060937643470484045
1212.0, 0.005204418446295622
1213.0, 0.005813650481639278
1214.0, 0.002317053375639997
1215.0, 0.001039446025216856
1216.0, 0.004431615683685209
1217.0, 0.011989061579740837
1218.0, 0.013221150476029448
1219.0, 0.006530487156304473
1220.0, 0.0024178832706229676
1221.0, 0.004824324707276734
1222.0, 0.005575967494319633
1223.0, 0.0037391980677404573
1224.0, 0.01353221634518613
1225.0, 0.005437192568914295
1226.0, 0.006267302644712712
1227.0, 0.004200879845977619
1228.0, 0.004411726767061058
1229.0, 0.012269975874249033
1230.0, 0.011026687823383159
1231.0, 0.010781490118030285
1232.0, 0.007011746756058097
1233.0, 0.0032999569994664898
1234.0, 0.008288441511616727
1235.0, 0.007685647860584849
1236.0, 0.00689005206388682
1237.0, 0.012855136127729004
1238.0, 0.00970562391570046
1239.0, 0.00487657895469871
1240.0, 0.0014512249822013032
1241.0, 0.010549474741872494
1242.0, 0.018380137873129712
1243.0, 0.021632890092333625
1244.0, 0.00969934157774838
1245.0, 0.005847078666455478
1246.0, 0.008401241948314082
1247.0, 0.0051876137219617115
1248.0, 0.006898952730766281
1249.0, 0.012306696973747693
1250.0, 0.0034683967074698985
1251.0, 0.010480300141125514
1252.0, 0.011074757323196023
1253.0, 0.01658496818388001
1254.0, 0.011539131319886133
1255.0, 0.009005567186012132
1256.0, 0.015801937539906896
1257.0, 0.0202444057951207
1258.0, 0.017319125498523446
1259.0, 0.01117352984785323
1260.0, 0.006773794956453094
1261.0, 0.0053722235714886435
1262.0, 0.007332712596859344
1263.0, 0.008976296450962406
1264.0, 0.004877558315374738
1265.0, 0.011766432472694554
1266.0, 0.005798536953742079
1267.0, 0.021177240282254428
1268.0, 0.017554490795850825
1269.0, 0.011186088441774128
1270.0, 0.012795538501192392
1271.0, 0.01795428026695965
1272.0, 0.0160030647418931
1273.0, 0.017744336918482227
1274.0, 0.02065666450527279
1275.0, 0.017408437430398264
1276.0, 0.016276105989680857
1277.0, 0.01987710334244447
1278.0, 0.014973899622868528
1279.0, 0.009849848673963841
1280.0, 0.008240272319463298
1281.0, 0.018598315884169977
1282.0, 0.012841075588843355
1283.0, 0.010507840535063689
1284.0, 0.014021149767028005
1285.0, 0.008097606247804066
1286.0, 0.016415169623530335
1287.0, 0.013994887427027378
1288.0, 0.018725644912455774
1289.0, 0.015154259431699466
1290.0, 0.00831599635530424
1291.0, 0.013581826189710837
1292.0, 0.017912470413387317
1293.0, 0.017037523909776593
1294.0, 0.013471644893499588
1295.0, 0.01269608375824166
1296.0, 0.002498952704126989
1297.0, 0.014431674531914398
1298.0, 0.011587220604782901
1299.0, 0.023394836940340218
1300.0, 0.02300221031374241
1301.0, 0.0161340621085477
1302.0, 0.020062008705815378
1303.0, 0.016631146316107945
1304.0, 0.017452721602415466
1305.0, 0.01964749291805776
1306.0, 0.020167892260205572
1307.0, 0.024909702549604514
1308.0, 0.02490281322420204
1309.0, 0.0190605405458763
1310.0, 0.01746296946732369
1311.0, 0.016264043844313382
1312.0, 0.01488657197236217
1313.0, 0.013463465359552661
1314.0, 0.009808183230082243
1315.0, 0.011674828721614497
1316.0, 0.0089517225954822
1317.0, 0.010213452868431007
1318.0, 0.020688982764280262
1319.0, 0.021128447271930934
1320.0, 0.023965376379529436
1321.0, 0.02327293890811137
1322.0, 0.02283648279392402
1323.0, 0.024464019091605296
1324.0, 0.015291790549793776
1325.0, 0.015313957218820026
1326.0, 0.012564105879382241
1327.0, 0.013883651022562333
1328.0, 0.010096170349401036
1329.0, 0.009110301303269756
1330.0, 0.00475876213230747
1331.0, 0.006279511886514745
1332.0, 0.007451101467868702
1333.0, 0.009672825126501193
1334.0, 0.018151585584380632
1335.0, 0.017231910921682157
1336.0, 0.018701934547267887
1337.0, 0.020963798768601234
1338.0, 0.01915027527517942
1339.0, 0.01871343315009437
1340.0, 0.014772957137410545
1341.0, 0.0045847936779036536
1342.0, 0.007931878180335148
1343.0, 0.014023582814163518
1344.0, 0.005598389130897274
1345.0, 0.020208630615760743
1346.0, 0.011912419673494906
1347.0, 0.016353956936794062
1348.0, 0.011948254397255631
1349.0, 0.0121236466437353
1350.0, 0.013232617282280259
1351.0, 0.012948045602776
1352.0, 0.01746884445146885
1353.0, 0.01665167727430535
1354.0, 0.010542380307460892
1355.0, 0.00567263765587544
1356.0, 0.008941604196647199
1357.0, 0.014150752115556787
1358.0, 0.014783082785466434
1359.0, 0.018681481691997976
1360.0, 0.009982974950199335
1361.0, 0.010013307483549151
1362.0, 0.009344880246987201
1363.0, 0.02404585315956025
1364.0, 0.023772606815356565
1365.0, 0.02537215539827785
1366.0, 0.016697654495351176
1367.0, 0.01308325692951627
1368.0, 0.00438009849239893
1369.0, 0.011090884311465127
1370.0, 0.011142518110477445
1371.0, 0.013812638582365857
1372.0, 0.012508482886878341
1373.0, 0.010557006052245658
1374.0, 0.009983845901217718
1375.0, 0.007008633753298376
1376.0, 0.008357644490934549
1377.0, 0.009933360552456014
1378.0, 0.009384830576246027
1379.0, 0.007446727360728462
1380.0, 0.015797692023184987
1381.0, 0.002150444760003445
1382.0, 0.01470376405308275
1383.0, 0.010359877584492087
1384.0, 0.014806877286428096
1385.0, 0.008196066093420787
1386.0, 0.014381472947133513
1387.0, 0.01588946174280727
1388.0, 0.009778853768329905
1389.0, 0.01438585648099679
1390.0, 0.01599709929179026
1391.0, 0.01901097015754291
1392.0, 0.012258403124016808
1393.0, 0.003961286320747344
1394.0, 0.0052588593670400375
1395.0, 0.005579260163313511
1396.0, 0.014036243091923778
1397.0, 0.009715304163830017
1398.0, 0.01611683410046793
1399.0, 0.022758044985235454
1400.0, 0.018533281509858238
1401.0, 0.026793981380158094
1402.0, 0.013552931132835604
1403.0, 0.011552735077990699
1404.0, 0.006107040482410757
1405.0, 0.0021178177272503295
1406.0, 0.007610563632716253
1407.0, 0.011137960625772632
1408.0, 0.007004343244514871
1409.0, 0.010249737044243624
1410.0, 0.010861687003299215
1411.0, 0.01650490930790874
1412.0, 0.025079502519115112
1413.0, 0.02055563831825276
1414.0, 0.010474045530922998
1415.0, 0.007563705967208584
1416.0, 0.008860854159051412
1417.0, 0.011301844972844474
1418.0, 0.0018689721823841464
1419.0, 0.007066321513281949
1420.0, 0.01782812582186803
1421.0, 0.006183221821800788
1422.0, 0.010985652168866095
1423.0, 0.01639525863374544
1424.0, 0.016690935245617662
1425.0, 0.022565658735978017
1426.0, 0.006342961308562643
1427.0, 0.009383309173506495
1428.0, 0.0049062077876676205
1429.0, 0.009316321897907928
1430.0, 0.01132056789219536
1431.0, 0.008675160206448965
1432.0, 0.010777198222210571
1433.0, 0.013570936252981301
1434.0, 0.014958262680468161
1435.0, 0.0170752287397231
1436.0, 0.012732398957028344
1437.0, 0.009112958571458196
1438.0, 0.016368206888598934
1439.0, 0.010331652796021999
1440.0, 0.02043135236102395
1441.0, 0.019854127646149116
1442.0, 0.016343527814230402
1443.0, 0.023911834246885155
1444.0, 0.01856492068475561
1445.0, 0.011659327837385916
1446.0, 0.004110312766803576
1447.0, 0.011417482766200415
1448.0, 0.01322616437479818
1449.0, 0.013439964383294332
1450.0, 0.01679096950690244
1451.0, 0.02259385591870203
1452.0, 0.012464636938374074
1453.0, 0.011924378663971282
1454.0, 0.009857839136184555
1455.0, 0.011722812432064234
1456.0, 0.016263298561929308
1457.0, 0.01603701228998173
1458.0, 0.016047412700151874
1459.0, 0.01616169631998049
1460.0, 0.01700221823219941
1461.0, 0.012286748341919323
1462.0, 0.012141138806992802
1463.0, 0.008024264742521011
1464.0, 0.009885948788093249
1465.0, 0.01192171393470436
1466.0, 0.014272327636592825
1467.0, 0.020156529889930625
1468.0, 0.015309923957440607
1469.0, 0.021685146720313745
1470.0, 0.008963983336833632
1471.0, 0.01838579245627235
1472.0, 0.011893349110064247
1473.0, 0.016250410642460175
1474.0, 0.011965000068846023
1475.0, 0.0037002719994967924
1476.0, 0.008554358460606305
1477.0, 0.014880009896315034
1478.0, 0.015617560137778364
1479.0, 0.015644222417521822
1480.0, 0.010479162636813609
1481.0, 0.008076955765321166
1482.0, 0.015418970997618095
1483.0, 0.01691159557572956
1484.0, 0.008688111575617842
1485.0, 0.0043339046109211
1486.0, 0.006329443623941082
1487.0, 0.011859763816737662
1488.0, 0.016031079367214558
1489.0, 0.011423719507827905
1490.0, 0.004408983699717009
1491.0, 0.013129318781111548
1492.0, 0.006761288893178763
1493.0, 0.01894681658624124
1494.0, 0.0036548560037062694
1495.0, 0.015366689300679907
1496.0, 0.007549825159630175
1497.0, 0.01199661773174582
1498.0, 0.01872162448776014
1499.0, 0.010154489005092436
1500.0, 0.001997450784224822
1501.0, 0.012742289968893213
1502.0, 0.008950362661232848
1503.0, 0.012831074710922508
1504.0, 0.009892656370721335
1505.0, 0.01311754116784112
1506.0, 0.013796790459325454
1507.0, 0.004967522664508308
1508.0, 0.0025526989280872324
1509.0, 0.007379796369174347
1510.0, 0.011867764292034911
1511.0, 0.013063947706101704
1512.0, 0.01040126030697407
1513.0, 0.009259893845155916
1514.0, 0.00674348638551776
1515.0, 0.0014080253894509882
1516.0, 0.0036167272310687762
1517.0, 0.0044901348921022
1518.0, 0.007760889519330788
1519.0, 0.006980230294810896
1520.0, 0.012264105764796557
1521.0, 0.002359864824007468
1522.0, 0.014144556105459814
1523.0, 0.004292387578365706
1524.0, 0.009537054346981027
1525.0, 0.009338136394336817
1526.0, 0.004207552886772095
1527.0, 0.005740268975262173
1528.0, 0.010203429563048613
1529.0, 0.0023711436027188193
1530.0, 1.173354546871438e-05
1531, 0.0
1532, 0.0
1533, 0.0
1534, 0.0
1535, 0.0
1536, 0.0
1537, 0.0
1538, 0.0
1539, 0.0
1540, 0.0
1541, 0.0
1542, 0.0
1543, 0.0
1544, 0.0
1545, 0.0
1546, 0.0
1547, 0.0
1548, 0.0
1549, 0.0
1550, 0.0
1551, 0.0
1552, 0.0
1553, 0.0
1554, 0.0
1555, 0.0
1556, 0.0
1557, 0.0
1558, 0.0
1559, 0.0
1560, 0.0
1561, 0.0
1562, 0.0
1563, 0.0
1564, 0.0
1565, 0.0
1566, 0.0
1567, 0.0
1568, 0.0
1569, 0.0
1570, 0.0
1571, 0.0
1572, 0.0
1573, 0.0
1574, 0.0
1575, 0.0
1576, 0.0
1577, 0.0
1578, 0.0
1579, 0.0
1580, 0.0
1581, 0.0
1582, 0.0
1583, 0.0
1584, 0.0
1585, 0.0
1586, 0.0
1587, 0.0
1588, 0.0
1589, 0.0
1590, 0.0
1591, 0.0
1592, 0.0
1593, 0.0
1594, 0.0
1595, 0.0
1596, 0.0
1597, 0.0
1598, 0.0
1599, 0.0
