30, 0.0
31, 0.0
32, 0.0
33, 0.0
34, 0.0
35, 0.0
36, 0.0
37, 0.0
38, 0.0
39, 0.0
40, 0.0
41, 0.0
42, 0.0
43, 0.0
44, 0.0
45, 0.0
46, 0.0
47, 0.0
48, 0.0
49, 0.0
50, 0.0
51, 0.0
52, 0.0
53, 0.0
54, 0.0
55, 0.0
56, 0.0
57, 0.0
58, 0.0
59, 0.0
60, 0.0
61, 0.0
62, 0.0
63, 0.0
64, 0.0
65, 0.0
66, 0.0
67, 0.0
68, 0.0
69, 0.0
70, 0.0
71, 0.0
72, 0.0
73, 0.0
74, 0.0
75, 0.0
76, 0.0
77, 0.0
78, 0.0
79, 0.0
80, 0.0
81, 0.0
82, 0.0
83, 0.0
84, 0.0
85, 0.0
86, 0.0
87, 0.0
88, 0.0
89, 0.0
90, 0.0
91, 0.0
92, 0.0
93, 0.0
94, 0.0
95, 0.0
96, 0.0
97, 0.0
98, 0.0
99, 0.0
100, 0.0
101, 0.0
102, 0.0
103, 0.0
104, 0.0
105, 0.0
106, 0.0
107, 0.0
108, 0.0
109, 0.0
110, 0.0
111, 0.0
112, 0.0
113, 0.0
114, 0.0
115, 0.0
116, 0.0
117, 0.0
118, 0.0
119, 0.0
120, 0.0
121, 0.0
122.0, 0.001819154731063
123.0, 0.012334499997323004
124.0, 0.019415947245380996
125.0, 0.02205836275641582
126.0, 0.014130909218152445
127.0, 0.0026611972592052355
128.0, 0.008965140732062693
129.0, 0.006738289009308916
130.0, 0.004386880526266116
131.0, 0.010537699838778707
132.0, 0.014262204692792596
133.0, 0.0024739963084703855
134.0, 0.015404053587688711
135.0, 0.018904007841960856
136.0, 0.024325671324956374
137.0, 0.027112246371157084
138.0, 0.02425624779347918
139.0, 0.02419421180056495
140.0, 0.03458247416229976
141.0, 0.04110489005593992
142.0, 0.041326121709013945
143.0, 0.04024718723751611
144.0, 0.04726635173644722
145.0, 0.03313525507458713
146.0, 0.03491561540358888
147.0, 0.04524802408893675
148.0, 0.05075458630120118
149.0, 0.043989542495680455
150.0, 0.05304833877724946
151.0, 0.07185669861018343
152.0, 0.11193366221714435
153.0, 0.1327111750195391
154.0, 0.12786045852844216
155.0, 0.15580928722386436
156.0, 0.16001412575676283
157.0, 0.1623350838958361
158.0, 0.16853795427538254
159.0, 0.1858978304519567
160.0, 0.2177427703261611
161.0, 0.23535358663601133
162.0, 0.29072433932324665
163.0, 0.34948908762222614
164.0, 0.4016834545221832
165.0, 0.44654115369477276
166.0, 0.4913642240137978
167.0, 0.47311997531702066
168.0, 0.4801359576937987
169.0, 0.49627851401980727
170.0, 0.5098363301282501
171.0, 0.5153560117020571
172.0, 0.4749994606969504
173.0, 0.4346713165025953
174.0, 0.404037905899697
175.0, 0.3797994166697044
176.0, 0.35608228440816736
177.0, 0.3323970060350671
178.0, 0.31636060555397005
179.0, 0.29851719536083177
180.0, 0.2750055169271207
181.0, 0.2500081552756173
182.0, 0.23462497225718673
183.0, 0.229360614946892
184.0, 0.23510406662595026
185.0, 0.2459746182270589
186.0, 0.25856671677448234
187.0, 0.2705224935843924
188.0, 0.28009802723019417
189.0, 0.29749037437549886
190.0, 0.310053722610205
191.0, 0.3268727177697839
192.0, 0.3472041285886581
193.0, 0.3585987748131
194.0, 0.37142195643729403
195.0, 0.37113860986389197
196.0, 0.3728157269157124
197.0, 0.3752874304090816
198.0, 0.37422462345934154
199.0, 0.37542818015036106
200.0, 0.4008355893655278
201.0, 0.4314740884280507
202.0, 0.44834074998159934
203.0, 0.4266535597503821
204.0, 0.34118490235299254
205.0, 0.20555805492242452
206.0, 0.11677391498022024
207.0, 0.059451808225022974
208.0, 0.032852857468691314
209.0, 0.03349551532150319
210.0, 0.039669388485046794
211.0, 0.03491823115719266
212.0, 0.03757117040648918
213.0, 0.0397753390742982
214.0, 0.038662881272354066
215.0, 0.03760160000386969
216.0, 0.0397508616571719
217.0, 0.038569081535511786
218.0, 0.038289731538786155
219.0, 0.03756200945388903
220.0, 0.035437307309777184
221.0, 0.035092128836191123
222.0, 0.034135126441513265
223.0, 0.028281264338161055
224.0, 0.025289382103877156
225.0, 0.022933044028799497
226.0, 0.014899357339882515
227.0, 0.013873570982316976
228.0, 0.018169585780494168
229.0, 0.010460614098174696
230.0, 0.010541381642198732
231.0, 0.028171928972726367
232.0, 0.04682620115699485
233.0, 0.02613459399754392
234.0, 0.00986261490076135
235.0, 0.008611919988588203
236.0, 0.015982966792905364
237.0, 0.018159818525511445
238.0, 0.0037024391743566594
239.0, 0.012774488592805437
240.0, 0.01582515920239436
241.0, 0.020723958316217785
242.0, 0.02791160801591325
243.0, 0.027221713698427165
244.0, 0.00606879333394956
245.0, 0.0028826503652920055
246.0, 0.003732758887496697
247.0, 0.006662387064815317
248.0, 0.012070353772778701
249.0, 0.018944722168927612
250.0, 0.020550322880257803
251.0, 0.009201698265560792
252.0, 0.0045465003516140055
253.0, 0.00572057957626675
254.0, 0.0028860705163484216
255.0, 0.00099318431533374
256.0, 0.010170001738459401
257.0, 0.009337923759438075
258.0, 0.006857639390132004
259.0, 0.0073345555780659965
260.0, 0.00798416819900484
261.0, 0.013378917165854848
262.0, 0.009395737577582686
263.0, 0.006163624447171186
264.0, 0.009079281799416292
265.0, 0.017418167063830876
266.0, 0.021733895298620756
267.0, 0.016120465517661376
268.0, 0.01977689559864106
269.0, 0.013055781858219657
270.0, 0.004007846436170863
271.0, 0.009190153633777284
272.0, 0.021556328267367992
273.0, 0.016878462371015247
274.0, 0.012576248655345129
275.0, 0.012465053085825194
276.0, 0.013824357642215302
277.0, 0.010874074294873536
278.0, 0.010756957794311489
279.0, 0.009673871437708299
280.0, 0.005911053638638517
281.0, 0.0030006720449042585
282.0, 0.003079348673455758
283.0, 0.00443250905464119
284.0, 0.0032130984284847244
285.0, 0.008984099544199514
286.0, 0.011668041041034237
287.0, 0.008980115639396916
288.0, 0.008272705815205773
289.0, 0.03142237459540511
290.0, 0.019150306929404972
291.0, 0.021689188347406747
292.0, 0.020412062836887162
293.0, 0.017494986584229873
294.0, 0.022536372455871374
295.0, 0.02097735459683874
296.0, 0.017702918655594667
297.0, 0.01639905436496713
298.0, 0.015486666016842673
299.0, 0.012700897914965875
300.0, 0.00792815466679097
301.0, 0.015832090061112768
302.0, 0.01574244227617616
303.0, 0.011358878078461095
304.0, 0.014533839632732635
305.0, 0.02072732396099371
306.0, 0.00855965527839134
307.0, 0.019474230402555356
308.0, 0.018105384945444416
309.0, 0.011146347463031097
310.0, 0.009971056403914028
311.0, 0.01558650386036264
312.0, 0.010359010744390983
313.0, 0.012569207053956963
314.0, 0.020299972905861694
315.0, 0.02181675328463583
316.0, 0.022308029553982353
317.0, 0.028600709463358593
318.0, 0.03496470757926515
319.0, 0.031045688071200547
320.0, 0.023787324203924418
321.0, 0.02406394278045586
322.0, 0.029245247197285808
323.0, 0.03295438205590657
324.0, 0.04102974223791106
325.0, 0.043665423733044564
326.0, 0.04265961433518996
327.0, 0.04519575602682389
328.0, 0.04950442578193335
329.0, 0.04943069337345124
330.0, 0.04734930364364334
331.0, 0.04270297806270013
332.0, 0.05153555507818955
333.0, 0.0560597750820495
334.0, 0.05717413047927085
335.0, 0.06746147538340751
336.0, 0.06179006456225433
337.0, 0.05480027145097367
338.0, 0.05936398133259292
339.0, 0.06515765066610704
340.0, 0.06882640375296833
341.0, 0.07503614054937204
342.0, 0.07235971461796943
343.0, 0.07543161655484687
344.0, 0.08099500001111526
345.0, 0.07888442246691027
346.0, 0.0712160422495621
347.0, 0.07236038724185287
348.0, 0.07533922874827735
349.0, 0.07681187000096107
350.0, 0.07856597444897438
351.0, 0.0740676541900931
352.0, 0.06622971063413481
353.0, 0.06785401631031154
354.0, 0.056006754940741546
355.0, 0.061245428796333955
356.0, 0.06610939018775847
357.0, 0.061274976344374864
358.0, 0.05272438529306207
359.0, 0.05926746187480731
360.0, 0.05137343357138803
361.0, 0.05866377025528571
362.0, 0.05726301341256803
363.0, 0.05337510222474405
364.0, 0.05254420433611639
365.0, 0.049495018453233786
366.0, 0.04581870874322306
367.0, 0.044762127308425055
368.0, 0.043235627583098575
369.0, 0.040315725413571195
370.0, 0.037483954991990344
371.0, 0.037639431575335294
372.0, 0.031632861097746094
373.0, 0.03800096580525662
374.0, 0.037720225043925484
375.0, 0.038558062880686916
376.0, 0.04231381742173048
377.0, 0.03571582781954206
378.0, 0.02353908181147283
379.0, 0.023863356581719612
380.0, 0.027448541605122292
381.0, 0.030193296975387144
382.0, 0.026414359523950458
383.0, 0.011176228245600531
384.0, 0.016617392152019662
385.0, 0.01577116176070786
386.0, 0.009284221074640654
387.0, 0.013778979388516075
388.0, 0.026620147510895472
389.0, 0.023296443894879504
390.0, 0.01181335602880224
391.0, 0.010817695943683316
392.0, 0.010959993359887057
393.0, 0.011499207260745542
394.0, 0.011845244132752238
395.0, 0.010632976211801867
396.0, 0.010114159260310692
397.0, 0.010088520783231851
398.0, 0.008933212113257196
399.0, 0.008539992927187165
400.0, 0.009220989665914918
401.0, 0.009430145487015035
402.0, 0.008033275617714875
403.0, 0.003398384908554711
404.0, 0.001540921462510344
405.0, 0.0017923323710438781
406.0, 0.0056339221134885644
407.0, 0.013094228056678647
408.0, 0.010353053590644406
409.0, 0.0072564511234323
410.0, 0.009419725405242102
411.0, 0.007689403117317792
412.0, 0.0031745748384621945
413.0, 0.0034018413384054166
414.0, 0.012942327753261441
415.0, 0.012010224531637366
416.0, 0.0065713279385391935
417.0, 0.005555034706123572
418.0, 0.006979249581953186
419.0, 0.005888941438832551
420.0, 0.0036510817807430818
421.0, 0.008785200369217488
422.0, 0.0102445619418636
423.0, 0.012301892370551466
424.0, 0.013485825913379072
425.0, 0.011968933597751542
426.0, 0.009192632018349849
427.0, 0.007855002068445577
428.0, 0.012827712035248573
429.0, 0.01815166095708272
430.0, 0.018302254072696967
431.0, 0.014842445981145995
432.0, 0.016515372142516294
433.0, 0.022931383883453678
434.0, 0.011138918373566682
435.0, 0.004575425855049461
436.0, 0.004349010945538427
437.0, 0.008856704384769064
438.0, 0.014647570291913915
439.0, 0.005529359983119863
440.0, 0.006895581674835594
441.0, 0.009301742134680595
442.0, 0.007848367433792415
443.0, 0.007708325856289555
444.0, 0.011993092667034532
445.0, 0.001293972715344145
446.0, 0.0024869145706447795
447.0, 0.007800644363989264
448.0, 0.007467135956806387
449.0, 0.0039775132499947925
450.0, 0.002551908450923104
451.0, 0.0027931970856693365
452.0, 0.0015214026776255883
453.0, 0.0035000097552874677
454.0, 0.010526417242403123
455.0, 0.014822758536960407
456.0, 0.013391756490260108
457.0, 0.010844206453148255
458.0, 0.0019085323044957863
459.0, 0.021161147962257466
460.0, 0.02276436158285978
461.0, 0.021647380006709453
462.0, 0.020009813656643678
463.0, 0.013143257679483739
464.0, 0.030317497926503064
465.0, 0.0147120307866839
466.0, 0.019656202447263633
467.0, 0.02599965437507424
468.0, 0.022352331149504454
469.0, 0.012013585251917262
470.0, 0.013467082497482772
471.0, 0.02419661320892748
472.0, 0.026038819449199443
473.0, 0.02616145411786564
474.0, 0.026768320710875166
475.0, 0.027185173054797913
476.0, 0.02559389543364057
477.0, 0.023582560707150944
478.0, 0.022923776972845332
479.0, 0.022835515349168778
480.0, 0.022484897970439163
481.0, 0.02300126366049966
482.0, 0.026926703420465947
483.0, 0.036685540929583156
484.0, 0.027308904718504556
485.0, 0.03442865901631756
486.0, 0.03910750196863253
487.0, 0.035505681556563556
488.0, 0.02925766061564887
489.0, 0.03111704793409343
490.0, 0.02392922908495341
491.0, 0.020890511653697433
492.0, 0.024228492695573017
493.0, 0.026693523926206168
494.0, 0.02452940962225873
495.0, 0.021757147586363348
496.0, 0.03231963744094214
497.0, 0.02783217391164766
498.0, 0.02598567680414012
499.0, 0.02522818970094565
500.0, 0.0235222228446859
501.0, 0.022641173823718223
502.0, 0.02857289258830986
503.0, 0.01979152697602607
504.0, 0.02227169672567457
505.0, 0.015455797154935306
506.0, 0.014688092165012169
507.0, 0.018237582449166567
508.0, 0.010808827481712817
509.0, 0.018337873896122146
510.0, 0.01275945573482641
511.0, 0.008090265063801819
512.0, 0.00711268052650969
513.0, 0.006825062059127594
514.0, 0.005832692424290917
515.0, 0.009160207757643429
516.0, 0.007954962216727285
517.0, 0.014502616278631593
518.0, 0.020238481308891755
519.0, 0.021685264521415747
520.0, 0.021387796529065257
521.0, 0.024735111534757655
522.0, 0.031553362819366805
523.0, 0.02994262543889049
524.0, 0.028991231380766053
525.0, 0.02580798384028773
526.0, 0.026145535211864676
527.0, 0.030877440596388552
528.0, 0.02900438251905103
529.0, 0.023899954544101563
530.0, 0.030626577226414303
531.0, 0.027325724817744
532.0, 0.03308685050159507
533.0, 0.048865532151744634
534.0, 0.05676894566511365
535.0, 0.04115303235314574
536.0, 0.04866158070998619
537.0, 0.045536154160906415
538.0, 0.04590534414846826
539.0, 0.04820766287201041
540.0, 0.05498127163989936
541.0, 0.07262721001106556
542.0, 0.06901899656464464
543.0, 0.07141705152571644
544.0, 0.07612342128642288
545.0, 0.0787439178076107
546.0, 0.08323049508234098
547.0, 0.09483309683147582
548.0, 0.11071444834041616
549.0, 0.10452274284808839
550.0, 0.11952047872649837
551.0, 0.1150670469121694
552.0, 0.11422571501449325
553.0, 0.12408045547009543
554.0, 0.1329441436162931
555.0, 0.14425373392506255
556.0, 0.14124917650689733
557.0, 0.1312614156185384
558.0, 0.14073652359042543
559.0, 0.14233975587530026
560.0, 0.12854701329142118
561.0, 0.1270802568301185
562.0, 0.12328034470344393
563.0, 0.13609150099746878
564.0, 0.12603213823769915
565.0, 0.1215541700843224
566.0, 0.12372537356811246
567.0, 0.12448319870127876
568.0, 0.12657495276212335
569.0, 0.12740734553780214
570.0, 0.1242947902109642
571.0, 0.12233076192985345
572.0, 0.11733567547247487
573.0, 0.1125839627719444
574.0, 0.1113298305879397
575.0, 0.10543683919360494
576.0, 0.09912188466085689
577.0, 0.10515858703179042
578.0, 0.10020772626991414
579.0, 0.09779418017679745
580.0, 0.10209930643804095
581.0, 0.10228149819033094
582.0, 0.0887637286689822
583.0, 0.09469277876474484
584.0, 0.09247165193413481
585.0, 0.0990202321321919
586.0, 0.10011622026957549
587.0, 0.09817967244793922
588.0, 0.10959328642955865
589.0, 0.10532629699482515
590.0, 0.10311519857356229
591.0, 0.10775845771793169
592.0, 0.1088076850898858
593.0, 0.11036098177254756
594.0, 0.11275431214835153
595.0, 0.10992692803880069
596.0, 0.11868888326801393
597.0, 0.12052602846517503
598.0, 0.13020110329251583
599.0, 0.13285244189426937
600.0, 0.13036149009914857
601.0, 0.13077629121576728
602.0, 0.13730345838768984
603.0, 0.14480055466492653
604.0, 0.145524099612909
605.0, 0.1483185234775906
606.0, 0.15505436547410936
607.0, 0.15213894466600825
608.0, 0.1434671406498181
609.0, 0.15939799293796034
610.0, 0.17011238438535883
611.0, 0.1757236063577144
612.0, 0.1642235400300831
613.0, 0.1644979281772368
614.0, 0.1712738714605334
615.0, 0.1714717697006425
616.0, 0.17283213988290816
617.0, 0.18847886601662037
618.0, 0.17713279101069856
619.0, 0.18564205790060848
620.0, 0.194208819218449
621.0, 0.20035962575585897
622.0, 0.2007040971630202
623.0, 0.18063955964570777
624.0, 0.20410772812347977
625.0, 0.2087671724457884
626.0, 0.20601623284404627
627.0, 0.21385238627144845
628.0, 0.21606015763117475
629.0, 0.2075698871287236
630.0, 0.22046380365300325
631.0, 0.2315873884728431
632.0, 0.23597694392999166
633.0, 0.24094115188117762
634.0, 0.24425738104866096
635.0, 0.2510566536243059
636.0, 0.2600740595157884
637.0, 0.26135735397711446
638.0, 0.2814373512568211
639.0, 0.27266438107157354
640.0, 0.2886444774231424
641.0, 0.30163875605283236
642.0, 0.31472653331822875
643.0, 0.33603764217598536
644.0, 0.3573423004598052
645.0, 0.36997304053329394
646.0, 0.3818672834650401
647.0, 0.39779033028052163
648.0, 0.413218100706446
649.0, 0.42795261422629927
650.0, 0.43812528317112703
651.0, 0.43974389159667643
652.0, 0.4516314983460348
653.0, 0.4527817544976509
654.0, 0.45011269924245406
655.0, 0.4412425917038179
656.0, 0.4356594498505278
657.0, 0.4346784628763039
658.0, 0.4277276426519739
659.0, 0.40574378191974086
660.0, 0.38658864728879627
661.0, 0.392582770239238
662.0, 0.38735725827929146
663.0, 0.38635831060799003
664.0, 0.39073436603933354
665.0, 0.3878469802621363
666.0, 0.3847891690030758
667.0, 0.3888937574594856
668.0, 0.39489891303173763
669.0, 0.40434991353795174
670.0, 0.4126263976321357
671.0, 0.41437432938471547
672.0, 0.41415352485609885
673.0, 0.42789041192091204
674.0, 0.4377235396343232
675.0, 0.45107439357183526
676.0, 0.46517240742727023
677.0, 0.47911138002920484
678.0, 0.4915414634283127
679.0, 0.4989842770865747
680.0, 0.5000148692338792
681.0, 0.5113792045093968
682.0, 0.5329711232036219
683.0, 0.5669542177649168
684.0, 0.571701703323845
685.0, 0.5671353198846397
686.0, 0.5633455987490867
687.0, 0.5565371472468856
688.0, 0.5826078175555045
689.0, 0.5802492212570086
690.0, 0.5938281530899949
691.0, 0.5947677473831241
692.0, 0.5967717678869165
693.0, 0.6010595404108545
694.0, 0.603690153679504
695.0, 0.6150207716351813
696.0, 0.6262700198144712
697.0, 0.6256835241223047
698.0, 0.6258790929478646
699.0, 0.6251995350672417
700.0, 0.6196612381868788
701.0, 0.6198810652726849
702.0, 0.6359520815969987
703.0, 0.6139252585431754
704.0, 0.6273238343228634
705.0, 0.6241156049503707
706.0, 0.6198305584705387
707.0, 0.6161645726282587
708.0, 0.6115454313025118
709.0, 0.6068892872677333
710.0, 0.605514319514584
711.0, 0.596152252455364
712.0, 0.5938400628657323
713.0, 0.5913146544835329
714.0, 0.5836318401733732
715.0, 0.572386905354929
716.0, 0.5599993972194632
717.0, 0.5463190265503823
718.0, 0.5336942345278811
719.0, 0.5176002795323631
720.0, 0.5070660504067442
721.0, 0.4965804067759325
722.0, 0.4886046330050661
723.0, 0.4818207841288948
724.0, 0.47440870587843315
725.0, 0.4720728664880283
726.0, 0.4672155057942616
727.0, 0.4449459703064594
728.0, 0.4487270139642758
729.0, 0.44265871399650364
730.0, 0.4267848917226261
731.0, 0.4162776032702356
732.0, 0.41355629665204746
733.0, 0.4051307883464977
734.0, 0.3967543075755148
735.0, 0.3911186163818826
736.0, 0.3924731167625108
737.0, 0.3871645311681673
738.0, 0.3748468034382131
739.0, 0.36605704043307
740.0, 0.3643062254652497
741.0, 0.34604698893544383
742.0, 0.3370254865688509
743.0, 0.339971053254374
744.0, 0.3426611639646856
745.0, 0.34205687189455297
746.0, 0.34166678419604746
747.0, 0.34281606477529225
748.0, 0.3378883823009913
749.0, 0.34329946011680695
750.0, 0.3394851107846057
751.0, 0.3352917092318814
752.0, 0.3261207202111006
753.0, 0.32476737613401413
754.0, 0.33076125709123066
755.0, 0.3274485242830698
756.0, 0.33145883839653356
757.0, 0.33158932452396783
758.0, 0.31962957504906975
759.0, 0.315541471127658
760.0, 0.3229743350487733
761.0, 0.3235218369441544
762.0, 0.31410939827126055
763.0, 0.32020917182189224
764.0, 0.3210318367707694
765.0, 0.3260302143290172
766.0, 0.32445333775770685
767.0, 0.3209278377428069
768.0, 0.31930828133543676
769.0, 0.31995804901227726
770.0, 0.31986662623336964
771.0, 0.3176345874023955
772.0, 0.33055090155486344
773.0, 0.32907726400206905
774.0, 0.31499618479917574
775.0, 0.31240760690336655
776.0, 0.3182795933978096
777.0, 0.32085908949875835
778.0, 0.32121676260785814
779.0, 0.3362541048520441
780.0, 0.32948161292591377
781.0, 0.32874273494117956
782.0, 0.32210867298176454
783.0, 0.3200060848438989
784.0, 0.3189607826612462
785.0, 0.3167401739385092
786.0, 0.313545028235615
787.0, 0.3029721364867926
788.0, 0.2905553138796085
789.0, 0.29162003416553706
790.0, 0.2891528347063439
791.0, 0.2771074270286584
792.0, 0.2664709098868381
793.0, 0.26421363407149195
794.0, 0.2608931581297608
795.0, 0.24020039693890322
796.0, 0.2459981628517186
797.0, 0.2251254374692
798.0, 0.22137600353708353
799.0, 0.2117599283733266
800.0, 0.20257507939478034
801.0, 0.1931101630910361
802.0, 0.17835240221579152
803.0, 0.17688423908916243
804.0, 0.15438505451535606
805.0, 0.1445094970718198
806.0, 0.14070713992876052
807.0, 0.12826847691065865
808.0, 0.12005154632322569
809.0, 0.11982075871309354
810.0, 0.11522499585871054
811.0, 0.09982131851706277
812.0, 0.09352788475021198
813.0, 0.07008370010549848
814.0, 0.0733776539934282
815.0, 0.07851150559394804
816.0, 0.07871610598116568
817.0, 0.06729225724420529
818.0, 0.05014704915782245
819.0, 0.052872638604154885
820.0, 0.04543177859224538
821.0, 0.03752057870476667
822.0, 0.05035484648136856
823.0, 0.03928592486621539
824.0, 0.02881606265599593
825.0, 0.03105488255849713
826.0, 0.03616292387820174
827.0, 0.03487035664318397
828.0, 0.023736771206738456
829.0, 0.0167311699836125
830.0, 0.011825767813578756
831.0, 0.01066501647542754
832.0, 0.007004474814004221
833.0, 0.002328650874422652
834.0, 0.003853161038212604
835.0, 0.01056343155705575
836.0, 0.0004798321047358742
837.0, 0.0004244922322852514
838.0, 0.00339658701691136
839.0, 0.010792740558392409
840.0, 0.013550119316728641
841.0, 0.012459563937513773
842.0, 0.012584773355894242
843.0, 0.014472800520243998
844.0, 0.012461843276629301
845.0, 0.014171670923748584
846.0, 0.010820072878623098
847.0, 0.011434294631680534
848.0, 0.012007005534611054
849.0, 0.012036982350875183
850.0, 0.01024605261274162
851.0, 0.01022047289750885
852.0, 0.01954466505155426
853.0, 0.025126705568276855
854.0, 0.017171746146844236
855.0, 0.00813524900602133
856.0, 0.008229077030073362
857.0, 0.0120619907652853
858.0, 0.015000015874782457
859.0, 0.01975578077092973
860.0, 0.024752755284099745
861.0, 0.01209679361702713
862.0, 0.033282487858259185
863.0, 0.010449917835277878
864.0, 0.010807804336690005
865.0, 0.005794109425748174
866.0, 0.006991676376409161
867.0, 0.013161496232924157
868.0, 0.017435551420958255
869.0, 0.025554170590840065
870.0, 0.001521742170821498
871.0, 0.013583715921920633
872.0, 0.01389477358199711
873.0, 0.02354720465176061
874.0, 0.04392423636896667
875.0, 0.03269989810067801
876.0, 0.01456233695320788
877.0, 0.040127907269878596
878.0, 0.03560778841319172
879.0, 0.006385555636769808
880.0, 0.004149076462357634
881.0, 0.0043178716885487415
882.0, 0.011396520008928228
883.0, 0.013203209697518968
884.0, 0.011409601156004801
885.0, 0.014988390655046703
886.0, 0.021237374207912506
887.0, 0.015455216868145091
888.0, 0.02862557526403625
889.0, 0.021465608947965162
890.0, 0.03627959528112319
891.0, 0.04731222862310611
892.0, 0.04952317205737256
893.0, 0.057087853793640536
894.0, 0.06612223108411065
895.0, 0.049976857568777226
896.0, 0.046598264412085755
897.0, 0.04845467035598085
898.0, 0.06651153881666877
899.0, 0.06090768583105926
900.0, 0.057789083861661754
901.0, 0.06303681797059225
902.0, 0.06582836987287036
903.0, 0.063129814050002
904.0, 0.06682062188657845
905.0, 0.06580834732272631
906.0, 0.07080511592958248
907.0, 0.06843136268992243
908.0, 0.07207348661666227
909.0, 0.08092363655926976
910.0, 0.08927608729854877
911.0, 0.09710207777575247
912.0, 0.10342784132872099
913.0, 0.09779227377885272
914.0, 0.10115455610078995
915.0, 0.09425116944811883
916.0, 0.09140875278955478
917.0, 0.10890823863757276
918.0, 0.10881408884264641
919.0, 0.10277584488999679
920.0, 0.1096246447943406
921.0, 0.11822478292687884
922.0, 0.11275691346293774
923.0, 0.10793936459710797
924.0, 0.11357746980996009
925.0, 0.11129065376997291
926.0, 0.12302649740662198
927.0, 0.12670629525671992
928.0, 0.12321129166869339
929.0, 0.1342876139388455
930.0, 0.14954828697899744
931.0, 0.11609301942805335
932.0, 0.1295298442952001
933.0, 0.1251120564037706
934.0, 0.10894723319340736
935.0, 0.11698924461773322
936.0, 0.11659842011537094
937.0, 0.10804450324265007
938.0, 0.10728884692242643
939.0, 0.11684443662533343
940.0, 0.1243535052961221
941.0, 0.1175355011091988
942.0, 0.10743200724138063
943.0, 0.11938083071957187
944.0, 0.11719368034812878
945.0, 0.11188210192306093
946.0, 0.11229955989886449
947.0, 0.11189777152276034
948.0, 0.10751100061639284
949.0, 0.10930833992451386
950.0, 0.10717911393595717
951.0, 0.12509922857552014
952.0, 0.11808326164942666
953.0, 0.11606632271324825
954.0, 0.11238702200753725
955.0, 0.10616516536290779
956.0, 0.10261188077917424
957.0, 0.10037320197337665
958.0, 0.09308242973045254
959.0, 0.08847284212882349
960.0, 0.08458087599107274
961.0, 0.09901006792850461
962.0, 0.09858005368451597
963.0, 0.0984930405487538
964.0, 0.09308150273692785
965.0, 0.09189053187424244
966.0, 0.09704633774821153
967.0, 0.09685693309667585
968.0, 0.0919397925004225
969.0, 0.1004749916632293
970.0, 0.09669156825095411
971.0, 0.09060626980553546
972.0, 0.10146913015716191
973.0, 0.10322122379819522
974.0, 0.10195404933860286
975.0, 0.10334602587907463
976.0, 0.10610946586786253
977.0, 0.11151168825305632
978.0, 0.1153013832054169
979.0, 0.1208151547936661
980.0, 0.12649225277127302
981.0, 0.13342977430122047
982.0, 0.13952133598432154
983.0, 0.14618740498243057
984.0, 0.15427919070566587
985.0, 0.16038745572552404
986.0, 0.16244361833922144
987.0, 0.16575654175530166
988.0, 0.1727917618868261
989.0, 0.19188871350207262
990.0, 0.18702044946942037
991.0, 0.20355696454563296
992.0, 0.20679270345724354
993.0, 0.22625192188550378
994.0, 0.23625369125087184
995.0, 0.23030633781787668
996.0, 0.2454557654595088
997.0, 0.255553247572203
998.0, 0.26276484310320997
999.0, 0.2827725062995679
1000.0, 0.29475439573988615
1001.0, 0.30600538385106946
1002.0, 0.3204380886418441
1003.0, 0.3406649496077451
1004.0, 0.36326219320315534
1005.0, 0.38327335916000016
1006.0, 0.4023267637050562
1007.0, 0.4275799934909394
1008.0, 0.4510683332389594
1009.0, 0.4809997792125614
1010.0, 0.5048509978075979
1011.0, 0.5351286823192607
1012.0, 0.5603213115375633
1013.0, 0.5888819224663623
1014.0, 0.6272945836647019
1015.0, 0.6667369849269454
1016.0, 0.6967927596175736
1017.0, 0.7256044807124701
1018.0, 0.7622409298302747
1019.0, 0.7922666146080408
1020.0, 0.8178157810457312
1021.0, 0.8468034269814229
1022.0, 0.8774862917426076
1023.0, 0.9050435478442409
1024.0, 0.922234403306275
1025.0, 0.9397080510594366
1026.0, 0.9711148916605238
1027.0, 0.9857749850125856
1028.0, 0.999815429953767
1029.0, 0.9830363348416267
1030.0, 0.9861788556792533
1031.0, 0.9866212021144501
1032.0, 0.9658475686481565
1033.0, 0.9504939294279955
1034.0, 0.936260878817863
1035.0, 0.9107651033129198
1036.0, 0.8839396632332592
1037.0, 0.854363559364688
1038.0, 0.8258836416225245
1039.0, 0.7968377021894315
1040.0, 0.7602310094911252
1041.0, 0.7237602917364266
1042.0, 0.6979164894625473
1043.0, 0.6625071347625721
1044.0, 0.6236347590272607
1045.0, 0.5861459614640175
1046.0, 0.5473732093851009
1047.0, 0.5230956338605601
1048.0, 0.5033652323412373
1049.0, 0.4881581317383307
1050.0, 0.4572100180937539
1051.0, 0.43075138579905875
1052.0, 0.4011639424450534
1053.0, 0.37641320884174156
1054.0, 0.3578311700359114
1055.0, 0.34500357231520257
1056.0, 0.3340269378321373
1057.0, 0.3201362661886917
1058.0, 0.311796179491587
1059.0, 0.28978111510630955
1060.0, 0.29144043703260253
1061.0, 0.2865020472435139
1062.0, 0.2620620628641518
1063.0, 0.24862885515604122
1064.0, 0.2509180947328962
1065.0, 0.2503712213113533
1066.0, 0.2455173604423811
1067.0, 0.24311183925405438
1068.0, 0.22878212868627978
1069.0, 0.2194742728228628
1070.0, 0.21883413592959997
1071.0, 0.20245092642528648
1072.0, 0.21545001092963412
1073.0, 0.21134956009273806
1074.0, 0.20324235387222508
1075.0, 0.1970479057089757
1076.0, 0.19282370333240723
1077.0, 0.18971046535356595
1078.0, 0.18740344393296007
1079.0, 0.18833315571273543
1080.0, 0.18079701893123104
1081.0, 0.17903843660832489
1082.0, 0.17469831455533769
1083.0, 0.1829208046945793
1084.0, 0.17901420036830684
1085.0, 0.18593963213497305
1086.0, 0.18927309846477108
1087.0, 0.1845052392354885
1088.0, 0.17957273649290498
1089.0, 0.17129505256651167
1090.0, 0.16445868923990092
1091.0, 0.1487865862776565
1092.0, 0.13073631184024104
1093.0, 0.14155399196806456
1094.0, 0.12526298670124072
1095.0, 0.13383246062159632
1096.0, 0.14118814480725358
1097.0, 0.12701987730874328
1098.0, 0.11227624338005406
1099.0, 0.11466306834598476
1100.0, 0.11477449061322098
1101.0, 0.0972192092186276
1102.0, 0.09145079659785933
1103.0, 0.0896237588784013
1104.0, 0.10046129844832541
1105.0, 0.10652492498099667
1106.0, 0.10726763473708614
1107.0, 0.09115950550998612
1108.0, 0.08427723064941373
1109.0, 0.08484113572325636
1110.0, 0.07878912784126368
1111.0, 0.07701106776722601
1112.0, 0.08193665325703448
1113.0, 0.06383431095114354
1114.0, 0.07393092026435322
1115.0, 0.07198989399270533
1116.0, 0.07483770375040874
1117.0, 0.06875691358603785
1118.0, 0.06271270423667319
1119.0, 0.06507309051459993
1120.0, 0.06896836845755508
1121.0, 0.06521690907457457
1122.0, 0.059496711628657335
1123.0, 0.05804473946631599
1124.0, 0.0398817260223613
1125.0, 0.04094738097217632
1126.0, 0.05115904582245617
1127.0, 0.04306181798011526
1128.0, 0.04501674580009376
1129.0, 0.04534130841628392
1130.0, 0.029161438694512817
1131.0, 0.02726984868080546
1132.0, 0.03548924171349293
1133.0, 0.02765097120725894
1134.0, 0.017754639798791688
1135.0, 0.02700679795408395
1136.0, 0.01103026744854157
1137.0, 0.00543495583412115
1138.0, 0.01166747817021058
1139.0, 0.012633757867932026
1140.0, 0.004211262217099244
1141.0, 0.00824054300568459
1142.0, 0.006413823449237902
1143.0, 0.004530437124989599
1144.0, 0.004666991538111168
1145.0, 0.001677938701005591
1146.0, 0.0033081189650077908
1147.0, 0.005739741977387431
1148.0, 0.01632552785646947
1149.0, 0.009905269244199929
1150.0, 0.011589282368772023
1151.0, 0.010321689520809734
1152.0, 0.008461938477586218
1153.0, 0.007684734789271342
1154.0, 0.004338187636146207
1155.0, 0.0111696471295149
1156.0, 0.02085409109662816
1157.0, 0.015859276811984072
1158.0, 0.006392456386764473
1159.0, 0.004752766456029163
1160.0, 0.0010158910006257144
1161.0, 0.0028478950464326247
1162.0, 0.0003287219754547787
1163.0, 0.0034426446194757423
1164.0, 0.0017567592582287477
1165.0, 0.002007614677024332
1166.0, 0.0019229960308080826
1167.0, 0.005194209995885593
1168.0, 0.006600167819981443
1169.0, 0.002169330015188545
1170.0, 0.0028295984658142414
1171.0, 0.00846831792526299
1172.0, 0.0010960788984469387
1173.0, 0.0062284649662623735
1174.0, 0.0012522613247703718
1175.0, 0.00043505701246501847
1176.0, 0.0018655802987245108
1177.0, 0.013260997450131044
1178.0, 0.008776831853334898
1179.0, 0.006672972032143673
1180.0, 0.010991116814929904
1181.0, 0.008830691790517136
1182.0, 0.004936935650530823
1183.0, 0.006285152339138273
1184.0, 0.0015699623013131314
1185.0, 0.003156152264013128
1186.0, 0.005587691855886236
1187.0, 0.009154298163958293
1188.0, 0.003059630812058009
1189.0, 0.005557159044334511
1190.0, 0.009033691555354119
1191.0, 0.014413401430649026
1192.0, 0.009696724112799935
1193.0, 0.0031828470506936263
1194.0, 0.005193950237685928
1195.0, 0.008064541953023606
1196.0, 0.016682151964266426
1197.0, 0.014065686648705512
1198.0, 0.013860447497432163
1199.0, 0.0008629596086508987
1200.0, 0.009919238621575524
1201.0, 0.008492269444145968
1202.0, 0.010780684681158961
1203.0, 0.005528283929293842
1204.0, 0.0009260718813410752
1205.0, 0.001186347378417726
1206.0, 0.00592711621499123
1207.0, 0.00885253830887731
1208.0, 0.00856713959292164
1209.0, 0.018175353557588134
1210.0, 0.007351650863752406
1211.0, 0.011267988816497279
1212.0, 0.0015848730451827695
1213.0, 0.0004424002882173999
1214.0, 0.0076171259732183355
1215.0, 0.003047166641930097
1216.0, 0.003303502379987786
1217.0, 0.005611940472095518
1218.0, 0.006754377350025928
1219.0, 0.00856712131943853
1220.0, 0.011032633789974204
1221.0, 0.013247242727272646
1222.0, 0.016125315454515142
1223.0, 0.017133772216331077
1224.0, 0.015990604419343236
1225.0, 0.018587089799150466
1226.0, 0.011984635291096685
1227.0, 0.01686426117918344
1228.0, 0.01706828897485596
1229.0, 0.011975219198245754
1230.0, 0.011643511714594334
1231.0, 0.007721421455191494
1232.0, 0.0028894504044358034
1233.0, 0.0018288377315415164
1234.0, 0.003922434693334824
1235.0, 0.010585702794879309
1236.0, 0.012833907263925472
1237.0, 0.012533105149552345
1238.0, 0.0009109541282892126
1239.0, 0.0016984559249883962
1240.0, 0.0038889661204890152
1241.0, 0.007105293825853174
1242.0, 0.010972622071860528
1243.0, 0.017479420750652213
1244.0, 0.020625690869558014
1245.0, 0.01707793969639291
1246.0, 0.009725160903128645
1247.0, 0.00880399319053271
1248.0, 0.01500634953573933
1249.0, 0.012891933088291741
1250.0, 0.006322308574178154
1251.0, 0.015941819315035514
1252.0, 0.012038222317825524
1253.0, 0.001686242943500827
1254.0, 0.012638708294372292
1255.0, 0.021017017345624157
1256.0, 0.02412860871846142
1257.0, 0.008693619203839889
1258.0, 0.007052622284811848
1259.0, 0.008772951298561047
1260.0, 0.0050910671296833816
1261.0, 0.008578057703025653
1262.0, 0.012271521558417662
1263.0, 0.0049488760399781185
1264.0, 0.01126608923782977
1265.0, 0.012463399093889915
1266.0, 0.017833891714078922
1267.0, 0.011541004887358335
1268.0, 0.009064282247451769
1269.0, 0.017998672324369996
1270.0, 0.022117511684343023
1271.0, 0.016885895462873387
1272.0, 0.019044119960810714
1273.0, 0.009703626150938033
1274.0, 0.003048119953115281
1275.0, 0.010997830522968875
1276.0, 0.015713903264893282
1277.0, 0.012740042055837881
1278.0, 0.017336536125823854
1279.0, 0.016206564324135322
1280.0, 0.006621158623046236
1281.0, 0.014642006012667555
1282.0, 0.008771705631133983
1283.0, 0.00381648233193054
1284.0, 0.01245998596850461
1285.0, 0.006166207828082072
1286.0, 0.0074978125862284785
1287.0, 0.012962645389474866
1288.0, 0.023634981461614843
1289.0, 0.021438004086996695
1290.0, 0.00980325682103945
1291.0, 0.012069276136681963
1292.0, 0.01900022006442247
1293.0, 0.012636599238573375
1294.0, 0.01906530706168129
1295.0, 0.015356058063028429
1296.0, 0.018116756472879015
1297.0, 0.02891920805352624
1298.0, 0.020385416430526333
1299.0, 0.023740612368577198
1300.0, 0.021959866555435744
1301.0, 0.023361151223939156
1302.0, 0.022353353303540737
1303.0, 0.023462539416823934
1304.0, 0.024763400840693246
1305.0, 0.02456423469296042
1306.0, 0.027294610227026676
1307.0, 0.022329867872906577
1308.0, 0.01116878398917226
1309.0, 0.02185762784369499
1310.0, 0.017122337010483796
1311.0, 0.028547522911862792
1312.0, 0.02591214653792477
1313.0, 0.027611014391934852
1314.0, 0.03151830575632847
1315.0, 0.030149500026611837
1316.0, 0.031026500307699233
1317.0, 0.026809025876899376
1318.0, 0.03153025311410709
1319.0, 0.028331639390701335
1320.0, 0.027611609911424917
1321.0, 0.02949287763444455
1322.0, 0.020433296862183606
1323.0, 0.011003500421955012
1324.0, 0.014206527380851939
1325.0, 0.019589727103584108
1326.0, 0.032907818167221464
1327.0, 0.03215375983816802
1328.0, 0.03070023197901356
1329.0, 0.020249220971310652
1330.0, 0.0378197482531537
1331.0, 0.030171792549405475
1332.0, 0.049924902179122446
1333.0, 0.05538389468302413
1334.0, 0.06291610483987461
1335.0, 0.06173245155477572
1336.0, 0.056372596085162374
1337.0, 0.04655443414503957
1338.0, 0.036333039961294056
1339.0, 0.03257170822955022
1340.0, 0.02829062368656343
1341.0, 0.02188014756077433
1342.0, 0.027781197016238355
1343.0, 0.03205409813329803
1344.0, 0.01732613694546676
1345.0, 0.017326311916610108
1346.0, 0.022859539085553094
1347.0, 0.029574900297928104
1348.0, 0.023314244846025237
1349.0, 0.02952437211585487
1350.0, 0.03265839989733855
1351.0, 0.04149862522743182
1352.0, 0.0455637929179304
1353.0, 0.029523106963033126
1354.0, 0.029087014731782598
1355.0, 0.03545483685820057
1356.0, 0.027825653046353024
1357.0, 0.02729620981024394
1358.0, 0.034930053522940895
1359.0, 0.030766252021887725
1360.0, 0.02972867503017327
1361.0, 0.020119846842533172
1362.0, 0.033517361244517485
1363.0, 0.033008944577466344
1364.0, 0.04109326683238298
1365.0, 0.03722736085701686
1366.0, 0.03487502815492521
1367.0, 0.03725792442197684
1368.0, 0.02425843782451544
1369.0, 0.021039081100042187
1370.0, 0.017083028689761408
1371.0, 0.017967012692266363
1372.0, 0.024816223036575123
1373.0, 0.028691515783027675
1374.0, 0.02791664795412054
1375.0, 0.024334672396693763
1376.0, 0.020428347242660568
1377.0, 0.01941726650150225
1378.0, 0.01543681980620078
1379.0, 0.022859906001648195
1380.0, 0.03788706551821129
1381.0, 0.019977943290882743
1382.0, 0.02786889251476539
1383.0, 0.02076938855364285
1384.0, 0.013528462874284644
1385.0, 0.017725248143212184
1386.0, 0.0197070664583613
1387.0, 0.017099315614733664
1388.0, 0.021757985330498775
1389.0, 0.03247931445888048
1390.0, 0.031179025494234732
1391.0, 0.023996588153374705
1392.0, 0.01919140368759027
1393.0, 0.023101362606277737
1394.0, 0.027543606342036505
1395.0, 0.01877064236799463
1396.0, 0.018700535170455827
1397.0, 0.029788446172687798
1398.0, 0.019174014074446348
1399.0, 0.015611256537792176
1400.0, 0.03098652132143618
1401.0, 0.008702959848073585
1402.0, 0.025243007193615122
1403.0, 0.020864161395740755
1404.0, 0.02141472918610314
1405.0, 0.022367005907456362
1406.0, 0.015870042977053585
1407.0, 0.00810656436581981
1408.0, 0.017384391433674526
1409.0, 0.017157226424070488
1410.0, 0.013384890505276043
1411.0, 0.02392032018469754
1412.0, 0.024131510815164674
1413.0, 0.013008010331091547
1414.0, 0.00922164118739371
1415.0, 0.003895883098536352
1416.0, 0.004932224730392713
1417.0, 0.018117628403784194
1418.0, 0.025276367815323296
1419.0, 0.023800358495987307
1420.0, 0.005015062917814851
1421.0, 0.013715027021743481
1422.0, 0.010507588603598966
1423.0, 0.00676054975331849
1424.0, 0.019812419586154914
1425.0, 0.004293178943728934
1426.0, 0.013279825058584844
1427.0, 0.016496397456836485
1428.0, 0.02169049542326309
1429.0, 0.019247413296201242
1430.0, 0.01573268787774767
1431.0, 0.02135343483333587
1432.0, 0.027874634663302044
1433.0, 0.025605674587003076
1434.0, 0.024834181696442848
1435.0, 0.02074757194316775
1436.0, 0.010263160537142827
1437.0, 0.017243027361648632
1438.0, 0.025073719857492485
1439.0, 0.021410411272598344
1440.0, 0.022729928774549713
1441.0, 0.002459231720196575
1442.0, 0.004656468909630304
1443.0, 0.005909220365543217
1444.0, 0.0019813071859108716
1445.0, 0.011716708778865683
1446.0, 0.006871043498673168
1447.0, 0.02320056949552814
1448.0, 0.0051074100417734716
1449.0, 0.009366665637459488
1450.0, 0.005410009948688857
1451.0, 0.009559167035493357
1452.0, 0.006740019162515642
1453.0, 0.0028862314880781273
1454.0, 0.0068607820788767265
1455.0, 0.006676362033947043
1456.0, 0.0025571206399174133
1457.0, 0.002079858319252227
1458.0, 0.009232769673788638
1459.0, 0.015421908908228466
1460.0, 0.009325051927125742
1461.0, 0.012435980689910454
1462.0, 0.016898824357886113
1463.0, 0.013778426083820086
1464.0, 0.012000972419154224
1465.0, 0.016496322163738527
1466.0, 0.017463747348555624
1467.0, 0.003279590859504803
1468.0, 0.004039028640968288
1469.0, 0.009320901393973527
1470.0, 0.008807607001315177
1471.0, 0.009590280954551236
1472.0, 0.011352526843521723
1473.0, 0.007931624174278121
1474.0, 0.01058941230201782
1475.0, 0.005290344355747517
1476.0, 0.012309837151392729
1477.0, 0.022073964600271355
1478.0, 0.0258200283717041
1479.0, 0.013097946469256643
1480.0, 0.006762075950670409
1481.0, 0.009027831000972895
1482.0, 0.004601246227956076
1483.0, 0.007186431882519877
1484.0, 0.011683730564945163
1485.0, 0.00606840835874402
1486.0, 0.008061136684658467
1487.0, 0.009326852253482424
1488.0, 0.012261509548667702
1489.0, 0.005854921265596086
1490.0, 0.004436086508296842
1491.0, 0.013370712429919126
1492.0, 0.015261122186669588
1493.0, 0.00697879712232753
1494.0, 0.012983523866764176
1495.0, 0.008217488250789948
1496.0, 0.012856789744242625
1497.0, 0.0037517104932938946
1498.0, 0.016336943017281474
1499.0, 0.015527543967560934
1500.0, 0.013885406353081354
1501.0, 0.014562677871125276
1502.0, 0.009279443710262687
1503.0, 0.008288073863074666
1504.0, 0.01239233602101426
1505.0, 0.020076498177095316
1506.0, 0.021545982362733272
1507.0, 0.02201199751109664
1508.0, 0.01933431346409866
1509.0, 0.013578916172170306
1510.0, 0.014234532002420124
1511.0, 0.014331900844652785
1512.0, 0.013022276981271477
1513.0, 0.015333657741843464
1514.0, 0.017075797916842703
1515.0, 0.0213971877594896
1516.0, 0.01900981134613245
1517.0, 0.017000285400174515
1518.0, 0.014928356948752941
1519.0, 0.016894141965828197
1520.0, 0.008583259321629299
1521.0, 0.010466702168036076
1522.0, 0.01702277441854513
1523.0, 0.010739977898354387
1524.0, 0.019119052396441332
1525.0, 0.025667796654894326
1526.0, 0.016001286406006284
1527.0, 0.024974535226397306
1528.0, 0.027349383214975594
1529.0, 0.013028027372430282
1530.0, 0.011474749253142461
1531.0, 0.017501664660309557
1532.0, 0.020067973995352
1533.0, 0.02111754445564274
1534.0, 0.010514406134705688
1535.0, 0.012430201946834632
1536.0, 0.01292606884608422
1537.0, 0.008056586907403076
1538.0, 0.015041874424542778
1539.0, 0.013524589253602169
1540.0, 0.00867925890203732
1541.0, 0.008679079698318343
1542.0, 0.006195116629897691
1543.0, 0.018230154025914987
1544.0, 0.02462227184208274
1545.0, 0.019146007244944356
1546.0, 0.005669127356370893
1547.0, 0.011746448635912747
1548.0, 0.008204881694322314
1549.0, 0.007787750595305667
1550.0, 0.016327245249400997
1551.0, 0.0020524094618403705
1552.0, 0.013896894042729391
1553.0, 0.014985550200148384
1554.0, 0.020834552794548256
1555.0, 0.014522828438574734
1556.0, 0.012057580742063246
1557.0, 0.0220733270878175
1558.0, 0.025748502035079623
1559.0, 0.01836601990339814
1560.0, 0.0239879251719408
1561.0, 0.0073814241303181045
1562.0, 0.007157340552849076
1563.0, 0.010218648264808308
1564.0, 0.007858579562148839
1565.0, 0.007064517777920578
1566.0, 0.01081948232070039
1567.0, 0.01110068855606919
1568.0, 0.005038166349529342
1569.0, 0.000876036156122723
1570.0, 0.011298613979744188
1571.0, 0.007186705419947777
1572, 0.0
1573, 0.0
1574, 0.0
1575, 0.0
1576, 0.0
1577, 0.0
1578, 0.0
1579, 0.0
1580, 0.0
1581, 0.0
1582, 0.0
1583, 0.0
1584, 0.0
1585, 0.0
1586, 0.0
1587, 0.0
1588, 0.0
1589, 0.0
1590, 0.0
1591, 0.0
1592, 0.0
1593, 0.0
1594, 0.0
1595, 0.0
1596, 0.0
1597, 0.0
1598, 0.0
1599, 0.0
