30, 0.0
31, 0.0
32, 0.0
33, 0.0
34, 0.0
35, 0.0
36, 0.0
37, 0.0
38, 0.0
39, 0.0
40, 0.0
41, 0.0
42, 0.0
43, 0.0
44, 0.0
45, 0.0
46, 0.0
47, 0.0
48, 0.0
49, 0.0
50, 0.0
51, 0.0
52, 0.0
53, 0.0
54, 0.0
55, 0.0
56, 0.0
57, 0.0
58, 0.0
59, 0.0
60, 0.0
61, 0.0
62, 0.0
63, 0.0
64, 0.0
65, 0.0
66, 0.0
67, 0.0
68, 0.0
69, 0.0
70, 0.0
71, 0.0
72, 0.0
73, 0.0
74, 0.0
75, 0.0
76, 0.0
77, 0.0
78, 0.0
79, 0.0
80, 0.0
81, 0.0
82, 0.0
83, 0.0
84, 0.0
85, 0.0
86, 0.0
87, 0.0
88, 0.0
89, 0.0
90, 0.0
91, 0.0
92, 0.0
93, 0.0
94, 0.0
95, 0.0
96, 0.0
97, 0.0
98, 0.0
99, 0.0
100, 0.0
101, 0.0
102, 0.0
103, 0.0
104, 0.0
105, 0.0
106, 0.0
107, 0.0
108, 0.0
109, 0.0
110, 0.0
111, 0.0
112, 0.0
113, 0.0
114, 0.0
115, 0.0
116, 0.0
117, 0.0
118, 0.0
119, 0.0
120, 0.0
121, 0.0
122, 0.0
123, 0.0
124, 0.0
125, 0.0
126, 0.0
127, 0.0
128, 0.0
129, 0.0
130, 0.0
131, 0.0
132, 0.0
133, 0.0
134, 0.0
135, 0.0
136, 0.0
137, 0.0
138, 0.0
139, 0.0
140, 0.0
141, 0.0
142, 0.0
143, 0.0
144.0, 3.8050874436651916e-07
145.0, 0.00019063488092671793
146.0, 0.0022742247987292
147.0, 0.002666334350706811
148.0, 0.002155388390951236
149.0, 0.0038403275260473074
150.0, 0.0017491388529064394
151.0, 0.0009388294857006672
152.0, 0.004020173059285056
153.0, 0.008468013790050388
154.0, 0.01160631937953467
155.0, 0.017713182215317872
156.0, 0.022090507413644097
157.0, 0.022465626427381768
158.0, 0.026192375969145386
159.0, 0.03554572388921309
160.0, 0.04104859784627823
161.0, 0.052191286006596845
162.0, 0.06435051739998338
163.0, 0.07274756824875339
164.0, 0.08049879295816324
165.0, 0.09579908471472992
166.0, 0.09937466243091972
167.0, 0.10081214811965267
168.0, 0.10109855849124937
169.0, 0.10334081229447149
170.0, 0.10955886120271037
171.0, 0.11328500475681574
172.0, 0.10752393814773846
173.0, 0.10593492025272676
174.0, 0.10078017465187046
175.0, 0.08831974280783884
176.0, 0.07819553339573423
177.0, 0.07426979710841625
178.0, 0.0674164439203947
179.0, 0.061751711783083724
180.0, 0.05634027863760187
181.0, 0.0469145158909511
182.0, 0.041882009762896834
183.0, 0.03590769624413538
184.0, 0.027919510613530724
185.0, 0.02118486511067987
186.0, 0.018818392925021563
187.0, 0.018435463534160684
188.0, 0.013594650566827822
189.0, 0.016498723185389315
190.0, 0.01824151993558739
191.0, 0.014231275435369787
192.0, 0.009233522235695003
193.0, 0.015709343737157894
194.0, 0.024299906570101712
195.0, 0.030349897134957955
196.0, 0.03380561678623569
197.0, 0.03702173027232464
198.0, 0.04052082879832582
199.0, 0.05140653657880444
200.0, 0.06749186532038554
201.0, 0.08064899815519558
202.0, 0.08594664752949295
203.0, 0.08741716821399405
204.0, 0.0852727042583247
205.0, 0.08194738568123572
206.0, 0.085082155904966
207.0, 0.09616162682119653
208.0, 0.11154406754384931
209.0, 0.1285055909471349
210.0, 0.14282923761045652
211.0, 0.1544887921297357
212.0, 0.16919263330711107
213.0, 0.1892659492634437
214.0, 0.20418425641030374
215.0, 0.2274146836490718
216.0, 0.2446087150624971
217.0, 0.2611769978949687
218.0, 0.281198174809893
219.0, 0.30463448128836296
220.0, 0.312262137323331
221.0, 0.33939802541742065
222.0, 0.3565012740677715
223.0, 0.3678276544673852
224.0, 0.38343105447977693
225.0, 0.39770270548831843
226.0, 0.4071046758863364
227.0, 0.42062395271392483
228.0, 0.42894154767495496
229.0, 0.4336543169386487
230.0, 0.44639078793474024
231.0, 0.45506459719441694
232.0, 0.45858142432020316
233.0, 0.46139805903475717
234.0, 0.46361168581888074
235.0, 0.4629461455805212
236.0, 0.45435049579998477
237.0, 0.4421460084174743
238.0, 0.437789613842018
239.0, 0.43407460990987934
240.0, 0.4267747627232398
241.0, 0.41469399407815993
242.0, 0.38375976014412394
243.0, 0.37045123495970556
244.0, 0.3522819155391303
245.0, 0.3304359567409269
246.0, 0.31234036461454723
247.0, 0.3041741608779175
248.0, 0.2740683111423123
249.0, 0.26142677056928987
250.0, 0.24964220688759034
251.0, 0.23694664589684628
252.0, 0.23083965967808162
253.0, 0.21560448246398062
254.0, 0.211072781603177
255.0, 0.2014569755798062
256.0, 0.19487586339776633
257.0, 0.19412055786406418
258.0, 0.18578424650789674
259.0, 0.1859538831739041
260.0, 0.17944683228051697
261.0, 0.16768960612861375
262.0, 0.15467902521096322
263.0, 0.14450981433972668
264.0, 0.13680068861189548
265.0, 0.12748464622555544
266.0, 0.11983209629904365
267.0, 0.11074429980771017
268.0, 0.09934204296897652
269.0, 0.08820776686994135
270.0, 0.0823944812103288
271.0, 0.0759082359225646
272.0, 0.06872546418582903
273.0, 0.06569187680206012
274.0, 0.06586121948926102
275.0, 0.052172060408926475
276.0, 0.0500015402149477
277.0, 0.04939799431181815
278.0, 0.04385171942299258
279.0, 0.03836721915752296
280.0, 0.041060756578761085
281.0, 0.037903207880444656
282.0, 0.027746618583408177
283.0, 0.024090277357286825
284.0, 0.025060327094654423
285.0, 0.02831207145115457
286.0, 0.03309614785419765
287.0, 0.02518312507071118
288.0, 0.02790897388126435
289.0, 0.0287691536290512
290.0, 0.02735318441966345
291.0, 0.027775033467705594
292.0, 0.03497364165583486
293.0, 0.03357525492405866
294.0, 0.033137070381585414
295.0, 0.03552066619334663
296.0, 0.03761082794982064
297.0, 0.035549135122852925
298.0, 0.034569118999535534
299.0, 0.04253104215465241
300.0, 0.044194335254537705
301.0, 0.043365737300211635
302.0, 0.04426694451810358
303.0, 0.04853843947077118
304.0, 0.05378245558923064
305.0, 0.05403547716441127
306.0, 0.05937790050985724
307.0, 0.06720701320350074
308.0, 0.07193482567282483
309.0, 0.06925463475379738
310.0, 0.07562287653408124
311.0, 0.07289518727683138
312.0, 0.07664514013196898
313.0, 0.08249656452337906
314.0, 0.08366887977380134
315.0, 0.08905637991944884
316.0, 0.10162014716971468
317.0, 0.10127339624711257
318.0, 0.09996232087241717
319.0, 0.10353977519255259
320.0, 0.10995113296546301
321.0, 0.10560297207665757
322.0, 0.12172031048479809
323.0, 0.12522708858069095
324.0, 0.12479573832945748
325.0, 0.12755767156082468
326.0, 0.13280529087383264
327.0, 0.1254137887053779
328.0, 0.12861100698118907
329.0, 0.13250355666123684
330.0, 0.13027639115130293
331.0, 0.12703348919757895
332.0, 0.13849548569877881
333.0, 0.14028114305318576
334.0, 0.13535369531404237
335.0, 0.13945735133114776
336.0, 0.1501534107869348
337.0, 0.1588292620093424
338.0, 0.15687551955853582
339.0, 0.16099796743407005
340.0, 0.16502112935515012
341.0, 0.17117955455225567
342.0, 0.17502592379427692
343.0, 0.17501109459555628
344.0, 0.18092669840248152
345.0, 0.17901446098737128
346.0, 0.184313092542806
347.0, 0.1814085539046969
348.0, 0.17682521152890038
349.0, 0.17815145832673188
350.0, 0.16554943682989162
351.0, 0.15806795398362006
352.0, 0.15932478192088073
353.0, 0.15848387281212628
354.0, 0.15659028526662924
355.0, 0.15679999908054845
356.0, 0.14326081574979987
357.0, 0.14380948604397842
358.0, 0.14279641823876452
359.0, 0.1436852863922234
360.0, 0.14468089096302028
361.0, 0.1418641363890648
362.0, 0.1406999221064725
363.0, 0.14330685856371966
364.0, 0.14657799607848132
365.0, 0.14495759707645678
366.0, 0.1430082943688271
367.0, 0.14862179952292792
368.0, 0.14843937723106232
369.0, 0.14722213487055277
370.0, 0.14498502106083228
371.0, 0.14545850722847367
372.0, 0.14691873122533594
373.0, 0.14575070894204342
374.0, 0.1538163161636435
375.0, 0.1500214822644989
376.0, 0.15117794587026068
377.0, 0.15489914570733396
378.0, 0.15591654333726757
379.0, 0.15241592389439065
380.0, 0.1620487266068671
381.0, 0.15214470931167404
382.0, 0.1546942740614106
383.0, 0.15625025666183787
384.0, 0.1523721853030669
385.0, 0.14961109860213417
386.0, 0.14224674913644586
387.0, 0.13753396234731943
388.0, 0.13687635357346942
389.0, 0.13189805949694952
390.0, 0.12222000185082628
391.0, 0.11497913110891335
392.0, 0.11467536960395645
393.0, 0.1153451943037184
394.0, 0.10770171886979518
395.0, 0.09972599156678276
396.0, 0.09437038114070238
397.0, 0.08874547290563825
398.0, 0.0805161320198349
399.0, 0.07763815287388627
400.0, 0.07504299909872275
401.0, 0.07180780670813314
402.0, 0.06824669955616333
403.0, 0.06485509378670334
404.0, 0.06028182106956847
405.0, 0.05836720941842211
406.0, 0.05659522346873212
407.0, 0.055443378330050565
408.0, 0.05328920401649989
409.0, 0.04847589730629987
410.0, 0.043764654619005125
411.0, 0.054603342262106405
412.0, 0.05106587305854856
413.0, 0.046011605488988444
414.0, 0.045990454587598
415.0, 0.048572604960328565
416.0, 0.0418473930169044
417.0, 0.04345800335144431
418.0, 0.046986005944624
419.0, 0.050462649955814266
420.0, 0.05175777733708913
421.0, 0.05066076812031421
422.0, 0.05058257915211626
423.0, 0.04743494525381077
424.0, 0.04481642823023095
425.0, 0.04294091449913927
426.0, 0.04007261863816765
427.0, 0.03528931323284162
428.0, 0.02971510248362108
429.0, 0.018076458585654157
430.0, 0.025266271270854117
431.0, 0.021451443332988616
432.0, 0.016953712379250117
433.0, 0.01744491611688597
434.0, 0.01211979439747166
435.0, 0.01027958582573062
436.0, 0.005198117939785373
437.0, 0.0024632986950790642
438.0, 0.002698528078579664
439.0, 0.005430154087396553
440.0, 0.009441629640866228
441.0, 0.010999453926726573
442.0, 0.013429676038635556
443.0, 0.014727044208271041
444.0, 0.013578652800896814
445.0, 0.012433893668868648
446.0, 0.014760118650855804
447.0, 0.019745083749398637
448.0, 0.01800022204147453
449.0, 0.020816939679419808
450.0, 0.02336216952464346
451.0, 0.021455711331196895
452.0, 0.015710616867366838
453.0, 0.014131103417502091
454.0, 0.019010709165571953
455.0, 0.014908666279893928
456.0, 0.012432036535453236
457.0, 0.012832829665465438
458.0, 0.011234771058226295
459.0, 0.002383224008910617
460.0, 0.009636853468086928
461.0, 0.0033264775291291784
462.0, 0.0039159000906590375
463.0, 0.0038157883680487777
464.0, 0.0020801422658513974
465.0, 0.004828758835895805
466.0, 0.0060866816805516645
467.0, 0.004971300836793838
468.0, 0.008722125407059923
469.0, 0.010284259297567658
470.0, 0.008541311481574127
471.0, 0.007893865110513836
472.0, 0.014921837791508701
473.0, 0.007788112798859706
474.0, 0.011970201872464684
475.0, 0.015277951831791016
476.0, 0.014433781413047957
477.0, 0.012769925247060901
478.0, 0.016554697463045446
479.0, 0.020222333302517857
480.0, 0.015363984984699906
481.0, 0.016294279835016513
482.0, 0.019958330139108613
483.0, 0.021433839802815387
484.0, 0.019365438405070958
485.0, 0.0210113209721746
486.0, 0.022047182857622905
487.0, 0.021613406791489813
488.0, 0.02390624174025699
489.0, 0.02506869977326464
490.0, 0.02301966743677572
491.0, 0.025238342674126953
492.0, 0.027757002884925615
493.0, 0.026959099030150865
494.0, 0.025932206519855904
495.0, 0.02610734120058195
496.0, 0.026515593416939463
497.0, 0.02526902232116799
498.0, 0.02544862042560904
499.0, 0.032773333899906304
500.0, 0.02874670117681287
501.0, 0.025532047164147476
502.0, 0.026778451882827008
503.0, 0.027653207980591548
504.0, 0.020799863211329428
505.0, 0.024879653794328962
506.0, 0.023120810694632555
507.0, 0.022173518028656133
508.0, 0.02358684919527507
509.0, 0.023676202138486556
510.0, 0.01776440471140588
511.0, 0.01584333040254402
512.0, 0.009943283045766985
513.0, 0.013179429135179398
514.0, 0.012025391256002728
515.0, 0.00874664407762243
516.0, 0.011289036012091882
517.0, 0.01659212262255879
518.0, 0.010930025307237013
519.0, 0.008783247604222052
520.0, 0.006799348312774876
521.0, 0.004292656595312899
522.0, 0.0033977077899733717
523.0, 0.005677242468406444
524.0, 0.0013970374078459726
525.0, 0.003701262306521837
526.0, 0.008764109241351938
527.0, 0.008935901802153295
528.0, 0.007326982792214805
529.0, 0.00896143482690806
530.0, 0.011942973172558715
531.0, 0.012013621921025711
532.0, 0.014170534166457485
533.0, 0.015100262417079723
534.0, 0.01687388539063753
535.0, 0.02022054426320977
536.0, 0.0235682193363187
537.0, 0.0247085715278551
538.0, 0.03018448354933752
539.0, 0.03517476585941528
540.0, 0.03984705004363621
541.0, 0.045949265310772675
542.0, 0.054096503940141254
543.0, 0.06292142717640453
544.0, 0.07248889884518193
545.0, 0.0803990592303182
546.0, 0.09329739134375004
547.0, 0.10461708423377786
548.0, 0.11654985185941084
549.0, 0.13314910426604842
550.0, 0.15021587615317625
551.0, 0.16396621975485542
552.0, 0.18404159934014355
553.0, 0.20418364007097786
554.0, 0.2213487692168807
555.0, 0.2352455109143008
556.0, 0.24835846263401992
557.0, 0.26567525072069004
558.0, 0.27617075472123104
559.0, 0.27932921448699843
560.0, 0.280751716185172
561.0, 0.2769992686052592
562.0, 0.27148952627949474
563.0, 0.2735705549747584
564.0, 0.265385689970993
565.0, 0.2483158676541226
566.0, 0.23924477105990838
567.0, 0.22573959333027463
568.0, 0.21021478366826143
569.0, 0.19971179481329723
570.0, 0.19292874043789357
571.0, 0.17040564807370723
572.0, 0.16208257473441878
573.0, 0.15165469882612748
574.0, 0.1423365599571831
575.0, 0.1348500827327468
576.0, 0.12676287720319204
577.0, 0.11669316485023143
578.0, 0.11499674283410459
579.0, 0.11224835367584007
580.0, 0.10246640816588848
581.0, 0.09463643629183877
582.0, 0.09463758520536415
583.0, 0.10012397359514914
584.0, 0.10167901573191399
585.0, 0.09863823096798535
586.0, 0.09791989266691307
587.0, 0.09774479588169561
588.0, 0.09789641016133438
589.0, 0.09789577865873346
590.0, 0.09742077979891113
591.0, 0.09841169002949096
592.0, 0.09667075652220951
593.0, 0.09503138966200171
594.0, 0.09551225784811264
595.0, 0.09532898125067721
596.0, 0.0939289718118714
597.0, 0.09341542891664509
598.0, 0.09106998247055731
599.0, 0.08881137561747207
600.0, 0.08532727946106511
601.0, 0.08122653024212859
602.0, 0.0779952704970094
603.0, 0.07563571730606787
604.0, 0.0728053171561656
605.0, 0.07083899604263649
606.0, 0.06907816096558772
607.0, 0.06784102015549548
608.0, 0.06658981773045447
609.0, 0.06667432097916341
610.0, 0.06830086288499888
611.0, 0.06901194627179313
612.0, 0.06452381124375456
613.0, 0.06937244425568816
614.0, 0.07042800683452483
615.0, 0.06871529264355448
616.0, 0.07095733602343877
617.0, 0.0761077066276573
618.0, 0.07645070583353024
619.0, 0.08518734510669669
620.0, 0.08628886054533463
621.0, 0.09226552023072465
622.0, 0.09435242799839541
623.0, 0.09710056383607828
624.0, 0.10210021525896615
625.0, 0.10499475051220757
626.0, 0.11708300221814227
627.0, 0.11888693029165255
628.0, 0.12471154345933812
629.0, 0.1395344036298067
630.0, 0.15229353405708834
631.0, 0.16262363182190362
632.0, 0.17979454263017686
633.0, 0.18504772362554003
634.0, 0.1962233594758485
635.0, 0.22069297666340926
636.0, 0.23825085653419145
637.0, 0.25471685857822945
638.0, 0.27749097322907346
639.0, 0.30665677361616706
640.0, 0.3416511873073208
641.0, 0.37089502444783057
642.0, 0.4068229580361676
643.0, 0.453220181982261
644.0, 0.5034671712911485
645.0, 0.5530979385426742
646.0, 0.6059970925742038
647.0, 0.6739481948883159
648.0, 0.7430713457434285
649.0, 0.7964780255996008
650.0, 0.8460785599232755
651.0, 0.8935037650507973
652.0, 0.9360529749845843
653.0, 0.9694936821411717
654.0, 0.9904709107307492
655.0, 0.9992212222727606
656.0, 0.9808357915232409
657.0, 0.9438337927018691
658.0, 0.9076531697148882
659.0, 0.8571119977830431
660.0, 0.7878609819271457
661.0, 0.733172025377802
662.0, 0.6653753276225697
663.0, 0.6075470143067601
664.0, 0.5565951595035368
665.0, 0.5096947026992018
666.0, 0.4706355343799347
667.0, 0.4430419386298744
668.0, 0.4236320881395417
669.0, 0.39782018405342523
670.0, 0.39594994402323813
671.0, 0.3882257222814167
672.0, 0.38086232189115715
673.0, 0.38030648468102546
674.0, 0.37938912339239406
675.0, 0.3737433068366678
676.0, 0.39022142860462306
677.0, 0.3863558701808535
678.0, 0.40017081939505644
679.0, 0.41385369209490974
680.0, 0.4285209722487401
681.0, 0.4386727375573032
682.0, 0.4457210633642571
683.0, 0.46626961726872673
684.0, 0.4753298827579113
685.0, 0.47494515323227676
686.0, 0.5053155203677091
687.0, 0.5181365634670401
688.0, 0.5253609210956423
689.0, 0.5412417590758626
690.0, 0.5528667361891219
691.0, 0.5610393315296791
692.0, 0.5759546288858273
693.0, 0.5818540969659284
694.0, 0.593857406294452
695.0, 0.6009451668219886
696.0, 0.6068790504381993
697.0, 0.6194006902392533
698.0, 0.6236460726170748
699.0, 0.623232779766378
700.0, 0.6456075369565042
701.0, 0.6423748582488545
702.0, 0.6400880849138268
703.0, 0.6499872377338505
704.0, 0.6642167758125253
705.0, 0.6690677347939473
706.0, 0.662143046145953
707.0, 0.6829891059583793
708.0, 0.6809734888204321
709.0, 0.6810735233101048
710.0, 0.686235561759841
711.0, 0.6936921378274277
712.0, 0.700585344589707
713.0, 0.7034488608277747
714.0, 0.6998613965498088
715.0, 0.6976780271268348
716.0, 0.695421932707752
717.0, 0.6869480002350195
718.0, 0.6715521759779435
719.0, 0.6554264142693861
720.0, 0.6422648287383401
721.0, 0.6152410028873369
722.0, 0.6135001789052923
723.0, 0.6020699081768164
724.0, 0.5740384051882209
725.0, 0.5480656094588373
726.0, 0.5299817676716098
727.0, 0.5120051419566625
728.0, 0.4883915602722004
729.0, 0.47319902069946834
730.0, 0.46227703542781035
731.0, 0.43736491220756607
732.0, 0.420533853640497
733.0, 0.4074037530996445
734.0, 0.391126731285259
735.0, 0.3737991872464274
736.0, 0.36057509911720387
737.0, 0.3410022803542738
738.0, 0.33409049627508886
739.0, 0.32282016289739385
740.0, 0.31588071217326963
741.0, 0.3091246666670629
742.0, 0.29737141659453836
743.0, 0.2849446742836525
744.0, 0.2807232862156689
745.0, 0.2708354158476408
746.0, 0.26129255168864896
747.0, 0.2537483584995877
748.0, 0.2482883889867967
749.0, 0.24376730628551474
750.0, 0.23936208894723912
751.0, 0.23563943724117742
752.0, 0.23374269105057083
753.0, 0.23133358912279578
754.0, 0.22825834724348162
755.0, 0.22527625183618663
756.0, 0.2234328261769245
757.0, 0.22007736428962502
758.0, 0.21446636251311318
759.0, 0.21149632563012855
760.0, 0.20582597050322038
761.0, 0.20512277635809936
762.0, 0.19914357250038756
763.0, 0.19472465053532245
764.0, 0.19196092593847924
765.0, 0.18879012426019803
766.0, 0.1848860847717145
767.0, 0.18188520300865316
768.0, 0.17486156028382036
769.0, 0.16677046743739649
770.0, 0.16447789647783545
771.0, 0.1632936765283315
772.0, 0.15888292164406656
773.0, 0.1536030186814
774.0, 0.15116823784815003
775.0, 0.14786997716905267
776.0, 0.145321999624989
777.0, 0.14114172303314
778.0, 0.13981038233167536
779.0, 0.13626989963074718
780.0, 0.13295006020358402
781.0, 0.13087717847619987
782.0, 0.12879362146834272
783.0, 0.1279883943476693
784.0, 0.12487672451628357
785.0, 0.12630299091560188
786.0, 0.12081970468583289
787.0, 0.11994256424958719
788.0, 0.11462691953391148
789.0, 0.10717819598226273
790.0, 0.1057281040914871
791.0, 0.09991184430868814
792.0, 0.09615009030336535
793.0, 0.09264033265005928
794.0, 0.08788613529426482
795.0, 0.08400437219463117
796.0, 0.07991011377984827
797.0, 0.07508964503539296
798.0, 0.07069239256930857
799.0, 0.06706214245837637
800.0, 0.057482369916047826
801.0, 0.05383232767567841
802.0, 0.052645009193574795
803.0, 0.0466957967208684
804.0, 0.04225051567116812
805.0, 0.041303855849860086
806.0, 0.03774467868712967
807.0, 0.027223672792310746
808.0, 0.02653694643263856
809.0, 0.022715251776392713
810.0, 0.01521614062786518
811.0, 0.016772632243909773
812.0, 0.019684988622374416
813.0, 0.018947173955415984
814.0, 0.01618097274659994
815.0, 0.014206963633728862
816.0, 0.010959161152409589
817.0, 0.005297817766818443
818.0, 0.002520322766645023
819.0, 0.0009723219064391481
820.0, 0.0022086631776529054
821.0, 0.003679667988440975
822.0, 0.0037036787167667373
823.0, 0.003869753153196421
824.0, 0.004803782238905133
825.0, 0.0016123147393081504
826.0, 0.00217981547487142
827.0, 0.0027703063494401107
828.0, 0.002642806177198089
829.0, 0.0037867203952201686
830.0, 0.005480860439128721
831.0, 0.006060866459963883
832.0, 0.007764251929097366
833.0, 0.012919072753370576
834.0, 0.012567695767386271
835.0, 0.012098306564113778
836.0, 0.009121864342012172
837.0, 0.01149807128579432
838.0, 0.015144948595259779
839.0, 0.014486215511856401
840.0, 0.013632315513272085
841.0, 0.014714602390086252
842.0, 0.006646305091173145
843.0, 0.008354440202161695
844.0, 0.011983912340894621
845.0, 0.008770136124295726
846.0, 0.008796925658853604
847.0, 0.012917435117064424
848.0, 0.012951638401718313
849.0, 0.01317381345873036
850.0, 0.003818902631895817
851.0, 0.004580582001650291
852.0, 0.0038906565008720345
853.0, 0.001647635863422559
854.0, 0.0006146808597350295
855.0, 0.0008447207692080878
856.0, 0.0013821827973625966
857.0, 0.002541017094942341
858.0, 0.0038406584934885745
859.0, 0.0047656016545206134
860.0, 0.006177711289534629
861.0, 0.008046924582464136
862.0, 0.009723258495489261
863.0, 0.012288970037641438
864.0, 0.016943011029236104
865.0, 0.020683804202703507
866.0, 0.01854604034129396
867.0, 0.025372594538982444
868.0, 0.025575237324735975
869.0, 0.030922465154206102
870.0, 0.035029074459542044
871.0, 0.03769317887017352
872.0, 0.04471799560770614
873.0, 0.051860764967153146
874.0, 0.05085244127057432
875.0, 0.05328179342949497
876.0, 0.05916253814018212
877.0, 0.06882843106671699
878.0, 0.07411897555150013
879.0, 0.0803369778010172
880.0, 0.08809185520247838
881.0, 0.09537704250402364
882.0, 0.10098994649459224
883.0, 0.10556318813330032
884.0, 0.10964568431917693
885.0, 0.11785083373211999
886.0, 0.12288094947685294
887.0, 0.12879596337132584
888.0, 0.13463970272965792
889.0, 0.14218670177340484
890.0, 0.14933481761950454
891.0, 0.15472622637068814
892.0, 0.16091516527724795
893.0, 0.16405214489384318
894.0, 0.17617736087536923
895.0, 0.18229529650760332
896.0, 0.18893471469782366
897.0, 0.19129095797704143
898.0, 0.19877086163432703
899.0, 0.21057726409788577
900.0, 0.21736999132427495
901.0, 0.2191167318997382
902.0, 0.22622068679442267
903.0, 0.23483762718063508
904.0, 0.24680770887651088
905.0, 0.2568175800994937
906.0, 0.26021681668563706
907.0, 0.265671189763581
908.0, 0.27365042081259705
909.0, 0.27974167985286763
910.0, 0.2869256640078422
911.0, 0.29404197966345363
912.0, 0.3047319942630311
913.0, 0.3139612624575334
914.0, 0.3239081998750631
915.0, 0.3255580328519996
916.0, 0.3314240793027259
917.0, 0.3389552534138794
918.0, 0.33833818854332137
919.0, 0.3356925955090917
920.0, 0.3376968433331347
921.0, 0.3376390983484656
922.0, 0.33764311201510855
923.0, 0.33765198717523365
924.0, 0.33618928132969655
925.0, 0.33376067014185684
926.0, 0.32607825877551433
927.0, 0.31848906894550355
928.0, 0.3212748222626541
929.0, 0.3139745520895972
930.0, 0.3075051203089244
931.0, 0.31572728392216237
932.0, 0.3017248781153849
933.0, 0.29150469154681796
934.0, 0.2875634768730701
935.0, 0.27814925965614656
936.0, 0.2647272026406012
937.0, 0.2586343577191281
938.0, 0.2515482031647665
939.0, 0.24622697672219065
940.0, 0.2413031000297909
941.0, 0.23503924537638587
942.0, 0.22525619965557322
943.0, 0.21516773326404517
944.0, 0.2132288816465462
945.0, 0.2121297060377802
946.0, 0.20320679218107368
947.0, 0.19868733524713564
948.0, 0.19264357082887631
949.0, 0.1823733361294495
950.0, 0.17881439300017288
951.0, 0.1748475332125972
952.0, 0.16982087175534022
953.0, 0.1623715452587325
954.0, 0.15627627883508013
955.0, 0.1513390640831714
956.0, 0.14354309291799736
957.0, 0.14205331545616515
958.0, 0.1320149537871578
959.0, 0.12895135192008234
960.0, 0.12146277084205866
961.0, 0.10729027943863086
962.0, 0.09948515054605997
963.0, 0.09564363470611872
964.0, 0.0920128931388315
965.0, 0.08693411340178744
966.0, 0.07633419601982545
967.0, 0.08023815602117815
968.0, 0.0694184856318372
969.0, 0.06377538814899553
970.0, 0.060552507815953255
971.0, 0.05731445718705949
972.0, 0.05532409945054071
973.0, 0.05431888693615046
974.0, 0.05346957898872855
975.0, 0.05009981066681082
976.0, 0.040503261075630015
977.0, 0.052891221890153606
978.0, 0.03348800787555333
979.0, 0.04238325127155519
980.0, 0.03995226579521357
981.0, 0.0357601853949855
982.0, 0.03484363910489347
983.0, 0.03325995381040641
984.0, 0.030862159200469048
985.0, 0.031437405317445336
986.0, 0.027562807115340846
987.0, 0.03928485340904554
988.0, 0.036049759090148376
989.0, 0.043081586216443105
990.0, 0.04319872622768577
991.0, 0.048385006767050154
992.0, 0.05130062342553702
993.0, 0.05188439900295317
994.0, 0.05384761582402651
995.0, 0.05080062184782576
996.0, 0.05798610838637492
997.0, 0.0667403189221962
998.0, 0.07232961489816268
999.0, 0.07676881786939789
1000.0, 0.08170457857142821
1001.0, 0.08707960355173633
1002.0, 0.09254822693024299
1003.0, 0.09737171226328542
1004.0, 0.1013139275241523
1005.0, 0.10547001298065047
1006.0, 0.11155485679922719
1007.0, 0.1278362517927143
1008.0, 0.13283223361694427
1009.0, 0.14009935118845496
1010.0, 0.15271842633211333
1011.0, 0.1598385302221325
1012.0, 0.17053719576058637
1013.0, 0.18716622465780655
1014.0, 0.20221365195921578
1015.0, 0.21432043185948382
1016.0, 0.2222497519659788
1017.0, 0.2395206467086973
1018.0, 0.2581199839015637
1019.0, 0.27959119726841636
1020.0, 0.29086463714575017
1021.0, 0.30510968622419604
1022.0, 0.3218361256103407
1023.0, 0.33516878558168517
1024.0, 0.3444926071305335
1025.0, 0.35284024794819197
1026.0, 0.3606972553534162
1027.0, 0.3679812205161264
1028.0, 0.3735642261468292
1029.0, 0.3809070096630447
1030.0, 0.3848608393971479
1031.0, 0.3901009906043217
1032.0, 0.3929995702314808
1033.0, 0.39078218183675495
1034.0, 0.3886146885525805
1035.0, 0.3889214358525821
1036.0, 0.38218072003971376
1037.0, 0.3768617360315612
1038.0, 0.3658516627680568
1039.0, 0.3557587100625742
1040.0, 0.33742009829563707
1041.0, 0.3270383770368822
1042.0, 0.3136820183996834
1043.0, 0.29596378075776847
1044.0, 0.2795587488123493
1045.0, 0.26605524000835856
1046.0, 0.2526636135909304
1047.0, 0.23814574130766697
1048.0, 0.22974153834439348
1049.0, 0.20919019523091395
1050.0, 0.19526725848192053
1051.0, 0.17431682131100804
1052.0, 0.16224198121457828
1053.0, 0.152885467421692
1054.0, 0.1454090802000213
1055.0, 0.13748649157071346
1056.0, 0.1243040694968151
1057.0, 0.1159562585829014
1058.0, 0.1126101385574073
1059.0, 0.10489523179942721
1060.0, 0.10055388941050517
1061.0, 0.09692954195138087
1062.0, 0.08850152559974418
1063.0, 0.0885758846353248
1064.0, 0.08846286570400552
1065.0, 0.08114254315428003
1066.0, 0.07356219219494352
1067.0, 0.0734318355093214
1068.0, 0.07694912384571613
1069.0, 0.0758741025322353
1070.0, 0.0751848075036369
1071.0, 0.06634982788301794
1072.0, 0.06637095315381339
1073.0, 0.06437866075615456
1074.0, 0.06608693766628103
1075.0, 0.06366761687068964
1076.0, 0.062420723075983876
1077.0, 0.06334946804728654
1078.0, 0.05567952051020711
1079.0, 0.060420220675974225
1080.0, 0.06337812847699809
1081.0, 0.06299407607566214
1082.0, 0.05873887453368921
1083.0, 0.06413978952879557
1084.0, 0.06492274125890814
1085.0, 0.060954486896361605
1086.0, 0.05954818599566822
1087.0, 0.05700049856258002
1088.0, 0.05196575531172055
1089.0, 0.05411473225167583
1090.0, 0.059623555304333
1091.0, 0.05873649675403387
1092.0, 0.05172779620044135
1093.0, 0.059182274535086524
1094.0, 0.05621715980900736
1095.0, 0.05576338625084135
1096.0, 0.05351970145808961
1097.0, 0.053003499651390465
1098.0, 0.052797186770626385
1099.0, 0.052519493706916213
1100.0, 0.052829963198640625
1101.0, 0.043385790465754026
1102.0, 0.03745136420870339
1103.0, 0.042616615540412066
1104.0, 0.034511877629974735
1105.0, 0.03223162511138333
1106.0, 0.03567498472932204
1107.0, 0.03060924793054357
1108.0, 0.026640856492901665
1109.0, 0.022807502701882046
1110.0, 0.019324013243401928
1111.0, 0.02100036068136226
1112.0, 0.02044524665081532
1113.0, 0.01714636722034895
1114.0, 0.018384867838393052
1115.0, 0.015418732167069104
1116.0, 0.015274629284873397
1117.0, 0.01248076575568867
1118.0, 0.008059828780579306
1119.0, 0.005243219352368425
1120.0, 0.003285979910580112
1121.0, 0.0019674939323734474
1122.0, 0.001374238603002162
1123.0, 0.0013029895345143248
1124.0, 0.003086315881174411
1125.0, 0.001346429687980426
1126.0, 0.0009113719100943131
1127.0, 0.00023561591832545902
1128.0, 0.0008030170382713217
1129.0, 0.0005552833155003914
1130.0, 0.0015496963041451402
1131.0, 0.001801312941703629
1132.0, 0.001289976088482174
1133.0, 0.0016449497457976525
1134.0, 0.0021665951310407407
1135.0, 0.0010599010783447188
1136.0, 0.00040988067531223327
1137.0, 0.0012309344198607572
1138.0, 0.007351691903889065
1139.0, 0.0027793945885289887
1140.0, 0.005313413458137495
1141.0, 0.0023049450489991906
1142.0, 0.0005314624851948081
1143.0, 0.0019048184832351088
1144.0, 0.0019388457867844033
1145.0, 0.0012107128851844488
1146.0, 0.0017020174904835842
1147.0, 0.0012247980141294182
1148.0, 0.003067549568021575
1149.0, 0.0029749609471057467
1150.0, 0.0025150261074369635
1151.0, 0.003575855581342107
1152.0, 0.0010343209133693888
1153.0, 0.0013824859581190157
1154.0, 0.0012743946342408856
1155.0, 0.0024764034158546865
1156.0, 0.004121345989378122
1157.0, 0.0032777486188055463
1158.0, 0.0020879319468884326
1159.0, 0.003920164414471568
1160.0, 0.003351559241223109
1161.0, 0.0010537367830775566
1162.0, 0.0013500268019417559
1163.0, 0.00557997546590139
1164.0, 0.0022141514260653975
1165.0, 0.001052468429108316
1166.0, 0.0016340724696897566
1167.0, 0.0010078613852183723
1168.0, 0.0007413575594989471
1169.0, 0.0015954578555757166
1170.0, 0.0025050393352945397
1171.0, 0.0029200175367233
1172.0, 0.0023046195662483238
1173.0, 0.0009543139805744863
1174.0, 0.0020540006262525353
1175.0, 0.0021504432312755267
1176.0, 0.0031855953082381367
1177.0, 0.003963010211495037
1178.0, 0.0023288978419588762
1179.0, 0.0019528153448975726
1180.0, 0.003742169812890547
1181.0, 0.003393268598387555
1182.0, 0.0011505221937721738
1183.0, 0.0008467659343367941
1184.0, 0.0019197354320130936
1185.0, 0.0024582503481330397
1186.0, 0.0035067811535358945
1187.0, 0.0025147363315563887
1188.0, 0.00102761303059761
1189.0, 0.004558357411998059
1190.0, 0.0017557294168531602
1191.0, 0.00479753340825601
1192.0, 0.0051130585013574
1193.0, 0.007634140465523988
1194.0, 0.005510267998697483
1195.0, 0.0016059232263188846
1196.0, 0.0037800581511081128
1197.0, 0.0033451966376016186
1198.0, 0.00392081971037312
1199.0, 0.005930325033838658
1200.0, 0.005948539612447495
1201.0, 0.006519911488408627
1202.0, 0.0020787688358269
1203.0, 0.004933858147533089
1204.0, 0.006734861406369869
1205.0, 0.005146102765925506
1206.0, 0.005932518882488759
1207.0, 0.005065123450061243
1208.0, 0.0030466529723483086
1209.0, 0.004679733521995287
1210.0, 0.005091280609446114
1211.0, 0.003541620828162548
1212.0, 0.012045428883043602
1213.0, 0.008841612741610544
1214.0, 0.00884167481481506
1215.0, 0.0015595985185885525
1216.0, 0.0026743457167232943
1217.0, 0.0030671634273032643
1218.0, 0.0030721877728313533
1219.0, 0.003440786604227829
1220.0, 0.004446332075914529
1221.0, 0.007839629289844045
1222.0, 0.008361790377271777
1223.0, 0.005502378519816321
1224.0, 0.00992977965473876
1225.0, 0.006223197777464062
1226.0, 0.009747251838020695
1227.0, 0.006488103943555561
1228.0, 0.004405805634246564
1229.0, 0.006945696237217789
1230.0, 0.005442222828546992
1231.0, 0.007345446031868509
1232.0, 0.00964180592979575
1233.0, 0.008359255217027572
1234.0, 0.008186697705466905
1235.0, 0.009381482513931406
1236.0, 0.009232016143235395
1237.0, 0.009844160374761908
1238.0, 0.009622566409204548
1239.0, 0.00766081717774162
1240.0, 0.01051149247173793
1241.0, 0.014917606442693661
1242.0, 0.012914288170121566
1243.0, 0.010872355680046129
1244.0, 0.005162034468801549
1245.0, 0.002780831964386688
1246.0, 0.004487740753762588
1247.0, 0.006043055428133801
1248.0, 0.006378901948372459
1249.0, 0.00830072742701423
1250.0, 0.007993942407842488
1251.0, 0.002154348929821983
1252.0, 0.0012916053342938577
1253.0, 0.002970981342989266
1254.0, 0.004407427085902237
1255.0, 0.006098878262885845
1256.0, 0.0059164824690831645
1257.0, 0.002959163796468548
1258.0, 0.003944921955572655
1259.0, 0.009033163952466018
1260.0, 0.012321958723394623
1261.0, 0.010909519045325446
1262.0, 0.0070515414307162705
1263.0, 0.004865947051137829
1264.0, 0.006956095490553263
1265.0, 0.010660820730445763
1266.0, 0.011660969081832614
1267.0, 0.011893887392207507
1268.0, 0.005926087933349251
1269.0, 0.00754844214618681
1270.0, 0.006284632485196853
1271.0, 0.004301203408776358
1272.0, 0.005626479187053227
1273.0, 0.008859941462272432
1274.0, 0.00846993971569571
1275.0, 0.01091159353392314
1276.0, 0.0114194303566065
1277.0, 0.007830566498375732
1278.0, 0.006138275271502991
1279.0, 0.007789102704679121
1280.0, 0.008156274683261595
1281.0, 0.007535662608129854
1282.0, 0.007830472599803252
1283.0, 0.00791096780664655
1284.0, 0.003974684095978309
1285.0, 0.00968512090673268
1286.0, 0.012488847099201792
1287.0, 0.005524835260619176
1288.0, 0.012440941446888685
1289.0, 0.0063651550890107406
1290.0, 0.007966931173906318
1291.0, 0.0071568937499811676
1292.0, 0.0051630217581944875
1293.0, 0.008615844000608075
1294.0, 0.013192315195925182
1295.0, 0.012090435522425837
1296.0, 0.00603304769352558
1297.0, 0.006607640869944181
1298.0, 0.008369543592139471
1299.0, 0.007972606184005311
1300.0, 0.007228730215919603
1301.0, 0.01040465059670199
1302.0, 0.014805983144245732
1303.0, 0.010856609028746668
1304.0, 0.011535527077998313
1305.0, 0.006040220465886494
1306.0, 0.005870552430093719
1307.0, 0.01086757578750734
1308.0, 0.007789154555149009
1309.0, 0.004305796678590577
1310.0, 0.007299045227724606
1311.0, 0.0069357949901332335
1312.0, 0.008856862533907668
1313.0, 0.011169545635944238
1314.0, 0.0011289517019231554
1315.0, 0.009205685813407525
1316.0, 0.004617942668821879
1317.0, 0.001609907131065376
1318.0, 0.001343580506083758
1319.0, 0.003977202587627494
1320.0, 0.002361807283900496
1321.0, 0.0016755584350121192
1322.0, 0.004197880561850415
1323.0, 0.009229092561610629
1324.0, 0.006733821688176652
1325.0, 0.0037348438648826805
1326.0, 0.0050678545667592395
1327.0, 0.002924864495229858
1328.0, 0.0050123555939931815
1329.0, 0.008735236622339222
1330.0, 0.007319606966234674
1331.0, 0.002641109607498617
1332.0, 0.000999994208533076
1333.0, 0.002427099250290758
1334.0, 0.0031752014896365083
1335.0, 0.0036491146123078886
1336.0, 0.0053526015706911725
1337.0, 0.005608713224150169
1338.0, 0.002293216466364442
1339.0, 0.0012458959986001107
1340.0, 0.006886657788298395
1341.0, 0.009355980161254353
1342.0, 0.004889146005241463
1343.0, 0.004569595338979217
1344.0, 0.008391391915639246
1345.0, 0.005307285328938336
1346.0, 0.004726005551668938
1347.0, 0.005481477562531308
1348.0, 0.002195671873229833
1349.0, 0.006911821491105251
1350.0, 0.004608203509333754
1351.0, 0.010431640159597395
1352.0, 0.005010296665160275
1353.0, 0.0043944684959118345
1354.0, 0.004644673248917475
1355.0, 0.0015775433087104169
1356.0, 0.0036581243084944917
1357.0, 0.005012007572102617
1358.0, 0.002259509663878532
1359.0, 0.0026613576521814586
1360.0, 0.006379679893036609
1361.0, 0.006327344582906337
1362.0, 0.00307474174365629
1363.0, 0.0009689438731582893
1364.0, 0.00228019333329985
1365.0, 0.001973340894731898
1366.0, 0.005014912160092177
1367.0, 0.001989953469091354
1368.0, 0.006640988565053761
1369.0, 0.0026751955538947547
1370.0, 0.008000259690268364
1371.0, 0.002371633714143993
1372.0, 0.0021585145880579867
1373.0, 0.0036277109698520317
1374.0, 0.006734218427406196
1375.0, 0.005659172836511482
1376.0, 0.007308260330994846
1377.0, 0.006435481747132091
1378.0, 0.0026478144350521897
1379.0, 0.006452324049260336
1380.0, 0.008020184180544286
1381.0, 0.0070537431396150525
1382.0, 0.008750824592561806
1383.0, 0.009042090792573405
1384.0, 0.007250713815849099
1385.0, 0.00607419907496104
1386.0, 0.004714228393186231
1387.0, 0.0039850195532026835
1388.0, 0.0012636111466292187
1389.0, 0.002315204612736318
1390.0, 0.0060410509551350544
1391.0, 0.006629932076726818
1392.0, 0.004329076974007714
1393.0, 0.006953023853597644
1394.0, 0.006987963845908982
1395.0, 0.0077964967073857
1396.0, 0.010698098638364342
1397.0, 0.007374677026323403
1398.0, 0.002710594814798783
1399.0, 0.005796560754361866
1400.0, 0.008227533484559325
1401.0, 0.00236850128764555
1402.0, 0.007159768347050463
1403.0, 0.007663321446789148
1404.0, 0.00868405662751157
1405.0, 0.00514762384606085
1406.0, 0.01083020881118862
1407.0, 0.0038944334753518435
1408.0, 0.002558897080870334
1409.0, 0.0045653338831243544
1410.0, 0.002617067480248735
1411.0, 0.0064229596826481505
1412.0, 0.007348966029760215
1413.0, 0.004600416840777803
1414.0, 0.005321264476676274
1415.0, 0.0066122823809896805
1416.0, 0.008031015561603584
1417.0, 0.011812675377839192
1418.0, 0.01175981738989103
1419.0, 0.006999139773959885
1420.0, 0.004652303375820063
1421.0, 0.004902972548246527
1422.0, 0.004634934005715438
1423.0, 0.008957588862404343
1424.0, 0.005140739296971288
1425.0, 0.011658473504584755
1426.0, 0.00960909835993113
1427.0, 0.01188105175808709
1428.0, 0.008804449763777077
1429.0, 0.0066262615561734
1430.0, 0.012526503084752826
1431.0, 0.012414239797938353
1432.0, 0.007070129924050322
1433.0, 0.005830244636888642
1434.0, 0.011326303695521449
1435.0, 0.01151685917486365
1436.0, 0.010170925156573439
1437.0, 0.009646371415625441
1438.0, 0.008815555876495067
1439.0, 0.01119132389713788
1440.0, 0.010157266504458421
1441.0, 0.013083792657859661
1442.0, 0.015424630176424772
1443.0, 0.015670985416693192
1444.0, 0.010429875820966387
1445.0, 0.01063791246857964
1446.0, 0.010649838579545063
1447.0, 0.01101701131387859
1448.0, 0.01590501808621259
1449.0, 0.015397875355635015
1450.0, 0.017120525350138714
1451.0, 0.015257044836089802
1452.0, 0.01994039581364553
1453.0, 0.01812323227197819
1454.0, 0.015210863831275023
1455.0, 0.011492413615205234
1456.0, 0.01185347520943172
1457.0, 0.015379940741358794
1458.0, 0.01814448941801213
1459.0, 0.013760919686644989
1460.0, 0.010949957184501079
1461.0, 0.015725618632591518
1462.0, 0.01598028976067676
1463.0, 0.017766749715705625
1464.0, 0.011705414272246643
1465.0, 0.01500452767845238
1466.0, 0.01280090687311262
1467.0, 0.014422503450134823
1468.0, 0.009158519184978413
1469.0, 0.009833391054877138
1470.0, 0.014917951638387869
1471.0, 0.015472685804282297
1472.0, 0.015316299556190719
1473.0, 0.016386933407871878
1474.0, 0.015146480556918975
1475.0, 0.008860703958004897
1476.0, 0.012346675513769955
1477.0, 0.008291425433580515
1478.0, 0.013458550278090361
1479.0, 0.012326586963962634
1480.0, 0.0078970590590395
1481.0, 0.010260780530237155
1482.0, 0.010457777168230833
1483.0, 0.00749770028357307
1484.0, 0.008562771825151997
1485.0, 0.0092091784175603
1486.0, 0.007222330117176013
1487.0, 0.007220240503972445
1488.0, 0.006226022923410119
1489.0, 0.009874555364476303
1490.0, 0.008086343430298121
1491.0, 0.011253919810244793
1492.0, 0.011669335854382408
1493.0, 0.004380272027654042
1494.0, 0.01295627150999894
1495.0, 0.003227323960319076
1496.0, 0.00637995987638913
1497.0, 0.007264587435272473
1498.0, 0.011552501104444514
1499.0, 0.006729652338127329
1500.0, 0.004613846430853328
1501.0, 0.009066112753969197
1502.0, 0.008992189865297161
1503.0, 0.012306049347493804
1504.0, 0.007205708268433775
1505.0, 0.007832166725233628
1506.0, 0.011357281143412976
1507.0, 0.00780856469245534
1508.0, 0.0070859683044377725
1509.0, 0.007485500344414477
1510.0, 0.006042169872199321
1511.0, 0.009031645605924853
1512.0, 0.006872456694094467
1513.0, 0.003892906976806023
1514.0, 0.007407187068153753
1515.0, 0.003352871635884231
1516.0, 0.009608493096414279
1517.0, 0.006000336175747209
1518.0, 0.007996775882175474
1519.0, 0.004322769690936579
1520.0, 0.0008944502410587231
1521.0, 0.006053368974347815
1522.0, 0.005207986712592096
1523.0, 0.008407239307322805
1524.0, 0.010940250424138235
1525.0, 0.010518319586903727
1526.0, 0.00896103885636102
1527.0, 0.005915500690426263
1528.0, 0.005648203484007737
1529.0, 0.009571894102539247
1530.0, 0.012907586254320908
1531.0, 0.007571971783537643
1532.0, 0.010764189477557501
1533.0, 0.011147580200935807
1534.0, 0.004622788607659839
1535.0, 0.0013398761426881018
1536.0, 0.005360537679267599
1537.0, 0.00812572367502343
1538.0, 0.0047578213299793925
1539.0, 0.0042212246791081725
1540.0, 0.0045886340009655986
1541.0, 0.0033556004272139823
1542.0, 0.010434429347894464
1543.0, 0.009344083306040998
1544.0, 0.0015481277754017715
1545.0, 0.004703617823720407
1546, 0.0
1547, 0.0
1548, 0.0
1549, 0.0
1550, 0.0
1551, 0.0
1552, 0.0
1553, 0.0
1554, 0.0
1555, 0.0
1556, 0.0
1557, 0.0
1558, 0.0
1559, 0.0
1560, 0.0
1561, 0.0
1562, 0.0
1563, 0.0
1564, 0.0
1565, 0.0
1566, 0.0
1567, 0.0
1568, 0.0
1569, 0.0
1570, 0.0
1571, 0.0
1572, 0.0
1573, 0.0
1574, 0.0
1575, 0.0
1576, 0.0
1577, 0.0
1578, 0.0
1579, 0.0
1580, 0.0
1581, 0.0
1582, 0.0
1583, 0.0
1584, 0.0
1585, 0.0
1586, 0.0
1587, 0.0
1588, 0.0
1589, 0.0
1590, 0.0
1591, 0.0
1592, 0.0
1593, 0.0
1594, 0.0
1595, 0.0
1596, 0.0
1597, 0.0
1598, 0.0
1599, 0.0
