30, 0.0
31, 0.0
32, 0.0
33, 0.0
34, 0.0
35, 0.0
36, 0.0
37, 0.0
38, 0.0
39, 0.0
40, 0.0
41, 0.0
42, 0.0
43, 0.0
44, 0.0
45, 0.0
46, 0.0
47, 0.0
48, 0.0
49, 0.0
50, 0.0
51, 0.0
52, 0.0
53, 0.0
54, 0.0
55, 0.0
56, 0.0
57, 0.0
58, 0.0
59, 0.0
60, 0.0
61, 0.0
62, 0.0
63, 0.0
64, 0.0
65, 0.0
66, 0.0
67, 0.0
68, 0.0
69, 0.0
70, 0.0
71, 0.0
72, 0.0
73, 0.0
74, 0.0
75, 0.0
76, 0.0
77, 0.0
78, 0.0
79, 0.0
80, 0.0
81, 0.0
82, 0.0
83, 0.0
84, 0.0
85, 0.0
86, 0.0
87, 0.0
88, 0.0
89, 0.0
90, 0.0
91, 0.0
92, 0.0
93, 0.0
94, 0.0
95, 0.0
96, 0.0
97, 0.0
98, 0.0
99, 0.0
100, 0.0
101, 0.0
102, 0.0
103, 0.0
104, 0.0
105, 0.0
106, 0.0
107, 0.0
108, 0.0
109, 0.0
110, 0.0
111, 0.0
112, 0.0
113, 0.0
114, 0.0
115, 0.0
116, 0.0
117, 0.0
118, 0.0
119, 0.0
120, 0.0
121, 0.0
122, 0.0
123, 0.0
124, 0.0
125, 0.0
126, 0.0
127, 0.0
128, 0.0
129, 0.0
130, 0.0
131, 0.0
132, 0.0
133, 0.0
134, 0.0
135, 0.0
136, 0.0
137.0, 0.00042558217112020793
138.0, 0.0011470550093916083
139.0, 0.0019113088574041004
140.0, 0.005770839373120529
141.0, 0.003587789097605207
142.0, 0.004084967224724957
143.0, 0.007396377609418435
144.0, 0.005563587219987204
145.0, 0.005814672269941062
146.0, 0.007146190427796756
147.0, 0.009451098653483586
148.0, 0.012546649708939261
149.0, 0.012224593595240566
150.0, 0.015107993554396758
151.0, 0.01936968340292828
152.0, 0.02250260596024734
153.0, 0.025776181165780326
154.0, 0.02834202402949694
155.0, 0.027390118433733453
156.0, 0.024593064028085185
157.0, 0.0248870698457272
158.0, 0.02491931426112361
159.0, 0.02343807974255468
160.0, 0.023119762931780634
161.0, 0.026463406344123627
162.0, 0.027324228034203292
163.0, 0.03199582457238341
164.0, 0.03708228285582522
165.0, 0.04083679384043153
166.0, 0.04376802310353197
167.0, 0.046991169248447276
168.0, 0.05074019977043298
169.0, 0.054965307226363454
170.0, 0.05817621830994739
171.0, 0.06302682604001489
172.0, 0.0660030752608747
173.0, 0.0669774735363304
174.0, 0.06664139139495552
175.0, 0.06387227031491953
176.0, 0.05757736972365476
177.0, 0.04954411436696907
178.0, 0.04170681497768486
179.0, 0.03489443961763684
180.0, 0.02774590249460714
181.0, 0.02073963085506997
182.0, 0.01461774419526126
183.0, 0.010203508324425771
184.0, 0.008467838688525551
185.0, 0.003844096725713268
186.0, 0.00043955805001909823
187.0, 0.001352677533328817
188.0, 0.0015522728532670045
189.0, 0.0041961441451492335
190.0, 0.003882343824400824
191.0, 0.0022643402868048534
192.0, 0.0031194177133844945
193.0, 0.0019137632182192393
194.0, 0.001403517218153188
195.0, 0.0014593577948492696
196.0, 0.000779270106088627
197.0, 0.0007451337145704947
198.0, 0.0001988891802105874
199.0, 0.0013866969944615736
200.0, 0.0016733604484308754
201.0, 0.0006037734660468172
202.0, 4.849580083745336e-05
203.0, 0.0002591514627758075
204.0, 0.00021615292765129798
205.0, 0.0007798353088263808
206.0, 0.0010199937384985742
207.0, 0.0025986199957719115
208.0, 0.004388000441334244
209.0, 0.007366448871727435
210.0, 0.01078500899911589
211.0, 0.016869808418321707
212.0, 0.02106658520351249
213.0, 0.022203444572353688
214.0, 0.022552412407623318
215.0, 0.021610555427459745
216.0, 0.01953129647717563
217.0, 0.015578181951975096
218.0, 0.010609508554133283
219.0, 0.008789613596122526
220.0, 0.007589244379835536
221.0, 0.00572349644115436
222.0, 0.0039058012497215477
223.0, 0.00393657051447682
224.0, 0.005036054683192993
225.0, 0.0065417322741439165
226.0, 0.00798171716866836
227.0, 0.009427177386009454
228.0, 0.01184361784945449
229.0, 0.01176147247342611
230.0, 0.011332039747393654
231.0, 0.011523662515811599
232.0, 0.011083484400040148
233.0, 0.00847971141758181
234.0, 0.008278842019627591
235.0, 0.00868644114407926
236.0, 0.007268941433066994
237.0, 0.0057633655311471015
238.0, 0.00560339355954693
239.0, 0.00857049195840513
240.0, 0.012007137823097093
241.0, 0.011125929773411774
242.0, 0.013099134429736857
243.0, 0.012855718428040489
244.0, 0.014166213811245757
245.0, 0.019309310447640143
246.0, 0.020837120368185566
247.0, 0.022935957762295265
248.0, 0.02507165662101802
249.0, 0.028960027307685522
250.0, 0.03686411544194575
251.0, 0.03968088269568295
252.0, 0.04470699224588094
253.0, 0.05254215428975186
254.0, 0.060814611776095956
255.0, 0.0658395773786257
256.0, 0.07337268658223149
257.0, 0.08058200688796935
258.0, 0.08797661445910723
259.0, 0.0975863337534658
260.0, 0.10696739993206793
261.0, 0.11548369957338295
262.0, 0.12387519684451775
263.0, 0.1313829151599007
264.0, 0.13623430501487838
265.0, 0.14225873253014737
266.0, 0.14635969954939326
267.0, 0.14599465943839895
268.0, 0.1416825307054281
269.0, 0.1391624772983519
270.0, 0.13188796605572206
271.0, 0.12495175013435159
272.0, 0.1204489786736945
273.0, 0.11627255174642658
274.0, 0.11355415663292767
275.0, 0.11213132353556483
276.0, 0.11178765046865216
277.0, 0.11222849149419498
278.0, 0.11313116778699206
279.0, 0.11420560998386443
280.0, 0.11743990711513103
281.0, 0.12227542118985846
282.0, 0.12674084440962366
283.0, 0.13075175618261872
284.0, 0.13541508624567658
285.0, 0.13862818391014833
286.0, 0.13970315279550277
287.0, 0.14041927218536693
288.0, 0.14505925154444985
289.0, 0.14681351468371331
290.0, 0.1467086969722557
291.0, 0.14638024795592486
292.0, 0.14345813408888142
293.0, 0.14123507528735646
294.0, 0.13875053193617937
295.0, 0.1360209093433878
296.0, 0.1335662659380867
297.0, 0.1303204777076483
298.0, 0.12785769492019447
299.0, 0.1263334438630308
300.0, 0.12466303597317811
301.0, 0.12240928673492801
302.0, 0.12379323771944514
303.0, 0.12393917166587445
304.0, 0.12589860565904787
305.0, 0.13031552515817282
306.0, 0.13206440576638578
307.0, 0.13306797292133365
308.0, 0.13415177609796228
309.0, 0.13441352146483565
310.0, 0.13266962307313185
311.0, 0.12883991238112155
312.0, 0.12519178232323094
313.0, 0.11930884532854423
314.0, 0.11086126324581654
315.0, 0.10158544760054065
316.0, 0.09316704312029914
317.0, 0.0853220402173037
318.0, 0.0758800972856761
319.0, 0.06518647663998049
320.0, 0.05583484220503295
321.0, 0.04996665183398523
322.0, 0.04286791776155215
323.0, 0.03526982994853457
324.0, 0.028347813945994817
325.0, 0.02117790876669792
326.0, 0.01889109361015361
327.0, 0.014892796025622625
328.0, 0.0107918359136181
329.0, 0.009351716801371014
330.0, 0.00551474855055804
331.0, 0.002740387145099769
332.0, 0.0006755332908289879
333.0, 0.0004145032586067678
334.0, 0.0013059726020227369
335.0, 0.003206817915693692
336.0, 0.004264594812832598
337.0, 0.00413895035990883
338.0, 0.004279458462509778
339.0, 0.0029309222245056084
340.0, 0.0017299460097495063
341.0, 0.0011374703204458836
342.0, 0.001295657001458443
343.0, 0.0020846947121607633
344.0, 0.002941827812922204
345.0, 0.0015185165736492365
346.0, 0.0011192149570152803
347.0, 0.0023251114540905806
348.0, 0.0035037097283973613
349.0, 0.0021251914591497853
350.0, 0.0016985318902565478
351.0, 0.003514455312207447
352.0, 0.004667215472273339
353.0, 0.007513552460818189
354.0, 0.010069904222547006
355.0, 0.011122933160582896
356.0, 0.012205210108751143
357.0, 0.014289585129398395
358.0, 0.01697708458042646
359.0, 0.018435820338390838
360.0, 0.016166811675113992
361.0, 0.015709218850851765
362.0, 0.01667662521735146
363.0, 0.015349010365551028
364.0, 0.013026426910208645
365.0, 0.010084147683784817
366.0, 0.00882895177729051
367.0, 0.008489009268635052
368.0, 0.00654715035038967
369.0, 0.0031530319635168966
370.0, 0.003756461639869519
371.0, 0.005556535209302478
372.0, 0.006289021079237252
373.0, 0.005826899253843639
374.0, 0.00949492705169601
375.0, 0.01197962072213164
376.0, 0.01641219366428704
377.0, 0.024171999690596774
378.0, 0.03203832956557678
379.0, 0.040371723299264764
380.0, 0.047410666947856506
381.0, 0.057354870138043614
382.0, 0.06953536097172712
383.0, 0.07810397215637174
384.0, 0.09051385383199602
385.0, 0.1013256908748158
386.0, 0.11105694502009313
387.0, 0.12158266357542925
388.0, 0.13265675355229034
389.0, 0.14057040765581746
390.0, 0.15243436906271693
391.0, 0.1638800724256335
392.0, 0.17202880710385035
393.0, 0.18042988365322338
394.0, 0.18576187194735194
395.0, 0.19226620163046299
396.0, 0.1930429243736952
397.0, 0.18698386349165474
398.0, 0.18318274447729294
399.0, 0.1776840407262119
400.0, 0.16783115177638813
401.0, 0.15764375636801214
402.0, 0.15010182453923765
403.0, 0.1445017308106963
404.0, 0.14334607744361924
405.0, 0.14421427934750589
406.0, 0.14444375251042121
407.0, 0.14580780929717907
408.0, 0.1535433056044597
409.0, 0.1636729241301283
410.0, 0.17387670121713025
411.0, 0.18504380790123864
412.0, 0.1982904351320982
413.0, 0.21350063037371825
414.0, 0.2283228605711862
415.0, 0.24029078366002593
416.0, 0.25239417353303945
417.0, 0.26445860841311253
418.0, 0.2715051993826117
419.0, 0.27345493532384435
420.0, 0.2720442500138648
421.0, 0.2685934306813925
422.0, 0.26331407118446354
423.0, 0.2555537283803942
424.0, 0.24039865858837298
425.0, 0.2356459066699477
426.0, 0.23126798137347973
427.0, 0.22508602046508835
428.0, 0.22518670843867727
429.0, 0.22290466137024456
430.0, 0.22555638760793872
431.0, 0.22764920807442923
432.0, 0.228826028884164
433.0, 0.23320053950497258
434.0, 0.23211885158036752
435.0, 0.22777529855564155
436.0, 0.22769865285971466
437.0, 0.22881252685011214
438.0, 0.22526327247808545
439.0, 0.22686387227636473
440.0, 0.22378647149909175
441.0, 0.2244511119563951
442.0, 0.22809969422789714
443.0, 0.2291296351292089
444.0, 0.23059460339950896
445.0, 0.23400448951220054
446.0, 0.23602162288622458
447.0, 0.23601118202161742
448.0, 0.23539594433869124
449.0, 0.23592704231478573
450.0, 0.2355469268034016
451.0, 0.2303294261259706
452.0, 0.22014642175957358
453.0, 0.20677959183468594
454.0, 0.19304137401779883
455.0, 0.17816406762982312
456.0, 0.1603590025215237
457.0, 0.1421348197269956
458.0, 0.12462118365061568
459.0, 0.10657840341947085
460.0, 0.09340250316182529
461.0, 0.07870507116273333
462.0, 0.06648782887115844
463.0, 0.05770796509735604
464.0, 0.04823011682605407
465.0, 0.03799886526828774
466.0, 0.03066456452284589
467.0, 0.02602300198280022
468.0, 0.02143104469943023
469.0, 0.01487244794279084
470.0, 0.010385312615482945
471.0, 0.006625624351368973
472.0, 0.004927085520587952
473.0, 0.00473304897478852
474.0, 0.004114493940596926
475.0, 0.002268940731659453
476.0, 0.0022813973053353587
477.0, 0.0010090086265122213
478.0, 0.0014876518069421997
479.0, 0.003492013876341804
480.0, 0.004084952213194861
481.0, 0.005534825883631033
482.0, 0.004500860833130177
483.0, 0.004698120637234722
484.0, 0.006252458722971686
485.0, 0.005743041359872493
486.0, 0.005738614031325735
487.0, 0.005722124160189235
488.0, 0.004812866989437505
489.0, 0.003398093675010043
490.0, 0.0022114668339610344
491.0, 0.0011045610645408885
492.0, 0.0008532295317027071
493.0, 0.0017796195566254294
494.0, 0.0035580978184948115
495.0, 0.006314338917526067
496.0, 0.006570581829519925
497.0, 0.00969783500163787
498.0, 0.010926840987803228
499.0, 0.009699936445283545
500.0, 0.009671634259553087
501.0, 0.013294499123296303
502.0, 0.016604093829057042
503.0, 0.019081192266905557
504.0, 0.020469729566633434
505.0, 0.02194392467417049
506.0, 0.02431412765688112
507.0, 0.025679736859514836
508.0, 0.028393975339542934
509.0, 0.027970680806989553
510.0, 0.027031060129465233
511.0, 0.028724534545341313
512.0, 0.03132409099579228
513.0, 0.03238325058187519
514.0, 0.033617086181690285
515.0, 0.03621093907017052
516.0, 0.03895538299246512
517.0, 0.04094936994002469
518.0, 0.04510640403144163
519.0, 0.04968481323522277
520.0, 0.05177223312479926
521.0, 0.05431814488552042
522.0, 0.05936454805776569
523.0, 0.06311808699603451
524.0, 0.0664323450996108
525.0, 0.0687476942570185
526.0, 0.06956625945525866
527.0, 0.06977116207456688
528.0, 0.07004427359491056
529.0, 0.06754873338173571
530.0, 0.06469044285549795
531.0, 0.06306624687523699
532.0, 0.06087835548496014
533.0, 0.05675340011595449
534.0, 0.05251241690305826
535.0, 0.04829201971465655
536.0, 0.04385400171719775
537.0, 0.04037393940065403
538.0, 0.03623834515397314
539.0, 0.029344873428924497
540.0, 0.027444618856423873
541.0, 0.02447889283646208
542.0, 0.022645227772754975
543.0, 0.020838974475607848
544.0, 0.017864011485016536
545.0, 0.017701646006864257
546.0, 0.016004539303998398
547.0, 0.013496648796197533
548.0, 0.013251808346810426
549.0, 0.014921221686846713
550.0, 0.01605627513477531
551.0, 0.018801486645681337
552.0, 0.023841373601291387
553.0, 0.028473752304903666
554.0, 0.03323020479784862
555.0, 0.039457867655318724
556.0, 0.04624902566548114
557.0, 0.05482872950080732
558.0, 0.06542542986572294
559.0, 0.07936843664981794
560.0, 0.0963861285550583
561.0, 0.11621218542800071
562.0, 0.14184768464368067
563.0, 0.16687937347675838
564.0, 0.19688566135522922
565.0, 0.22790862358817782
566.0, 0.25774042417825876
567.0, 0.2919449873024218
568.0, 0.33186572061542396
569.0, 0.3770958297657147
570.0, 0.4254648070613364
571.0, 0.481491777675544
572.0, 0.5475973265878861
573.0, 0.6155759545110935
574.0, 0.6873250728338018
575.0, 0.7604071364624632
576.0, 0.8251832522155615
577.0, 0.876439029513735
578.0, 0.9094494871349219
579.0, 0.9058901820650689
580.0, 0.868401490068922
581.0, 0.8035692835225995
582.0, 0.727423595830768
583.0, 0.6533591723389462
584.0, 0.5856233948305848
585.0, 0.5242915616085434
586.0, 0.4671247014776855
587.0, 0.4157148071173928
588.0, 0.3696974194714145
589.0, 0.3303784261628337
590.0, 0.30133746775579545
591.0, 0.26778170649520133
592.0, 0.24438270691828065
593.0, 0.2225215157124216
594.0, 0.20070647374146458
595.0, 0.1856911006222568
596.0, 0.1732687199009988
597.0, 0.15806951114538512
598.0, 0.14732361917928788
599.0, 0.13794206546695395
600.0, 0.12869626127959646
601.0, 0.12266924422335272
602.0, 0.11659460164112793
603.0, 0.11107465019893424
604.0, 0.10569157711436092
605.0, 0.10315250795440044
606.0, 0.10437940382691442
607.0, 0.10649986828035381
608.0, 0.1091303598156738
609.0, 0.11277706584590023
610.0, 0.11992637899242249
611.0, 0.12742411526409708
612.0, 0.13275525021325957
613.0, 0.13787104058870805
614.0, 0.14092677637777035
615.0, 0.13571085720251166
616.0, 0.12374189242550322
617.0, 0.10613935856235089
618.0, 0.08458593175269549
619.0, 0.06384799979277161
620.0, 0.04887614353175139
621.0, 0.03686669997063735
622.0, 0.027749094727692117
623.0, 0.02048731848932732
624.0, 0.013987772978352561
625.0, 0.009514771998334885
626.0, 0.008260422969229174
627.0, 0.0061287053239279035
628.0, 0.002625102895863519
629.0, 0.00023451199503319122
630.0, 0.0005058290230634403
631.0, 0.0032773080752439092
632.0, 0.004927390519882394
633.0, 0.0033397779391377367
634.0, 0.0021753812808909556
635.0, 0.0022024433662617996
636.0, 0.0020576808046942276
637.0, 0.004104909735418332
638.0, 0.0006489673282318422
639.0, 0.0009886514244978005
640.0, 0.0003207363751446702
641.0, 0.0016839920570733311
642.0, 0.0039451072290091925
643.0, 0.0030854157316953915
644.0, 0.0004925931435450421
645.0, 0.001197812558992536
646.0, 0.00046698626794905765
647.0, 0.0011232113777778039
648.0, 0.0003818883778398978
649.0, 0.0005482998926085021
650.0, 0.00019502231832244869
651.0, 0.0016011021238896144
652.0, 0.0020858774863360676
653.0, 0.0025690326300351757
654.0, 0.004730922115288212
655.0, 0.004471198528160437
656.0, 0.003974699602462278
657.0, 0.004160555492293047
658.0, 0.004296700765225099
659.0, 0.004644425113188012
660.0, 0.006324479291241696
661.0, 0.00881863584568456
662.0, 0.00846006251889867
663.0, 0.009329519950087297
664.0, 0.011589748389043142
665.0, 0.01285944378464564
666.0, 0.01266757105536674
667.0, 0.013820955816617886
668.0, 0.016698664527920643
669.0, 0.02100426877755408
670.0, 0.02320331920612613
671.0, 0.024253326438369523
672.0, 0.026337275926098545
673.0, 0.027045903190138942
674.0, 0.02998934171548271
675.0, 0.03204340387472792
676.0, 0.03363061658295957
677.0, 0.03733672173426786
678.0, 0.04241102893079347
679.0, 0.04429331315787665
680.0, 0.048750443214490846
681.0, 0.05298470827283299
682.0, 0.057792100895588325
683.0, 0.061850704354609896
684.0, 0.06580893671293783
685.0, 0.07258516434812046
686.0, 0.07671536564614242
687.0, 0.08503190410671645
688.0, 0.09582974377901268
689.0, 0.10748153793890831
690.0, 0.11949969189039283
691.0, 0.1326009366846574
692.0, 0.1498876579083792
693.0, 0.163779272515336
694.0, 0.1797804183767061
695.0, 0.19445856659848307
696.0, 0.20989243850841854
697.0, 0.2308592377772891
698.0, 0.2513964172268242
699.0, 0.27449471166860834
700.0, 0.29959208230060635
701.0, 0.32318694397602316
702.0, 0.3444403993001221
703.0, 0.36363646015445844
704.0, 0.3788645651213097
705.0, 0.38852496922660607
706.0, 0.39153756091704695
707.0, 0.3859766229475487
708.0, 0.3711825629804373
709.0, 0.3465600666129724
710.0, 0.31264052209087984
711.0, 0.27535874320435016
712.0, 0.24140177106216226
713.0, 0.20985893145667556
714.0, 0.17924934060323255
715.0, 0.15182109941629252
716.0, 0.13103276463997998
717.0, 0.11597623879781453
718.0, 0.10001735899496514
719.0, 0.08807053470050563
720.0, 0.07792139966334108
721.0, 0.07013428759653205
722.0, 0.06702757996453308
723.0, 0.06598821667089218
724.0, 0.06097859886271306
725.0, 0.06046392676196764
726.0, 0.06123420073854223
727.0, 0.06034155054652369
728.0, 0.05986701051175028
729.0, 0.06171882036878533
730.0, 0.06059631313554061
731.0, 0.06084860120202796
732.0, 0.06186711167058242
733.0, 0.06078120510945959
734.0, 0.06042934204358433
735.0, 0.06339670975582924
736.0, 0.06421563737993988
737.0, 0.06364567372976869
738.0, 0.06353267952497292
739.0, 0.06172758171084749
740.0, 0.0595287417675507
741.0, 0.05892868819291479
742.0, 0.058998401966331646
743.0, 0.05889096418600725
744.0, 0.05627750645606803
745.0, 0.05601769678167346
746.0, 0.05619508234886648
747.0, 0.05511402342555244
748.0, 0.053203789514898424
749.0, 0.05061743541431272
750.0, 0.04850918759886292
751.0, 0.04689935038610068
752.0, 0.045589029401497665
753.0, 0.04339452691553565
754.0, 0.041351758667225895
755.0, 0.04069550525017106
756.0, 0.03859969330133946
757.0, 0.039878304424105435
758.0, 0.041522066696487336
759.0, 0.038979613389738266
760.0, 0.036116090514745854
761.0, 0.035700768479841515
762.0, 0.034337718204043965
763.0, 0.034368576806007134
764.0, 0.031268885523583485
765.0, 0.030147826316928732
766.0, 0.0308277423627244
767.0, 0.030195788975969723
768.0, 0.027632529162653338
769.0, 0.02606522143421932
770.0, 0.024118746327320435
771.0, 0.0212319919087267
772.0, 0.018383824332444215
773.0, 0.015218801923382616
774.0, 0.01160342762404039
775.0, 0.008978534774335939
776.0, 0.010109852442229377
777.0, 0.004203235594262392
778.0, 0.0012581769456371367
779.0, 0.0005810947056891984
780.0, 0.0033142465689538292
781.0, 0.006016196632369235
782.0, 0.008069125901304926
783.0, 0.010238155350428036
784.0, 0.010550675985735005
785.0, 0.012799445393996205
786.0, 0.016909995028713095
787.0, 0.020010325541204535
788.0, 0.020048634220148978
789.0, 0.01835896211185642
790.0, 0.019993858626818663
791.0, 0.02057385057807577
792.0, 0.020892208814493086
793.0, 0.020328434463596196
794.0, 0.018900817458443003
795.0, 0.01695324908026443
796.0, 0.01326183376337301
797.0, 0.0066547751615007086
798.0, 0.004730799685631252
799.0, 0.001104760899498974
800.0, 0.006390939492310503
801.0, 0.01006325955410646
802.0, 0.012438234751328367
803.0, 0.01864566412085472
804.0, 0.020898310274145803
805.0, 0.02391543657243164
806.0, 0.028523606548254046
807.0, 0.032138952729658415
808.0, 0.035921091836822
809.0, 0.04173454341722939
810.0, 0.04607276673881726
811.0, 0.050226776731446786
812.0, 0.0607231453885159
813.0, 0.06885723832687823
814.0, 0.07972060796284582
815.0, 0.09472336066598988
816.0, 0.11110937346209138
817.0, 0.13236388237678362
818.0, 0.1517272245120914
819.0, 0.17793599347436465
820.0, 0.20472223052047636
821.0, 0.23266563837687348
822.0, 0.26405030739811175
823.0, 0.29870997744635275
824.0, 0.3359051000918441
825.0, 0.3703159555093895
826.0, 0.40720360311498205
827.0, 0.4351949032198384
828.0, 0.4648340033460994
829.0, 0.49718007366875994
830.0, 0.5240806961679487
831.0, 0.5430212008121323
832.0, 0.5569839232850412
833.0, 0.5744955536042312
834.0, 0.5876097184376274
835.0, 0.5985127135051849
836.0, 0.6035844210655681
837.0, 0.6028420057540943
838.0, 0.6064180744264113
839.0, 0.6077380795032872
840.0, 0.5957279757345002
841.0, 0.5848462490566074
842.0, 0.5756160534270501
843.0, 0.5612591467075492
844.0, 0.5412833620553154
845.0, 0.5209228943601295
846.0, 0.49869306793570944
847.0, 0.4693624965906071
848.0, 0.43874216329880533
849.0, 0.4117435945538883
850.0, 0.3844198193747636
851.0, 0.35387922887791057
852.0, 0.32474468241648224
853.0, 0.3042891895689501
854.0, 0.29354455490433906
855.0, 0.2813499995792306
856.0, 0.27783033244391797
857.0, 0.2784245170941442
858.0, 0.28436126725160155
859.0, 0.2974431751402276
860.0, 0.30570940066105196
861.0, 0.31413631079320203
862.0, 0.32049336607578366
863.0, 0.32371537128853095
864.0, 0.32484370392097006
865.0, 0.3211372116408965
866.0, 0.3156703882271084
867.0, 0.31464843253749075
868.0, 0.31171313249579663
869.0, 0.32155501657093327
870.0, 0.3303436670965249
871.0, 0.34559721539349136
872.0, 0.3717684384099526
873.0, 0.4059634452840224
874.0, 0.44198404687645015
875.0, 0.47894947054167514
876.0, 0.5239751191393103
877.0, 0.5750716049297032
878.0, 0.6294420239941256
879.0, 0.6925614348004049
880.0, 0.7583111039763748
881.0, 0.8205149392961608
882.0, 0.8807263396500792
883.0, 0.9354748285159632
884.0, 0.9834875924643829
885.0, 0.9995076809184846
886.0, 0.9835518675350379
887.0, 0.9416924568757636
888.0, 0.8744345085873496
889.0, 0.7873165295826987
890.0, 0.6990177838092203
891.0, 0.6118759946214616
892.0, 0.5392919045450756
893.0, 0.4718670902544376
894.0, 0.4166483225851107
895.0, 0.37099714934748385
896.0, 0.3267155199051309
897.0, 0.2824204131764687
898.0, 0.2392497421518743
899.0, 0.19694076092599047
900.0, 0.15758815579967306
901.0, 0.1250178546405617
902.0, 0.09282630425450107
903.0, 0.06714918984570786
904.0, 0.052233946437139654
905.0, 0.04095908477863032
906.0, 0.04509826829123939
907.0, 0.06267794506094351
908.0, 0.08646234225090452
909.0, 0.11642690488471952
910.0, 0.154171644898662
911.0, 0.20174851353296933
912.0, 0.26184668274455825
913.0, 0.33247641266779204
914.0, 0.40445554584386506
915.0, 0.480170586536391
916.0, 0.5554426794550477
917.0, 0.6336312226341625
918.0, 0.7026166471715494
919.0, 0.7553427828963385
920.0, 0.7924818363001025
921.0, 0.8109606578994658
922.0, 0.8238960608502136
923.0, 0.8116382690838382
924.0, 0.7896417384404915
925.0, 0.761599543991561
926.0, 0.7278742464951982
927.0, 0.6940809460216241
928.0, 0.6644686941362085
929.0, 0.6329536383859952
930.0, 0.6010034328041016
931.0, 0.5742739924036038
932.0, 0.5415400560890216
933.0, 0.4983085074233584
934.0, 0.45744616782895364
935.0, 0.4206770922257619
936.0, 0.38119806624910946
937.0, 0.3426853415564671
938.0, 0.30202056291598667
939.0, 0.26183166469753355
940.0, 0.2271277247922104
941.0, 0.19143482678738072
942.0, 0.16437432952050318
943.0, 0.1428296087388218
944.0, 0.1209406059490224
945.0, 0.11203894966547578
946.0, 0.10024840131933427
947.0, 0.09297546872996486
948.0, 0.0856029814376069
949.0, 0.08006958173457206
950.0, 0.07884226003192156
951.0, 0.07551655231921482
952.0, 0.06890157649865006
953.0, 0.0703414583242353
954.0, 0.0669347611985129
955.0, 0.0642982177417629
956.0, 0.05665649375591241
957.0, 0.048794337443920824
958.0, 0.041490790298866737
959.0, 0.03535797026991858
960.0, 0.03129669112222569
961.0, 0.02860023234193493
962.0, 0.029325705353040497
963.0, 0.03225882654439181
964.0, 0.044982229952943494
965.0, 0.060855149187518186
966.0, 0.07594247725058625
967.0, 0.09489579247819999
968.0, 0.11942467304322757
969.0, 0.14520801205885972
970.0, 0.17494682452333069
971.0, 0.21291101184533467
972.0, 0.2328631392160166
973.0, 0.2431059048631924
974.0, 0.23693842613044314
975.0, 0.2109074094875622
976.0, 0.17887456141870645
977.0, 0.14698044096557206
978.0, 0.1056810648290808
979.0, 0.07460460678466953
980.0, 0.0582173428720909
981.0, 0.039508325094427865
982.0, 0.023961055380659048
983.0, 0.011837131456050469
984.0, 0.0026908440624075465
985.0, 0.008292230950510359
986.0, 0.012904081147265196
987.0, 0.017848509150536797
988.0, 0.022371282744363185
989.0, 0.022432760542653293
990.0, 0.024515593264964906
991.0, 0.027324020784086547
992.0, 0.02792391188719911
993.0, 0.027309249977569235
994.0, 0.02686436530383915
995.0, 0.025593933367636705
996.0, 0.02379420581255274
997.0, 0.019228158517901578
998.0, 0.011755767324037497
999.0, 0.005096362842179684
1000.0, 0.002048141166949523
1001.0, 0.006388976418097646
1002.0, 0.011250243581122973
1003.0, 0.01906989984816595
1004.0, 0.026197154314907913
1005.0, 0.02843187227369624
1006.0, 0.02621031053819351
1007.0, 0.02895452629873747
1008.0, 0.02961097118118827
1009.0, 0.030667111982775296
1010.0, 0.031217132056290106
1011.0, 0.030465504051043705
1012.0, 0.03413840478795606
1013.0, 0.04183989649969872
1014.0, 0.044654715763005844
1015.0, 0.050176697152885856
1016.0, 0.0560374755987686
1017.0, 0.06019388480626505
1018.0, 0.06623078560002472
1019.0, 0.0747427717448216
1020.0, 0.08331819859151611
1021.0, 0.09004436738998993
1022.0, 0.09372102987726254
1023.0, 0.09621834308131369
1024.0, 0.10128564679124612
1025.0, 0.1090182041121547
1026.0, 0.11280799113332775
1027.0, 0.11479314295517822
1028.0, 0.11909016808814726
1029.0, 0.12445325499165887
1030.0, 0.12742322224782893
1031.0, 0.128836556906985
1032.0, 0.13456524653735874
1033.0, 0.1322150502670257
1034.0, 0.13050690554771677
1035.0, 0.1327749610061287
1036.0, 0.1333815283819953
1037.0, 0.1351926529579509
1038.0, 0.1381562868399999
1039.0, 0.13593674295952124
1040.0, 0.12972024021868264
1041.0, 0.12038627118500271
1042.0, 0.10714877363848563
1043.0, 0.09690445022016236
1044.0, 0.08453958539398905
1045.0, 0.07647496892692449
1046.0, 0.06597691486750848
1047.0, 0.05582563144442666
1048.0, 0.05290722080550939
1049.0, 0.05032486358970781
1050.0, 0.04806594215717934
1051.0, 0.04290191003082093
1052.0, 0.04779718415577884
1053.0, 0.04475361119897099
1054.0, 0.04407170704946964
1055.0, 0.04522742821228148
1056.0, 0.04483722984722855
1057.0, 0.04290585801705867
1058.0, 0.04098917594960484
1059.0, 0.04288159609549418
1060.0, 0.03822035053965149
1061.0, 0.032420990908981887
1062.0, 0.030522150688709917
1063.0, 0.026510723271056035
1064.0, 0.024172231825701464
1065.0, 0.0225052326668008
1066.0, 0.02042787405031785
1067.0, 0.021363588449293695
1068.0, 0.022806095660940644
1069.0, 0.019927885082551864
1070.0, 0.02638389210217119
1071.0, 0.024549989369366632
1072.0, 0.029388300272163357
1073.0, 0.03348394952979149
1074.0, 0.037099544818492584
1075.0, 0.042698435455511274
1076.0, 0.04764944074683854
1077.0, 0.05045665335810954
1078.0, 0.0554095423489319
1079.0, 0.060113092714168204
1080.0, 0.06393192142529813
1081.0, 0.06751082767940114
1082.0, 0.07547859572212917
1083.0, 0.08079007127875282
1084.0, 0.08020237716785918
1085.0, 0.07892330098041551
1086.0, 0.07978655787732289
1087.0, 0.07758189010282196
1088.0, 0.07024812020426204
1089.0, 0.06814095908781592
1090.0, 0.06348842382469012
1091.0, 0.06022545764064196
1092.0, 0.051679105299277966
1093.0, 0.04314942607052863
1094.0, 0.0392586083680588
1095.0, 0.033543370774988764
1096.0, 0.027519535746497206
1097.0, 0.027184291541100237
1098.0, 0.024523780831768385
1099.0, 0.02344661845287742
1100.0, 0.0166322914949183
1101.0, 0.014890540278705521
1102.0, 0.017858429726695598
1103.0, 0.015499983487952895
1104.0, 0.012844070547411391
1105.0, 0.013937925779946552
1106.0, 0.013673604125738384
1107.0, 0.010478362254686974
1108.0, 0.009956109559253957
1109.0, 0.01127914781376485
1110.0, 0.008033494306226114
1111.0, 0.005501750582503374
1112.0, 0.00944631397253463
1113.0, 0.009947676058199835
1114.0, 0.010700231083449866
1115.0, 0.011497145046077711
1116.0, 0.011902671582384042
1117.0, 0.011596581955492378
1118.0, 0.008642374601659866
1119.0, 0.01152245456353269
1120.0, 0.009105891069647938
1121.0, 0.008730547015806979
1122.0, 0.0034695959166277093
1123.0, 0.00712375577723994
1124.0, 0.004369275667574603
1125.0, 0.002608221917436442
1126.0, 0.005436476285780748
1127.0, 0.003524510331904418
1128.0, 0.0009399232348855986
1129.0, 0.0025236897903387133
1130.0, 0.001912442663378689
1131.0, 0.003594207389992343
1132.0, 0.004833459586403432
1133.0, 0.0032168549202161306
1134.0, 0.000623749453535915
1135.0, 0.00060517833637053
1136.0, 0.0002777474733451383
1137.0, 0.0006502171651351965
1138.0, 0.001010296284199784
1139.0, 0.0021720217844601944
1140.0, 0.0003361741844995818
1141.0, 0.00041436244881487555
1142.0, 0.0006150963791056651
1143.0, 0.00046206692313419833
1144.0, 0.0033797474810550363
1145.0, 0.006469559337504089
1146.0, 0.004340910602350256
1147.0, 0.002933673818879543
1148.0, 0.0045665223474742845
1149.0, 0.006598320632327436
1150.0, 0.007725052675595192
1151.0, 0.005502478701726389
1152.0, 0.00921308588823891
1153.0, 0.00836868004201594
1154.0, 0.010726424571387871
1155.0, 0.009243003394336043
1156.0, 0.01223091968283544
1157.0, 0.011468854195138416
1158.0, 0.011485587424368884
1159.0, 0.013348290739261045
1160.0, 0.011399205289538812
1161.0, 0.010714640800311571
1162.0, 0.011942294508983578
1163.0, 0.0131582624474513
1164.0, 0.013165900978300917
1165.0, 0.014176322355580553
1166.0, 0.015307475703953513
1167.0, 0.017411432566666402
1168.0, 0.016173894398294746
1169.0, 0.014071696226838685
1170.0, 0.0125136752369455
1171.0, 0.010364893803425413
1172.0, 0.008860925910396236
1173.0, 0.009808191659361176
1174.0, 0.01387572911894626
1175.0, 0.01428928518155445
1176.0, 0.00928848729627078
1177.0, 0.011662652132664413
1178.0, 0.013855437617158146
1179.0, 0.013000589942413886
1180.0, 0.012438075445975359
1181.0, 0.012218414886046402
1182.0, 0.011210728086261883
1183.0, 0.01052836382926287
1184.0, 0.01246659251730474
1185.0, 0.015030276611957454
1186.0, 0.012328145611504023
1187.0, 0.010314730927682383
1188.0, 0.012416016074242819
1189.0, 0.012615512346247996
1190.0, 0.011025011297799345
1191.0, 0.011627724131943849
1192.0, 0.013271796601673491
1193.0, 0.011855153176492985
1194.0, 0.00913450418840336
1195.0, 0.00825898083918373
1196.0, 0.008137788865169122
1197.0, 0.008053857292177611
1198.0, 0.005923960510186266
1199.0, 0.005960242823456495
1200.0, 0.003676683662955744
1201.0, 0.002641232022243157
1202.0, 0.003567174601422894
1203.0, 0.002299893286391233
1204.0, 0.004610284933848195
1205.0, 0.004935221068803727
1206.0, 0.006959714807832947
1207.0, 0.01276324697378747
1208.0, 0.01224284325855413
1209.0, 0.014559721515672695
1210.0, 0.01239332075648612
1211.0, 0.010145090055976472
1212.0, 0.007813422668521008
1213.0, 0.00977684397680968
1214.0, 0.010353480105947692
1215.0, 0.01168171421095576
1216.0, 0.01365421005330259
1217.0, 0.012162343752064703
1218.0, 0.011969567457217528
1219.0, 0.014588972265495166
1220.0, 0.01554253766730899
1221.0, 0.016945146970960858
1222.0, 0.01684605161770853
1223.0, 0.01180879602522191
1224.0, 0.011756110470546796
1225.0, 0.008118307238677099
1226.0, 0.007882436952837635
1227.0, 0.009514130551886794
1228.0, 0.011826973839752623
1229.0, 0.011360170949678252
1230.0, 0.010504713210645767
1231.0, 0.00879661712388524
1232.0, 0.006145670055847891
1233.0, 0.006648030826513848
1234.0, 0.0071923574151844675
1235.0, 0.003182092798921507
1236.0, 0.00034579422403168065
1237.0, 0.0034698730738123513
1238.0, 0.0010264527955475664
1239.0, 0.0018006672593212484
1240.0, 0.0005750147729600796
1241.0, 0.002008089486729902
1242.0, 0.0025112516498106874
1243.0, 0.001123144319131298
1244.0, 0.0006207451075754659
1245.0, 0.002058702993523719
1246.0, 0.0033364567483285664
1247.0, 0.005997480424346515
1248.0, 0.007592399663996383
1249.0, 0.0006744227340756956
1250.0, 0.004514200348267791
1251.0, 0.003984730664837285
1252.0, 0.003900544066818159
1253.0, 0.004978099668886939
1254.0, 0.0038195551124311387
1255.0, 0.004526024300182491
1256.0, 0.0017186569499452297
1257.0, 0.0014174919769983688
1258.0, 0.0054439358788094284
1259.0, 0.005452725134817867
1260.0, 0.0030820943368312817
1261.0, 0.0039243010079708165
1262.0, 0.0034889960637761036
1263.0, 0.0016450579429011147
1264.0, 0.001382244267534996
1265.0, 0.005683609119409829
1266.0, 0.0015035389169238893
1267.0, 0.0023723168926774183
1268.0, 0.003922538847992009
1269.0, 0.0029908674254730135
1270.0, 0.0025632451131799407
1271.0, 0.005339103573464567
1272.0, 0.009033338479517287
1273.0, 0.008315901111323291
1274.0, 0.00397535275085285
1275.0, 0.00044272191112605875
1276.0, 0.0022818605389561845
1277.0, 0.004422596784687487
1278.0, 0.009511895208833188
1279.0, 0.00640455759847153
1280.0, 0.004164236526131762
1281.0, 0.005187555500061959
1282.0, 0.007264164805514277
1283.0, 0.0068295034722328585
1284.0, 0.007343155496689678
1285.0, 0.008347314962619314
1286.0, 0.007042277413884191
1287.0, 0.004809889080826118
1288.0, 0.002782761307914538
1289.0, 0.0026938627911155142
1290.0, 0.004132711852463148
1291.0, 0.004385092044272171
1292.0, 0.0032464233923494724
1293.0, 0.002990307588574412
1294.0, 0.0030654662463601864
1295.0, 0.00039951262198197274
1296.0, 0.004645495529276629
1297.0, 0.007168402521258786
1298.0, 0.0013722033783475538
1299.0, 0.004936489476783117
1300.0, 0.004921265098285917
1301.0, 0.0016909768406301018
1302.0, 0.0031168190693601125
1303.0, 0.0005054474782191214
1304.0, 0.0005638495644630123
1305.0, 0.0005785023822790885
1306, 0.0
1307, 0.0
1308, 0.0
1309, 0.0
1310, 0.0
1311, 0.0
1312, 0.0
1313, 0.0
1314, 0.0
1315, 0.0
1316, 0.0
1317, 0.0
1318, 0.0
1319, 0.0
1320, 0.0
1321, 0.0
1322, 0.0
1323, 0.0
1324, 0.0
1325, 0.0
1326, 0.0
1327, 0.0
1328, 0.0
1329, 0.0
1330, 0.0
1331, 0.0
1332, 0.0
1333, 0.0
1334, 0.0
1335, 0.0
1336, 0.0
1337, 0.0
1338, 0.0
1339, 0.0
1340, 0.0
1341, 0.0
1342, 0.0
1343, 0.0
1344, 0.0
1345, 0.0
1346, 0.0
1347, 0.0
1348, 0.0
1349, 0.0
1350, 0.0
1351, 0.0
1352, 0.0
1353, 0.0
1354, 0.0
1355, 0.0
1356, 0.0
1357, 0.0
1358, 0.0
1359, 0.0
1360, 0.0
1361, 0.0
1362, 0.0
1363, 0.0
1364, 0.0
1365, 0.0
1366, 0.0
1367, 0.0
1368, 0.0
1369, 0.0
1370, 0.0
1371, 0.0
1372, 0.0
1373, 0.0
1374, 0.0
1375, 0.0
1376, 0.0
1377, 0.0
1378, 0.0
1379, 0.0
1380, 0.0
1381, 0.0
1382, 0.0
1383, 0.0
1384, 0.0
1385, 0.0
1386, 0.0
1387, 0.0
1388, 0.0
1389, 0.0
1390, 0.0
1391, 0.0
1392, 0.0
1393, 0.0
1394, 0.0
1395, 0.0
1396, 0.0
1397, 0.0
1398, 0.0
1399, 0.0
1400, 0.0
1401, 0.0
1402, 0.0
1403, 0.0
1404, 0.0
1405, 0.0
1406, 0.0
1407, 0.0
1408, 0.0
1409, 0.0
1410, 0.0
1411, 0.0
1412, 0.0
1413, 0.0
1414, 0.0
1415, 0.0
1416, 0.0
1417, 0.0
1418, 0.0
1419, 0.0
1420, 0.0
1421, 0.0
1422, 0.0
1423, 0.0
1424, 0.0
1425, 0.0
1426, 0.0
1427, 0.0
1428, 0.0
1429, 0.0
1430, 0.0
1431, 0.0
1432, 0.0
1433, 0.0
1434, 0.0
1435, 0.0
1436, 0.0
1437, 0.0
1438, 0.0
1439, 0.0
1440, 0.0
1441, 0.0
1442, 0.0
1443, 0.0
1444, 0.0
1445, 0.0
1446, 0.0
1447, 0.0
1448, 0.0
1449, 0.0
1450, 0.0
1451, 0.0
1452, 0.0
1453, 0.0
1454, 0.0
1455, 0.0
1456, 0.0
1457, 0.0
1458, 0.0
1459, 0.0
1460, 0.0
1461, 0.0
1462, 0.0
1463, 0.0
1464, 0.0
1465, 0.0
1466, 0.0
1467, 0.0
1468, 0.0
1469, 0.0
1470, 0.0
1471, 0.0
1472, 0.0
1473, 0.0
1474, 0.0
1475, 0.0
1476, 0.0
1477, 0.0
1478, 0.0
1479, 0.0
1480, 0.0
1481, 0.0
1482, 0.0
1483, 0.0
1484, 0.0
1485, 0.0
1486, 0.0
1487, 0.0
1488, 0.0
1489, 0.0
1490, 0.0
1491, 0.0
1492, 0.0
1493, 0.0
1494, 0.0
1495, 0.0
1496, 0.0
1497, 0.0
1498, 0.0
1499, 0.0
1500, 0.0
1501, 0.0
1502, 0.0
1503, 0.0
1504, 0.0
1505, 0.0
1506, 0.0
1507, 0.0
1508, 0.0
1509, 0.0
1510, 0.0
1511, 0.0
1512, 0.0
1513, 0.0
1514, 0.0
1515, 0.0
1516, 0.0
1517, 0.0
1518, 0.0
1519, 0.0
1520, 0.0
1521, 0.0
1522, 0.0
1523, 0.0
1524, 0.0
1525, 0.0
1526, 0.0
1527, 0.0
1528, 0.0
1529, 0.0
1530, 0.0
1531, 0.0
1532, 0.0
1533, 0.0
1534, 0.0
1535, 0.0
1536, 0.0
1537, 0.0
1538, 0.0
1539, 0.0
1540, 0.0
1541, 0.0
1542, 0.0
1543, 0.0
1544, 0.0
1545, 0.0
1546, 0.0
1547, 0.0
1548, 0.0
1549, 0.0
1550, 0.0
1551, 0.0
1552, 0.0
1553, 0.0
1554, 0.0
1555, 0.0
1556, 0.0
1557, 0.0
1558, 0.0
1559, 0.0
1560, 0.0
1561, 0.0
1562, 0.0
1563, 0.0
1564, 0.0
1565, 0.0
1566, 0.0
1567, 0.0
1568, 0.0
1569, 0.0
1570, 0.0
1571, 0.0
1572, 0.0
1573, 0.0
1574, 0.0
1575, 0.0
1576, 0.0
1577, 0.0
1578, 0.0
1579, 0.0
1580, 0.0
1581, 0.0
1582, 0.0
1583, 0.0
1584, 0.0
1585, 0.0
1586, 0.0
1587, 0.0
1588, 0.0
1589, 0.0
1590, 0.0
1591, 0.0
1592, 0.0
1593, 0.0
1594, 0.0
1595, 0.0
1596, 0.0
1597, 0.0
1598, 0.0
1599, 0.0
