30, 0.0
31, 0.0
32, 0.0
33, 0.0
34, 0.0
35, 0.0
36, 0.0
37, 0.0
38, 0.0
39, 0.0
40, 0.0
41, 0.0
42, 0.0
43, 0.0
44, 0.0
45, 0.0
46, 0.0
47, 0.0
48, 0.0
49, 0.0
50, 0.0
51, 0.0
52, 0.0
53, 0.0
54, 0.0
55, 0.0
56, 0.0
57, 0.0
58, 0.0
59, 0.0
60, 0.0
61, 0.0
62, 0.0
63, 0.0
64, 0.0
65, 0.0
66, 0.0
67, 0.0
68, 0.0
69, 0.0
70, 0.0
71, 0.0
72, 0.0
73, 0.0
74, 0.0
75, 0.0
76, 0.0
77, 0.0
78, 0.0
79, 0.0
80, 0.0
81, 0.0
82, 0.0
83, 0.0
84, 0.0
85, 0.0
86, 0.0
87, 0.0
88, 0.0
89, 0.0
90, 0.0
91, 0.0
92, 0.0
93, 0.0
94, 0.0
95, 0.0
96, 0.0
97, 0.0
98, 0.0
99, 0.0
100, 0.0
101, 0.0
102, 0.0
103, 0.0
104, 0.0
105, 0.0
106, 0.0
107, 0.0
108, 0.0
109, 0.0
110, 0.0
111, 0.0
112, 0.0
113, 0.0
114, 0.0
115, 0.0
116, 0.0
117, 0.0
118, 0.0
119, 0.0
120, 0.0
121, 0.0
122, 0.0
123, 0.0
124, 0.0
125, 0.0
126, 0.0
127, 0.0
128, 0.0
129, 0.0
130, 0.0
131, 0.0
132, 0.0
133, 0.0
134, 0.0
135, 0.0
136, 0.0
137, 0.0
138, 0.0
139, 0.0
140, 0.0
141, 0.0
142, 0.0
143, 0.0
144, 0.0
145, 0.0
146, 0.0
147.0, 0.000369918968837254
148.0, 0.00020218824188057575
149.0, 0.002876978662060003
150.0, 0.013192701988315332
151.0, 0.0307276192926202
152.0, 0.04481163202394784
153.0, 0.04933754579120197
154.0, 0.04583241084402122
155.0, 0.050018273740585546
156.0, 0.056961226692751624
157.0, 0.060307645229028074
158.0, 0.05543931026400975
159.0, 0.03216898132324254
160.0, 0.02443037744765267
161.0, 0.02758265723947628
162.0, 0.01499112025535183
163.0, 0.003919878260840207
164.0, 0.00031906655378201245
165.0, 0.005457792690241534
166.0, 0.015335836695891586
167.0, 0.02140922415127246
168.0, 0.021179979435154504
169.0, 0.01964840323548581
170.0, 0.01584363374843883
171.0, 0.0019054845132676094
172.0, 0.013374892078740864
173.0, 0.02145504931539835
174.0, 0.02321723918065419
175.0, 0.034329785765931806
176.0, 0.016428838352352395
177.0, 0.018804221394480625
178.0, 0.023981359469343395
179.0, 0.0043118201426803025
180.0, 0.008750141321789294
181.0, 0.01631666981382519
182.0, 0.010972071258725173
183.0, 0.0006115430282607889
184.0, 0.010506933427994709
185.0, 0.0195781823251608
186.0, 0.011586691905823853
187.0, 0.008605851610137376
188.0, 0.033997792627313
189.0, 0.04876925068122597
190.0, 0.04637901731672706
191.0, 0.03703177265662046
192.0, 0.03675256291642338
193.0, 0.05992155797943193
194.0, 0.059741983917401285
195.0, 0.06953555730462833
196.0, 0.09504492828581544
197.0, 0.10180987703623386
198.0, 0.0922210657035336
199.0, 0.09337003560543779
200.0, 0.11602086942901105
201.0, 0.14400767482146964
202.0, 0.13671664729722013
203.0, 0.13390469670976465
204.0, 0.14730333358815834
205.0, 0.16538996085970134
206.0, 0.17256008991923807
207.0, 0.18620578888868639
208.0, 0.19926837295445496
209.0, 0.21111758890496848
210.0, 0.22483859239445556
211.0, 0.23421963842370372
212.0, 0.2556177768182671
213.0, 0.2698441492427292
214.0, 0.27351923381659526
215.0, 0.3165441799585678
216.0, 0.3203105333189755
217.0, 0.32920084453348253
218.0, 0.35508202365623587
219.0, 0.379911442719389
220.0, 0.40147039156218634
221.0, 0.4238488291670472
222.0, 0.4371109848864802
223.0, 0.43680005411267214
224.0, 0.44431626735138474
225.0, 0.44064560215063725
226.0, 0.4304137139838896
227.0, 0.41925078011146844
228.0, 0.40389514638894963
229.0, 0.3629668693635658
230.0, 0.3298938443916202
231.0, 0.2927631872835529
232.0, 0.2535791274620891
233.0, 0.26345631215791293
234.0, 0.23741953409463576
235.0, 0.2027730713089393
236.0, 0.18037267904709475
237.0, 0.1610166010007252
238.0, 0.1446236095971831
239.0, 0.1285427849956157
240.0, 0.1280116726741052
241.0, 0.14031383998493527
242.0, 0.14065385397460958
243.0, 0.1216001289649981
244.0, 0.10619853784747572
245.0, 0.10067585299802863
246.0, 0.09933860619885766
247.0, 0.09819170686420298
248.0, 0.10391678519029049
249.0, 0.10079920638472817
250.0, 0.08878817068968459
251.0, 0.09122453092761455
252.0, 0.06705732998175636
253.0, 0.06620129935598551
254.0, 0.07951469602602161
255.0, 0.07141954965286065
256.0, 0.04009457677253711
257.0, 0.04267257620789955
258.0, 0.05172034657564213
259.0, 0.04765078796534022
260.0, 0.047898882858218486
261.0, 0.03497285087856791
262.0, 0.02995936792550193
263.0, 0.02871130114256119
264.0, 0.01803535945412268
265.0, 0.008010656081788779
266.0, 0.015487838258259855
267.0, 0.013313011985433302
268.0, 0.001159990255499047
269.0, 0.0012950858078045319
270.0, 0.004706593181519198
271.0, 0.0018518172186256935
272.0, 0.004542458118740638
273.0, 0.009696860147796004
274.0, 0.009394260836866083
275.0, 0.003222606539063881
276.0, 0.007948062171986153
277.0, 0.01291250910323604
278.0, 0.0009714567559446638
279.0, 0.008553650722453975
280.0, 0.004967671354247497
281.0, 0.0015340676628462532
282.0, 0.005578648402099845
283.0, 0.011906719049305268
284.0, 0.001766972365115002
285.0, 0.0035691614358621645
286.0, 0.006423513656868975
287.0, 0.00032064904961867234
288.0, 0.0006086122297659183
289.0, 0.0035001108764526868
290.0, 0.002280310201041994
291.0, 0.002693937089438149
292.0, 0.006999815800765308
293.0, 0.01826826500867635
294.0, 0.01707712487355731
295.0, 0.015308161493440447
296.0, 0.010015338226204158
297.0, 0.007013006173135409
298.0, 0.0015910787334520577
299.0, 0.012910978639689461
300.0, 0.012708683699973657
301.0, 0.002630749025558686
302.0, 0.0043464539040143045
303.0, 0.010531699477637305
304.0, 0.01275846708551018
305.0, 0.010861184936735593
306.0, 0.009117892756641178
307.0, 0.011208641956115005
308.0, 0.007795858648262139
309.0, 0.0008244322530645367
310.0, 0.0008655982528587456
311.0, 0.011383799242430666
312.0, 0.026894394526995626
313.0, 0.029383662345670473
314.0, 0.022261642483487325
315.0, 0.01745480136172954
316.0, 0.02433119358518985
317.0, 0.03865046970604437
318.0, 0.03765691195162251
319.0, 0.040193401824684956
320.0, 0.05145579618597141
321.0, 0.05237993409698812
322.0, 0.04742840341285254
323.0, 0.026750037736535892
324.0, 0.021981927587091176
325.0, 0.04550634674624762
326.0, 0.0629045219457676
327.0, 0.05681473023430895
328.0, 0.058022705144587045
329.0, 0.060486652467673464
330.0, 0.053483970418725844
331.0, 0.051858712030729115
332.0, 0.04129859967739661
333.0, 0.05027459360147645
334.0, 0.053847792151583335
335.0, 0.029237429781721606
336.0, 0.04326508602960208
337.0, 0.06407291598930492
338.0, 0.059063603747259656
339.0, 0.044835659654984476
340.0, 0.05485416621053438
341.0, 0.059032423162501624
342.0, 0.03458660778601001
343.0, 0.021054673376813916
344.0, 0.022115008833638726
345.0, 0.01354019779216071
346.0, 0.025645669853236144
347.0, 0.01778266533183081
348.0, 0.016504685622200848
349.0, 0.024782980742686
350.0, 0.020758719836406255
351.0, 0.03737744436343534
352.0, 0.026360006931643944
353.0, 0.023667702589450824
354.0, 0.0328937537045779
355.0, 0.022497234225192623
356.0, 0.03729254897757627
357.0, 0.0333109496573608
358.0, 0.02864119700270818
359.0, 0.03688763664080454
360.0, 0.045101193658499635
361.0, 0.04798779717955291
362.0, 0.043979895703590385
363.0, 0.04966136241465428
364.0, 0.06840296686989665
365.0, 0.07637105105173432
366.0, 0.08616326081878731
367.0, 0.09146527413649126
368.0, 0.09687504143743948
369.0, 0.10513524674558059
370.0, 0.10852853806819285
371.0, 0.11519381757182867
372.0, 0.1210773925098234
373.0, 0.12357345681911652
374.0, 0.12977150769412296
375.0, 0.14130393696400487
376.0, 0.11769550953854153
377.0, 0.1039511962935097
378.0, 0.09595913837699246
379.0, 0.09355338077592094
380.0, 0.10894957458063993
381.0, 0.0982246351864078
382.0, 0.1037444683118274
383.0, 0.12493678611917791
384.0, 0.14406656275116347
385.0, 0.1506223687419974
386.0, 0.15190106327402522
387.0, 0.1428618046646308
388.0, 0.1627362396990971
389.0, 0.20388777990959067
390.0, 0.20480783503708735
391.0, 0.22748660660407133
392.0, 0.24316234690872973
393.0, 0.24384504085503803
394.0, 0.2378218330511478
395.0, 0.23999865267943365
396.0, 0.2390571439359656
397.0, 0.22106947953293357
398.0, 0.19831133459388936
399.0, 0.17202319452224257
400.0, 0.13375140763873009
401.0, 0.10653846274341995
402.0, 0.1030254783624616
403.0, 0.08542141750768428
404.0, 0.05897528928084523
405.0, 0.05815834096990663
406.0, 0.06560693257857897
407.0, 0.05546407793988419
408.0, 0.05066650845103768
409.0, 0.04778836711637521
410.0, 0.03131867447285627
411.0, 0.031929867842821376
412.0, 0.03871115662819631
413.0, 0.04367829049576222
414.0, 0.04198768318950771
415.0, 0.03669869455860779
416.0, 0.03836379359563881
417.0, 0.04987929701058876
418.0, 0.03832946480233072
419.0, 0.034873804271479715
420.0, 0.04326267680140515
421.0, 0.026620832018717025
422.0, 0.0335855909650162
423.0, 0.037731733937799015
424.0, 0.03612798367173568
425.0, 0.03379145844303953
426.0, 0.03047391696900687
427.0, 0.02663632294834242
428.0, 0.02533918913964934
429.0, 0.02478478531805399
430.0, 0.025806322357216322
431.0, 0.027365752074409416
432.0, 0.010550499649431793
433.0, 0.020502403626627606
434.0, 0.022667782202979957
435.0, 0.02242099951078694
436.0, 0.03436015366559656
437.0, 0.019618116995691718
438.0, 0.019952746589000706
439.0, 0.00494418449971094
440.0, 0.00342933991961996
441.0, 0.016618032509525982
442.0, 0.005117049327559666
443.0, 0.0003665768642036012
444.0, 0.0013491525408113312
445.0, 0.0033650715103694436
446.0, 0.006640494019098844
447.0, 0.01994488457304777
448.0, 0.0059920925984930816
449.0, 0.004696316001089989
450.0, 0.0033370954909690844
451.0, 0.00345621814874206
452.0, 0.005572899778795537
453.0, 0.016250852140134477
454.0, 0.01333209819584189
455.0, 0.0068124338292990805
456.0, 0.01710190456165536
457.0, 0.014104176838476642
458.0, 0.008900442714373479
459.0, 0.014205714318082919
460.0, 0.011688720925448764
461.0, 0.02053450463817698
462.0, 0.044887024915221396
463.0, 0.05807744879718389
464.0, 0.034441313395645254
465.0, 0.03651998478300011
466.0, 0.03637846947043179
467.0, 0.034416627943948355
468.0, 0.040929641952752414
469.0, 0.023894076122418655
470.0, 0.0326084211748545
471.0, 0.035757624659840885
472.0, 0.03952150840780776
473.0, 0.04756196558152356
474.0, 0.045146248291469335
475.0, 0.0341550438568758
476.0, 0.04935040805895555
477.0, 0.057824127497272865
478.0, 0.045951979502052195
479.0, 0.027889096683186447
480.0, 0.025301295465674497
481.0, 0.05582927253690627
482.0, 0.05199111664108493
483.0, 0.03807068101814883
484.0, 0.03711389130261021
485.0, 0.030607640669566876
486.0, 0.06577042478548502
487.0, 0.04498097889200324
488.0, 0.036320855901869196
489.0, 0.0469852048636526
490.0, 0.041620027031504796
491.0, 0.054004370491359185
492.0, 0.04331008937226309
493.0, 0.05033351126620913
494.0, 0.059294814417431244
495.0, 0.05595006068075578
496.0, 0.058014167795554
497.0, 0.07513694783076752
498.0, 0.06742004570490047
499.0, 0.07909909014456713
500.0, 0.09644930220169824
501.0, 0.08803273831306468
502.0, 0.09953782063056094
503.0, 0.10478306033597906
504.0, 0.10567823754546457
505.0, 0.10700510222093647
506.0, 0.10878129261078608
507.0, 0.10488048344979223
508.0, 0.10848643756024565
509.0, 0.09148851460203859
510.0, 0.08578858147956096
511.0, 0.09574147617959333
512.0, 0.10692253003543274
513.0, 0.09847379897689434
514.0, 0.09612585267070288
515.0, 0.07740113284384595
516.0, 0.06781075855847842
517.0, 0.08515205309125616
518.0, 0.10714447581490624
519.0, 0.10161876283793583
520.0, 0.07786112462430625
521.0, 0.07207597755471716
522.0, 0.06467686882642787
523.0, 0.05219051376203751
524.0, 0.06053495645878728
525.0, 0.03908893687191129
526.0, 0.05183455883184184
527.0, 0.03584386600733795
528.0, 0.014430153596288266
529.0, 0.03754582380605496
530.0, 0.057716532860805726
531.0, 0.04389474313624583
532.0, 0.027854913442781896
533.0, 0.037020262614593576
534.0, 0.04317953009787267
535.0, 0.017995933167686978
536.0, 0.00198878266701697
537.0, 0.01829553443175736
538.0, 0.044610569351482963
539.0, 0.021707308649759637
540.0, 0.013632086560954158
541.0, 0.02295325838273278
542.0, 0.030171667404293192
543.0, 0.0120037206033012
544.0, 0.00431519536477471
545.0, 0.016953196897716516
546.0, 0.026089303398816172
547.0, 0.009395179205671551
548.0, 0.0010667534239861586
549.0, 0.008596307294328209
550.0, 0.003447129906441833
551.0, 0.0014646950562431124
552.0, 0.0125734646450968
553.0, 0.013953725729034621
554.0, 0.016975560317414012
555.0, 0.0032770099623733884
556.0, 0.013496588459338255
557.0, 0.006841821849178006
558.0, 0.01844676729324359
559.0, 0.010375178836598565
560.0, 0.011297051379565054
561.0, 0.00215746418312387
562.0, 0.004151399923959373
563.0, 0.021794019552868558
564.0, 0.03042834967506608
565.0, 0.014306398807737469
566.0, 0.031467341636806694
567.0, 0.01840788488997533
568.0, 0.02229109880637116
569.0, 0.034526069113334674
570.0, 0.031249258629123994
571.0, 0.047371135144056734
572.0, 0.05059746485355969
573.0, 0.0569634774505327
574.0, 0.06107081953123048
575.0, 0.05351294356963716
576.0, 0.04322458896607721
577.0, 0.03906071835102184
578.0, 0.029776583709045776
579.0, 0.04079187527656352
580.0, 0.047332749182286867
581.0, 0.04161222694318858
582.0, 0.03669930295225871
583.0, 0.04334591804726754
584.0, 0.05828129394174776
585.0, 0.03424382183225629
586.0, 0.026319087347945382
587.0, 0.04869344395904581
588.0, 0.06641459480093342
589.0, 0.07079273294929671
590.0, 0.057094433956392965
591.0, 0.032754198671805304
592.0, 0.029419316668577035
593.0, 0.04053874423625432
594.0, 0.038793417858250995
595.0, 0.015574208983362588
596.0, 0.010613735865993403
597.0, 0.028397908831809565
598.0, 0.02420499052091382
599.0, 0.0163093164636756
600.0, 0.026556523851817632
601.0, 0.034219673802790805
602.0, 0.048300050113105154
603.0, 0.03679450764835328
604.0, 0.02540764777034886
605.0, 0.025008017949946934
606.0, 0.03582676729065993
607.0, 0.05004715024440719
608.0, 0.023070788189509996
609.0, 0.011454329217739718
610.0, 0.021612902510641435
611.0, 0.031296514397834756
612.0, 0.03282034331954371
613.0, 0.030967450129107173
614.0, 0.01307680700800919
615.0, 0.008683518028981077
616.0, 0.005699820348008479
617.0, 0.00412280389449269
618.0, 0.01592588139158242
619.0, 0.030724816770426964
620.0, 0.01595891342865066
621.0, 0.0037708722101041465
622.0, 0.01729754624158675
623.0, 0.014802706823190716
624.0, 0.001619971743189999
625.0, 0.010650041436397075
626.0, 0.01649311055678776
627.0, 0.0029197847964139738
628.0, 0.007251934495235455
629.0, 0.015959748642299564
630.0, 0.007842086666031756
631.0, 0.01701339977831212
632.0, 0.011594309348800163
633.0, 0.0071739623136359565
634.0, 0.015576760413372574
635.0, 0.010604093181106217
636.0, 0.015892646004743872
637.0, 0.0372219545594198
638.0, 0.02859610752407793
639.0, 0.009897070448088328
640.0, 0.02089746820722812
641.0, 0.039397839545917024
642.0, 0.035838472031171804
643.0, 0.03365040819410949
644.0, 0.04534175357199483
645.0, 0.04539513096736702
646.0, 0.04120669476686909
647.0, 0.033746321883354
648.0, 0.055634902014383134
649.0, 0.07120747102102169
650.0, 0.083928379722217
651.0, 0.1165032922642109
652.0, 0.10571029488179465
653.0, 0.13266032492202565
654.0, 0.14594706553924186
655.0, 0.15478759104654477
656.0, 0.16998627852704512
657.0, 0.188992624018873
658.0, 0.20784023824704823
659.0, 0.20306182659378813
660.0, 0.21056059884076372
661.0, 0.25058530787625993
662.0, 0.29688784572115406
663.0, 0.3191359958423297
664.0, 0.32575293826575236
665.0, 0.3600055697531649
666.0, 0.38915002927752396
667.0, 0.42770245623353403
668.0, 0.4617559165871401
669.0, 0.49018759108188165
670.0, 0.5328650296072505
671.0, 0.6004675483897028
672.0, 0.6465965295863574
673.0, 0.6656869032937859
674.0, 0.7545976394389653
675.0, 0.8355224659440288
676.0, 0.9115752025743294
677.0, 0.9821160417089622
678.0, 0.9927340799578452
679.0, 0.9984521310040804
680.0, 0.9707479655830327
681.0, 0.930497969293971
682.0, 0.8516246904183686
683.0, 0.7474912035606104
684.0, 0.6418926422789865
685.0, 0.5203759797345259
686.0, 0.4427653055443512
687.0, 0.3804914724952394
688.0, 0.2989572783578625
689.0, 0.23429671190525428
690.0, 0.19928982521975386
691.0, 0.1659363781475182
692.0, 0.12986132443569806
693.0, 0.1137036767042455
694.0, 0.11254640393916004
695.0, 0.08785926780987469
696.0, 0.06332794460088258
697.0, 0.07185868265751684
698.0, 0.08935081109116084
699.0, 0.07314493075857793
700.0, 0.05330222685040457
701.0, 0.028094082258635793
702.0, 0.042518518514340124
703.0, 0.06842698970914683
704.0, 0.06333925461558956
705.0, 0.03760536149475437
706.0, 0.03326574176650366
707.0, 0.02679040989956724
708.0, 0.026766921041217945
709.0, 0.05314340637290619
710.0, 0.06224007068411376
711.0, 0.05531934730573547
712.0, 0.08247005092562888
713.0, 0.05368042323978419
714.0, 0.06629523441857413
715.0, 0.08009982882070792
716.0, 0.051302205303974224
717.0, 0.03897571762222059
718.0, 0.07898785801154135
719.0, 0.07368577661610297
720.0, 0.009371698889252189
721.0, 0.028989922716010124
722.0, 0.04533461842997362
723.0, 0.04669876289215705
724.0, 0.05014568367529685
725.0, 0.051771552894988575
726.0, 0.042180973374156765
727.0, 0.04640233972468906
728.0, 0.029460796352150796
729.0, 0.017043232523740452
730.0, 0.029807838175134535
731.0, 0.03844393210719709
732.0, 0.03841962263415598
733.0, 0.05638175309086139
734.0, 0.08186398396086253
735.0, 0.050780736591344675
736.0, 0.017618391787850532
737.0, 0.01093644505737288
738.0, 0.013413249489290268
739.0, 0.014655693278689161
740.0, 0.0197682862079889
741.0, 0.026243511134262657
742.0, 0.025192029512851714
743.0, 0.02775956657859794
744.0, 0.012829307138341343
745.0, 0.02785032486614273
746.0, 0.05291426481431268
747.0, 0.043812618684055143
748.0, 0.031108461731361663
749.0, 0.04684152223174579
750.0, 0.04794877280307557
751.0, 0.038270670826782066
752.0, 0.03432938359472135
753.0, 0.045934345079267094
754.0, 0.04363292618695731
755.0, 0.0012617956452134905
756.0, 0.00708179751836897
757.0, 0.014744666845758574
758.0, 0.006512730008587905
759.0, 0.0350203337463364
760.0, 0.022205617338242018
761.0, 0.008563922745511912
762.0, 0.00859341765182247
763.0, 0.005314341025310802
764.0, 0.005518980791268931
765.0, 0.01761758424629252
766.0, 0.005581061418862863
767.0, 0.023522730586572876
768.0, 0.006915545288693469
769.0, 0.02143201045806561
770.0, 0.0012882029566331028
771.0, 0.0029368224035017706
772.0, 0.008969067287775075
773.0, 0.02227081319039976
774.0, 0.022658933045584716
775.0, 0.012288890375507079
776.0, 0.0166584917422303
777.0, 0.02881222863879392
778.0, 0.012953810700089946
779.0, 0.033401024420806114
780.0, 0.02213692813156111
781.0, 0.02308439773916045
782.0, 0.03271634213086061
783.0, 0.018928072374806402
784.0, 0.007047233763815405
785.0, 0.03145170558859341
786.0, 0.030664833633813296
787.0, 0.005608580836228192
788.0, 0.011283664878511967
789.0, 0.034358838921542734
790.0, 0.03280908168565416
791.0, 0.03548101433179936
792.0, 0.04201006598253165
793.0, 0.027282480710450568
794.0, 0.05758232666347564
795.0, 0.0838744147329422
796.0, 0.07307732356987941
797.0, 0.0574149164217345
798.0, 0.06627837113368375
799.0, 0.07409395508549695
800.0, 0.0547881962577795
801.0, 0.03524793584804129
802.0, 0.005725670534477297
803.0, 0.041505010179354776
804.0, 0.030261554361769034
805.0, 0.024239703083154807
806.0, 0.03747981052676819
807.0, 0.03649677291544594
808.0, 0.027227777231098912
809.0, 0.037236146914884576
810.0, 0.007322623163155862
811.0, 0.04766836659619295
812.0, 0.08130713709662075
813.0, 0.09735601564470883
814.0, 0.1275683187545661
815.0, 0.12046029747735541
816.0, 0.05115289501942121
817.0, 0.027283743627800984
818.0, 0.04299619608118016
819.0, 0.047785737112815946
820.0, 0.05887771959329907
821.0, 0.06199478286658082
822.0, 0.06800336970129302
823.0, 0.08257119989880977
824.0, 0.08195486223588964
825.0, 0.05195871552711076
826.0, 0.060776575586203765
827.0, 0.029976233186287914
828.0, 0.04209169642116843
829.0, 0.025790568624825774
830.0, 0.0034548792695928794
831.0, 0.015739609651622927
832.0, 0.05495746001411013
833.0, 0.05801315491973621
834.0, 0.04075757462659513
835.0, 0.04076868099278508
836.0, 0.003119391713102142
837.0, 0.005231440896425072
838.0, 0.021956667703751348
839.0, 0.053761213357951594
840.0, 0.058452153487096745
841.0, 0.003665648195435397
842.0, 0.024673501107280692
843.0, 0.09043149226901821
844.0, 0.11021294854441828
845.0, 0.0967345995375624
846.0, 0.07582580495482812
847.0, 0.07375532052573663
848.0, 0.05787889564157092
849.0, 0.01599198885333811
850.0, 0.05115814625432323
851.0, 0.03890499145141618
852.0, 0.017715281516152755
853.0, 0.04197816588524687
854.0, 0.038847520380022
855.0, 0.04397657681866689
856.0, 0.05159892235018553
857.0, 0.028049412919477625
858.0, 0.00930895320081732
859.0, 0.006922027580815866
860.0, 0.017078058175356573
861.0, 0.050114298599616934
862.0, 0.07194065768809607
863.0, 0.06502320657893126
864.0, 0.03692757479779068
865.0, 0.024773078164467766
866.0, 0.04626642630652795
867.0, 0.06554966825203026
868.0, 0.05568680783969194
869.0, 0.06733659686854034
870.0, 0.05622049480149073
871.0, 0.03766431421188121
872.0, 0.055266691603219176
873.0, 0.06704782339492003
874.0, 0.042065242736715226
875.0, 0.018096353514879954
876.0, 0.031094632368048006
877.0, 0.03676672139052041
878.0, 0.020749439449242048
879.0, 0.005912361593431587
880.0, 0.010107934050852039
881.0, 0.03141252017164258
882.0, 0.014865176700397475
883.0, 0.0075299696618713495
884.0, 0.026291701767469745
885.0, 0.0115737674971758
886.0, 0.005266201679315272
887.0, 0.016024619773962044
888.0, 0.060816091793927565
889.0, 0.0762333340795634
890.0, 0.07182491228296428
891.0, 0.02982936043297113
892.0, 0.010156390408847167
893.0, 0.022537901396981017
894.0, 0.019433126917992018
895.0, 0.04490861515438313
896.0, 0.028564918783634922
897.0, 0.010121662277401125
898.0, 0.02843574731716865
899.0, 0.02075278104231015
900.0, 0.005741150881716886
901.0, 0.03199761100478689
902.0, 0.06351938014935693
903.0, 0.024086443420428726
904.0, 0.01856400575653284
905.0, 0.034418856721290594
906.0, 0.0069355183194541765
907.0, 0.022213183334896865
908.0, 0.008836101359579525
909.0, 0.02155625816634333
910.0, 0.03197028992061283
911.0, 0.04083978869528209
912.0, 0.0038401599522146813
913.0, 0.025845852666822662
914.0, 0.05650115431795066
915.0, 0.038712969632145745
916.0, 0.019228326792523773
917.0, 0.042725174460685036
918.0, 0.06582469575359902
919.0, 0.06859202014792465
920.0, 0.08103605589379197
921.0, 0.0995589782296218
922.0, 0.08835099360147343
923.0, 0.0694637848706073
924.0, 0.04395686659687638
925.0, 0.04932117060361451
926.0, 0.0720582780935241
927.0, 0.054993261403614685
928.0, 0.05610707345603884
929.0, 0.09626142335203212
930.0, 0.08491412010293373
931.0, 0.02034965097414582
932.0, 0.05011413415638145
933.0, 0.08830858871595847
934.0, 0.07307854823490814
935.0, 0.08124000544584849
936.0, 0.08105437001615584
937.0, 0.047742536264625976
938.0, 0.04534422733658561
939.0, 0.08057366446393398
940.0, 0.09239574011235309
941.0, 0.07917662448239672
942.0, 0.061084498043948006
943.0, 0.06932945067066475
944.0, 0.08281771284348706
945.0, 0.09859622932037826
946.0, 0.07578713673582872
947.0, 0.05839497816177968
948.0, 0.05897601982426411
949.0, 0.04940953739751946
950.0, 0.05229979737041835
951.0, 0.10394490250057828
952.0, 0.11455828741006541
953.0, 0.10180487713128639
954.0, 0.095691365944034
955.0, 0.08594058751343103
956.0, 0.08577893995822043
957.0, 0.09535439240543499
958.0, 0.08557663881415378
959.0, 0.07663004407567432
960.0, 0.09118402367915722
961.0, 0.0809491864398179
962.0, 0.11380944555149461
963.0, 0.07824445042075683
964.0, 0.050105520194571346
965.0, 0.0886227550434217
966.0, 0.05877269440364279
967.0, 0.06422803031579868
968.0, 0.07267309637351342
969.0, 0.06348322604809108
970.0, 0.08475560599432196
971.0, 0.08974254194742193
972.0, 0.033755517063438795
973.0, 0.025843604819220583
974.0, 0.024368667616516074
975.0, 0.03171855851227075
976.0, 0.0430928039059096
977.0, 0.05655353747536475
978.0, 0.0501899013272323
979.0, 0.012203397580816736
980.0, 0.01046856874128957
981.0, 0.04500918803454632
982.0, 0.009914775403607337
983.0, 0.025178739379206054
984.0, 0.03933283422657342
985.0, 0.10952700789543773
986.0, 0.10423610253558968
987.0, 0.05459303995384957
988.0, 0.04749195876812734
989.0, 0.026131420531015435
990.0, 0.010490791824821351
991.0, 0.062492127630400046
992.0, 0.09969626525826555
993.0, 0.07371863256026484
994.0, 0.03166840097792989
995.0, 0.0024141121537674184
996.0, 0.07796132839849676
997.0, 0.09994230028276951
998.0, 0.04548915362085431
999.0, 0.015454502294970671
1000.0, 0.02556458672829557
1001.0, 0.029911490210009373
1002.0, 0.009838876578317541
1003.0, 0.017926775626965735
1004.0, 0.019561562778533288
1005.0, 0.02208965794930346
1006.0, 0.02808687744525761
1007.0, 0.020752807681115978
1008.0, 0.008612511292082493
1009.0, 0.0069397398734878735
1010.0, 0.03779724823918246
1011.0, 0.06433796622039346
1012.0, 0.05625854080445565
1013.0, 0.04070043381558681
1014.0, 0.050279000559030985
1015.0, 0.047709155647285915
1016.0, 0.05702907453732005
1017.0, 0.05697147901357759
1018.0, 0.08360631269903523
1019.0, 0.07610754181774772
1020.0, 0.10102451922265702
1021.0, 0.07936904233369209
1022.0, 0.055130739639659164
1023.0, 0.07842335805256635
1024.0, 0.10301152275948251
1025.0, 0.11474828858918645
1026.0, 0.1208783873576861
1027.0, 0.07433241011697109
1028.0, 0.09963964026976645
1029.0, 0.09128309541349243
1030.0, 0.11229837108067248
1031.0, 0.10447856467681983
1032.0, 0.13319733813274257
1033.0, 0.15282008172141745
1034.0, 0.12117147196112353
1035.0, 0.08871438788016599
1036.0, 0.10005451320244482
1037.0, 0.10072820526839046
1038.0, 0.07533432428562471
1039.0, 0.15241736469641473
1040.0, 0.1500945671487645
1041.0, 0.1396820671580959
1042.0, 0.09181982780332987
1043.0, 0.10809635128334351
1044.0, 0.108868489261117
1045.0, 0.14850078563510105
1046.0, 0.14898241770685342
1047.0, 0.13160489000504297
1048.0, 0.12826354496437609
1049.0, 0.12688803700680532
1050.0, 0.11994242974815159
1051.0, 0.11353532443698894
1052.0, 0.1629463514056484
1053.0, 0.17257339302067615
1054.0, 0.17777844338872542
1055.0, 0.17904683590670528
1056.0, 0.23933222612462504
1057.0, 0.2754399435198853
1058.0, 0.291352791324178
1059.0, 0.2986626741199334
1060.0, 0.2595022190832524
1061.0, 0.25053067682597124
1062.0, 0.3063808588696297
1063.0, 0.30095166847838056
1064.0, 0.23302470523921587
1065.0, 0.24243838355759925
1066.0, 0.25296831039931045
1067.0, 0.21034766226019846
1068.0, 0.2157945777200624
1069.0, 0.2324236018771714
1070.0, 0.1875527017556978
1071.0, 0.1811273083103615
1072.0, 0.2351916338090532
1073.0, 0.22359195224865164
1074.0, 0.1808851893923734
1075.0, 0.209058754397116
1076.0, 0.23966551168098338
1077.0, 0.19358017518448073
1078.0, 0.14834777372385338
1079.0, 0.22273060195662722
1080.0, 0.21946312265241016
1081.0, 0.1694215152054706
1082.0, 0.13194506496792782
1083.0, 0.1431507572306179
1084.0, 0.18137935281943582
1085.0, 0.19147633929642996
1086.0, 0.21631090657381782
1087.0, 0.20764565584733394
1088.0, 0.17807317515251297
1089.0, 0.16833441467822732
1090.0, 0.1446219581741197
1091.0, 0.1559368812031972
1092.0, 0.1612322607370789
1093.0, 0.12382754210086902
1094.0, 0.11991808872337308
1095.0, 0.12143108319209897
1096.0, 0.18808150548276975
1097.0, 0.24656549954379336
1098.0, 0.21755147847957734
1099.0, 0.17721896195064296
1100.0, 0.06346642864380038
1101.0, 0.03606240071221958
1102.0, 0.0685450445972743
1103.0, 0.06648438671388089
1104.0, 0.1299722959898378
1105.0, 0.14986067921107854
1106.0, 0.10595349699222831
1107.0, 0.007028074397601326
1108.0, 0.06345866309789093
1109.0, 0.018695376866726423
1110.0, 0.05708621105238012
1111.0, 0.10024019927564953
1112.0, 0.07636288577008665
1113.0, 0.09655449457456951
1114.0, 0.05726345189967395
1115.0, 0.011088749907349474
1116.0, 0.002417108026874052
1117.0, 0.03524517763818413
1118.0, 0.05515713592838355
1119.0, 0.047741264748040704
1120.0, 0.01321432612490247
1121.0, 0.04025330897256026
1122.0, 0.017510956673838254
1123.0, 0.028445049013314704
1124.0, 0.03375470931520442
1125.0, 0.007320013755586407
1126.0, 0.01920356619470785
1127.0, 0.046410266722887505
1128.0, 0.05025617007171454
1129.0, 0.0908774867731819
1130.0, 0.06829570438130095
1131.0, 0.06452218252342266
1132.0, 0.06357425766505236
1133.0, 0.07091160524247278
1134.0, 0.09771263986520302
1135.0, 0.07275030569535457
1136.0, 0.0775907297401429
1137.0, 0.06924769470159453
1138.0, 0.09142832879438696
1139.0, 0.026878389174583957
1140.0, 0.008914816021750732
1141.0, 0.06835423693186594
1142.0, 0.07691349388067838
1143.0, 0.11576121995480305
1144.0, 0.10457165088498434
1145.0, 0.08989017633226644
1146.0, 0.130410491529122
1147.0, 0.11266649383972278
1148.0, 0.07442726375449797
1149.0, 0.10162967232844801
1150.0, 0.12097711644456087
1151.0, 0.12891092992630537
1152.0, 0.11622414253988082
1153.0, 0.119018632721743
1154.0, 0.10752791020953302
1155.0, 0.13531712179265648
1156.0, 0.05910578899991058
1157.0, 0.12362518631624458
1158.0, 0.11597703492909976
1159.0, 0.13193800212795273
1160.0, 0.062486347759355736
1161.0, 0.11722497253684148
1162.0, 0.12582855860191983
1163.0, 0.13611471573730421
1164.0, 0.15452812462857637
1165.0, 0.12844405398620967
1166.0, 0.12133456026419331
1167.0, 0.13661253022261
1168.0, 0.15106603268610147
1169.0, 0.15511448141997314
1170.0, 0.19680638957180052
1171.0, 0.1568704185062051
1172.0, 0.16889797651986851
1173.0, 0.14636910704768538
1174.0, 0.13174397683561673
1175.0, 0.13230100865674185
1176.0, 0.18611210434012854
1177.0, 0.15785804467871434
1178.0, 0.14272134799451433
1179.0, 0.14304158145708795
1180.0, 0.15127771743615892
1181.0, 0.12433130187790276
1182.0, 0.18535257065959204
1183.0, 0.20139516977868296
1184.0, 0.14760026767928444
1185.0, 0.14351742046996685
1186.0, 0.12288662262666802
1187.0, 0.16196808824534084
1188.0, 0.13401564343774505
1189.0, 0.18176610086515643
1190.0, 0.1964949566380033
1191.0, 0.13349218995473852
1192.0, 0.0807717133870465
1193.0, 0.1159868975075362
1194.0, 0.18136737268164232
1195.0, 0.17636962459162656
1196.0, 0.15778585403973525
1197.0, 0.14718372795830675
1198.0, 0.14481188571504774
1199.0, 0.14187812453380777
1200.0, 0.14305663140912112
1201.0, 0.19217373126649198
1202.0, 0.22359199420935896
1203.0, 0.20322686631153186
1204.0, 0.1892517886337798
1205.0, 0.1842451783084196
1206.0, 0.20924087366763433
1207.0, 0.23604245158356402
1208.0, 0.1978215336571086
1209.0, 0.09711873394546372
1210.0, 0.04870596801465612
1211.0, 0.047426768539949704
1212.0, 0.13606531725295826
1213.0, 0.05519640366710239
1214.0, 0.07586873222454922
1215.0, 0.08925755405301392
1216.0, 0.09468803243246837
1217.0, 0.08368366137320865
1218.0, 0.12147652180845603
1219.0, 0.08891204196600296
1220.0, 0.04626985638787708
1221.0, 0.04747807563942561
1222.0, 0.04378527962783167
1223.0, 0.006003101894363087
1224.0, 0.013930081161998568
1225.0, 0.033288611032418466
1226.0, 0.03778554980733536
1227.0, 0.03688340205369554
1228.0, 0.06893012256895144
1229.0, 0.08399753091976782
1230.0, 0.1144256655156758
1231.0, 0.1142540574235122
1232.0, 0.08945253640228736
1233.0, 0.035648158297535044
1234.0, 0.0833350808866689
1235.0, 0.10754375579180535
1236.0, 0.09831907184146807
1237.0, 0.04380854237242099
1238.0, 0.09286433163269028
1239.0, 0.11053706837140588
1240.0, 0.10700983419600431
1241.0, 0.0971649795056948
1242.0, 0.024299362987692426
1243.0, 0.0069277560885978445
1244.0, 0.061175641957223546
1245.0, 0.05032277592771838
1246.0, 0.042593781070666095
1247.0, 0.09987628730247283
1248.0, 0.09238605474611003
1249.0, 0.08360332943171961
1250.0, 0.11914709857839394
1251.0, 0.10264529149097536
1252.0, 0.11632042702217434
1253.0, 0.08838507057055983
1254.0, 0.052285428128608674
1255.0, 0.09381947942325883
1256.0, 0.0711056155738045
1257.0, 0.07791845392753442
1258.0, 0.0798716857842574
1259.0, 0.0710432061924831
1260.0, 0.04910569050921768
1261.0, 0.06056757174740711
1262.0, 0.06319651049971262
1263.0, 0.10948935879932906
1264.0, 0.026787777762624036
1265.0, 0.01612810805074868
1266.0, 0.10123365645784198
1267.0, 0.13327805607388468
1268.0, 0.08572457212101559
1269.0, 0.0736435182251211
1270.0, 0.018554075800105933
1271.0, 0.053534324722122516
1272.0, 0.0905485248167483
1273.0, 0.04055832061131687
1274.0, 0.07175211099601674
1275.0, 0.11096821451314821
1276.0, 0.08294124501285155
1277.0, 0.02509086828683442
1278.0, 0.0061412632074738785
1279.0, 0.01425048770887737
1280, 0.0
1281, 0.0
1282, 0.0
1283, 0.0
1284, 0.0
1285, 0.0
1286, 0.0
1287, 0.0
1288, 0.0
1289, 0.0
1290, 0.0
1291, 0.0
1292, 0.0
1293, 0.0
1294, 0.0
1295, 0.0
1296, 0.0
1297, 0.0
1298, 0.0
1299, 0.0
1300, 0.0
1301, 0.0
1302, 0.0
1303, 0.0
1304, 0.0
1305, 0.0
1306, 0.0
1307, 0.0
1308, 0.0
1309, 0.0
1310, 0.0
1311, 0.0
1312, 0.0
1313, 0.0
1314, 0.0
1315, 0.0
1316, 0.0
1317, 0.0
1318, 0.0
1319, 0.0
1320, 0.0
1321, 0.0
1322, 0.0
1323, 0.0
1324, 0.0
1325, 0.0
1326, 0.0
1327, 0.0
1328, 0.0
1329, 0.0
1330, 0.0
1331, 0.0
1332, 0.0
1333, 0.0
1334, 0.0
1335, 0.0
1336, 0.0
1337, 0.0
1338, 0.0
1339, 0.0
1340, 0.0
1341, 0.0
1342, 0.0
1343, 0.0
1344, 0.0
1345, 0.0
1346, 0.0
1347, 0.0
1348, 0.0
1349, 0.0
1350, 0.0
1351, 0.0
1352, 0.0
1353, 0.0
1354, 0.0
1355, 0.0
1356, 0.0
1357, 0.0
1358, 0.0
1359, 0.0
1360, 0.0
1361, 0.0
1362, 0.0
1363, 0.0
1364, 0.0
1365, 0.0
1366, 0.0
1367, 0.0
1368, 0.0
1369, 0.0
1370, 0.0
1371, 0.0
1372, 0.0
1373, 0.0
1374, 0.0
1375, 0.0
1376, 0.0
1377, 0.0
1378, 0.0
1379, 0.0
1380, 0.0
1381, 0.0
1382, 0.0
1383, 0.0
1384, 0.0
1385, 0.0
1386, 0.0
1387, 0.0
1388, 0.0
1389, 0.0
1390, 0.0
1391, 0.0
1392, 0.0
1393, 0.0
1394, 0.0
1395, 0.0
1396, 0.0
1397, 0.0
1398, 0.0
1399, 0.0
1400, 0.0
1401, 0.0
1402, 0.0
1403, 0.0
1404, 0.0
1405, 0.0
1406, 0.0
1407, 0.0
1408, 0.0
1409, 0.0
1410, 0.0
1411, 0.0
1412, 0.0
1413, 0.0
1414, 0.0
1415, 0.0
1416, 0.0
1417, 0.0
1418, 0.0
1419, 0.0
1420, 0.0
1421, 0.0
1422, 0.0
1423, 0.0
1424, 0.0
1425, 0.0
1426, 0.0
1427, 0.0
1428, 0.0
1429, 0.0
1430, 0.0
1431, 0.0
1432, 0.0
1433, 0.0
1434, 0.0
1435, 0.0
1436, 0.0
1437, 0.0
1438, 0.0
1439, 0.0
1440, 0.0
1441, 0.0
1442, 0.0
1443, 0.0
1444, 0.0
1445, 0.0
1446, 0.0
1447, 0.0
1448, 0.0
1449, 0.0
1450, 0.0
1451, 0.0
1452, 0.0
1453, 0.0
1454, 0.0
1455, 0.0
1456, 0.0
1457, 0.0
1458, 0.0
1459, 0.0
1460, 0.0
1461, 0.0
1462, 0.0
1463, 0.0
1464, 0.0
1465, 0.0
1466, 0.0
1467, 0.0
1468, 0.0
1469, 0.0
1470, 0.0
1471, 0.0
1472, 0.0
1473, 0.0
1474, 0.0
1475, 0.0
1476, 0.0
1477, 0.0
1478, 0.0
1479, 0.0
1480, 0.0
1481, 0.0
1482, 0.0
1483, 0.0
1484, 0.0
1485, 0.0
1486, 0.0
1487, 0.0
1488, 0.0
1489, 0.0
1490, 0.0
1491, 0.0
1492, 0.0
1493, 0.0
1494, 0.0
1495, 0.0
1496, 0.0
1497, 0.0
1498, 0.0
1499, 0.0
1500, 0.0
1501, 0.0
1502, 0.0
1503, 0.0
1504, 0.0
1505, 0.0
1506, 0.0
1507, 0.0
1508, 0.0
1509, 0.0
1510, 0.0
1511, 0.0
1512, 0.0
1513, 0.0
1514, 0.0
1515, 0.0
1516, 0.0
1517, 0.0
1518, 0.0
1519, 0.0
1520, 0.0
1521, 0.0
1522, 0.0
1523, 0.0
1524, 0.0
1525, 0.0
1526, 0.0
1527, 0.0
1528, 0.0
1529, 0.0
1530, 0.0
1531, 0.0
1532, 0.0
1533, 0.0
1534, 0.0
1535, 0.0
1536, 0.0
1537, 0.0
1538, 0.0
1539, 0.0
1540, 0.0
1541, 0.0
1542, 0.0
1543, 0.0
1544, 0.0
1545, 0.0
1546, 0.0
1547, 0.0
1548, 0.0
1549, 0.0
1550, 0.0
1551, 0.0
1552, 0.0
1553, 0.0
1554, 0.0
1555, 0.0
1556, 0.0
1557, 0.0
1558, 0.0
1559, 0.0
1560, 0.0
1561, 0.0
1562, 0.0
1563, 0.0
1564, 0.0
1565, 0.0
1566, 0.0
1567, 0.0
1568, 0.0
1569, 0.0
1570, 0.0
1571, 0.0
1572, 0.0
1573, 0.0
1574, 0.0
1575, 0.0
1576, 0.0
1577, 0.0
1578, 0.0
1579, 0.0
1580, 0.0
1581, 0.0
1582, 0.0
1583, 0.0
1584, 0.0
1585, 0.0
1586, 0.0
1587, 0.0
1588, 0.0
1589, 0.0
1590, 0.0
1591, 0.0
1592, 0.0
1593, 0.0
1594, 0.0
1595, 0.0
1596, 0.0
1597, 0.0
1598, 0.0
1599, 0.0
