30, 0.0
31, 0.0
32, 0.0
33, 0.0
34, 0.0
35, 0.0
36, 0.0
37, 0.0
38, 0.0
39, 0.0
40, 0.0
41, 0.0
42, 0.0
43, 0.0
44, 0.0
45, 0.0
46, 0.0
47, 0.0
48, 0.0
49, 0.0
50, 0.0
51, 0.0
52, 0.0
53, 0.0
54, 0.0
55, 0.0
56, 0.0
57, 0.0
58, 0.0
59, 0.0
60, 0.0
61, 0.0
62, 0.0
63, 0.0
64, 0.0
65, 0.0
66, 0.0
67, 0.0
68, 0.0
69, 0.0
70, 0.0
71, 0.0
72, 0.0
73, 0.0
74, 0.0
75, 0.0
76, 0.0
77, 0.0
78, 0.0
79, 0.0
80, 0.0
81, 0.0
82, 0.0
83, 0.0
84, 0.0
85, 0.0
86, 0.0
87, 0.0
88, 0.0
89, 0.0
90, 0.0
91, 0.0
92, 0.0
93, 0.0
94, 0.0
95, 0.0
96, 0.0
97, 0.0
98, 0.0
99, 0.0
100, 0.0
101, 0.0
102, 0.0
103, 0.0
104, 0.0
105, 0.0
106, 0.0
107, 0.0
108, 0.0
109, 0.0
110, 0.0
111, 0.0
112, 0.0
113, 0.0
114, 0.0
115, 0.0
116, 0.0
117, 0.0
118, 0.0
119, 0.0
120, 0.0
121, 0.0
122, 0.0
123, 0.0
124, 0.0
125, 0.0
126, 0.0
127, 0.0
128, 0.0
129, 0.0
130, 0.0
131, 0.0
132, 0.0
133, 0.0
134, 0.0
135, 0.0
136, 0.0
137, 0.0
138, 0.0
139, 0.0
140.0, 0.0013033139426279336
141.0, 0.004680601084644086
142.0, 0.00915176823524546
143.0, 0.01752586905448936
144.0, 0.018801463508456146
145.0, 0.013391835352604168
146.0, 0.01651566895666332
147.0, 0.01610724329840015
148.0, 0.01091654394277872
149.0, 0.006257207287157392
150.0, 0.0032813411601547264
151.0, 0.0006513008960230163
152.0, 0.0010480104849257877
153.0, 0.0003280583671898946
154.0, 1.921332705649611e-05
155.0, 0.004128210864724667
156.0, 0.007027929453890296
157.0, 0.002746956987562786
158.0, 0.001505876996104931
159.0, 0.0060128394634747055
160.0, 0.011731823693406144
161.0, 0.011562198615932273
162.0, 0.002224550209812007
163.0, 0.0012169149430248443
164.0, 0.01286443343650388
165.0, 0.015771966234186433
166.0, 0.02492182386239033
167.0, 0.0333278744742978
168.0, 0.04961662423807535
169.0, 0.07280384940309252
170.0, 0.10003948785125376
171.0, 0.13167665005905171
172.0, 0.16899330720007102
173.0, 0.21545468776133134
174.0, 0.2533010371238268
175.0, 0.2875945887060324
176.0, 0.3124888587349148
177.0, 0.3225582000449881
178.0, 0.31738795651574564
179.0, 0.3107913156345564
180.0, 0.3087174067270011
181.0, 0.3055594223609504
182.0, 0.2996003926201148
183.0, 0.2971604935370358
184.0, 0.2774154275930665
185.0, 0.24616359284076422
186.0, 0.21242529478943406
187.0, 0.1733464377168451
188.0, 0.13524593669693064
189.0, 0.1074841448456607
190.0, 0.08499315387718505
191.0, 0.06508750543735696
192.0, 0.04886623192887116
193.0, 0.033721454526778244
194.0, 0.02949938221467072
195.0, 0.016812191537579697
196.0, 0.01197090899942853
197.0, 0.009877374299102399
198.0, 0.004508949958213196
199.0, 0.006637467879164493
200.0, 0.005145778660964998
201.0, 0.0027588147883113655
202.0, 0.0032235655104773326
203.0, 0.0019564171103212107
204.0, 0.005087751954788662
205.0, 0.010180871882881621
206.0, 0.02533154829211693
207.0, 0.037191701722365716
208.0, 0.04849237515491372
209.0, 0.05973127965382334
210.0, 0.06926344535496161
211.0, 0.0722064124011917
212.0, 0.0734282878913268
213.0, 0.07362476619518263
214.0, 0.06636160644864444
215.0, 0.05873753383868743
216.0, 0.05219287914236849
217.0, 0.06422242850547326
218.0, 0.05577934372636606
219.0, 0.05709955156080924
220.0, 0.0643539217509254
221.0, 0.07342037039843322
222.0, 0.08558455619145257
223.0, 0.09768589318266661
224.0, 0.1064108025299005
225.0, 0.11530101350975075
226.0, 0.12480209713692114
227.0, 0.11798410209568189
228.0, 0.12001905810942033
229.0, 0.11496828512976012
230.0, 0.12213212128184406
231.0, 0.12221114121266922
232.0, 0.12164952241415994
233.0, 0.12003804100392396
234.0, 0.11504017022990319
235.0, 0.10835960816312849
236.0, 0.1011056574713589
237.0, 0.09179720867352718
238.0, 0.08733861245358282
239.0, 0.08941747902861547
240.0, 0.09165379796237376
241.0, 0.09498154887703827
242.0, 0.10974447988090687
243.0, 0.12241703968284365
244.0, 0.1357517845488909
245.0, 0.15333401968104535
246.0, 0.16893427367248445
247.0, 0.17945687785672
248.0, 0.19134214455822998
249.0, 0.2009628640205899
250.0, 0.207277454865447
251.0, 0.2161635273519379
252.0, 0.23035753258978336
253.0, 0.24691853810025494
254.0, 0.25680001884184167
255.0, 0.2744640917694039
256.0, 0.28269137092236674
257.0, 0.2837684621803829
258.0, 0.2834461421999848
259.0, 0.27560264921701627
260.0, 0.27012168962962674
261.0, 0.2632564549898312
262.0, 0.25360193188633573
263.0, 0.2453858376768927
264.0, 0.23332766040862415
265.0, 0.23395647979170053
266.0, 0.223221808360824
267.0, 0.21067554571163472
268.0, 0.1983437719534142
269.0, 0.18145527044440654
270.0, 0.1591829746738915
271.0, 0.13836083029531823
272.0, 0.12681649234467154
273.0, 0.10968607148440186
274.0, 0.09529584262618948
275.0, 0.07526719445023781
276.0, 0.0650262109788094
277.0, 0.05413374863388599
278.0, 0.04996566641394622
279.0, 0.04300486305359088
280.0, 0.03677934723056462
281.0, 0.03786102037006968
282.0, 0.036663277542406475
283.0, 0.0298794423571992
284.0, 0.03656350353715413
285.0, 0.03166044012830589
286.0, 0.03220890502453014
287.0, 0.03431157864742953
288.0, 0.040411404455498734
289.0, 0.04741250880403878
290.0, 0.04964093685917389
291.0, 0.05064856657745397
292.0, 0.052747237849408796
293.0, 0.057850549557887945
294.0, 0.06466654344022313
295.0, 0.07069798510837014
296.0, 0.07693283920642098
297.0, 0.08144720129092951
298.0, 0.08587205522824612
299.0, 0.09229550290010276
300.0, 0.10692567451684479
301.0, 0.11892582632464539
302.0, 0.1333107296442149
303.0, 0.14729287045665287
304.0, 0.16541503635419325
305.0, 0.18695751527740975
306.0, 0.21600232880988365
307.0, 0.24973511818460087
308.0, 0.2787217150045752
309.0, 0.31481839687930047
310.0, 0.3591418797737103
311.0, 0.40656277599349594
312.0, 0.4473423437706641
313.0, 0.5000826249140854
314.0, 0.5297587470929477
315.0, 0.5585902944793585
316.0, 0.5781560596783392
317.0, 0.583316268417384
318.0, 0.5756531106595942
319.0, 0.5594905263445477
320.0, 0.5355359377191463
321.0, 0.5011948444109598
322.0, 0.46006603881779456
323.0, 0.4162388048120009
324.0, 0.3892768076772092
325.0, 0.3493256267329224
326.0, 0.31802125516273505
327.0, 0.29049393686889413
328.0, 0.26944800916559836
329.0, 0.24964384492734612
330.0, 0.2307536430286857
331.0, 0.21549509756769958
332.0, 0.20100938890232736
333.0, 0.18583442329853536
334.0, 0.17410558373869642
335.0, 0.16217751872561767
336.0, 0.14539200078932726
337.0, 0.14759045422984346
338.0, 0.13988170941956932
339.0, 0.13312688772636103
340.0, 0.12568356443207057
341.0, 0.11729186311087088
342.0, 0.1140502581090646
343.0, 0.10840859296340428
344.0, 0.10020296507082574
345.0, 0.0926106939510257
346.0, 0.08740908506814585
347.0, 0.0838129756370832
348.0, 0.07825521743537661
349.0, 0.0739853778844445
350.0, 0.07627888871540003
351.0, 0.07180132130310407
352.0, 0.06749195705469245
353.0, 0.06553908314391098
354.0, 0.0670047984620299
355.0, 0.06699418427170502
356.0, 0.0734485596749589
357.0, 0.07470905039057217
358.0, 0.07394837861271905
359.0, 0.07666767410352136
360.0, 0.07470085518682766
361.0, 0.06713443973946233
362.0, 0.06582668263654914
363.0, 0.060007636048140536
364.0, 0.05257075649262646
365.0, 0.045684568199021655
366.0, 0.036321543576175036
367.0, 0.03542453647726144
368.0, 0.02702223440050424
369.0, 0.019270090050519734
370.0, 0.016575184606070534
371.0, 0.016828809144050376
372.0, 0.017059655838265353
373.0, 0.014477739500782676
374.0, 0.010912170232640205
375.0, 0.010659471078820919
376.0, 0.011513302799533632
377.0, 0.008581620426697847
378.0, 0.0034598641778320963
379.0, 0.004377190408961301
380.0, 0.0053928781165467525
381.0, 0.009072148449489692
382.0, 0.004166425785168407
383.0, 0.0062931766534928095
384.0, 0.003480750404748074
385.0, 0.0035877556901232057
386.0, 0.0036902797829516504
387.0, 0.0022614566496678328
388.0, 0.0020939736583673973
389.0, 0.004531050215911818
390.0, 0.007050724988719271
391.0, 0.00398125876479642
392.0, 0.0003775623532190359
393.0, 0.0019097270032368105
394.0, 0.006858869556365169
395.0, 0.003449012304406613
396.0, 0.002507973489211494
397.0, 0.003356692900539286
398.0, 0.0022701825531632348
399.0, 0.0015856770326833803
400.0, 0.004883089658604161
401.0, 0.005067956388152065
402.0, 0.0028739699230966856
403.0, 0.002603048247662374
404.0, 0.0024747293706919244
405.0, 0.0019443443332427895
406.0, 0.0030776559414446387
407.0, 0.0011321623547940517
408.0, 0.001086207689539975
409.0, 0.001289714535193102
410.0, 0.001018855327583887
411.0, 0.003849223882671311
412.0, 0.004068945244538353
413.0, 0.004291502873541209
414.0, 0.0017956696390335606
415.0, 0.002372063941125993
416.0, 0.0026345296185458777
417.0, 0.0010942540720461629
418.0, 0.0005110134668319174
419.0, 0.002883073139963989
420.0, 0.005057326141684341
421.0, 0.003712857963091638
422.0, 0.0037991379264095417
423.0, 0.003941507078375104
424.0, 0.0047131772631418805
425.0, 0.008895328368638506
426.0, 0.015791719598570363
427.0, 0.013135398717558915
428.0, 0.007250808965711999
429.0, 0.011405103681512633
430.0, 0.013664341024313622
431.0, 0.013342821528097227
432.0, 0.011851760847121478
433.0, 0.0060246363160295835
434.0, 0.00583055267973619
435.0, 0.010242399852401777
436.0, 0.01132886668647549
437.0, 0.014708354377049274
438.0, 0.014595973360290481
439.0, 0.016316837549106157
440.0, 0.013289541588680849
441.0, 0.013243172184239474
442.0, 0.01913452423104708
443.0, 0.012248358104591643
444.0, 0.019192402034278487
445.0, 0.02176949281278603
446.0, 0.023148099148795797
447.0, 0.0211007071362887
448.0, 0.026215463573502372
449.0, 0.025949746623767582
450.0, 0.02655716433604408
451.0, 0.03439331151563534
452.0, 0.0400542307490485
453.0, 0.040716592446114
454.0, 0.04212140919192363
455.0, 0.046743483046401704
456.0, 0.05090531559386555
457.0, 0.05358115819913533
458.0, 0.05649343292477641
459.0, 0.058405018544746605
460.0, 0.0647085825136435
461.0, 0.06403643413809873
462.0, 0.06471482348238308
463.0, 0.06956693313813295
464.0, 0.07383357335097794
465.0, 0.074835503256578
466.0, 0.0764677638583229
467.0, 0.07172338768472107
468.0, 0.06723181334262014
469.0, 0.06895515074562827
470.0, 0.06580662132701931
471.0, 0.05837274881969698
472.0, 0.0577198835797051
473.0, 0.05341494309303556
474.0, 0.04840498215339119
475.0, 0.04488134183135619
476.0, 0.04393909684536534
477.0, 0.04352544222593931
478.0, 0.03438022159505013
479.0, 0.033314655225281965
480.0, 0.027576440700863614
481.0, 0.0295225108474467
482.0, 0.02728165018032177
483.0, 0.027570570022884055
484.0, 0.027286230523345945
485.0, 0.024431788065013834
486.0, 0.024433419357402265
487.0, 0.02603088581753461
488.0, 0.023276420099482543
489.0, 0.01845697667067371
490.0, 0.018717592403298552
491.0, 0.024578759123193152
492.0, 0.027644916797401685
493.0, 0.029079431199626957
494.0, 0.025341164092168834
495.0, 0.018926859689592214
496.0, 0.025385429353863773
497.0, 0.025777363721180162
498.0, 0.016499846584512187
499.0, 0.020876997825038678
500.0, 0.022477477332945694
501.0, 0.02473167686144715
502.0, 0.026980912787987095
503.0, 0.025689474156956847
504.0, 0.025801435431310988
505.0, 0.02830426892684673
506.0, 0.03117358154030879
507.0, 0.034296884714594696
508.0, 0.032950552430744844
509.0, 0.028386621735235488
510.0, 0.03132803053203447
511.0, 0.030622672048231762
512.0, 0.03527746522688852
513.0, 0.03745447034185263
514.0, 0.032353602371081515
515.0, 0.04097241841152694
516.0, 0.03341773886688696
517.0, 0.037326352198743605
518.0, 0.04004445416073925
519.0, 0.033543405600958184
520.0, 0.03094771291294931
521.0, 0.030232887334062267
522.0, 0.030896057800285127
523.0, 0.035716020379607125
524.0, 0.0385644738369973
525.0, 0.036074366012595345
526.0, 0.03436260575208996
527.0, 0.03809881317401344
528.0, 0.03918981876248106
529.0, 0.035229404780267176
530.0, 0.038577013593933666
531.0, 0.03759801698678288
532.0, 0.03069657223565013
533.0, 0.03333527978650914
534.0, 0.03148484028160832
535.0, 0.03648808105304687
536.0, 0.034161472997389364
537.0, 0.03672511823990351
538.0, 0.03976218495875351
539.0, 0.034014698827622314
540.0, 0.03989268674688316
541.0, 0.03865731663057453
542.0, 0.04198443575974497
543.0, 0.043930740438658314
544.0, 0.04705848200075835
545.0, 0.04971798829796922
546.0, 0.051738666604136174
547.0, 0.054512221175754286
548.0, 0.05648084261346004
549.0, 0.0563701906111059
550.0, 0.05649753634447666
551.0, 0.05753049257975595
552.0, 0.05650560887218353
553.0, 0.058874416887524664
554.0, 0.06241640023387279
555.0, 0.06323407989282359
556.0, 0.06977174397530277
557.0, 0.06093102372882924
558.0, 0.06408127135322261
559.0, 0.06871252176572779
560.0, 0.07203144450824277
561.0, 0.06786195537795525
562.0, 0.07264922010986904
563.0, 0.07698480114484527
564.0, 0.08032615731030326
565.0, 0.07241397026603495
566.0, 0.07468023220362896
567.0, 0.08105481478239317
568.0, 0.07936290359109316
569.0, 0.07898509932974153
570.0, 0.08404735118654813
571.0, 0.09038815228695375
572.0, 0.0913706646347787
573.0, 0.0912618644310574
574.0, 0.09974936975809907
575.0, 0.10549498248414169
576.0, 0.11052348980898886
577.0, 0.11563828348070837
578.0, 0.12440489360357684
579.0, 0.1319040226621556
580.0, 0.13078871577380088
581.0, 0.1403581676738131
582.0, 0.1434392408307812
583.0, 0.15054997464143588
584.0, 0.1577497704640393
585.0, 0.16206920818178153
586.0, 0.16851864257098986
587.0, 0.16642430165621616
588.0, 0.16514250092930996
589.0, 0.15962637953315353
590.0, 0.16330260931448093
591.0, 0.16009958930314167
592.0, 0.160028956844359
593.0, 0.16092982081454743
594.0, 0.15850814790833118
595.0, 0.15564258619427887
596.0, 0.15420332943869958
597.0, 0.14974902638699286
598.0, 0.14303447057175372
599.0, 0.13974630573685795
600.0, 0.1372707549914228
601.0, 0.1371728372381506
602.0, 0.13436124343835887
603.0, 0.12775521270002946
604.0, 0.12374053314772906
605.0, 0.11461025152926933
606.0, 0.11841401181418017
607.0, 0.11405740793426196
608.0, 0.10167939919328645
609.0, 0.10184676882561497
610.0, 0.09656873735546541
611.0, 0.0924516117190288
612.0, 0.09041345189603482
613.0, 0.09066515974034582
614.0, 0.08580662454876967
615.0, 0.08207152927937805
616.0, 0.0831260043765937
617.0, 0.08073970595582991
618.0, 0.07379840414851428
619.0, 0.07011422432106333
620.0, 0.0658025565571804
621.0, 0.06455319888320053
622.0, 0.06773859695777917
623.0, 0.07059001106669677
624.0, 0.0665783678166115
625.0, 0.062435994699367496
626.0, 0.06380721835238308
627.0, 0.06220105306823135
628.0, 0.05726913211760559
629.0, 0.05330831155558105
630.0, 0.054989484651223115
631.0, 0.054595286999305576
632.0, 0.047880131263204874
633.0, 0.048747068033154824
634.0, 0.04931863930840772
635.0, 0.0511626556321557
636.0, 0.04587663914976141
637.0, 0.049006135887262145
638.0, 0.04426445225455839
639.0, 0.0448211172428839
640.0, 0.047971073927736425
641.0, 0.03919152024316393
642.0, 0.040402259678373346
643.0, 0.03853944005703909
644.0, 0.040246712403055
645.0, 0.04193514149883361
646.0, 0.0374648655990047
647.0, 0.04059267410581497
648.0, 0.04069252255192218
649.0, 0.03718190767558818
650.0, 0.03405835717029958
651.0, 0.0353570692162629
652.0, 0.033890414132359846
653.0, 0.03124398062633049
654.0, 0.03293814096813788
655.0, 0.035604179148122965
656.0, 0.03099987624126344
657.0, 0.02630839079824175
658.0, 0.026753577539282505
659.0, 0.027433553318372078
660.0, 0.029034438765265947
661.0, 0.027903105407523124
662.0, 0.027319259236947266
663.0, 0.026233440721884767
664.0, 0.023992055842540487
665.0, 0.01980766300859705
666.0, 0.021473408318927984
667.0, 0.024635864478007388
668.0, 0.02741819412476285
669.0, 0.028843524125611565
670.0, 0.022863316461908353
671.0, 0.031187995605001094
672.0, 0.022401418569401636
673.0, 0.016576674588257637
674.0, 0.020329126378627292
675.0, 0.016914728117680296
676.0, 0.0262477468961313
677.0, 0.015041983677484454
678.0, 0.020011977587045558
679.0, 0.017294027820521803
680.0, 0.01578930785999503
681.0, 0.011905707466131215
682.0, 0.017370863281920418
683.0, 0.017136618036528387
684.0, 0.019868946716504656
685.0, 0.01254301515955893
686.0, 0.014006392974474553
687.0, 0.018178646356457412
688.0, 0.014833896700610721
689.0, 0.014618296629959577
690.0, 0.014673830048001662
691.0, 0.015383561206504092
692.0, 0.01697988035933545
693.0, 0.012703066313814607
694.0, 0.008616225167149676
695.0, 0.010425565722494935
696.0, 0.01081534402288803
697.0, 0.009931580897547627
698.0, 0.01050770008469911
699.0, 0.009434524195652574
700.0, 0.009338801638925982
701.0, 0.008330133478912273
702.0, 0.006006845938264099
703.0, 0.007100042042123812
704.0, 0.006082941538465373
705.0, 0.006157806006473329
706.0, 0.00484116168477898
707.0, 0.006096236280797864
708.0, 0.006681389281479769
709.0, 0.0019661026203661434
710.0, 0.006777051959831196
711.0, 0.01183366652492186
712.0, 0.00765483914323588
713.0, 0.00302830863373144
714.0, 0.001340502657408078
715.0, 0.007080715631623196
716.0, 0.0020394845207343582
717.0, 0.006584091509542995
718.0, 0.003793522118382757
719.0, 0.005892868555444324
720.0, 0.006144511049588132
721.0, 0.002128819417186989
722.0, 0.004734004129058643
723.0, 0.009424987120254823
724.0, 0.0033031452834448604
725.0, 0.000842279029990228
726.0, 0.001954136344533703
727.0, 0.0009325643541671343
728.0, 0.009397197332188138
729.0, 0.0023597130591092824
730.0, 0.0031742639458191176
731.0, 0.0024539928995604638
732.0, 0.0024469383448597376
733.0, 0.003591982013164306
734.0, 0.006652172974752708
735.0, 0.006887438248527683
736.0, 0.0031005558330427733
737.0, 0.0008928497080236737
738.0, 0.0009247957122137377
739.0, 0.0007330152435523105
740.0, 0.003480031668186026
741.0, 0.005750664586313892
742.0, 0.0026082022116360164
743.0, 0.000504746893261009
744.0, 0.002703179857370312
745.0, 0.00378870035105655
746.0, 0.004495538552776071
747.0, 0.0037776097513423763
748.0, 0.002127505044226497
749.0, 0.004353347290494614
750.0, 0.006577771726592549
751.0, 0.0035763742445301828
752.0, 0.0006060678071902149
753.0, 0.0012684362392607158
754.0, 0.0007916273677953318
755.0, 0.003677614711679744
756.0, 0.0069845741582072705
757.0, 0.0034316935629032158
758.0, 0.0034037349407377436
759.0, 0.004282457662083227
760.0, 0.004459258753587232
761.0, 0.0033669482716023463
762.0, 0.0077352100305481735
763.0, 0.006642914316980106
764.0, 0.0026084553809765667
765.0, 0.0022924530871696485
766.0, 0.0016108730155298043
767.0, 0.0029882080865943983
768.0, 0.005365955270431935
769.0, 0.002322075679906001
770.0, 0.0016763799500294592
771.0, 0.0016134028071924614
772.0, 0.0019334036546372402
773.0, 0.001739845036704325
774.0, 0.004823489196223254
775.0, 0.00059738799607558
776.0, 0.00043185091733579663
777.0, 0.0028587015877777856
778.0, 0.002210083573497398
779.0, 0.005410289304435902
780.0, 0.0008247883205372338
781.0, 0.001960697729864689
782.0, 0.0018746341734458439
783.0, 0.003613399258082418
784.0, 0.0011214598583242498
785.0, 0.0016040978191158009
786.0, 0.0027856612996113453
787.0, 0.0033260954194865204
788.0, 0.003254042413574066
789.0, 0.006805970131043212
790.0, 0.0055756000721413216
791.0, 0.002460090759825227
792.0, 0.0017402330357499229
793.0, 0.003767378157266353
794.0, 0.004391860656045483
795.0, 0.005190126284750006
796.0, 0.004251369094640937
797.0, 0.008950140770111019
798.0, 0.008527683514486527
799.0, 0.011181954866072496
800.0, 0.011559199807938358
801.0, 0.007907789912158302
802.0, 0.007268451135163704
803.0, 0.01587721137851362
804.0, 0.012887527200717171
805.0, 0.013376147004958736
806.0, 0.012124195660605875
807.0, 0.0195431535343401
808.0, 0.01623794037758168
809.0, 0.01269904895666422
810.0, 0.009371513297532535
811.0, 0.011385109614153847
812.0, 0.01659879153574153
813.0, 0.012989159907691726
814.0, 0.01637098068223671
815.0, 0.018539689877538006
816.0, 0.018688685338565127
817.0, 0.015036221491956946
818.0, 0.01762140130825527
819.0, 0.02154515297801651
820.0, 0.022298878391686112
821.0, 0.020403611027695136
822.0, 0.02226716344258972
823.0, 0.024190370946849005
824.0, 0.027479430451429022
825.0, 0.02450918416619607
826.0, 0.026630146025864335
827.0, 0.027452725146002558
828.0, 0.027600321391989032
829.0, 0.03483460899921073
830.0, 0.036306125530023686
831.0, 0.03708600578168705
832.0, 0.03918779152976604
833.0, 0.045193522556031346
834.0, 0.04428037322922829
835.0, 0.05112231761094575
836.0, 0.05400541395237219
837.0, 0.06222743791406138
838.0, 0.0633756752315738
839.0, 0.0695145789472079
840.0, 0.07781282959179747
841.0, 0.08495957836179706
842.0, 0.09142457667170824
843.0, 0.0999818855151871
844.0, 0.10528040224904443
845.0, 0.11853689316259731
846.0, 0.12963443770280825
847.0, 0.1530407392944324
848.0, 0.16267828808426393
849.0, 0.17047999860826452
850.0, 0.1813503408540301
851.0, 0.18759047890746236
852.0, 0.19756129816386533
853.0, 0.18780669285967005
854.0, 0.19158671307374708
855.0, 0.1812081093301763
856.0, 0.1713839495932644
857.0, 0.15651958340066266
858.0, 0.14364364913532127
859.0, 0.1308715337723118
860.0, 0.11864426287629978
861.0, 0.09999441794380504
862.0, 0.09253729924050255
863.0, 0.08567109178780186
864.0, 0.07671574401103944
865.0, 0.07148007025094735
866.0, 0.06393523047653107
867.0, 0.06178718866389578
868.0, 0.047410059251593306
869.0, 0.0442863500407926
870.0, 0.04659015958427777
871.0, 0.04266394259842204
872.0, 0.043510731489730746
873.0, 0.03322400989072434
874.0, 0.026845512876890024
875.0, 0.02793905808321246
876.0, 0.024454576279557324
877.0, 0.024912837349893757
878.0, 0.023346679843512203
879.0, 0.02135392554839342
880.0, 0.016557336636211513
881.0, 0.02115866679348776
882.0, 0.011842986246625097
883.0, 0.0280844556251289
884.0, 0.011234011513452763
885.0, 0.004123935097091623
886.0, 0.011162071089723417
887.0, 0.013342457994575037
888.0, 0.010616971841165565
889.0, 0.014330778503384017
890.0, 0.008897472839196133
891.0, 0.013970420170731544
892.0, 0.01188770506070107
893.0, 0.007508486413583147
894.0, 0.008529591498246218
895.0, 0.00881960918445148
896.0, 0.007638659180536519
897.0, 0.0038456260321786196
898.0, 0.010224155667659971
899.0, 0.008689389806202057
900.0, 0.007858890979113244
901.0, 0.007297403642056436
902.0, 0.007064791179150706
903.0, 0.005872267080118088
904.0, 0.003187274285891617
905.0, 0.01149921457143484
906.0, 0.004928718520699676
907.0, 0.0008971818308645785
908.0, 0.006280290147383086
909.0, 0.0018030481960272416
910.0, 0.0018316371620495935
911.0, 0.005823642492212311
912.0, 0.007703864979999008
913.0, 0.00534452812527589
914.0, 0.0023310765726358698
915.0, 0.0038231877839091893
916.0, 0.0009058937103421681
917.0, 0.003091764798255973
918.0, 0.0040925573071854595
919.0, 0.0009051902914664814
920.0, 0.002111419744418545
921.0, 0.005245387975503336
922.0, 0.0030583039359794663
923.0, 0.004359552960840275
924.0, 0.004657648023992741
925.0, 0.005803864035859288
926.0, 0.009508870408660178
927.0, 0.005715004714904348
928.0, 0.010251265184604754
929.0, 0.015019016062338141
930.0, 0.0073484955824040295
931.0, 0.010127458650216522
932.0, 0.009654577841275274
933.0, 0.01309907276084706
934.0, 0.013930165557159214
935.0, 0.013024359151251602
936.0, 0.019761929359156872
937.0, 0.022419638557523797
938.0, 0.02088360472731858
939.0, 0.020347334424796727
940.0, 0.021421115828971386
941.0, 0.02040810991744887
942.0, 0.026525416577317256
943.0, 0.02569425677958307
944.0, 0.026053897225996315
945.0, 0.0327864496816682
946.0, 0.03577265532873933
947.0, 0.03441117337629048
948.0, 0.03792936305157174
949.0, 0.0430500986545632
950.0, 0.04805100459305609
951.0, 0.05732819870715464
952.0, 0.06189519387314721
953.0, 0.07048152058152045
954.0, 0.08310944994793165
955.0, 0.08729697797435045
956.0, 0.10149018108895992
957.0, 0.12437863940994613
958.0, 0.14432224237579885
959.0, 0.16316195706814077
960.0, 0.1863180691580662
961.0, 0.20675560776403742
962.0, 0.22676680933445337
963.0, 0.24771963488046167
964.0, 0.27298670640205486
965.0, 0.3105577879437261
966.0, 0.356383588325657
967.0, 0.4190104911113735
968.0, 0.49281058167335795
969.0, 0.5659793795173923
970.0, 0.6270913153505284
971.0, 0.6534954479904254
972.0, 0.6458582705391072
973.0, 0.6031127447324613
974.0, 0.5444179250274936
975.0, 0.4744508756091353
976.0, 0.40321272496574967
977.0, 0.3427091096421394
978.0, 0.28886592678590195
979.0, 0.2514040029902706
980.0, 0.2133608264254986
981.0, 0.18702325325938365
982.0, 0.1675783746556442
983.0, 0.15357610386176354
984.0, 0.15014482186248823
985.0, 0.15189906051524954
986.0, 0.14898131355137212
987.0, 0.1528383995632834
988.0, 0.16516160514507494
989.0, 0.18704023731984176
990.0, 0.20858077653320392
991.0, 0.23843538741696554
992.0, 0.28309181563845576
993.0, 0.3429929100798882
994.0, 0.42485044583719733
995.0, 0.5342384099853755
996.0, 0.67269596797298
997.0, 0.8218998720839403
998.0, 0.9470862818984428
999.0, 0.9945425171294237
1000.0, 0.9347282628697606
1001.0, 0.7976437179303117
1002.0, 0.6314846693933182
1003.0, 0.4924246170644445
1004.0, 0.37111498338204546
1005.0, 0.28645861184363847
1006.0, 0.2309451342346904
1007.0, 0.18402389399020586
1008.0, 0.14812148241067588
1009.0, 0.11750855904067757
1010.0, 0.09503940587535321
1011.0, 0.08559387183629999
1012.0, 0.0686610700297339
1013.0, 0.059066441243954056
1014.0, 0.052128566620511886
1015.0, 0.049371934881944815
1016.0, 0.041700939753676766
1017.0, 0.033453792124332235
1018.0, 0.03262368881788545
1019.0, 0.02976842001484259
1020.0, 0.02695943825899247
1021.0, 0.017744992380538983
1022.0, 0.014724309555633051
1023.0, 0.017647954593574825
1024.0, 0.014432109009280452
1025.0, 0.015289578862028814
1026.0, 0.017491888868697354
1027.0, 0.012480037057576988
1028.0, 0.008719564234186178
1029.0, 0.0118508614278661
1030.0, 0.010926888237260386
1031.0, 0.0067368811717455155
1032.0, 0.002259398134931416
1033.0, 0.004240313577877502
1034.0, 0.007581172977620147
1035.0, 0.002555549620937622
1036.0, 0.0056247584386363726
1037.0, 0.0056908868478460824
1038.0, 0.0017479784118023783
1039.0, 0.007057575909025298
1040.0, 0.0020767787026909645
1041.0, 0.003057369633994056
1042.0, 0.0007047583347558326
1043.0, 0.002792883977294134
1044.0, 0.0023463390038308933
1045.0, 0.005515876036612114
1046.0, 0.0022334835931024856
1047.0, 0.0020681978768439238
1048.0, 0.006422424252089004
1049.0, 0.004220290350535555
1050.0, 0.002234484688336714
1051.0, 0.004191185419065961
1052.0, 0.003341622711483143
1053.0, 0.006831149277540593
1054.0, 0.004445058459428955
1055.0, 0.005570816574044362
1056.0, 0.005332578262810307
1057.0, 0.004137394530558066
1058.0, 0.0038805072442736122
1059.0, 0.003205908537961023
1060.0, 0.00264040705256713
1061.0, 0.004503620161025343
1062.0, 0.007301280905531983
1063.0, 0.006608708063955131
1064.0, 0.0067477087805134055
1065.0, 0.004853175572167609
1066.0, 0.005954456314085721
1067.0, 0.008810391202827436
1068.0, 0.007504342391296726
1069.0, 0.009744591845392397
1070.0, 0.013192644086868842
1071.0, 0.011789190088208237
1072.0, 0.005984448586490683
1073.0, 0.008154663488366472
1074.0, 0.013668808821141234
1075.0, 0.010191790675782925
1076.0, 0.011942752867814136
1077.0, 0.01592183488443826
1078.0, 0.014146371631163713
1079.0, 0.010837700144554612
1080.0, 0.008947815405468452
1081.0, 0.014397422594309676
1082.0, 0.014835596941737778
1083.0, 0.017375993286233436
1084.0, 0.016390083270986157
1085.0, 0.01482012010973059
1086.0, 0.019811434303564395
1087.0, 0.02187110857278645
1088.0, 0.017755803865100735
1089.0, 0.008849588402173534
1090.0, 0.011551703185267631
1091.0, 0.015513938757419785
1092.0, 0.014622474949509854
1093.0, 0.016370476823610453
1094.0, 0.013246461181290862
1095.0, 0.008232457599285014
1096.0, 0.012693133116813226
1097.0, 0.015655760369410996
1098.0, 0.016775738799056535
1099.0, 0.013375589142408698
1100.0, 0.019370188234858293
1101.0, 0.022951904602474524
1102.0, 0.007803233823315878
1103.0, 0.017250691432211127
1104.0, 0.021044758785871205
1105.0, 0.01616705336176089
1106.0, 0.013023425904197358
1107.0, 0.014408186448661896
1108.0, 0.019405533325693353
1109.0, 0.020864171260998387
1110.0, 0.02032337084419897
1111.0, 0.018327788331106442
1112.0, 0.019056973671502282
1113.0, 0.014560681217645552
1114.0, 0.010302915061143164
1115.0, 0.018247175648227837
1116.0, 0.017251136299749833
1117.0, 0.016308879778909872
1118.0, 0.008683176544028722
1119.0, 0.014169209120839157
1120.0, 0.012016240169689805
1121.0, 0.015167492493141843
1122.0, 0.014543706162259036
1123.0, 0.009162798214114028
1124.0, 0.017494797365282755
1125.0, 0.007919999884676267
1126.0, 0.00882362343033506
1127.0, 0.008133062307245264
1128.0, 0.00859749851880962
1129.0, 0.014109315499418915
1130.0, 0.014052299700590071
1131.0, 0.009206560542980843
1132.0, 0.006340360156206251
1133.0, 0.0024677370687318403
1134.0, 0.005357234910242227
1135.0, 0.008157412121941923
1136.0, 0.005136891504816795
1137.0, 0.008105655061527044
1138.0, 0.009393739665906972
1139.0, 0.0064834077209738415
1140.0, 0.0063060844302181614
1141.0, 0.0035625648095690705
1142.0, 0.0026852542976890737
1143.0, 0.00570286833698736
1144.0, 0.010657316410780455
1145.0, 0.011077140388735916
1146.0, 0.0026426193037917467
1147.0, 0.002831981274479245
1148.0, 0.006069357185935424
1149.0, 0.005874894928264529
1150.0, 0.0013050129583730096
1151.0, 0.004434128520919875
1152.0, 0.0049049599170154735
1153.0, 0.0018152664119981954
1154.0, 0.0011909672563125474
1155.0, 0.002830881412923188
1156.0, 0.0034338752641161065
1157.0, 0.0011092708190364533
1158.0, 0.005207548095427213
1159.0, 0.002794333019152307
1160.0, 0.00039096994593653886
1161.0, 0.004464004913855915
1162.0, 0.0028533364804588664
1163.0, 0.006973789102068517
1164.0, 0.005712387649398758
1165.0, 0.0026057389140643635
1166.0, 0.0046808514552913695
1167.0, 0.0016514632730516505
1168.0, 0.0017968319491820355
1169.0, 0.002889560594345525
1170.0, 0.001859361376706016
1171.0, 0.0019491499308702154
1172.0, 0.003615777857846711
1173.0, 0.003869120013450321
1174.0, 0.0012275557440692532
1175.0, 0.009102102166866195
1176.0, 0.0043260122451108975
1177.0, 0.0020811286475865055
1178.0, 0.003642084087585225
1179.0, 0.0014440322099352786
1180.0, 0.0035410995789847202
1181.0, 0.0020197315595928012
1182.0, 7.307317651270132e-05
1183.0, 0.0009702586765795527
1184.0, 0.0051125144012885955
1185.0, 0.0032120454032808113
1186.0, 0.0031404658178383615
1187.0, 0.0023545097338646733
1188.0, 0.0049367091642430186
1189.0, 0.0035713209187269988
1190.0, 0.005399863735833682
1191.0, 0.0026736793851357505
1192.0, 0.010496471996731163
1193.0, 0.01351397166722008
1194.0, 0.007638514380493851
1195.0, 0.007552004392015484
1196.0, 0.002361892549938389
1197.0, 0.01354910003815598
1198.0, 0.0077700116560489125
1199.0, 0.007689858281473695
1200.0, 0.007445037901695938
1201.0, 0.010333139000473696
1202.0, 0.012320297696103648
1203.0, 0.003997662417060692
1204.0, 0.00523280056808006
1205.0, 0.006458189320849894
1206.0, 0.008974232585332826
1207.0, 0.013382663699287107
1208.0, 0.012396129794197675
1209.0, 0.01238379985334883
1210.0, 0.013425613914404538
1211.0, 0.008266676104201853
1212.0, 0.007573359854770854
1213.0, 0.010445921529581369
1214.0, 0.010492067302597637
1215.0, 0.01541576981552983
1216.0, 0.012436617981930388
1217.0, 0.0076833464897545015
1218.0, 0.011514157375816604
1219.0, 0.0065871142284926725
1220.0, 0.016591815467331423
1221.0, 0.015286774766030896
1222.0, 0.014526239429431926
1223.0, 0.01471673838671773
1224.0, 0.015602763728568855
1225.0, 0.02016318500761247
1226.0, 0.013220591750306014
1227.0, 0.01512176229600815
1228.0, 0.020086473061941074
1229.0, 0.014092365555690165
1230.0, 0.01089939538741014
1231.0, 0.016807244836982843
1232.0, 0.01789063519578548
1233.0, 0.011970761247144506
1234.0, 0.010256224011315445
1235.0, 0.012133041453719696
1236.0, 0.018836672321407733
1237.0, 0.01573231751167552
1238.0, 0.013469458655699375
1239.0, 0.011962236027748097
1240.0, 0.014524779632640495
1241.0, 0.016795097192960632
1242.0, 0.013073007850837794
1243.0, 0.010091771515471052
1244.0, 0.012885221418462687
1245.0, 0.016547724896195694
1246.0, 0.010329432568031323
1247.0, 0.010048830731754131
1248.0, 0.013869360777697846
1249.0, 0.018842577395634122
1250.0, 0.011218111245931297
1251.0, 0.015156710159379035
1252.0, 0.015278172847022308
1253.0, 0.012305971321855734
1254.0, 0.008872291412919767
1255.0, 0.016713243218639606
1256.0, 0.018498644009957797
1257.0, 0.017491767485470246
1258.0, 0.008912669692751627
1259.0, 0.00766768548417713
1260.0, 0.009461373936387251
1261.0, 0.011845598892867234
1262.0, 0.009069052399736561
1263.0, 0.014379973741140578
1264.0, 0.017121070312684207
1265.0, 0.0109388756138741
1266.0, 0.003193536133943535
1267.0, 0.007580823729637217
1268.0, 0.012182431948460247
1269.0, 0.0110688546287318
1270.0, 0.010285371946683863
1271.0, 0.009712941408212333
1272.0, 0.009945399609111186
1273.0, 0.01129005090287959
1274.0, 0.00982224743845157
1275.0, 0.007482918905320878
1276.0, 0.0057558845631769185
1277.0, 0.008450945776783209
1278.0, 0.010487866844172316
1279.0, 0.009095447706748142
1280.0, 0.01056494235430116
1281.0, 0.012657123049262689
1282.0, 0.011700712063970786
1283.0, 0.008398082838041467
1284.0, 0.010858356411127635
1285.0, 0.009088866081438784
1286.0, 0.011838838347151086
1287.0, 0.002892768116231824
1288.0, 0.002458036942272092
1289.0, 0.0129339265812461
1290.0, 0.013107058285807013
1291.0, 0.008364385892198576
1292.0, 0.010177602361607835
1293.0, 0.011155288246163568
1294.0, 0.00722522175688167
1295.0, 0.008222001510462727
1296.0, 0.009681132548470793
1297.0, 0.013406917121114489
1298.0, 0.012435555274066278
1299.0, 0.012197068769887413
1300.0, 0.013468312082986982
1301.0, 0.011245853632994693
1302.0, 0.013615240935197687
1303.0, 0.004801978016149892
1304.0, 0.017321953200023527
1305.0, 0.012056981889220072
1306.0, 0.007038783531148447
1307.0, 0.010012265863442678
1308.0, 0.011710279586867524
1309.0, 0.016136011362617275
1310.0, 0.020012882628728985
1311.0, 0.010012534952293269
1312.0, 0.013667335481990416
1313.0, 0.013145242551745227
1314.0, 0.016971034212771897
1315.0, 0.013531553545620658
1316.0, 0.012020907568180765
1317.0, 0.008172152036621359
1318.0, 0.012908059872950677
1319.0, 0.016294424093050517
1320.0, 0.011223712051029653
1321.0, 0.015439546949858541
1322.0, 0.01268714677779355
1323.0, 0.01627430435378201
1324.0, 0.013416162555210838
1325.0, 0.01752960648513253
1326.0, 0.015186100516124963
1327.0, 0.014007679371086077
1328.0, 0.012621828462500928
1329.0, 0.017797573383694882
1330.0, 0.01941164823322788
1331.0, 0.018719120565823658
1332.0, 0.019135164864275196
1333.0, 0.018034685135020066
1334.0, 0.013857754022316827
1335.0, 0.012620923264738862
1336.0, 0.011798740614037793
1337.0, 0.01057032475133665
1338.0, 0.016750875285653978
1339.0, 0.008550199881399306
1340.0, 0.01754928133533906
1341.0, 0.017838231053349772
1342.0, 0.009801207477720056
1343.0, 0.012701098383177477
1344.0, 0.012352073340040935
1345.0, 0.016302885830635525
1346.0, 0.019562197114435704
1347.0, 0.019243320558716196
1348.0, 0.014179849346514868
1349.0, 0.0108600851628609
1350.0, 0.01126055847301775
1351.0, 0.009568643103383238
1352.0, 0.013619641259017563
1353.0, 0.011076148708025379
1354.0, 0.005436641703452915
1355.0, 0.00440609675528343
1356.0, 0.006689099702022671
1357.0, 0.009699111958218385
1358.0, 0.011344341600482246
1359.0, 0.005716076064690645
1360.0, 0.009200129463492756
1361.0, 0.01098181357883768
1362.0, 0.012622262336935187
1363.0, 0.010431815214680477
1364.0, 0.010408677438534561
1365.0, 0.003196346529697227
1366.0, 0.011054686856102273
1367.0, 0.005442333778770828
1368.0, 0.0004879861438462504
1369.0, 0.0045386611108169175
1370.0, 0.005753316358172402
1371.0, 0.012384535434177814
1372.0, 0.01262756002368425
1373.0, 0.007077718506153023
1374.0, 0.003410395745318847
1375.0, 0.0006964182623497748
1376.0, 0.003506065310747323
1377.0, 0.005601029816402933
1378.0, 0.002744125381421854
1379.0, 0.002887856558135042
1380.0, 0.002082225480641615
1381.0, 0.003878539753339192
1382.0, 0.0019778429304979596
1383.0, 0.004352964200673817
1384.0, 0.002560684750229392
1385.0, 0.0032896093826433504
1386.0, 0.007904749010041682
1387.0, 0.0024610113132015
1388.0, 0.004787670045764558
1389.0, 0.007709614939495273
1390.0, 0.006052620298359405
1391.0, 0.0016682871853267625
1392.0, 0.003067330117478638
1393.0, 0.0019735244383340105
1394.0, 0.006509644134378212
1395.0, 0.003228674985397882
1396.0, 0.002006896605701115
1397.0, 0.00194071533289538
1398.0, 0.0007975412793042607
1399.0, 0.0013060254308080062
1400.0, 0.0019073152971038187
1401.0, 0.0027139380775159385
1402.0, 0.002116302492978688
1403.0, 0.0019018772654175657
1404.0, 0.0013747681223977226
1405.0, 0.001359663363194453
1406.0, 0.002485092237411327
1407.0, 0.001614320429164537
1408.0, 0.006191300042744021
1409.0, 0.003089641184433025
1410.0, 0.0032905396676700606
1411.0, 0.003073257653347549
1412.0, 0.0025133763243959106
1413.0, 0.0029690556323087136
1414.0, 0.0056405224300896
1415.0, 0.00633095470089324
1416.0, 0.004724322290145454
1417.0, 0.009848418041907146
1418.0, 0.0034973981732490597
1419.0, 0.004696301087549308
1420.0, 0.00473350805996883
1421.0, 0.002968523344886028
1422.0, 0.005417100536795482
1423.0, 0.007835873854716308
1424.0, 0.010976017498421321
1425.0, 0.01090676104588493
1426.0, 0.011713642023762164
1427.0, 0.007203291642039762
1428.0, 0.001684004157422748
1429.0, 0.0030264205701276115
1430.0, 0.006562535459492218
1431.0, 0.010133485072832609
1432.0, 0.008805239071213741
1433.0, 0.0026917292818803454
1434.0, 0.008020347330869638
1435.0, 0.00499300306151459
1436.0, 0.008678609681061952
1437.0, 0.016206304143471503
1438.0, 0.012522014711470988
1439.0, 0.006371209801559265
1440.0, 0.010240816832090539
1441.0, 0.012721393921222778
1442.0, 0.010378915543100947
1443.0, 0.012793387492111336
1444.0, 0.01024459717137671
1445.0, 0.01220929298346059
1446.0, 0.005442527175821915
1447.0, 0.009425586121165614
1448.0, 0.014718723525922302
1449.0, 0.012074483004465097
1450.0, 0.010374772375658523
1451.0, 0.012743480566174385
1452.0, 0.003211539427851041
1453.0, 0.01277005789094215
1454.0, 0.011649795017502402
1455.0, 0.01437821951595759
1456.0, 0.012741253771448425
1457.0, 0.014523545451332867
1458.0, 0.012500594718394726
1459.0, 0.013724450255200521
1460.0, 0.008646658469067295
1461.0, 0.013595311210205987
1462.0, 0.01122113337340815
1463.0, 0.012483816788293259
1464.0, 0.014508081370250633
1465.0, 0.021544743629602004
1466.0, 0.012307051681557006
1467.0, 0.013835887995610268
1468.0, 0.01409247643889779
1469.0, 0.011147515308832833
1470.0, 0.018227166729854537
1471.0, 0.015394928309866477
1472.0, 0.013967606988045384
1473.0, 0.011996335105956348
1474.0, 0.006561157729152476
1475.0, 0.014455190379561174
1476.0, 0.008781759812252677
1477.0, 0.009976068711197338
1478.0, 0.006369757552547315
1479.0, 0.0016129390856397287
1480.0, 0.011435759121269883
1481.0, 0.020205388632373526
1482.0, 0.008898622040844104
1483.0, 0.0063559402565089955
1484.0, 0.011084966566511159
1485.0, 0.01132949833669414
1486.0, 0.013506729309663876
1487.0, 0.011948777495715001
1488.0, 0.021614002134451436
1489.0, 0.01893875441654139
1490.0, 0.0166418360124492
1491.0, 0.010047458143469794
1492.0, 0.012317048012018439
1493.0, 0.008738703674071896
1494.0, 0.013762032716399107
1495.0, 0.010544881797916935
1496.0, 0.002097759318763092
1497.0, 0.00781662235510111
1498.0, 0.008407847039326184
1499.0, 0.006834601534671374
1500.0, 0.004062035351227566
1501.0, 0.000328267375331127
1502, 0.0
1503, 0.0
1504, 0.0
1505, 0.0
1506, 0.0
1507, 0.0
1508, 0.0
1509, 0.0
1510, 0.0
1511, 0.0
1512, 0.0
1513, 0.0
1514, 0.0
1515, 0.0
1516, 0.0
1517, 0.0
1518, 0.0
1519, 0.0
1520, 0.0
1521, 0.0
1522, 0.0
1523, 0.0
1524, 0.0
1525, 0.0
1526, 0.0
1527, 0.0
1528, 0.0
1529, 0.0
1530, 0.0
1531, 0.0
1532, 0.0
1533, 0.0
1534, 0.0
1535, 0.0
1536, 0.0
1537, 0.0
1538, 0.0
1539, 0.0
1540, 0.0
1541, 0.0
1542, 0.0
1543, 0.0
1544, 0.0
1545, 0.0
1546, 0.0
1547, 0.0
1548, 0.0
1549, 0.0
1550, 0.0
1551, 0.0
1552, 0.0
1553, 0.0
1554, 0.0
1555, 0.0
1556, 0.0
1557, 0.0
1558, 0.0
1559, 0.0
1560, 0.0
1561, 0.0
1562, 0.0
1563, 0.0
1564, 0.0
1565, 0.0
1566, 0.0
1567, 0.0
1568, 0.0
1569, 0.0
1570, 0.0
1571, 0.0
1572, 0.0
1573, 0.0
1574, 0.0
1575, 0.0
1576, 0.0
1577, 0.0
1578, 0.0
1579, 0.0
1580, 0.0
1581, 0.0
1582, 0.0
1583, 0.0
1584, 0.0
1585, 0.0
1586, 0.0
1587, 0.0
1588, 0.0
1589, 0.0
1590, 0.0
1591, 0.0
1592, 0.0
1593, 0.0
1594, 0.0
1595, 0.0
1596, 0.0
1597, 0.0
1598, 0.0
1599, 0.0
