30, 0.0
31, 0.0
32, 0.0
33, 0.0
34, 0.0
35, 0.0
36, 0.0
37, 0.0
38, 0.0
39, 0.0
40, 0.0
41, 0.0
42, 0.0
43, 0.0
44, 0.0
45, 0.0
46, 0.0
47, 0.0
48, 0.0
49, 0.0
50, 0.0
51, 0.0
52, 0.0
53, 0.0
54, 0.0
55, 0.0
56, 0.0
57, 0.0
58, 0.0
59, 0.0
60, 0.0
61, 0.0
62, 0.0
63, 0.0
64, 0.0
65, 0.0
66, 0.0
67, 0.0
68, 0.0
69, 0.0
70, 0.0
71, 0.0
72, 0.0
73, 0.0
74, 0.0
75, 0.0
76, 0.0
77, 0.0
78, 0.0
79, 0.0
80, 0.0
81, 0.0
82, 0.0
83, 0.0
84, 0.0
85, 0.0
86, 0.0
87, 0.0
88, 0.0
89, 0.0
90, 0.0
91, 0.0
92, 0.0
93, 0.0
94, 0.0
95, 0.0
96, 0.0
97, 0.0
98, 0.0
99, 0.0
100, 0.0
101, 0.0
102, 0.0
103, 0.0
104, 0.0
105, 0.0
106, 0.0
107, 0.0
108, 0.0
109, 0.0
110, 0.0
111, 0.0
112, 0.0
113, 0.0
114, 0.0
115, 0.0
116, 0.0
117, 0.0
118, 0.0
119, 0.0
120, 0.0
121, 0.0
122, 0.0
123, 0.0
124, 0.0
125, 0.0
126, 0.0
127, 0.0
128, 0.0
129, 0.0
130, 0.0
131, 0.0
132, 0.0
133, 0.0
134, 0.0
135, 0.0
136, 0.0
137, 0.0
138, 0.0
139, 0.0
140, 0.0
141, 0.0
142, 0.0
143, 0.0
144, 0.0
145, 0.0
146, 0.0
147, 0.0
148, 0.0
149, 0.0
150, 0.0
151, 0.0
152, 0.0
153, 0.0
154, 0.0
155, 0.0
156, 0.0
157, 0.0
158, 0.0
159, 0.0
160, 0.0
161, 0.0
162, 0.0
163, 0.0
164, 0.0
165, 0.0
166, 0.0
167, 0.0
168, 0.0
169, 0.0
170, 0.0
171, 0.0
172, 0.0
173.0, 0.0023128082248199764
174.0, 0.005902235946589355
175.0, 0.007027674731111966
176.0, 0.008388482175402284
177.0, 0.008999249599715691
178.0, 0.008447597816354607
179.0, 0.007435122599594758
180.0, 0.007611203559639201
181.0, 0.00679750623762318
182.0, 0.005279995571595971
183.0, 0.004829531412439989
184.0, 0.004951787229236855
185.0, 0.003484608259268247
186.0, 0.0019173718269385883
187.0, 0.001864172852319896
188.0, 0.0011748216536908343
189.0, 0.0009922776758985595
190.0, 0.0006339749305564223
191.0, 0.0005024074117849432
192.0, 0.0011717887851001004
193.0, 0.0002344881443002677
194.0, 0.0015755517406918528
195.0, 0.003977764369498328
196.0, 0.004111152959598372
197.0, 0.004003955979173669
198.0, 0.006480648149474544
199.0, 0.008991041689231299
200.0, 0.01047577595807964
201.0, 0.012325898881555972
202.0, 0.015586275273708728
203.0, 0.018891052149208533
204.0, 0.021828196611108956
205.0, 0.02557304012478252
206.0, 0.03089134398638835
207.0, 0.03423667828058855
208.0, 0.03803810339294027
209.0, 0.0410460822135782
210.0, 0.04007366450020465
211.0, 0.041260922721904805
212.0, 0.04423189775902468
213.0, 0.04612252042632088
214.0, 0.04369836316064336
215.0, 0.04444356018184098
216.0, 0.04450322739696222
217.0, 0.0423990878405417
218.0, 0.03882428630870033
219.0, 0.035664220865273884
220.0, 0.032404023765045455
221.0, 0.027967494016814677
222.0, 0.023702740821497197
223.0, 0.021344581098220565
224.0, 0.01788766194272067
225.0, 0.015238588446854424
226.0, 0.012025561343475152
227.0, 0.008209136791013545
228.0, 0.007419275190476386
229.0, 0.004728904231663803
230.0, 0.0013514332288362468
231.0, 0.00039498235970243623
232.0, 0.0014024826072881048
233.0, 0.0005488113499325011
234.0, 0.00038867299279419533
235.0, 0.00023891477083914892
236.0, 0.0014889210798075905
237.0, 0.003354719816867615
238.0, 0.003059493734192669
239.0, 0.0016256337229540176
240.0, 0.00038456961146402283
241.0, 0.0002667911624836911
242.0, 0.0017144524741602846
243.0, 0.0025357516555523907
244.0, 0.002446660967457399
245.0, 0.002162191177784064
246.0, 0.0031532886281014577
247.0, 0.0031817099393050764
248.0, 0.0032399675377078906
249.0, 0.0030916337944347757
250.0, 0.0024729486558155126
251.0, 0.0037900260066201035
252.0, 0.005147951632859069
253.0, 0.0047262325145279414
254.0, 0.003390193805205149
255.0, 0.004043799394817332
256.0, 0.0035099561158330895
257.0, 0.003274296706695456
258.0, 0.003372943398313715
259.0, 0.0029571028213066274
260.0, 0.0011310668111823993
261.0, 0.0007443685029221845
262.0, 0.00031383942470965384
263.0, 0.0012424103811216392
264.0, 0.0021773144030346153
265.0, 0.0029147697837606317
266.0, 0.002061646535553891
267.0, 0.0019742377077780174
268.0, 0.0038786942986824896
269.0, 0.004887043607090289
270.0, 0.0049034739922257055
271.0, 0.005360206854576271
272.0, 0.006294996098854232
273.0, 0.0068037922105701224
274.0, 0.00650801930514094
275.0, 0.007576889444312158
276.0, 0.009943193477616285
277.0, 0.01241518196565615
278.0, 0.014164918533966836
279.0, 0.019828240473826735
280.0, 0.023162325355715233
281.0, 0.027641810233745255
282.0, 0.03599107194132413
283.0, 0.03858064515345894
284.0, 0.04577376549475705
285.0, 0.05375085877366913
286.0, 0.06125810394029541
287.0, 0.07017614002240942
288.0, 0.07838179630746338
289.0, 0.08751777415142147
290.0, 0.09830544291525709
291.0, 0.10931364158001869
292.0, 0.11903511348177559
293.0, 0.1292534209840719
294.0, 0.13936313364206626
295.0, 0.15001335461259943
296.0, 0.1603412089963698
297.0, 0.16469488118930387
298.0, 0.16964504940457503
299.0, 0.1738337392640441
300.0, 0.17676941076333572
301.0, 0.17948511155667035
302.0, 0.1812781349304591
303.0, 0.18216123043653057
304.0, 0.1843789089349408
305.0, 0.1889836373059444
306.0, 0.1956159971067527
307.0, 0.20775533639427612
308.0, 0.21829694485132803
309.0, 0.2308868081164993
310.0, 0.2486193163028179
311.0, 0.26777651274131614
312.0, 0.2878380171566815
313.0, 0.31247057383678256
314.0, 0.34206123373187886
315.0, 0.3744677966699647
316.0, 0.4075048634143171
317.0, 0.4416506508417968
318.0, 0.481138807233815
319.0, 0.5256891047944632
320.0, 0.5721129675493694
321.0, 0.6190256502843086
322.0, 0.6665559178436863
323.0, 0.7155201034904535
324.0, 0.7624530501088219
325.0, 0.8002307692868179
326.0, 0.8392884143088137
327.0, 0.871178956647862
328.0, 0.8960717513983659
329.0, 0.9143482004516585
330.0, 0.9209198124129387
331.0, 0.9261897450119044
332.0, 0.927882040530197
333.0, 0.9272144761783087
334.0, 0.9269351895528707
335.0, 0.9272451782493806
336.0, 0.9255341185060071
337.0, 0.9290233763395714
338.0, 0.9342571369720039
339.0, 0.9321952283945321
340.0, 0.9269594436009183
341.0, 0.9147540971720401
342.0, 0.8935584097564854
343.0, 0.8631391168455782
344.0, 0.8227401712704577
345.0, 0.7664389617025409
346.0, 0.7059277040239774
347.0, 0.6432844480099416
348.0, 0.5798120857370572
349.0, 0.5222716482116792
350.0, 0.46997005402839304
351.0, 0.42251512729098956
352.0, 0.38097671674839195
353.0, 0.347604759714098
354.0, 0.32265085188789167
355.0, 0.299645213643887
356.0, 0.27961105096468514
357.0, 0.26186035313553047
358.0, 0.24671474895449813
359.0, 0.2374485208142528
360.0, 0.2275252173294274
361.0, 0.2185245345527092
362.0, 0.21096537461902581
363.0, 0.20421794187161282
364.0, 0.1980543272286164
365.0, 0.19453565051801305
366.0, 0.1936325480557276
367.0, 0.19198578085354626
368.0, 0.18749688071334386
369.0, 0.18652734111888225
370.0, 0.1855110513904845
371.0, 0.18451986792968808
372.0, 0.18481639246151632
373.0, 0.18735368051802168
374.0, 0.19141773252157857
375.0, 0.19454713957175895
376.0, 0.20066196428186697
377.0, 0.20898129898083484
378.0, 0.21547372160711403
379.0, 0.222339946288585
380.0, 0.22600931366471524
381.0, 0.22741169925290186
382.0, 0.2271723434625637
383.0, 0.22419858368968879
384.0, 0.21778586200532818
385.0, 0.20918394883476943
386.0, 0.19638009516703753
387.0, 0.18135304491440665
388.0, 0.16859846730501013
389.0, 0.15390446857672935
390.0, 0.13896894132761572
391.0, 0.12433388068568091
392.0, 0.10977522794685352
393.0, 0.09516288276383049
394.0, 0.0816613278748709
395.0, 0.06903132493552644
396.0, 0.0578913298857466
397.0, 0.04818689975108022
398.0, 0.03911425030843363
399.0, 0.03173918063328382
400.0, 0.024179088862182646
401.0, 0.017496871657646455
402.0, 0.012100557101841821
403.0, 0.00716421823735495
404.0, 0.0026660987739599144
405.0, 0.0003235296056202131
406.0, 0.002553379511770315
407.0, 0.0045548893895657186
408.0, 0.006092785375641016
409.0, 0.007267368570757074
410.0, 0.009476590872000574
411.0, 0.009900992692832795
412.0, 0.00882122732984007
413.0, 0.009272855983066918
414.0, 0.008580115693160776
415.0, 0.008341228166292798
416.0, 0.008347188893250939
417.0, 0.007100272180220818
418.0, 0.003625495615625864
419.0, 0.0008880407464762971
420.0, 0.0008830572510655657
421.0, 0.003028085223114535
422.0, 0.00619354959113986
423.0, 0.00999420492263049
424.0, 0.013807390950875352
425.0, 0.014644728644320818
426.0, 0.018121651973251395
427.0, 0.02355589436741808
428.0, 0.026510046726478376
429.0, 0.02927963214360119
430.0, 0.03177230118089943
431.0, 0.03476017920111074
432.0, 0.03779669616937106
433.0, 0.039861852423989715
434.0, 0.04136534015149472
435.0, 0.046250530133171826
436.0, 0.04829539749383401
437.0, 0.04918836326523301
438.0, 0.053044596512570735
439.0, 0.05565506256086092
440.0, 0.05798821625932056
441.0, 0.0604318786618248
442.0, 0.06385155862892797
443.0, 0.06820429139295885
444.0, 0.07146270394200527
445.0, 0.07629768317833757
446.0, 0.0811472610819696
447.0, 0.08504872160684816
448.0, 0.08867152024590726
449.0, 0.0941580273891361
450.0, 0.09820867018130662
451.0, 0.10245807280179872
452.0, 0.1067492628952033
453.0, 0.11032159458693992
454.0, 0.11300114213438174
455.0, 0.1147219389056805
456.0, 0.11399104407943503
457.0, 0.11269552897354883
458.0, 0.11056578264140127
459.0, 0.10539920821424455
460.0, 0.0990658326992276
461.0, 0.09390712243917926
462.0, 0.0879024276551731
463.0, 0.08068051361549823
464.0, 0.07349462728173592
465.0, 0.06747421779229636
466.0, 0.06232412304451926
467.0, 0.05694332508722622
468.0, 0.051591678437946535
469.0, 0.046345571084690104
470.0, 0.03945213201402373
471.0, 0.0355283070566941
472.0, 0.03262080433294179
473.0, 0.028918298572028097
474.0, 0.024879554437214964
475.0, 0.02257615689493309
476.0, 0.019565198631923745
477.0, 0.017504144809778174
478.0, 0.01641309078431364
479.0, 0.015562106347709784
480.0, 0.01451093750443082
481.0, 0.012293112261701898
482.0, 0.012262203120894943
483.0, 0.011490241377465023
484.0, 0.01064157973408062
485.0, 0.011686357931933544
486.0, 0.01131155875555495
487.0, 0.011302120354077096
488.0, 0.011656204925724624
489.0, 0.011310952714109881
490.0, 0.010165494633202706
491.0, 0.010035239554332788
492.0, 0.009542669876197141
493.0, 0.00839470137769112
494.0, 0.008576236976138131
495.0, 0.009353761193894725
496.0, 0.007839352595873064
497.0, 0.006787422895701936
498.0, 0.006291113878374891
499.0, 0.004843664498726454
500.0, 0.004149383986228699
501.0, 0.0055220544037359875
502.0, 0.0035632958814347145
503.0, 0.002534219327062723
504.0, 0.001352799418028393
505.0, 0.0008036000249732674
506.0, 0.0011829527804029759
507.0, 0.0005099587891719507
508.0, 0.0010353077357764362
509.0, 0.0009825782385932166
510.0, 0.0004004912468638284
511.0, 0.00014568783391962831
512.0, 0.00043303615148409223
513.0, 0.0004977068537645567
514.0, 0.0006847662810011659
515.0, 0.0005091963835934041
516.0, 0.0008003781481035117
517.0, 0.0016043493232513447
518.0, 0.00035210897405907077
519.0, 7.004039398641725e-05
520.0, 0.0009217069790875415
521.0, 0.000652083842266588
522.0, 0.00022223391364473928
523.0, 0.0021681771103338634
524.0, 0.0011673909670688988
525.0, 0.0005052756159540297
526.0, 0.00039349414156273065
527.0, 0.00018260724548323307
528.0, 0.0003254581676984806
529.0, 0.002124047590700094
530.0, 0.0015778870741850238
531.0, 0.0009188119921288509
532.0, 0.0007424475946078823
533.0, 0.00018519491704230723
534.0, 0.0010778516763022099
535.0, 0.0006041023855717482
536.0, 0.0006226568215267694
537.0, 0.0009086148028456071
538.0, 6.26920228248349e-05
539.0, 9.286799543768167e-05
540.0, 0.0003894174129922138
541.0, 0.0008016348190876299
542.0, 0.0015568221340381207
543.0, 0.001611377416039148
544.0, 0.0015193195922931304
545.0, 0.0028779173754581687
546.0, 0.0024256588858871807
547.0, 0.001502664949242866
548.0, 0.0018788844320703033
549.0, 0.0024486603099111224
550.0, 0.001985510430959967
551.0, 0.002656279705435665
552.0, 0.0030837264414851004
553.0, 0.00395044852472234
554.0, 0.004561627338819315
555.0, 0.00438844579623038
556.0, 0.0038892523785598754
557.0, 0.0035509609743622824
558.0, 0.00458496195658342
559.0, 0.005490275835368671
560.0, 0.005947877248567621
561.0, 0.005839460290891304
562.0, 0.004156285711827519
563.0, 0.00668662179138487
564.0, 0.005647009293889793
565.0, 0.005128696031947195
566.0, 0.006240495468601997
567.0, 0.00598910393626252
568.0, 0.0052668564674164895
569.0, 0.005483421017745878
570.0, 0.006602558196416195
571.0, 0.00691124072030708
572.0, 0.006815750301727993
573.0, 0.008255464359352807
574.0, 0.007618549525151835
575.0, 0.007256831275993441
576.0, 0.006765577130068339
577.0, 0.006963989712499369
578.0, 0.00810695273510969
579.0, 0.007317451313074058
580.0, 0.006522212865375212
581.0, 0.00554813251544627
582.0, 0.006275918076618481
583.0, 0.007690912566795736
584.0, 0.007773772655327605
585.0, 0.008808360622350447
586.0, 0.006872862813322422
587.0, 0.005822875908082142
588.0, 0.006486824106860622
589.0, 0.007330526480452965
590.0, 0.007153317802400045
591.0, 0.006510806377258798
592.0, 0.006603499774599199
593.0, 0.0076612710467707954
594.0, 0.008514512397687746
595.0, 0.008364649923867363
596.0, 0.00820963571217692
597.0, 0.008754632214592143
598.0, 0.009247158495983157
599.0, 0.00848894935153913
600.0, 0.007884335282802272
601.0, 0.008650356235026222
602.0, 0.008919126854012874
603.0, 0.00968026421713253
604.0, 0.010236017364852912
605.0, 0.009396125136692617
606.0, 0.008555158633147849
607.0, 0.009417566841926484
608.0, 0.009288359492387521
609.0, 0.009843407153875577
610.0, 0.009589925856204969
611.0, 0.008751252072846783
612.0, 0.008117780939966025
613.0, 0.007894126318452242
614.0, 0.008054319370040045
615.0, 0.008757314664257828
616.0, 0.008426494285512393
617.0, 0.008418948932961462
618.0, 0.008988609086222345
619.0, 0.008529502420558324
620.0, 0.009873055040512715
621.0, 0.009520423855189102
622.0, 0.0086746970109592
623.0, 0.008395479797688689
624.0, 0.008198289012327145
625.0, 0.00726820976582409
626.0, 0.008031480371858366
627.0, 0.00838619863299978
628.0, 0.007640724448069504
629.0, 0.007269853306854678
630.0, 0.007933510392421291
631.0, 0.008060608650163947
632.0, 0.007083578196661156
633.0, 0.008023778450361492
634.0, 0.00676740234180615
635.0, 0.005719104435351838
636.0, 0.007562507019374248
637.0, 0.007966960532055272
638.0, 0.0060589485855064
639.0, 0.006360806287529655
640.0, 0.007418792096116943
641.0, 0.007778117668141399
642.0, 0.007545043165608415
643.0, 0.007176310245958404
644.0, 0.007450378657845061
645.0, 0.007563196655405725
646.0, 0.00686214272045341
647.0, 0.006538768242695662
648.0, 0.007506915863452568
649.0, 0.008456616042323534
650.0, 0.00802162683088662
651.0, 0.008540067809324597
652.0, 0.008724888316623691
653.0, 0.008490986814451252
654.0, 0.008713496864764716
655.0, 0.009305326222945214
656.0, 0.010107507116177203
657.0, 0.011295435534673326
658.0, 0.011926573011098956
659.0, 0.011606858285720726
660.0, 0.011540248194270838
661.0, 0.013833473714862772
662.0, 0.015692143975991786
663.0, 0.015829122984659782
664.0, 0.016971208799801005
665.0, 0.018997981128363227
666.0, 0.020363008008501587
667.0, 0.021430041019178846
668.0, 0.02496263928134634
669.0, 0.027420525463122746
670.0, 0.02868682989801681
671.0, 0.03138043902250175
672.0, 0.03493583014964539
673.0, 0.03628598522568476
674.0, 0.039901786189332385
675.0, 0.043185434084167175
676.0, 0.04544025468221362
677.0, 0.049391904246921775
678.0, 0.054168134875788386
679.0, 0.05645526609705347
680.0, 0.05981255058843648
681.0, 0.06500141566896421
682.0, 0.0682153029606922
683.0, 0.07325569295038356
684.0, 0.07857782257254042
685.0, 0.08004521893803254
686.0, 0.08161974128473021
687.0, 0.0853825493854282
688.0, 0.08638675711790109
689.0, 0.08553003758047248
690.0, 0.08434344386585022
691.0, 0.08409792773272785
692.0, 0.084485285056507
693.0, 0.08042328046126317
694.0, 0.07611372879210916
695.0, 0.07211023400476126
696.0, 0.06982363645968931
697.0, 0.06831324881838374
698.0, 0.06403842370829578
699.0, 0.06034489017108036
700.0, 0.05614054287204593
701.0, 0.05235317468076716
702.0, 0.04966634387104673
703.0, 0.047289395219469725
704.0, 0.044294968987472774
705.0, 0.042282724645027324
706.0, 0.04081681243340924
707.0, 0.03918942510954597
708.0, 0.03697187764568328
709.0, 0.033591299285402984
710.0, 0.03051120082906402
711.0, 0.030689543892009365
712.0, 0.026983603263788083
713.0, 0.025075077950276824
714.0, 0.023183629674543356
715.0, 0.022348787492516602
716.0, 0.022193553369162258
717.0, 0.01909058315552711
718.0, 0.018363334732632502
719.0, 0.017468024832758028
720.0, 0.017049812662704483
721.0, 0.015801839197001975
722.0, 0.013265269438741116
723.0, 0.01115229432991101
724.0, 0.011318306499467417
725.0, 0.010158196399975958
726.0, 0.008609871846157658
727.0, 0.008115358965606306
728.0, 0.007377195228686628
729.0, 0.005682698013122314
730.0, 0.005228184006735563
731.0, 0.005443196393711333
732.0, 0.0051862308662587175
733.0, 0.003172483542747965
734.0, 0.002340810317031277
735.0, 0.0025265941874660046
736.0, 0.0007836109221635707
737.0, 0.0011881570911039504
738.0, 0.0022807820574840608
739.0, 0.001065435689279073
740.0, 0.0005738012015274595
741.0, 0.001453623293818886
742.0, 0.002221908135463963
743.0, 0.0017844237265055812
744.0, 0.0018716214905715846
745.0, 0.003105291009387793
746.0, 0.004583844579055795
747.0, 0.0035367935432385413
748.0, 0.002117410686423272
749.0, 0.00334903290461707
750.0, 0.0037278570499808114
751.0, 0.003180422976309864
752.0, 0.003049636453408727
753.0, 0.00464387057555068
754.0, 0.005691992035421034
755.0, 0.005774635219631327
756.0, 0.007483316531419653
757.0, 0.008366157088958263
758.0, 0.009568731804352231
759.0, 0.009878233946759308
760.0, 0.009615411431474383
761.0, 0.009271690242391968
762.0, 0.009333204929960212
763.0, 0.010022556961761533
764.0, 0.009273023258167435
765.0, 0.008738010739302473
766.0, 0.006544780298349662
767.0, 0.003549204364243535
768.0, 0.0015245268807890402
769.0, 0.0007294007317328966
770.0, 0.004954821084364595
771.0, 0.008732575200048416
772.0, 0.015464711736796727
773.0, 0.020438501826482148
774.0, 0.02594174642009237
775.0, 0.034727087003586954
776.0, 0.043943357129660576
777.0, 0.052434862901730654
778.0, 0.060098655097195225
779.0, 0.07002168017631726
780.0, 0.0796628580393353
781.0, 0.08929474259466824
782.0, 0.10019810938060797
783.0, 0.11095300684048043
784.0, 0.12167394153463304
785.0, 0.12924530070895085
786.0, 0.13808375834436817
787.0, 0.14565393397901555
788.0, 0.1504838486695074
789.0, 0.15368065276494425
790.0, 0.15539106005613285
791.0, 0.15861350737695118
792.0, 0.15903296629247093
793.0, 0.16009178030581692
794.0, 0.1593169367817026
795.0, 0.1581127887151455
796.0, 0.15852062915242068
797.0, 0.1561719679474238
798.0, 0.1544630249683753
799.0, 0.15166954351526973
800.0, 0.15266817341509067
801.0, 0.1533468943167828
802.0, 0.15199490079179118
803.0, 0.15207324400205474
804.0, 0.15419708960192158
805.0, 0.15903954602557746
806.0, 0.16325190405946216
807.0, 0.16810902495522712
808.0, 0.1724777168726434
809.0, 0.17728036837245228
810.0, 0.18428194419169786
811.0, 0.19139184421566474
812.0, 0.19916406384879706
813.0, 0.20570762009420365
814.0, 0.21600188102535925
815.0, 0.22478835517332482
816.0, 0.2320365801726418
817.0, 0.2426057981042493
818.0, 0.2540905849213954
819.0, 0.2658424571599638
820.0, 0.27808258617325704
821.0, 0.2942723910593559
822.0, 0.3123859750820086
823.0, 0.33218601460802627
824.0, 0.3539676673131617
825.0, 0.37571722916003114
826.0, 0.4000214137885249
827.0, 0.43312130387421166
828.0, 0.4631531717653605
829.0, 0.49574457436923414
830.0, 0.5315132603322095
831.0, 0.5661831824338798
832.0, 0.6012877379541558
833.0, 0.6368217704922317
834.0, 0.6726268320050963
835.0, 0.7050005320190941
836.0, 0.7365005406379129
837.0, 0.7630693212993335
838.0, 0.783737292966305
839.0, 0.8052557155260884
840.0, 0.8199278839449816
841.0, 0.8295117634973671
842.0, 0.8360212801968598
843.0, 0.8389808155984427
844.0, 0.8384150062574602
845.0, 0.8360839878293734
846.0, 0.8335421945516466
847.0, 0.8300991870708866
848.0, 0.8282606483364205
849.0, 0.8287248580863935
850.0, 0.830840982445335
851.0, 0.8378704357388306
852.0, 0.8491263475496416
853.0, 0.8611455861181999
854.0, 0.8758102380272751
855.0, 0.890970650387528
856.0, 0.9089233983756788
857.0, 0.9288244528757127
858.0, 0.9466700484366867
859.0, 0.9633777356969546
860.0, 0.97951582210672
861.0, 0.9906899977620479
862.0, 0.9979948553608444
863.0, 0.9998652836611653
864.0, 0.996953266052549
865.0, 0.9846325312835372
866.0, 0.9639633683760348
867.0, 0.9375381020695993
868.0, 0.9054834411128586
869.0, 0.8707084660190992
870.0, 0.8378639009926735
871.0, 0.7997339410608333
872.0, 0.7579921774712748
873.0, 0.7191361964624808
874.0, 0.6812818039012642
875.0, 0.6430734693845241
876.0, 0.6100463013321155
877.0, 0.5759320502138949
878.0, 0.5464072364111061
879.0, 0.5165827526304672
880.0, 0.48894570442007307
881.0, 0.4645549328224211
882.0, 0.43879181105020937
883.0, 0.411492963151126
884.0, 0.3899927445130787
885.0, 0.36820321549131046
886.0, 0.34798249971550477
887.0, 0.32745262609865555
888.0, 0.3093027376176788
889.0, 0.2920888655411351
890.0, 0.2746202434036003
891.0, 0.2603907057474589
892.0, 0.24539784503173667
893.0, 0.23013984388207873
894.0, 0.21793216676947116
895.0, 0.2043014108537793
896.0, 0.19014194400694
897.0, 0.17697287775693568
898.0, 0.1648352671994769
899.0, 0.1545144919107866
900.0, 0.14319301556767827
901.0, 0.13303705990289033
902.0, 0.12271828086607406
903.0, 0.11326634297139436
904.0, 0.1039438300973999
905.0, 0.09417375358059975
906.0, 0.08491781248541572
907.0, 0.07667505945546269
908.0, 0.07052533928354678
909.0, 0.0634045375378849
910.0, 0.05727406559189224
911.0, 0.050019303307745594
912.0, 0.043444272366493765
913.0, 0.0385250050590005
914.0, 0.03307133664728707
915.0, 0.027982368225291345
916.0, 0.026069155951514773
917.0, 0.02172243463403037
918.0, 0.016339199121043525
919.0, 0.01268817834509962
920.0, 0.01047427027442544
921.0, 0.008035628448248244
922.0, 0.005435596705059912
923.0, 0.003533687887782624
924.0, 0.0004802210336190325
925.0, 0.0010237860955326376
926.0, 0.002322416025878876
927.0, 0.004768087304024264
928.0, 0.006121363115260712
929.0, 0.006171552335064908
930.0, 0.0072723500151806965
931.0, 0.008646006256853661
932.0, 0.009981348141543204
933.0, 0.009789566647651148
934.0, 0.009535700858041039
935.0, 0.009598894523652746
936.0, 0.009869774335591087
937.0, 0.010584255203539245
938.0, 0.010906783395830368
939.0, 0.009115121723941601
940.0, 0.010432815372585181
941.0, 0.008315339433547023
942.0, 0.00745187091621863
943.0, 0.006887970878531048
944.0, 0.005514643419027262
945.0, 0.00433707640906399
946.0, 0.0039749726726218465
947.0, 0.002814252137616537
948.0, 0.002140822364348346
949.0, 0.0006199310242647696
950.0, 0.0003909299678157077
951.0, 0.001415299973056062
952.0, 0.0029742208245104353
953.0, 0.0049978753610572385
954.0, 0.006252891744316034
955.0, 0.00555937466631883
956.0, 0.00770440364100246
957.0, 0.008726377409708242
958.0, 0.010293019793830752
959.0, 0.012215641099407563
960.0, 0.014049690120143442
961.0, 0.015594562364924468
962.0, 0.01674864348819604
963.0, 0.017704244425701357
964.0, 0.019201199559593377
965.0, 0.020741610333397362
966.0, 0.02188899305851535
967.0, 0.02418562054430963
968.0, 0.026270893437241368
969.0, 0.02754312050534823
970.0, 0.028152832368946626
971.0, 0.028296774975132413
972.0, 0.03005245769080973
973.0, 0.03279503250766572
974.0, 0.03384162415702028
975.0, 0.03346662544796045
976.0, 0.034511071373239846
977.0, 0.03602057034930836
978.0, 0.03680367218323728
979.0, 0.03722135680515564
980.0, 0.037482302523491814
981.0, 0.03857784194216374
982.0, 0.03876698649922802
983.0, 0.039741011492148565
984.0, 0.04065661686707705
985.0, 0.03976372828593268
986.0, 0.0395018549757287
987.0, 0.04079845444006941
988.0, 0.040944845634412357
989.0, 0.0403709859645329
990.0, 0.039250237397014366
991.0, 0.03896752142589754
992.0, 0.03759201308255944
993.0, 0.03779083047902198
994.0, 0.03722904014560614
995.0, 0.035771580265232264
996.0, 0.03516191901412875
997.0, 0.034408039717937176
998.0, 0.03170242759208876
999.0, 0.03180571531574516
1000.0, 0.030242003076906138
1001.0, 0.030263370561499248
1002.0, 0.028880136148224513
1003.0, 0.0268972432415152
1004.0, 0.02641116795629579
1005.0, 0.02569492199114124
1006.0, 0.02365639491073143
1007.0, 0.0245358300285996
1008.0, 0.02149806648595682
1009.0, 0.02206593910823026
1010.0, 0.02102398224263864
1011.0, 0.01892914631624677
1012.0, 0.01859953184673689
1013.0, 0.019303982954223937
1014.0, 0.018644584261293673
1015.0, 0.01735802775386032
1016.0, 0.01804536102813133
1017.0, 0.017725696916775644
1018.0, 0.017711391241103467
1019.0, 0.017078076573000842
1020.0, 0.015968359220096682
1021.0, 0.016013604430664866
1022.0, 0.01632746976558136
1023.0, 0.01601196295838882
1024.0, 0.01643226974483782
1025.0, 0.015280894797323601
1026.0, 0.015908849029238246
1027.0, 0.014891148342528726
1028.0, 0.01502441742502687
1029.0, 0.015047661519726347
1030.0, 0.01500785509356637
1031.0, 0.0148755775829531
1032.0, 0.014373556739564631
1033.0, 0.014440393715135752
1034.0, 0.01447050765231981
1035.0, 0.014978580343607866
1036.0, 0.013536886270675614
1037.0, 0.012940263351022501
1038.0, 0.012913322951353235
1039.0, 0.01319144724122487
1040.0, 0.013389406413002269
1041.0, 0.012891955064108456
1042.0, 0.012134684726953724
1043.0, 0.012289395247536947
1044.0, 0.012028042674240833
1045.0, 0.012386501023827566
1046.0, 0.012294741546468334
1047.0, 0.010645860469745553
1048.0, 0.010630312016135584
1049.0, 0.011006855825750367
1050.0, 0.010389968194219914
1051.0, 0.01007873715456996
1052.0, 0.00992686413213407
1053.0, 0.010530233448228366
1054.0, 0.009705229071045183
1055.0, 0.010224415293986247
1056.0, 0.009497018786211788
1057.0, 0.007928753658393194
1058.0, 0.00839680565809203
1059.0, 0.009021621817646772
1060.0, 0.00821611372329501
1061.0, 0.008213857784113553
1062.0, 0.008426606503385607
1063.0, 0.008589052787064944
1064.0, 0.007687172308115373
1065.0, 0.007153776173778722
1066.0, 0.00689967680505111
1067.0, 0.006394161961579757
1068.0, 0.0061107685100520726
1069.0, 0.006028042852659358
1070.0, 0.006589910973220231
1071.0, 0.007820806158603984
1072.0, 0.006120654904986006
1073.0, 0.005368599669968783
1074.0, 0.0059918177434130715
1075.0, 0.005961204190815534
1076.0, 0.005512013392777979
1077.0, 0.004963142826776238
1078.0, 0.004847531990916458
1079.0, 0.005023843105555451
1080.0, 0.004937081169425661
1081.0, 0.004853262624530492
1082.0, 0.004699453406333678
1083.0, 0.00547591689540558
1084.0, 0.005286784314349887
1085.0, 0.004294432319950145
1086.0, 0.003849711259084433
1087.0, 0.0035290799180067354
1088.0, 0.0028516148059631735
1089.0, 0.003054444731309022
1090.0, 0.004212709149522417
1091.0, 0.004017866349012661
1092.0, 0.0044524760105020275
1093.0, 0.004562385342837319
1094.0, 0.004683203508573481
1095.0, 0.003752017828224092
1096.0, 0.004937964569895589
1097.0, 0.004187952572619645
1098.0, 0.0033916804203240865
1099.0, 0.003462323348271408
1100.0, 0.0023212120640337943
1101.0, 0.0026067826878590325
1102.0, 0.0032247124435550068
1103.0, 0.0030936579919959416
1104.0, 0.003725541298990964
1105.0, 0.002570051774034406
1106.0, 0.0026317660706202833
1107.0, 0.0030751990671617586
1108.0, 0.0032398038012316946
1109.0, 0.0036071510938468945
1110.0, 0.0036920225985699207
1111.0, 0.003169137996547023
1112.0, 0.002932578903905231
1113.0, 0.001299692944164902
1114.0, 0.0019410137141036951
1115.0, 0.001699891948212347
1116.0, 0.000901196421819837
1117.0, 0.001026221001420722
1118.0, 0.0014986167091346886
1119.0, 0.0019096763360061625
1120.0, 0.0019246513985238102
1121.0, 0.0009300549974914416
1122.0, 0.00030054081464646836
1123.0, 0.0015965918770040723
1124.0, 0.0003260126736298742
1125.0, 0.0003846895932746948
1126.0, 0.00014148026573408026
1127.0, 0.0007932602701020911
1128.0, 0.00040639389516001383
1129.0, 5.457621744315828e-05
1130.0, 0.00038133363576868366
1131.0, 0.0004406760233015972
1132.0, 0.0004402578341909225
1133.0, 0.0007136398670937842
1134.0, 0.0012292774438608376
1135.0, 0.000911960268402977
1136.0, 0.0004060374519172622
1137.0, 0.0001227623870674186
1138.0, 0.00022475439802069555
1139.0, 0.0008765046935269999
1140.0, 0.00043583994975810207
1141.0, 0.00027001737863980115
1142.0, 0.00046573883603620125
1143.0, 0.0007895640483884651
1144.0, 0.0002676308131568261
1145.0, 0.00031662514577056246
1146.0, 0.0009328658400736677
1147.0, 0.0011586684012921658
1148.0, 0.0015156699483136972
1149.0, 0.0005781069988005178
1150.0, 0.0003336160121165154
1151.0, 0.0010790946378622117
1152.0, 0.0005888823316208464
1153.0, 0.0004620073733983128
1154.0, 0.0001433989073000503
1155.0, 0.0006640450231600005
1156.0, 5.674448698200654e-05
1157.0, 0.0010689481781560033
1158.0, 0.0013156054802575849
1159.0, 0.0004726193357644224
1160.0, 7.84561146356817e-05
1161.0, 0.00022963145343129164
1162.0, 0.0008910286585054236
1163.0, 0.000737882252109233
1164.0, 0.00019689252460647873
1165.0, 0.0006358621097751984
1166.0, 0.0005825011122274407
1167.0, 0.001233503542511969
1168.0, 0.000286777160670418
1169.0, 0.00023917308736044044
1170.0, 0.00030786686134258293
1171.0, 0.0011364009043756723
1172.0, 0.0013282490041792536
1173.0, 0.0003611861666270062
1174.0, 0.0001962644984694197
1175.0, 0.0010763944898377086
1176.0, 0.0016915243147680122
1177.0, 0.0019404157237147925
1178.0, 0.001967800879963337
1179.0, 0.000904559495876426
1180.0, 0.0021447198165051966
1181.0, 0.0010879660273356022
1182.0, 0.0017898788722443338
1183.0, 0.0028309900541415383
1184.0, 0.0029624417093864178
1185.0, 0.0023616456063205765
1186.0, 0.002276510637257547
1187.0, 0.002798141175654194
1188.0, 0.003298409831538296
1189.0, 0.0036562401914002796
1190.0, 0.0032410377307615164
1191.0, 0.003979876437854031
1192.0, 0.004457910832713306
1193.0, 0.0038298103752366485
1194.0, 0.004626521922338736
1195.0, 0.004761866188210436
1196.0, 0.00473322858105565
1197.0, 0.0045894372284941585
1198.0, 0.00552104440413671
1199.0, 0.006343134630054746
1200.0, 0.005654347821323747
1201.0, 0.005359656527958751
1202.0, 0.005902548346924267
1203.0, 0.006339369521553555
1204.0, 0.00614725736323342
1205.0, 0.007528779861548298
1206.0, 0.007104034196027088
1207.0, 0.006361242740533307
1208.0, 0.006561530524407478
1209.0, 0.007219872799464899
1210.0, 0.0072148240118631605
1211.0, 0.006884565438199366
1212.0, 0.0064107568647614206
1213.0, 0.006653668194663971
1214.0, 0.008530213613309365
1215.0, 0.00812034769205504
1216.0, 0.008095986960929832
1217.0, 0.00732908962745637
1218.0, 0.007684108763964812
1219.0, 0.008333152039069149
1220.0, 0.007114329902837388
1221.0, 0.006699336507380228
1222.0, 0.007882172277947222
1223.0, 0.009138681086719473
1224.0, 0.008850983001853954
1225.0, 0.007969266197661955
1226.0, 0.008276584366541096
1227.0, 0.007768176487750105
1228.0, 0.006524131856371154
1229.0, 0.008302009910683809
1230.0, 0.009093074241364355
1231.0, 0.00730444670968771
1232.0, 0.007330074508646153
1233.0, 0.008397378218400224
1234.0, 0.008567437115685797
1235.0, 0.008077403756707085
1236.0, 0.007495409013687437
1237.0, 0.007013525671936884
1238.0, 0.006572260712986946
1239.0, 0.006318083405821518
1240.0, 0.006614241563636388
1241.0, 0.00641458109198221
1242.0, 0.00577918118847576
1243.0, 0.006254879869310174
1244.0, 0.007183652727593748
1245.0, 0.006481087166446794
1246.0, 0.006213015820521593
1247.0, 0.00476103644127428
1248.0, 0.005071544676979099
1249.0, 0.004874122752782811
1250.0, 0.004199682615403007
1251.0, 0.004422571596513001
1252.0, 0.004980521395834313
1253.0, 0.005299076448876114
1254.0, 0.00409598326200892
1255.0, 0.004982953344900055
1256.0, 0.0043352252965015
1257.0, 0.0035068488924496627
1258.0, 0.0037396444832716053
1259.0, 0.0039830279140562275
1260.0, 0.0031617577682619726
1261.0, 0.002341183580624223
1262.0, 0.003343057677270515
1263.0, 0.0028827629063956583
1264.0, 0.002795789893524239
1265.0, 0.003258617058747939
1266.0, 0.0022181450302777893
1267.0, 0.0021281917577220676
1268.0, 0.002324045107756507
1269.0, 0.002142255014494838
1270.0, 0.0026318498598806137
1271.0, 0.0014630078553307519
1272.0, 0.00245981878068613
1273.0, 0.0022049452787632927
1274.0, 0.0022567099136585355
1275.0, 0.0012394896475332725
1276.0, 0.0012337355235961102
1277.0, 0.0020960992634302834
1278.0, 0.000907564279405813
1279.0, 0.0002942259691236157
1280.0, 0.0007582116559363201
1281.0, 0.0018390314925508893
1282.0, 0.0018228442639856542
1283.0, 0.0005390496911436315
1284.0, 0.00013001232521764208
1285.0, 0.0009260046727410993
1286.0, 0.0009716548976397881
1287.0, 0.0006563363872762324
1288.0, 0.0009570795677058736
1289.0, 0.0010353073047222141
1290.0, 0.0021555678460849943
1291.0, 0.0011226127091479954
1292.0, 0.0007079056319217944
1293.0, 0.001478243829932967
1294.0, 0.0007289016400311077
1295.0, 0.00035265993868782545
1296.0, 0.0011513893015028943
1297.0, 0.00012573644997125513
1298.0, 0.001208950323573547
1299.0, 0.0018290439120585797
1300.0, 0.001089612846728023
1301.0, 0.0008066883993206338
1302.0, 0.0001466423719920976
1303, 0.0
1304, 0.0
1305, 0.0
1306, 0.0
1307, 0.0
1308, 0.0
1309, 0.0
1310, 0.0
1311, 0.0
1312, 0.0
1313, 0.0
1314, 0.0
1315, 0.0
1316, 0.0
1317, 0.0
1318, 0.0
1319, 0.0
1320, 0.0
1321, 0.0
1322, 0.0
1323, 0.0
1324, 0.0
1325, 0.0
1326, 0.0
1327, 0.0
1328, 0.0
1329, 0.0
1330, 0.0
1331, 0.0
1332, 0.0
1333, 0.0
1334, 0.0
1335, 0.0
1336, 0.0
1337, 0.0
1338, 0.0
1339, 0.0
1340, 0.0
1341, 0.0
1342, 0.0
1343, 0.0
1344, 0.0
1345, 0.0
1346, 0.0
1347, 0.0
1348, 0.0
1349, 0.0
1350, 0.0
1351, 0.0
1352, 0.0
1353, 0.0
1354, 0.0
1355, 0.0
1356, 0.0
1357, 0.0
1358, 0.0
1359, 0.0
1360, 0.0
1361, 0.0
1362, 0.0
1363, 0.0
1364, 0.0
1365, 0.0
1366, 0.0
1367, 0.0
1368, 0.0
1369, 0.0
1370, 0.0
1371, 0.0
1372, 0.0
1373, 0.0
1374, 0.0
1375, 0.0
1376, 0.0
1377, 0.0
1378, 0.0
1379, 0.0
1380, 0.0
1381, 0.0
1382, 0.0
1383, 0.0
1384, 0.0
1385, 0.0
1386, 0.0
1387, 0.0
1388, 0.0
1389, 0.0
1390, 0.0
1391, 0.0
1392, 0.0
1393, 0.0
1394, 0.0
1395, 0.0
1396, 0.0
1397, 0.0
1398, 0.0
1399, 0.0
1400, 0.0
1401, 0.0
1402, 0.0
1403, 0.0
1404, 0.0
1405, 0.0
1406, 0.0
1407, 0.0
1408, 0.0
1409, 0.0
1410, 0.0
1411, 0.0
1412, 0.0
1413, 0.0
1414, 0.0
1415, 0.0
1416, 0.0
1417, 0.0
1418, 0.0
1419, 0.0
1420, 0.0
1421, 0.0
1422, 0.0
1423, 0.0
1424, 0.0
1425, 0.0
1426, 0.0
1427, 0.0
1428, 0.0
1429, 0.0
1430, 0.0
1431, 0.0
1432, 0.0
1433, 0.0
1434, 0.0
1435, 0.0
1436, 0.0
1437, 0.0
1438, 0.0
1439, 0.0
1440, 0.0
1441, 0.0
1442, 0.0
1443, 0.0
1444, 0.0
1445, 0.0
1446, 0.0
1447, 0.0
1448, 0.0
1449, 0.0
1450, 0.0
1451, 0.0
1452, 0.0
1453, 0.0
1454, 0.0
1455, 0.0
1456, 0.0
1457, 0.0
1458, 0.0
1459, 0.0
1460, 0.0
1461, 0.0
1462, 0.0
1463, 0.0
1464, 0.0
1465, 0.0
1466, 0.0
1467, 0.0
1468, 0.0
1469, 0.0
1470, 0.0
1471, 0.0
1472, 0.0
1473, 0.0
1474, 0.0
1475, 0.0
1476, 0.0
1477, 0.0
1478, 0.0
1479, 0.0
1480, 0.0
1481, 0.0
1482, 0.0
1483, 0.0
1484, 0.0
1485, 0.0
1486, 0.0
1487, 0.0
1488, 0.0
1489, 0.0
1490, 0.0
1491, 0.0
1492, 0.0
1493, 0.0
1494, 0.0
1495, 0.0
1496, 0.0
1497, 0.0
1498, 0.0
1499, 0.0
1500, 0.0
1501, 0.0
1502, 0.0
1503, 0.0
1504, 0.0
1505, 0.0
1506, 0.0
1507, 0.0
1508, 0.0
1509, 0.0
1510, 0.0
1511, 0.0
1512, 0.0
1513, 0.0
1514, 0.0
1515, 0.0
1516, 0.0
1517, 0.0
1518, 0.0
1519, 0.0
1520, 0.0
1521, 0.0
1522, 0.0
1523, 0.0
1524, 0.0
1525, 0.0
1526, 0.0
1527, 0.0
1528, 0.0
1529, 0.0
1530, 0.0
1531, 0.0
1532, 0.0
1533, 0.0
1534, 0.0
1535, 0.0
1536, 0.0
1537, 0.0
1538, 0.0
1539, 0.0
1540, 0.0
1541, 0.0
1542, 0.0
1543, 0.0
1544, 0.0
1545, 0.0
1546, 0.0
1547, 0.0
1548, 0.0
1549, 0.0
1550, 0.0
1551, 0.0
1552, 0.0
1553, 0.0
1554, 0.0
1555, 0.0
1556, 0.0
1557, 0.0
1558, 0.0
1559, 0.0
1560, 0.0
1561, 0.0
1562, 0.0
1563, 0.0
1564, 0.0
1565, 0.0
1566, 0.0
1567, 0.0
1568, 0.0
1569, 0.0
1570, 0.0
1571, 0.0
1572, 0.0
1573, 0.0
1574, 0.0
1575, 0.0
1576, 0.0
1577, 0.0
1578, 0.0
1579, 0.0
1580, 0.0
1581, 0.0
1582, 0.0
1583, 0.0
1584, 0.0
1585, 0.0
1586, 0.0
1587, 0.0
1588, 0.0
1589, 0.0
1590, 0.0
1591, 0.0
1592, 0.0
1593, 0.0
1594, 0.0
1595, 0.0
1596, 0.0
1597, 0.0
1598, 0.0
1599, 0.0
