30, 0.0
31, 0.0
32, 0.0
33, 0.0
34, 0.0
35, 0.0
36, 0.0
37, 0.0
38, 0.0
39, 0.0
40, 0.0
41, 0.0
42, 0.0
43, 0.0
44, 0.0
45, 0.0
46, 0.0
47, 0.0
48, 0.0
49, 0.0
50, 0.0
51, 0.0
52, 0.0
53, 0.0
54, 0.0
55, 0.0
56, 0.0
57, 0.0
58, 0.0
59, 0.0
60, 0.0
61, 0.0
62, 0.0
63, 0.0
64, 0.0
65, 0.0
66, 0.0
67, 0.0
68, 0.0
69, 0.0
70, 0.0
71, 0.0
72, 0.0
73, 0.0
74, 0.0
75, 0.0
76, 0.0
77, 0.0
78, 0.0
79, 0.0
80, 0.0
81, 0.0
82, 0.0
83, 0.0
84, 0.0
85, 0.0
86, 0.0
87, 0.0
88, 0.0
89, 0.0
90, 0.0
91, 0.0
92, 0.0
93, 0.0
94, 0.0
95, 0.0
96, 0.0
97, 0.0
98, 0.0
99, 0.0
100, 0.0
101, 0.0
102, 0.0
103, 0.0
104, 0.0
105, 0.0
106, 0.0
107, 0.0
108, 0.0
109, 0.0
110, 0.0
111, 0.0
112, 0.0
113, 0.0
114, 0.0
115, 0.0
116, 0.0
117, 0.0
118, 0.0
119, 0.0
120, 0.0
121, 0.0
122, 0.0
123, 0.0
124, 0.0
125, 0.0
126, 0.0
127, 0.0
128, 0.0
129, 0.0
130, 0.0
131, 0.0
132, 0.0
133, 0.0
134, 0.0
135, 0.0
136, 0.0
137, 0.0
138, 0.0
139, 0.0
140, 0.0
141, 0.0
142, 0.0
143, 0.0
144, 0.0
145, 0.0
146, 0.0
147, 0.0
148, 0.0
149, 0.0
150, 0.0
151, 0.0
152, 0.0
153, 0.0
154.0, 0.004894460180106369
155.0, 0.008670104251478105
156.0, 0.007157970344239532
157.0, 0.00029539775556626437
158.0, 0.0005680710623672383
159.0, 0.0022928869083358714
160.0, 0.0030002030503835896
161.0, 0.0005522547398298574
162.0, 0.0010539024044141268
163.0, 0.003930946297819027
164.0, 0.010873968825603968
165.0, 0.013535862884011957
166.0, 0.011298881396024935
167.0, 0.026590804425414134
168.0, 0.037055102153506735
169.0, 0.046773819384698705
170.0, 0.06453855823772253
171.0, 0.06659658101851748
172.0, 0.07145439610223864
173.0, 0.07392218322311289
174.0, 0.06821650740665425
175.0, 0.06488749292104856
176.0, 0.06487333197200128
177.0, 0.06615540581112113
178.0, 0.06670990461790921
179.0, 0.06558979643867371
180.0, 0.06050290423879143
181.0, 0.05987908885812859
182.0, 0.05926998784719866
183.0, 0.052175641331108163
184.0, 0.056549910911856405
185.0, 0.053016114401094806
186.0, 0.046024993601423606
187.0, 0.04417859464470065
188.0, 0.04043606574301256
189.0, 0.03649195521337015
190.0, 0.03542903343796996
191.0, 0.03882428708038003
192.0, 0.04156040495338376
193.0, 0.05485435241660967
194.0, 0.06801846257837113
195.0, 0.07845264645141632
196.0, 0.09185355615569245
197.0, 0.10871146878907864
198.0, 0.11825094134959507
199.0, 0.1184139927011403
200.0, 0.11450287222394451
201.0, 0.12071152488890259
202.0, 0.11952171209588115
203.0, 0.11012010957477349
204.0, 0.10098755837821759
205.0, 0.10121023743686305
206.0, 0.11217565416893298
207.0, 0.11943092891518782
208.0, 0.11899018176191964
209.0, 0.1152496477581326
210.0, 0.1059450222310879
211.0, 0.09528948770805866
212.0, 0.08074697156478018
213.0, 0.06078305742846545
214.0, 0.04360621748146399
215.0, 0.030834640980978177
216.0, 0.019870737351499225
217.0, 0.010225466955886286
218.0, 0.004127513407716775
219.0, 0.0024280904747021937
220.0, 0.006802409700639001
221.0, 0.006286258235605146
222.0, 0.0027392829697042344
223.0, 0.010789496633833936
224.0, 0.006312031073908733
225.0, 0.0013179935851288266
226.0, 0.0013785223509425952
227.0, 0.0022196342304760153
228.0, 0.002779649090458308
229.0, 0.008614281895991156
230.0, 0.013245669927014538
231.0, 0.020647524486363707
232.0, 0.023703815177242574
233.0, 0.030921878668780562
234.0, 0.040115823918059595
235.0, 0.046658194202681726
236.0, 0.05064491646624379
237.0, 0.04942282926067489
238.0, 0.059313668664207675
239.0, 0.07813996583803524
240.0, 0.07213914705695587
241.0, 0.07908247215190496
242.0, 0.08592548944121732
243.0, 0.09134187924366659
244.0, 0.09981674767662849
245.0, 0.0989126899731544
246.0, 0.10284684605493144
247.0, 0.11009753074108997
248.0, 0.11272022212115296
249.0, 0.10983697794812197
250.0, 0.13408830891515233
251.0, 0.13500668179836472
252.0, 0.12414531063279538
253.0, 0.12695774689485118
254.0, 0.1306725653384463
255.0, 0.13796895799975484
256.0, 0.14270806697220847
257.0, 0.14591585298417536
258.0, 0.1568346314118038
259.0, 0.1610651367534591
260.0, 0.17131800737588598
261.0, 0.18194333465950072
262.0, 0.1819737775302938
263.0, 0.1915069045429563
264.0, 0.19564866174137863
265.0, 0.20708065809628617
266.0, 0.23152037430567843
267.0, 0.2516398884944108
268.0, 0.26685865588668506
269.0, 0.2854820012726258
270.0, 0.30858794211988033
271.0, 0.33246858739353624
272.0, 0.3583175099201239
273.0, 0.38125665222617994
274.0, 0.4059299420981954
275.0, 0.4362182212584979
276.0, 0.4704837330011456
277.0, 0.49890688034380143
278.0, 0.5249875708618824
279.0, 0.5486586592153547
280.0, 0.5646866785102803
281.0, 0.5652852425323008
282.0, 0.5681715118854181
283.0, 0.5596160905477826
284.0, 0.5376466971368858
285.0, 0.5113514193355065
286.0, 0.47126489470130895
287.0, 0.4424022257618321
288.0, 0.4184185779774536
289.0, 0.38919083454537984
290.0, 0.35408418542265907
291.0, 0.3234786579199019
292.0, 0.2990066378274443
293.0, 0.27292852943274026
294.0, 0.23796281395381066
295.0, 0.22223414839477967
296.0, 0.19957926164313178
297.0, 0.18113767075391848
298.0, 0.1735463896472198
299.0, 0.16012760237623547
300.0, 0.1474509004213952
301.0, 0.13515790447214793
302.0, 0.12505749097907193
303.0, 0.1177394176010419
304.0, 0.11012217377723153
305.0, 0.1050734586821625
306.0, 0.09797329246110754
307.0, 0.08918525976423151
308.0, 0.08160249210354847
309.0, 0.07409400571756514
310.0, 0.07214734859198135
311.0, 0.07181575026360727
312.0, 0.06741672639466216
313.0, 0.054201469628735066
314.0, 0.04753743069319156
315.0, 0.047561565692553355
316.0, 0.04779858884879357
317.0, 0.043352590474781
318.0, 0.03697596629703973
319.0, 0.030849518488491393
320.0, 0.02746032592956632
321.0, 0.02698102584123856
322.0, 0.026544675507344528
323.0, 0.02033644869959222
324.0, 0.01602984128834583
325.0, 0.01451335622254209
326.0, 0.013398631895847666
327.0, 0.012483001957464003
328.0, 0.01677050947504117
329.0, 0.015079169647463472
330.0, 0.012696643159198169
331.0, 0.013130250931191034
332.0, 0.011227329088288218
333.0, 0.005071891839470373
334.0, 0.004768840004621059
335.0, 0.0037674417178772397
336.0, 0.0031673405249428963
337.0, 0.004428782888456877
338.0, 0.004200285074164197
339.0, 0.007095302288842329
340.0, 0.0037297290013507105
341.0, 0.0018156304857650807
342.0, 0.0003155913508204911
343.0, 0.0013690903611094803
344.0, 0.0013733366531743557
345.0, 0.0005085448232084525
346.0, 0.0010166821014930688
347.0, 0.004948007054334821
348.0, 0.004696493572306923
349.0, 0.003430428904719016
350.0, 0.004166060685249195
351.0, 0.005016167357373945
352.0, 0.007308716211628829
353.0, 0.00789586405144001
354.0, 0.004083208458350845
355.0, 0.0005892141545505122
356.0, 0.003965824690288744
357.0, 0.0029301406390627124
358.0, 0.005742670818044228
359.0, 0.009633004163240306
360.0, 0.008157560225499889
361.0, 0.005679129670352027
362.0, 0.0044683200037726415
363.0, 0.005048415671034167
364.0, 0.003200525525399465
365.0, 0.002384412844939328
366.0, 0.0018969682921079303
367.0, 0.005288010273294106
368.0, 0.0033633488633446357
369.0, 0.0009256909355629404
370.0, 0.004431671196136512
371.0, 0.005225713567510953
372.0, 0.0037121571062555215
373.0, 0.0004133215627663932
374.0, 0.0010544414519809673
375.0, 0.003303594338955591
376.0, 0.0028122455472919224
377.0, 0.005148578275919076
378.0, 0.0027228715579815125
379.0, 0.0004566509843660171
380.0, 0.0032195026000578853
381.0, 0.009591052163477201
382.0, 0.005103612332934927
383.0, 0.001543108550007043
384.0, 0.001798420879712775
385.0, 0.0061567472770061036
386.0, 0.0012377949539353085
387.0, 0.005535748669981634
388.0, 0.0051547624691227305
389.0, 0.0008818980921302268
390.0, 0.0027021823719331982
391.0, 0.0006244740784683109
392.0, 0.0015727150557398257
393.0, 0.0009666203268420398
394.0, 0.003631055238507532
395.0, 0.004747425396063071
396.0, 0.00031865672296698744
397.0, 0.0023413782028174207
398.0, 0.0011937803633267387
399.0, 0.0048094672640861995
400.0, 0.008087670334563436
401.0, 0.00867515959579682
402.0, 0.009685853778150946
403.0, 0.008339429422252702
404.0, 0.0030593959856661667
405.0, 0.004704023361860151
406.0, 0.0068226562163217815
407.0, 0.0043942011845755895
408.0, 0.0031068543383976892
409.0, 0.005492024960728409
410.0, 0.007197603446494552
411.0, 0.009113557040013086
412.0, 0.00627880285217181
413.0, 0.004371403453413882
414.0, 0.005893280692213826
415.0, 0.007177606079717974
416.0, 0.004819568602236268
417.0, 0.009253038775993266
418.0, 0.008111363273771795
419.0, 0.007688025222174595
420.0, 0.009983274556065635
421.0, 0.009170213172091332
422.0, 0.0133674441518177
423.0, 0.010952769660955855
424.0, 0.016270736285961866
425.0, 0.015551967628698723
426.0, 0.010720354082416061
427.0, 0.012515417764975292
428.0, 0.013317175259312843
429.0, 0.013475250025097994
430.0, 0.006380597815411047
431.0, 0.01145560469893848
432.0, 0.013733836701254137
433.0, 0.019589400915879563
434.0, 0.02660900250961756
435.0, 0.027531233606541486
436.0, 0.026785124949823755
437.0, 0.02245775666512531
438.0, 0.027739747010746028
439.0, 0.03548212368923637
440.0, 0.03542307447490299
441.0, 0.04199753212744233
442.0, 0.04955260551061354
443.0, 0.05375064705286139
444.0, 0.05442457742892654
445.0, 0.05663608081100508
446.0, 0.06803916800931781
447.0, 0.07393404682459036
448.0, 0.07932629764486962
449.0, 0.08237495687665701
450.0, 0.08306045098835281
451.0, 0.08878307001825739
452.0, 0.0892169988412869
453.0, 0.09520914298726113
454.0, 0.09386621068617884
455.0, 0.09495455102736952
456.0, 0.09489276544611006
457.0, 0.09991953355031102
458.0, 0.09893917581103061
459.0, 0.10293846109130612
460.0, 0.09614550103621138
461.0, 0.09822096452782678
462.0, 0.10018724931494834
463.0, 0.10690683292123962
464.0, 0.10780929631840706
465.0, 0.10001237414174026
466.0, 0.09039412961395263
467.0, 0.08993911759701183
468.0, 0.08899923409347249
469.0, 0.08756310800838231
470.0, 0.09081230265501031
471.0, 0.09796174052687424
472.0, 0.09813789572016818
473.0, 0.0914176078967678
474.0, 0.09072513889399303
475.0, 0.09296641958468566
476.0, 0.09766425483130536
477.0, 0.10696606902238905
478.0, 0.11282065827287949
479.0, 0.11418136641492609
480.0, 0.12109827641571103
481.0, 0.13423169519919112
482.0, 0.14690287819579442
483.0, 0.1531779382338666
484.0, 0.15919566679416935
485.0, 0.17231331861006696
486.0, 0.18609102224161636
487.0, 0.1953232416318932
488.0, 0.2024409125825219
489.0, 0.2055072360185314
490.0, 0.21195225205552434
491.0, 0.2217899720126429
492.0, 0.23005218305702924
493.0, 0.23526938360553065
494.0, 0.2438441066782947
495.0, 0.25204799151300905
496.0, 0.2554079851093966
497.0, 0.2536202491718192
498.0, 0.25312268638191415
499.0, 0.25944323869087976
500.0, 0.2539636530935108
501.0, 0.2540257876905438
502.0, 0.2500839405315501
503.0, 0.24225166830919176
504.0, 0.2367830529948233
505.0, 0.2132070839798301
506.0, 0.20324269933230676
507.0, 0.18397362124007655
508.0, 0.1663871942120772
509.0, 0.1578006749461046
510.0, 0.14064766993347358
511.0, 0.12476806817499247
512.0, 0.11177428711910244
513.0, 0.10041079592675027
514.0, 0.08892643279743859
515.0, 0.07764966165538462
516.0, 0.07420920865433346
517.0, 0.07483384470176975
518.0, 0.06283790871977699
519.0, 0.05242051295022636
520.0, 0.05165522363309848
521.0, 0.041101511439060705
522.0, 0.03346567566012375
523.0, 0.031279762385419387
524.0, 0.028353720115942588
525.0, 0.025657983769789575
526.0, 0.026843418067836185
527.0, 0.027316664312673468
528.0, 0.02418386780118017
529.0, 0.022223242587102347
530.0, 0.018090225453076092
531.0, 0.013089456232710983
532.0, 0.01641765331356337
533.0, 0.010271848743291866
534.0, 0.00848497920843093
535.0, 0.004933466222650232
536.0, 0.006057773677946959
537.0, 0.012286322477190668
538.0, 0.0022863840724196543
539.0, 0.000903186123457799
540.0, 0.005548497377883781
541.0, 0.006147216791517734
542.0, 0.002673249939485705
543.0, 0.0023860986023069236
544.0, 0.0019314236012856994
545.0, 0.001271012161513996
546.0, 0.001808953997714122
547.0, 0.0024643564758247277
548.0, 0.0003329824489655341
549.0, 0.0008057082053443466
550.0, 0.0010440888429642482
551.0, 0.0011068471373244446
552.0, 0.003021369648659017
553.0, 0.002776923576401728
554.0, 0.00033733640412157115
555.0, 0.006148406921407235
556.0, 0.0053489145671156615
557.0, 0.0035503666215793792
558.0, 0.00035392455521984973
559.0, 0.005307447895827561
560.0, 0.006806326764272541
561.0, 0.0015520963920628128
562.0, 0.0016233322932484098
563.0, 0.0031380878230331077
564.0, 0.002092847232803667
565.0, 0.006580542314360219
566.0, 0.004343627143383245
567.0, 0.0022254615662531184
568.0, 0.0034349334119975904
569.0, 0.008030372385164498
570.0, 0.006717220694158329
571.0, 0.0033750413205557465
572.0, 0.004050361939902451
573.0, 0.015127147228407297
574.0, 0.01778242933422172
575.0, 0.016872004782501646
576.0, 0.016704003871561585
577.0, 0.019530620826148877
578.0, 0.027403220626936526
579.0, 0.02632697407362534
580.0, 0.029021934126550717
581.0, 0.033516217019978055
582.0, 0.03756984019434303
583.0, 0.04320308011564637
584.0, 0.050864165343283585
585.0, 0.05058428371844983
586.0, 0.055888037436447754
587.0, 0.06034489480854963
588.0, 0.06292286922425899
589.0, 0.06970755078370841
590.0, 0.0792132931861281
591.0, 0.07875217821955911
592.0, 0.09138393821746574
593.0, 0.10057730975244743
594.0, 0.10023340273282216
595.0, 0.10238850718208269
596.0, 0.10545837043677317
597.0, 0.11078451977873512
598.0, 0.11485830794002198
599.0, 0.1169945430377845
600.0, 0.1191781746821085
601.0, 0.11814698348922478
602.0, 0.10342303338711702
603.0, 0.10205965161177494
604.0, 0.09513541699264375
605.0, 0.08672720052883774
606.0, 0.08297780514662356
607.0, 0.07958976604315836
608.0, 0.07752305446886743
609.0, 0.07152038632792064
610.0, 0.06789271395833188
611.0, 0.059439186394346595
612.0, 0.05012239023268529
613.0, 0.047369228287486125
614.0, 0.04005733215244389
615.0, 0.03981229606082672
616.0, 0.03691155084301717
617.0, 0.03276359834383029
618.0, 0.030773194758888005
619.0, 0.028451393234883226
620.0, 0.02322434947353592
621.0, 0.027585913412491052
622.0, 0.025393498814850785
623.0, 0.016687035886962645
624.0, 0.01188495490677198
625.0, 0.013895418908753813
626.0, 0.018069443400328566
627.0, 0.02208727587244258
628.0, 0.025048389803362634
629.0, 0.0233318001392975
630.0, 0.01916254524396384
631.0, 0.017772760604230182
632.0, 0.01807379269822881
633.0, 0.02053207781584058
634.0, 0.020002583158517107
635.0, 0.016308436495583247
636.0, 0.01240173589238056
637.0, 0.010135133074104677
638.0, 0.010116398384496088
639.0, 0.015521706838141601
640.0, 0.019372552490784147
641.0, 0.020684508236008738
642.0, 0.021884194162631057
643.0, 0.022653761635913386
644.0, 0.021360142807410096
645.0, 0.02091548010546935
646.0, 0.015982063943206178
647.0, 0.018857660739980926
648.0, 0.024228974074757832
649.0, 0.020926249640726317
650.0, 0.012041684659646223
651.0, 0.018884164464784255
652.0, 0.015334928017986414
653.0, 0.014230138041574105
654.0, 0.011822247373907165
655.0, 0.009174710906377531
656.0, 0.012456973654282609
657.0, 0.017206528742996746
658.0, 0.013163958523873457
659.0, 0.013681114636475946
660.0, 0.014811283067595717
661.0, 0.0127520970938317
662.0, 0.013089363488705192
663.0, 0.020427377500254654
664.0, 0.014385105965279477
665.0, 0.013025909647468737
666.0, 0.012239806571158732
667.0, 0.012435485589501992
668.0, 0.014074480010909897
669.0, 0.015268242856142923
670.0, 0.015411282920906435
671.0, 0.008668082203396271
672.0, 0.005578470894821626
673.0, 0.011318529530452436
674.0, 0.013315688063520511
675.0, 0.006910058326974332
676.0, 0.006802844380336259
677.0, 0.01125504438860088
678.0, 0.011781499086359821
679.0, 0.009637555496802295
680.0, 0.008838865766261663
681.0, 0.007960034490538323
682.0, 0.005821172887705967
683.0, 0.008950289263843784
684.0, 0.009658784653788218
685.0, 0.003631769790719496
686.0, 0.00032921781844203276
687.0, 0.0007839317989148259
688.0, 0.0020774559249789413
689.0, 0.006626780302285314
690.0, 0.0018305157614991164
691.0, 0.0017247344979493479
692.0, 0.0031372353874960556
693.0, 0.00410348121446214
694.0, 0.002238744335512473
695.0, 0.0039910978541946186
696.0, 0.0010647322745582154
697.0, 0.004932931992855603
698.0, 0.001699309119776821
699.0, 0.004889841649264219
700.0, 0.002904535890645465
701.0, 0.004679941692629233
702.0, 0.0007401986855276717
703.0, 0.002965202812942519
704.0, 0.005155141443582619
705.0, 0.0016480750419243229
706.0, 0.002145370244764155
707.0, 0.004361009818069238
708.0, 0.00323007694840137
709.0, 0.0061870054557699
710.0, 0.004286865508945615
711.0, 0.00257672389588557
712.0, 0.0025129890949181334
713.0, 0.002033749493107157
714.0, 0.000608015031499141
715.0, 0.00031689726289660386
716.0, 0.0024739311722452944
717.0, 0.0037426435281689187
718.0, 0.0035008972219586847
719.0, 0.0022904097003659434
720.0, 0.0029928611775920048
721.0, 0.004628848035295799
722.0, 0.0048165556878460485
723.0, 0.006268867556725121
724.0, 0.010023054536704698
725.0, 0.007096582531627157
726.0, 0.010067771341062804
727.0, 0.010384520455539743
728.0, 0.001887360047588285
729.0, 0.0032003913372654095
730.0, 0.0008026618279929244
731.0, 0.002532441549530465
732.0, 0.004919204798276662
733.0, 0.003999734550281196
734.0, 0.008031964126897327
735.0, 0.013184438108059082
736.0, 0.0014685546187921403
737.0, 0.007750982955745712
738.0, 0.0016036538965944404
739.0, 0.004359517807539649
740.0, 0.008527403231722097
741.0, 0.006988398755465209
742.0, 0.003929514889872302
743.0, 0.002969842667196985
744.0, 0.004508477840615583
745.0, 0.003757750095885542
746.0, 0.002887053005348951
747.0, 0.006955970972215127
748.0, 0.009437494727248972
749.0, 0.007091196396249552
750.0, 0.007045545366666109
751.0, 0.007082433005154671
752.0, 0.012020931357837704
753.0, 0.0039530644729665046
754.0, 0.001710493807096898
755.0, 0.003446092978350688
756.0, 0.0024601012477305996
757.0, 0.001221112207068264
758.0, 0.0013212146418419472
759.0, 0.004858864648773992
760.0, 0.00529207883982008
761.0, 0.0034575589316671006
762.0, 0.002318024051395905
763.0, 0.002122964348863865
764.0, 0.0035217826410056325
765.0, 0.005460977480639413
766.0, 0.005842298642865646
767.0, 0.005697615258921591
768.0, 0.004196798622002183
769.0, 0.0036413668876402274
770.0, 0.0027222243368353644
771.0, 0.0006237304065417613
772.0, 0.0034543803551499793
773.0, 0.004670329954792268
774.0, 0.004420885919092951
775.0, 0.001777048014261066
776.0, 0.0021622326854375384
777.0, 0.003925385520185739
778.0, 0.0020794373270080924
779.0, 0.00032902589056702273
780.0, 0.0035451894798628194
781.0, 0.002917213203396915
782.0, 0.004919210942825011
783.0, 0.003295376362101236
784.0, 0.0026074528492744144
785.0, 0.003914779036210039
786.0, 0.001993981778939483
787.0, 0.0022133768247487072
788.0, 0.00014479231872785447
789.0, 0.003158278888207143
790.0, 0.0015468158483352232
791.0, 0.002793398951526923
792.0, 0.0022648510622872526
793.0, 0.0030506291551990012
794.0, 0.002086900918106943
795.0, 0.004463306743480354
796.0, 0.00793231286517977
797.0, 0.0044855042668289
798.0, 0.0006104143542514322
799.0, 0.0009514700545020496
800.0, 0.004591089563214787
801.0, 0.00873348196965865
802.0, 0.0019488897994196829
803.0, 0.0061807584887640385
804.0, 0.007309095363633631
805.0, 0.006037694477724434
806.0, 0.005747738476801898
807.0, 0.004242420712511213
808.0, 0.0036388983133939725
809.0, 0.009071458926850814
810.0, 0.005900796342583441
811.0, 0.003713024334395916
812.0, 0.00546482502182919
813.0, 0.0059498070568875985
814.0, 0.0040538659348810496
815.0, 0.003679460335754986
816.0, 0.0051631674943647884
817.0, 0.0037491415720610597
818.0, 0.0002685946248445368
819.0, 0.005176479780973529
820.0, 0.0029928045199108357
821.0, 0.005082334628589268
822.0, 0.007721221669339904
823.0, 0.0034200139523941856
824.0, 0.003548646682772906
825.0, 0.0016296138251220996
826.0, 0.00564953859276221
827.0, 0.003155785522909042
828.0, 0.002531648738625996
829.0, 0.0013134603055704663
830.0, 0.000527454614578767
831.0, 0.005010453108824991
832.0, 0.010633591603176312
833.0, 0.007719392294876119
834.0, 0.001551308129771715
835.0, 0.005830683724348949
836.0, 0.007112299550374734
837.0, 0.0020314591592067717
838.0, 0.002323440566322507
839.0, 0.006233437363582335
840.0, 0.0029297903853347856
841.0, 0.006158838480695632
842.0, 0.014734136090985056
843.0, 0.007668388765309862
844.0, 0.011418660097925885
845.0, 0.013397919383497527
846.0, 0.00885832978402246
847.0, 0.0089317422350158
848.0, 0.007695644706256112
849.0, 0.005545765373559739
850.0, 0.006357802617041504
851.0, 0.0038393201939094347
852.0, 0.0058199204525071855
853.0, 0.006717404512435287
854.0, 0.004012416272756465
855.0, 0.003512056659390425
856.0, 0.00790754637962088
857.0, 0.0077524688299677146
858.0, 0.0010402212982498038
859.0, 0.0007429589322908416
860.0, 0.007883592232856776
861.0, 0.012507619127006295
862.0, 0.011533205289333099
863.0, 0.005592260744900731
864.0, 0.0013310036678908384
865.0, 0.008153824635521712
866.0, 0.007074564027811005
867.0, 0.004872201712766675
868.0, 0.004176879318993795
869.0, 0.007199217405507309
870.0, 0.007906911653467064
871.0, 0.005136621654581116
872.0, 0.005788354962462261
873.0, 0.009865073148759722
874.0, 0.01049613089693803
875.0, 0.005407058856406364
876.0, 0.001547056147494605
877.0, 0.00043318732621948906
878.0, 0.0008788466891934773
879.0, 0.001608079708790085
880.0, 0.0020532013606615928
881.0, 0.003218939919617026
882.0, 0.00704290745091617
883.0, 0.007251497913426325
884.0, 0.004601445914999218
885.0, 0.0027052867783211422
886.0, 0.0011450453523582666
887.0, 0.0039160880284398025
888.0, 0.0065420318049877225
889.0, 0.0018990908312060384
890.0, 0.002668418097940929
891.0, 0.0004157496629449822
892.0, 0.0027579687276424983
893.0, 0.005643977563965858
894.0, 0.007011939391853325
895.0, 0.00600038095356141
896.0, 0.0025948861239228163
897.0, 0.0017254866380008943
898.0, 0.004743308403284236
899.0, 0.0031317659473849976
900.0, 0.0034574679195884476
901.0, 0.0028184972267503287
902.0, 0.00476395871586806
903.0, 0.0054268595624578555
904.0, 0.002072095366331122
905.0, 0.0030226533546747958
906.0, 0.006397842424686537
907.0, 0.000732807209538731
908.0, 0.002005744539343675
909.0, 0.0013720088864047331
910.0, 0.0005005547975902428
911.0, 0.0025832826673980584
912.0, 0.0037889779869115857
913.0, 0.0021511470595696526
914.0, 0.00025095122640095947
915.0, 0.0013509506069995783
916.0, 0.006294946803378903
917.0, 0.005114423989635063
918.0, 0.008530709464097435
919.0, 0.011148514275934612
920.0, 0.007761308272117012
921.0, 0.00554859958321112
922.0, 0.005659142284999456
923.0, 0.007307448861845508
924.0, 0.008918906807777034
925.0, 0.005955006097813061
926.0, 0.0022870796039474455
927.0, 0.003794461230387989
928.0, 0.006489274394320557
929.0, 0.004411745817056384
930.0, 0.004847395545798479
931.0, 0.007020136091263852
932.0, 0.00470527960624677
933.0, 0.0006096975188285273
934.0, 0.0006792650433972057
935.0, 0.0009288421105400812
936.0, 0.0030114442908184477
937.0, 0.0003996993900417566
938.0, 0.0018467027573081112
939.0, 0.004188181257022669
940.0, 0.005739619381574268
941.0, 0.007237120537584464
942.0, 0.005491637931762089
943.0, 0.0013922828100670654
944.0, 0.004018371882665442
945.0, 0.0042761555139769255
946.0, 0.0007147545069691066
947.0, 0.0028057726652954973
948.0, 0.0021233356502382166
949.0, 0.001727145929195047
950.0, 5.661213956400385e-05
951.0, 0.001721286965166775
952.0, 0.0060152492040522094
953.0, 0.0011104122146541563
954.0, 0.0010460275482964247
955.0, 0.0012904136355302016
956.0, 0.0007303870725850419
957.0, 0.004615135411758663
958.0, 0.0018436778798062265
959.0, 0.0009504588850983757
960.0, 0.0009465412067579672
961.0, 0.0011955582057876345
962.0, 0.0018262458424268123
963.0, 0.0027541346582549363
964.0, 0.0006969916276553625
965.0, 0.006337649351191859
966.0, 0.0043590489974136785
967.0, 0.001452923228852224
968.0, 0.0010856277394091915
969.0, 0.0009139418644132534
970.0, 0.0010704680227555815
971.0, 0.00323222121414446
972.0, 0.0031114106724590184
973.0, 0.000701388111421112
974.0, 0.0024194753295590002
975.0, 0.0016701086881209025
976.0, 0.004921038216358902
977.0, 0.007331257245787235
978.0, 0.009089346145279967
979.0, 0.01100720579195591
980.0, 0.010151245744394596
981.0, 0.009057079256940197
982.0, 0.01110413735414809
983.0, 0.009739674029309232
984.0, 0.010342232822129076
985.0, 0.009990324826584695
986.0, 0.008047682813468043
987.0, 0.013836428805586807
988.0, 0.014542531963630848
989.0, 0.011443158834663862
990.0, 0.013918103731375819
991.0, 0.01919800367830043
992.0, 0.020927033741152328
993.0, 0.02234342689944381
994.0, 0.02144418849576149
995.0, 0.02441726527990183
996.0, 0.02903788352122519
997.0, 0.026397610805561134
998.0, 0.03559136721600273
999.0, 0.043445781949843776
1000.0, 0.0440063385485396
1001.0, 0.04760488693749901
1002.0, 0.05584704848075094
1003.0, 0.06100025659666475
1004.0, 0.06757775120793066
1005.0, 0.08932913198664269
1006.0, 0.10027726261852912
1007.0, 0.11692224807435228
1008.0, 0.13473308770064021
1009.0, 0.158060750793309
1010.0, 0.18150052861920501
1011.0, 0.20812228260676072
1012.0, 0.23677218661189836
1013.0, 0.2638544967722116
1014.0, 0.3014168906997175
1015.0, 0.3467211210019321
1016.0, 0.4033055232921594
1017.0, 0.46683100380899195
1018.0, 0.5350428589046051
1019.0, 0.6139153504743888
1020.0, 0.6968121653026771
1021.0, 0.7829926382044183
1022.0, 0.873391214563966
1023.0, 0.9508261285319924
1024.0, 0.9938723106529852
1025.0, 0.9884505244924378
1026.0, 0.9103141380958528
1027.0, 0.7842468114791916
1028.0, 0.6388882399955746
1029.0, 0.5202773402355036
1030.0, 0.41162476415427635
1031.0, 0.33024484833780715
1032.0, 0.2745901295794867
1033.0, 0.23322992829916947
1034.0, 0.20268628968319422
1035.0, 0.17902051524049073
1036.0, 0.1570957409452947
1037.0, 0.12848933618044184
1038.0, 0.11235846527925417
1039.0, 0.09659728967063898
1040.0, 0.08128493625591035
1041.0, 0.06657662524968905
1042.0, 0.05109367900048821
1043.0, 0.045648058183419424
1044.0, 0.03644565720507882
1045.0, 0.024456901561076685
1046.0, 0.02159018478132288
1047.0, 0.017378814668962163
1048.0, 0.011159165456282627
1049.0, 0.013032304276448107
1050.0, 0.006554390787018072
1051.0, 0.012445116280564515
1052.0, 0.008122748535003792
1053.0, 0.006670883179890218
1054.0, 0.007890319877253442
1055.0, 0.007871237785648782
1056.0, 0.00861679592107546
1057.0, 0.0066358749744217915
1058.0, 0.0024287055674321358
1059.0, 0.004181141550017949
1060.0, 0.00413178941303894
1061.0, 0.003143936181577804
1062.0, 0.0033699159551734918
1063.0, 0.001034790578590023
1064.0, 0.0023107838675681864
1065.0, 0.001216849274012634
1066.0, 0.0006517262972154556
1067.0, 0.0007850236665259663
1068.0, 0.0011616036329361074
1069.0, 0.0005519902706772075
1070.0, 0.0008641533249126927
1071.0, 0.00037080853095591376
1072.0, 0.0010807013458282218
1073.0, 0.0033494654559155495
1074.0, 0.010308158835076525
1075.0, 0.009202464426469143
1076.0, 0.005888490199128847
1077.0, 0.010711068064259664
1078.0, 0.014312094546299541
1079.0, 0.022282651995948144
1080.0, 0.026897141833534092
1081.0, 0.02998531178400681
1082.0, 0.03444705127602491
1083.0, 0.03449384919696936
1084.0, 0.045798354260715934
1085.0, 0.05287514904224547
1086.0, 0.059808256144948994
1087.0, 0.06861796546648838
1088.0, 0.07460290738331242
1089.0, 0.08027998601942356
1090.0, 0.08617085534174326
1091.0, 0.09041689732602735
1092.0, 0.09323543256039002
1093.0, 0.09813975343967038
1094.0, 0.10284205865931559
1095.0, 0.10163306364930164
1096.0, 0.09959569208228135
1097.0, 0.10099059980903458
1098.0, 0.09348325235824186
1099.0, 0.09608850366244212
1100.0, 0.09295334618926228
1101.0, 0.08447172877681486
1102.0, 0.07990029331599831
1103.0, 0.07876641622869189
1104.0, 0.07742323045514728
1105.0, 0.07657654827109107
1106.0, 0.07926526455931543
1107.0, 0.08013503795028795
1108.0, 0.07739735889146607
1109.0, 0.07904353716867862
1110.0, 0.08078060829159084
1111.0, 0.07878693133649452
1112.0, 0.07327945543205172
1113.0, 0.06838769805538614
1114.0, 0.06573528233250592
1115.0, 0.055553272038104784
1116.0, 0.05189737174401675
1117.0, 0.045719142680938706
1118.0, 0.0372836463319368
1119.0, 0.03149121567652689
1120.0, 0.029223224715828854
1121.0, 0.02473458758709493
1122.0, 0.017295012647575478
1123.0, 0.01445737513324614
1124.0, 0.010413334758955487
1125.0, 0.009141059290958263
1126.0, 0.007319507438462334
1127.0, 0.004451046531569674
1128.0, 0.007162043956142074
1129.0, 0.006600203012001739
1130.0, 0.0014152985156321437
1131.0, 0.0011282926418920024
1132.0, 0.00017132875569418968
1133.0, 0.0038178289572402967
1134.0, 0.005589039418602733
1135.0, 0.0008727375144867527
1136.0, 0.0006753086913121526
1137.0, 0.0024229057980637574
1138.0, 0.0011523746248739734
1139.0, 0.0023477683985049613
1140.0, 0.0015759693916370832
1141.0, 0.0021012201809311867
1142.0, 0.0002595855216997163
1143.0, 0.0035396311451796497
1144.0, 0.006785406890872344
1145.0, 0.0037066426232896343
1146.0, 0.004741219837070539
1147.0, 0.007835771386631375
1148.0, 0.011771748925545035
1149.0, 0.012660722777039802
1150.0, 0.015024394977878903
1151.0, 0.021325074450494797
1152.0, 0.021007457684097043
1153.0, 0.02599411875474761
1154.0, 0.032098231340631715
1155.0, 0.0259525441402294
1156.0, 0.02804307492717903
1157.0, 0.03576122737667105
1158.0, 0.03634058878627177
1159.0, 0.03520903090939239
1160.0, 0.03719139524594268
1161.0, 0.04029179741518646
1162.0, 0.043056775830841644
1163.0, 0.04567901337024347
1164.0, 0.047495969962352315
1165.0, 0.04888561363620532
1166.0, 0.04955942931264495
1167.0, 0.04861523420576596
1168.0, 0.04947712823536258
1169.0, 0.051918355176819586
1170.0, 0.05092019290462556
1171.0, 0.052120715484156914
1172.0, 0.048325791662350195
1173.0, 0.04431458488132391
1174.0, 0.04546423663027025
1175.0, 0.044856322976348374
1176.0, 0.04261371654765426
1177.0, 0.04272194257486708
1178.0, 0.04554357454421027
1179.0, 0.04239309845078544
1180.0, 0.04025190048777893
1181.0, 0.039363945632676145
1182.0, 0.03562208626007309
1183.0, 0.037439635701974415
1184.0, 0.042146088064086484
1185.0, 0.04729328350620765
1186.0, 0.052667398504141295
1187.0, 0.05610972689694472
1188.0, 0.05854913386388135
1189.0, 0.06551116146839563
1190.0, 0.0737393625238504
1191.0, 0.07800705555787639
1192.0, 0.09694725395550675
1193.0, 0.10947413775054758
1194.0, 0.12290202130758736
1195.0, 0.13151763720795728
1196.0, 0.14823844728038157
1197.0, 0.16295550818413163
1198.0, 0.17094190356302327
1199.0, 0.17952211714921792
1200.0, 0.18178524448593478
1201.0, 0.18128385045359643
1202.0, 0.17013875001144318
1203.0, 0.15718015363657545
1204.0, 0.14660506111137675
1205.0, 0.13028231581459557
1206.0, 0.10944356102340107
1207.0, 0.09480216078299569
1208.0, 0.07779346813622633
1209.0, 0.06461843595066835
1210.0, 0.05757130277778029
1211.0, 0.04842311379909902
1212.0, 0.04399465306542293
1213.0, 0.03872392965200883
1214.0, 0.03207756571343622
1215.0, 0.025156443790326527
1216.0, 0.020481182999041978
1217.0, 0.02082293346228198
1218.0, 0.023757691270614615
1219.0, 0.02285780298386867
1220.0, 0.01558662803639811
1221.0, 0.01446598245557736
1222.0, 0.01116753987415939
1223.0, 0.007392357015612541
1224.0, 0.00258326086911141
1225.0, 0.0069502913852977286
1226.0, 0.008197819977381756
1227.0, 0.005687811836950765
1228.0, 0.0019561716475639665
1229.0, 0.003183311821745814
1230.0, 0.004557585943628474
1231.0, 0.004524446542883578
1232.0, 0.0025890286990966987
1233.0, 0.00012561113236029826
1234.0, 0.0012201370075889683
1235.0, 0.0010580766207685137
1236.0, 0.0010594292020725399
1237.0, 0.0017683543563712031
1238.0, 0.001658998866583181
1239.0, 0.0014211747822150923
1240.0, 0.001285696035069211
1241.0, 0.00459778790651807
1242.0, 0.0007983164079130207
1243.0, 0.0016217447637957533
1244.0, 0.0011485068518368425
1245.0, 0.001680849353013701
1246.0, 0.00017313910176025324
1247.0, 0.0009654446202764629
1248.0, 0.0033841947290643966
1249.0, 0.0052629322445242495
1250.0, 0.004146806685125943
1251.0, 0.000531235342678847
1252.0, 0.0006968947147459477
1253.0, 0.0007194933004556249
1254.0, 0.0009371751145551165
1255.0, 0.0020212636093644753
1256.0, 0.0015299123650638151
1257.0, 0.0035231458478486443
1258.0, 0.005693038070534369
1259.0, 0.002132198374886771
1260.0, 1.6314800091643647e-05
1261.0, 0.003103828169167732
1262.0, 0.00781923775755452
1263.0, 0.008491955195778573
1264.0, 0.009640029388091899
1265.0, 0.0064401875353831805
1266.0, 0.008385838655211133
1267.0, 0.004031974947171645
1268.0, 0.007288841622006275
1269.0, 0.008304736602661221
1270.0, 0.007319343336739238
1271.0, 0.007538120774437444
1272.0, 0.0062671648329859116
1273.0, 0.0037369262547812063
1274.0, 0.0033731194670477455
1275.0, 0.004120351599954242
1276.0, 0.006923254268453064
1277.0, 0.009084636015658926
1278.0, 0.011113992122401757
1279.0, 0.011494678487057083
1280.0, 0.006930818256997586
1281.0, 0.0021866787638661323
1282.0, 0.0030137418235470447
1283.0, 0.003724645890724728
1284.0, 0.00789812398313259
1285.0, 0.011428531898167121
1286.0, 0.00507875547002908
1287.0, 0.006706471971650421
1288.0, 0.003325178863258415
1289.0, 0.0006786105922470822
1290.0, 0.006252840362476529
1291, 0.0
1292, 0.0
1293, 0.0
1294, 0.0
1295, 0.0
1296, 0.0
1297, 0.0
1298, 0.0
1299, 0.0
1300, 0.0
1301, 0.0
1302, 0.0
1303, 0.0
1304, 0.0
1305, 0.0
1306, 0.0
1307, 0.0
1308, 0.0
1309, 0.0
1310, 0.0
1311, 0.0
1312, 0.0
1313, 0.0
1314, 0.0
1315, 0.0
1316, 0.0
1317, 0.0
1318, 0.0
1319, 0.0
1320, 0.0
1321, 0.0
1322, 0.0
1323, 0.0
1324, 0.0
1325, 0.0
1326, 0.0
1327, 0.0
1328, 0.0
1329, 0.0
1330, 0.0
1331, 0.0
1332, 0.0
1333, 0.0
1334, 0.0
1335, 0.0
1336, 0.0
1337, 0.0
1338, 0.0
1339, 0.0
1340, 0.0
1341, 0.0
1342, 0.0
1343, 0.0
1344, 0.0
1345, 0.0
1346, 0.0
1347, 0.0
1348, 0.0
1349, 0.0
1350, 0.0
1351, 0.0
1352, 0.0
1353, 0.0
1354, 0.0
1355, 0.0
1356, 0.0
1357, 0.0
1358, 0.0
1359, 0.0
1360, 0.0
1361, 0.0
1362, 0.0
1363, 0.0
1364, 0.0
1365, 0.0
1366, 0.0
1367, 0.0
1368, 0.0
1369, 0.0
1370, 0.0
1371, 0.0
1372, 0.0
1373, 0.0
1374, 0.0
1375, 0.0
1376, 0.0
1377, 0.0
1378, 0.0
1379, 0.0
1380, 0.0
1381, 0.0
1382, 0.0
1383, 0.0
1384, 0.0
1385, 0.0
1386, 0.0
1387, 0.0
1388, 0.0
1389, 0.0
1390, 0.0
1391, 0.0
1392, 0.0
1393, 0.0
1394, 0.0
1395, 0.0
1396, 0.0
1397, 0.0
1398, 0.0
1399, 0.0
1400, 0.0
1401, 0.0
1402, 0.0
1403, 0.0
1404, 0.0
1405, 0.0
1406, 0.0
1407, 0.0
1408, 0.0
1409, 0.0
1410, 0.0
1411, 0.0
1412, 0.0
1413, 0.0
1414, 0.0
1415, 0.0
1416, 0.0
1417, 0.0
1418, 0.0
1419, 0.0
1420, 0.0
1421, 0.0
1422, 0.0
1423, 0.0
1424, 0.0
1425, 0.0
1426, 0.0
1427, 0.0
1428, 0.0
1429, 0.0
1430, 0.0
1431, 0.0
1432, 0.0
1433, 0.0
1434, 0.0
1435, 0.0
1436, 0.0
1437, 0.0
1438, 0.0
1439, 0.0
1440, 0.0
1441, 0.0
1442, 0.0
1443, 0.0
1444, 0.0
1445, 0.0
1446, 0.0
1447, 0.0
1448, 0.0
1449, 0.0
1450, 0.0
1451, 0.0
1452, 0.0
1453, 0.0
1454, 0.0
1455, 0.0
1456, 0.0
1457, 0.0
1458, 0.0
1459, 0.0
1460, 0.0
1461, 0.0
1462, 0.0
1463, 0.0
1464, 0.0
1465, 0.0
1466, 0.0
1467, 0.0
1468, 0.0
1469, 0.0
1470, 0.0
1471, 0.0
1472, 0.0
1473, 0.0
1474, 0.0
1475, 0.0
1476, 0.0
1477, 0.0
1478, 0.0
1479, 0.0
1480, 0.0
1481, 0.0
1482, 0.0
1483, 0.0
1484, 0.0
1485, 0.0
1486, 0.0
1487, 0.0
1488, 0.0
1489, 0.0
1490, 0.0
1491, 0.0
1492, 0.0
1493, 0.0
1494, 0.0
1495, 0.0
1496, 0.0
1497, 0.0
1498, 0.0
1499, 0.0
1500, 0.0
1501, 0.0
1502, 0.0
1503, 0.0
1504, 0.0
1505, 0.0
1506, 0.0
1507, 0.0
1508, 0.0
1509, 0.0
1510, 0.0
1511, 0.0
1512, 0.0
1513, 0.0
1514, 0.0
1515, 0.0
1516, 0.0
1517, 0.0
1518, 0.0
1519, 0.0
1520, 0.0
1521, 0.0
1522, 0.0
1523, 0.0
1524, 0.0
1525, 0.0
1526, 0.0
1527, 0.0
1528, 0.0
1529, 0.0
1530, 0.0
1531, 0.0
1532, 0.0
1533, 0.0
1534, 0.0
1535, 0.0
1536, 0.0
1537, 0.0
1538, 0.0
1539, 0.0
1540, 0.0
1541, 0.0
1542, 0.0
1543, 0.0
1544, 0.0
1545, 0.0
1546, 0.0
1547, 0.0
1548, 0.0
1549, 0.0
1550, 0.0
1551, 0.0
1552, 0.0
1553, 0.0
1554, 0.0
1555, 0.0
1556, 0.0
1557, 0.0
1558, 0.0
1559, 0.0
1560, 0.0
1561, 0.0
1562, 0.0
1563, 0.0
1564, 0.0
1565, 0.0
1566, 0.0
1567, 0.0
1568, 0.0
1569, 0.0
1570, 0.0
1571, 0.0
1572, 0.0
1573, 0.0
1574, 0.0
1575, 0.0
1576, 0.0
1577, 0.0
1578, 0.0
1579, 0.0
1580, 0.0
1581, 0.0
1582, 0.0
1583, 0.0
1584, 0.0
1585, 0.0
1586, 0.0
1587, 0.0
1588, 0.0
1589, 0.0
1590, 0.0
1591, 0.0
1592, 0.0
1593, 0.0
1594, 0.0
1595, 0.0
1596, 0.0
1597, 0.0
1598, 0.0
1599, 0.0
