30, 0.0
31, 0.0
32, 0.0
33, 0.0
34, 0.0
35, 0.0
36, 0.0
37, 0.0
38, 0.0
39, 0.0
40, 0.0
41, 0.0
42, 0.0
43, 0.0
44, 0.0
45, 0.0
46, 0.0
47, 0.0
48, 0.0
49, 0.0
50.0, 4.59788654610423e-05
51.0, 0.00013350579365617194
52.0, 0.0002702507581474426
53.0, 0.0003250095899490195
54.0, 0.00030671984434856286
55.0, 0.00022245355497059303
56.0, 0.0003657011465896898
57.0, 0.0003683651226157248
58.0, 0.00034144563950778837
59.0, 0.00048127807600560195
60.0, 0.00046816382220957507
61.0, 0.0004599937684117918
62.0, 0.0004922553432995449
63.0, 0.00040824060419268073
64.0, 0.0003596502137280295
65.0, 0.00033429333100129754
66.0, 0.0003192957136176202
67.0, 0.0003444347954434496
68.0, 0.0003907113513513191
69.0, 0.0004431178187073867
70.0, 0.00028051289962557137
71.0, 0.00038424692836244967
72.0, 0.0005649531162692878
73.0, 0.0005513457056059478
74.0, 0.0005265972617500126
75.0, 0.0004738679326446854
76.0, 0.00038873722604378943
77.0, 0.00027751344385128305
78.0, 0.00016711535660854804
79.0, 0.00010086389200739079
80.0, 0.00015225956142697372
81.0, 0.0002451347692329692
82.0, 0.00022905426311288998
83.0, 9.609680309668176e-05
84.0, 5.122270135586121e-05
85.0, 0.00012285188226055286
86.0, 0.00019823827449378783
87.0, 0.00015636646731568497
88.0, 0.0001386158962379593
89.0, 0.0002119471710674223
90.0, 0.00037554608937058367
91.0, 0.0005658326759131084
92.0, 0.0007253343434931763
93.0, 0.000821193469252555
94.0, 0.0008087583840499364
95.0, 0.0011627693402800376
96.0, 0.0014671847175101416
97.0, 0.0016835117356181766
98.0, 0.0017751256203797213
99.0, 0.001834348633152929
100.0, 0.0019349127175459005
101.0, 0.002129898217961383
102.0, 0.0023957616926663216
103.0, 0.002697957144290926
104.0, 0.0029886353939350316
105.0, 0.003112023971276603
106.0, 0.0029595586887320997
107.0, 0.0030571158890458435
108.0, 0.003645199933159193
109.0, 0.003434016760836537
110.0, 0.0035905194572953473
111.0, 0.003927028616631479
112.0, 0.004081930633400454
113.0, 0.004419594930329594
114.0, 0.004588057469300589
115.0, 0.004507220628119961
116.0, 0.004648836054741985
117.0, 0.004974418550281788
118.0, 0.005220048869570559
119.0, 0.0049968019932503825
120.0, 0.00521219152139534
121.0, 0.005378986819705243
122.0, 0.005438996138889492
123.0, 0.005538748664753838
124.0, 0.005722370157650295
125.0, 0.005820747915505579
126.0, 0.005672307650569907
127.0, 0.005743751317501154
128.0, 0.005846259690843525
129.0, 0.0059645964926959925
130.0, 0.006095532700339564
131.0, 0.006362607935814422
132.0, 0.006579681829953474
133.0, 0.006652656903952836
134.0, 0.006784258678402751
135.0, 0.0068266837778428804
136.0, 0.006929691075551352
137.0, 0.007442834443689322
138.0, 0.007600753023034174
139.0, 0.007880314604519472
140.0, 0.008365104222705148
141.0, 0.00842426382948782
142.0, 0.00871192199731615
143.0, 0.00918133909401582
144.0, 0.00982798463222445
145.0, 0.010607227165149372
146.0, 0.011301367819525256
147.0, 0.011941926513566473
148.0, 0.01282386935108604
149.0, 0.01421223204513305
150.0, 0.01570550700510679
151.0, 0.01708762329630929
152.0, 0.019492976078162545
153.0, 0.02198731586831146
154.0, 0.02459150125341182
155.0, 0.027430427534742854
156.0, 0.03066968819888124
157.0, 0.0345014980481205
158.0, 0.03900990329346052
159.0, 0.0441427272882725
160.0, 0.04924579955910682
161.0, 0.054230743374544955
162.0, 0.0589671482092588
163.0, 0.06406911853976856
164.0, 0.06851105534486511
165.0, 0.07210977075983327
166.0, 0.07439342683810414
167.0, 0.07486530698295624
168.0, 0.07429577095563737
169.0, 0.07293496795873752
170.0, 0.06649538764626499
171.0, 0.0608562668840825
172.0, 0.055260950004237044
173.0, 0.04824297591701806
174.0, 0.042235671010432414
175.0, 0.03685920912986614
176.0, 0.0320204095750932
177.0, 0.027458278987161324
178.0, 0.024151598838200342
179.0, 0.02120435012712235
180.0, 0.017983318952060907
181.0, 0.015861098205275398
182.0, 0.013916111873963825
183.0, 0.012273626852901856
184.0, 0.011484133006579288
185.0, 0.01041729786135268
186.0, 0.009423767382156329
187.0, 0.008622626096020611
188.0, 0.008113243535092941
189.0, 0.007403187141574164
190.0, 0.006897539924962915
191.0, 0.0070815966217886335
192.0, 0.006570533717095431
193.0, 0.006090901467699201
194.0, 0.005764831465243499
195.0, 0.005831578759547269
196.0, 0.005559815748694576
197.0, 0.005113107508939144
198.0, 0.0045530282632712015
199.0, 0.004192192331205985
200.0, 0.0040946398002731825
201.0, 0.004111864623496712
202.0, 0.004076255695814355
203.0, 0.00412114056323575
204.0, 0.003986449152772085
205.0, 0.0037011225821958326
206.0, 0.0035033123373917376
207.0, 0.0035014124871889244
208.0, 0.0035253788553486843
209.0, 0.0034941557103272238
210.0, 0.0030750694666074993
211.0, 0.0031871177327508116
212.0, 0.003359473504478986
213.0, 0.002955439647454624
214.0, 0.00304554883819593
215.0, 0.003068273291350923
216.0, 0.0029742714683215457
217.0, 0.0028306222318680604
218.0, 0.0026987685686872633
219.0, 0.002576324027423654
220.0, 0.0024681579198661823
221.0, 0.002517639074244062
222.0, 0.002450180725339209
223.0, 0.0024281171731045876
224.0, 0.0026704463791300897
225.0, 0.0026289337498789965
226.0, 0.002552384760934161
227.0, 0.002498929451823133
228.0, 0.002593545995039125
229.0, 0.002499633756350487
230.0, 0.002300930903897103
231.0, 0.0020498366306131296
232.0, 0.0022480053122775757
233.0, 0.002446173993942019
234.0, 0.0025165260741282568
235.0, 0.0022997057899543645
236.0, 0.0023610519907635735
237.0, 0.002575530064215653
238.0, 0.002751376796515908
239.0, 0.0023422176744578044
240.0, 0.0023862637556027176
241.0, 0.0024927688823645744
242.0, 0.002539015079738787
243.0, 0.0023680114685721435
244.0, 0.0025257694154777084
245.0, 0.0028460212033950202
246.0, 0.003224757917842986
247.0, 0.002897108492759273
248.0, 0.0026374020173699194
249.0, 0.002564817801831653
250.0, 0.0029145300684078747
251.0, 0.0029489744396056267
252.0, 0.0028923379669829326
253.0, 0.0028358233521182186
254.0, 0.003067416262391586
255.0, 0.0031063489284725333
256.0, 0.0031148609302327833
257.0, 0.0031624192635105837
258.0, 0.0029930779391659497
259.0, 0.003040093664123434
260.0, 0.003224544075191597
261.0, 0.0034719822987223964
262.0, 0.0031967940948213823
263.0, 0.003086794477667958
264.0, 0.003124190838795339
265.0, 0.0030899686020733124
266.0, 0.00308005042579018
267.0, 0.003266661198016998
268.0, 0.0036428677189674664
269.0, 0.0036683038849531975
270.0, 0.0035791518347935082
271.0, 0.0034400580382380804
272.0, 0.003288729323503146
273.0, 0.0035377522221986635
274.0, 0.0035432709540277637
275.0, 0.0034886922273986505
276.0, 0.003663807552117019
277.0, 0.003933221990034463
278.0, 0.004204993353072014
279.0, 0.004408564281281981
280.0, 0.004317044644512454
281.0, 0.004501805798904872
282.0, 0.004692753021883587
283.0, 0.0048285579556152135
284.0, 0.005183591543272115
285.0, 0.005549613914336462
286.0, 0.005788000257933619
287.0, 0.005785553966023075
288.0, 0.006684938079518292
289.0, 0.007143016576294992
290.0, 0.00738642833492829
291.0, 0.007772211552503857
292.0, 0.008563751676969888
293.0, 0.00939023708722631
294.0, 0.010089169991637935
295.0, 0.01023669714916921
296.0, 0.011116663220582525
297.0, 0.012467297978503555
298.0, 0.014115640569866481
299.0, 0.01511550807107253
300.0, 0.016652439358396155
301.0, 0.018384034823088764
302.0, 0.020128798264550184
303.0, 0.02295309815698599
304.0, 0.02613908611153766
305.0, 0.030044129480639892
306.0, 0.035230750493110044
307.0, 0.04111750854125775
308.0, 0.04916579235979321
309.0, 0.059104954467375195
310.0, 0.07020507670566224
311.0, 0.0853852423507303
312.0, 0.10112883224296096
313.0, 0.11726645841568938
314.0, 0.13684938026683666
315.0, 0.15123143547033588
316.0, 0.15992711810346602
317.0, 0.1624263376206197
318.0, 0.1594172939909907
319.0, 0.1487260319638489
320.0, 0.1332688989528677
321.0, 0.11495937591996197
322.0, 0.09678421273489182
323.0, 0.08106685372225735
324.0, 0.06739293591788455
325.0, 0.0553027947800238
326.0, 0.04617062837780445
327.0, 0.038785584950164355
328.0, 0.03292466791680493
329.0, 0.028487516318791522
330.0, 0.02455659307035143
331.0, 0.021099732975575356
332.0, 0.018287500777611786
333.0, 0.017089092012059263
334.0, 0.015753430576236953
335.0, 0.014418072411093861
336.0, 0.01319600257893637
337.0, 0.012813748408799409
338.0, 0.012426892064103467
339.0, 0.012283700615331012
340.0, 0.0125873587516478
341.0, 0.013609449025456896
342.0, 0.014486361236412127
343.0, 0.01604663716457216
344.0, 0.0194567316010434
345.0, 0.02433166650035273
346.0, 0.029441468997983902
347.0, 0.03447857793791175
348.0, 0.038946338606224616
349.0, 0.03911521561180099
350.0, 0.036775693294598746
351.0, 0.0322375841199175
352.0, 0.025432294836188498
353.0, 0.019779209683390774
354.0, 0.015099065064454196
355.0, 0.011389170891857398
356.0, 0.008849666563429
357.0, 0.007168946793449136
358.0, 0.005831881015694422
359.0, 0.004667024587697483
360.0, 0.004563730108159513
361.0, 0.003972099598792252
362.0, 0.003460053188182923
363.0, 0.0034597974771671683
364.0, 0.0028900007381664496
365.0, 0.0027190498428791804
366.0, 0.0026982703518614866
367.0, 0.0025347181694206026
368.0, 0.002170961730333724
369.0, 0.002077862496829378
370.0, 0.002158991005743657
371.0, 0.0022063247543082708
372.0, 0.002267745285478637
373.0, 0.002080843211737207
374.0, 0.001694325290840872
375.0, 0.0013202275301410122
376.0, 0.0016164291907884434
377.0, 0.0017478953456549382
378.0, 0.0016235950395139247
379.0, 0.0015968539479929357
380.0, 0.0016666914833447604
381.0, 0.0015445381269202402
382.0, 0.0012269701218983438
383.0, 0.0013651670772960463
384.0, 0.0013796098634427452
385.0, 0.0013479005093860847
386.0, 0.0013030136607241087
387.0, 0.0012299908483372492
388.0, 0.0012440496566082791
389.0, 0.0012416837959736368
390.0, 0.0011476587217912695
391.0, 0.0007737996036311643
392.0, 0.0007190992993435954
393.0, 0.0008639923342134384
394.0, 0.0011087657579047843
395.0, 0.001110927014341406
396.0, 0.0010164754678638358
397.0, 0.0007837052641383407
398.0, 0.00034618663244409455
399.0, 0.000673853668362373
400.0, 0.0005376951165983472
401.0, 0.0002604478145049319
402.0, 0.0005128919635072693
403.0, 0.00040100671631360975
404.0, 0.00037955264314423184
405.0, 0.0004663540782679505
406.0, 0.0006052528184488866
407.0, 0.00023881322386622728
408.0, 0.00016479607900011037
409.0, 0.00033569462619656556
410.0, 0.0002396363600073971
411.0, 0.00038194415855661283
412.0, 0.0003361359665119167
413.0, 9.810086079466973e-05
414.0, 2.1136473530181323e-05
415.0, 0.0003507289078539933
416.0, 0.00039105691458819286
417.0, 6.751906725468907e-05
418.0, 5.6823286989094207e-05
419.0, 0.00016504025264928553
420.0, 0.0001853628865966198
421.0, 0.00014125916996769858
422.0, 0.0007539789108483199
423.0, 0.0006434632159713636
424.0, 0.0004097061311231422
425.0, 0.00029960850733955755
426.0, 0.00011480952037563943
427.0, 7.733051499962684e-05
428.0, 6.96355148982605e-05
429.0, 3.619801785887297e-05
430.0, 9.133467242009748e-05
431.0, 0.00022927112141378505
432.0, 0.00028141997316099074
433.0, 0.00014700714177378937
434.0, 0.0001265091725079076
435.0, 0.00012526214949239148
436.0, 0.00010558885513282269
437.0, 4.545372339783785e-05
438.0, 0.00028265968305941853
439.0, 0.0002983201940359794
440.0, 0.00020231535177228733
441.0, 9.06999530134905e-05
442.0, 8.1294172880921e-05
443.0, 0.00015412705088812365
444.0, 0.0002646729547599932
445.0, 0.0003679541947617299
446.0, 0.00018716162254108133
447.0, 7.778545220855951e-05
448.0, 6.445581020898823e-05
449.0, 0.00017418581653593719
450.0, 6.210914521780569e-05
451.0, 0.0003070870818654244
452.0, 0.0005011468839373236
453.0, 0.00010136835478883564
454.0, 0.00010053143111362503
455.0, 0.0001754939545340344
456.0, 0.00032146497956604914
457.0, 0.0005525483137259438
458.0, 0.00045441413822950026
459.0, 0.00023582984823679602
460.0, 0.00013832003145184752
461.0, 0.0005112034649006391
462.0, 0.00021598726189142055
463.0, 0.00020924770152774084
464.0, 0.00031621081384279257
465.0, 0.00017949767754273007
466.0, 0.00026852237224875525
467.0, 0.00028889268159270064
468.0, 0.00027352064837217775
469.0, 0.0003065833885868874
470.0, 0.00041494197754004115
471.0, 0.00034645366629211803
472.0, 0.00024416826964352676
473.0, 0.0003754972433283497
474.0, 0.00031394214011808044
475.0, 0.00022070790380653328
476.0, 0.00019459066149102647
477.0, 0.0003847845646146788
478.0, 0.00036352036767346615
479.0, 0.0004324760137434545
480.0, 0.0005180933295303381
481.0, 0.0004604886243888651
482.0, 0.0004148433001825184
483.0, 0.0004622197877295469
484.0, 0.00056709673943283
485.0, 0.0006640509225432265
486.0, 0.0005777438227374993
487.0, 0.0005075032219250304
488.0, 0.0004150586750792559
489.0, 0.00021813291593737537
490.0, 0.0002802122492783315
491.0, 0.00023490534801811185
492.0, 0.00016949556811206466
493.0, 0.00024622207200359616
494.0, 9.550882023135938e-05
495.0, 7.04710254815828e-05
496.0, 0.00010345755107441259
497.0, 7.62781174410982e-05
498.0, 0.00025440402361791845
499.0, 0.00019711484118746866
500.0, 7.214835689437396e-05
501.0, 0.00011768690177268868
502.0, 0.0005650787208668041
503.0, 0.0005703739173131815
504.0, 0.00036846181502593937
505.0, 0.0002608096280439871
506.0, 0.00011642634540132352
507.0, 5.6953789566100206e-05
508.0, 0.00011398889783480842
509.0, 0.00031795183899192787
510.0, 0.00039347381200651604
511.0, 0.0003865073884191223
512.0, 0.0003711371386502882
513.0, 0.0004109430563255409
514.0, 0.0001800292272197162
515.0, 0.00046692702457914916
516.0, 0.000619374599301774
517.0, 0.0001436359010260948
518.0, 9.610991263595822e-05
519.0, 0.00021155584784821721
520.0, 0.0002766202658901618
521.0, 0.0001690424408389174
522.0, 0.00033586149645222933
523.0, 0.0005831233685605614
524.0, 0.0005407230227496186
525.0, 0.00010305024837320637
526.0, 0.000550747822348713
527.0, 0.0003938728069106618
528.0, 0.00022909144448790352
529.0, 0.00031402906435206617
530.0, 0.0003576066082193579
531.0, 0.00026979681392079013
532.0, 0.0003113596247935869
533.0, 0.0004930121488465043
534.0, 0.0002601024522403198
535.0, 0.0001627962405464153
536.0, 8.375443628383976e-05
537.0, 2.2213932557074903e-05
538.0, 0.00014206429814287
539.0, 0.0004664117537194319
540.0, 0.000550258184840898
541.0, 0.00045115488722106603
542.0, 0.0007397700578925389
543.0, 0.00031215400376310434
544.0, 0.0002271744239915519
545.0, 0.00048423484020561304
546.0, 0.0005728180301001264
547.0, 0.0006750828629157949
548.0, 0.00047047356468771955
549.0, 0.00015176236648306444
550.0, 0.00017853725078972204
551.0, 0.00016235077976306614
552.0, 0.00019885940425392966
553.0, 0.0002182621115641969
554.0, 0.00010447890318081463
555.0, 0.00014239396765863913
556.0, 0.0001456790133951707
557.0, 0.00014091235422411302
558.0, 0.00016567787820635562
559.0, 0.000145331403475904
560.0, 7.235794783061824e-05
561.0, 3.614442649455018e-05
562.0, 0.00010237693025673292
563.0, 4.113727580687013e-05
564.0, 0.0002274378650630979
565.0, 0.00028777439305878926
566.0, 4.968949547473022e-05
567.0, 0.00013616206270757286
568.0, 6.963694412478675e-05
569.0, 5.967895749872085e-05
570.0, 0.00022332714300604044
571.0, 0.0006929625749525258
572.0, 0.0005911711239757533
573.0, 0.00034587323723955093
574.0, 0.00013206776172318838
575.0, 0.00011005528803661991
576.0, 0.00015375060897066922
577.0, 0.00035751644750675355
578.0, 0.0005285460247623926
579.0, 0.00012024189873082266
580.0, 4.7036020909817255e-05
581.0, 0.00016165880951370915
582.0, 0.0003390538845046601
583.0, 0.0003934707639428726
584.0, 0.00040379413126542964
585.0, 0.0003432131865832484
586.0, 0.000267478091293386
587.0, 0.0002444745643095557
588.0, 0.0002988864465306165
589.0, 0.00023522965735220437
590.0, 0.0002298061590451784
591.0, 0.000399031510859405
592.0, 0.0002712781638898652
593.0, 0.00018007530768520641
594.0, 9.185644993451637e-05
595.0, 2.8987625587952113e-05
596.0, 0.00028355120514178143
597.0, 0.0002574514414781064
598.0, 0.00014378496463504664
599.0, 4.540030587103486e-05
600.0, 0.00010407262440352253
601.0, 5.160156146174972e-05
602.0, 4.203964458800147e-05
603.0, 8.183660786093676e-05
604.0, 0.00010754078165283785
605.0, 6.07807551793444e-05
606.0, 9.764007586366579e-05
607.0, 0.00015572670845633826
608.0, 0.00011410452824390689
609.0, 0.0002872884740820847
610.0, 0.0003076980584009835
611.0, 0.00019850095326225253
612.0, 8.910836300279402e-06
613.0, 5.96145473537847e-05
614.0, 0.00012144361647881823
615.0, 0.00021746919297186814
616.0, 0.00032964326247247227
617.0, 0.0001983674974913029
618.0, 0.00012185114206358126
619.0, 0.00011480737922194482
620.0, 0.00016470144373729155
621.0, 0.0001991138385976831
622.0, 0.0002267772013799907
623.0, 0.0003069696123490278
624.0, 0.00041310147298903696
625.0, 0.00045686759831430296
626.0, 0.00020047502054550235
627.0, 6.146520848641652e-05
628.0, 6.227249173993259e-05
629.0, 0.00017870280102722842
630.0, 0.00025214791694204663
631.0, 0.00026513666095912415
632.0, 0.00022163518637200109
633.0, 0.0001327611262028133
634.0, 7.782529496601993e-05
635.0, 0.0002869594966775063
636.0, 0.00038551291420241117
637.0, 0.00027102970246889414
638.0, 0.00031570210467520644
639.0, 0.00037856623131025534
640.0, 0.0002801066403096832
641.0, 8.096803695642585e-05
642.0, 5.7121415691235724e-05
643.0, 0.0001108185203892567
644.0, 0.00013485835213267164
645.0, 0.00010600814039379669
646.0, 9.73499035447868e-06
647.0, 0.0001320246289860148
648.0, 0.0002886878503684861
649.0, 0.00031421617912611404
650.0, 0.00011479409182688546
651.0, 0.00016171434620840296
652.0, 0.0001046193552703273
653.0, 0.00012377295345931117
654.0, 0.0002435422891012498
655.0, 0.0002037986230640852
656.0, 0.0001915694907676538
657.0, 0.00012850920330124938
658.0, 4.0024559259318165e-05
659.0, 2.3728542605368867e-05
660.0, 6.560509897724616e-05
661.0, 0.00017032059670556146
662.0, 0.00024004425131287215
663.0, 0.00016119197637929996
664.0, 5.998876244751351e-05
665.0, 0.0001028878241395958
666.0, 0.00028342920785033685
667.0, 0.0005381554257951187
668.0, 0.00044378120704159787
669.0, 0.00034931147845215695
670.0, 0.0002936468746065627
671.0, 0.00032254960827154857
672.0, 0.000538982689852706
673.0, 0.0005892751159805933
674.0, 0.00035233651659545995
675.0, 0.00015262639034478525
676.0, 0.0005084591655923013
677.0, 0.00015303441795744036
678.0, 0.00024194363417940666
679.0, 0.00034509118424300075
680.0, 0.0001740529366978333
681.0, 0.000579112858457093
682.0, 0.000576248413939656
683.0, 0.0004457686857465732
684.0, 0.0004321131904794931
685.0, 0.0010239021073314748
686.0, 0.0006190909529629404
687.0, 0.0003123009113945889
688.0, 0.0003433466969690567
689.0, 0.0007944120880808924
690.0, 0.0004406733043749893
691.0, 0.000977739288312146
692.0, 0.0013552159466566978
693.0, 0.0007429620071326413
694.0, 0.0005472206977523613
695.0, 0.0007425066032947801
696.0, 0.000600650779287384
697.0, 0.0001516999289278552
698.0, 0.0006194867587793335
699.0, 0.0005388237063863907
700.0, 0.0006943738197036536
701.0, 0.0008802028370109806
702.0, 0.000549693787025245
703.0, 0.0006333422898578288
704.0, 0.0007147498773453119
705.0, 0.0008326014472664748
706.0, 0.0009638057179044983
707.0, 0.0005376833567949822
708.0, 0.0004200920924253191
709.0, 0.0005861247527852463
710.0, 0.0009789379227289198
711.0, 0.0014507065850549378
712.0, 0.0011857079074036258
713.0, 0.0008390391835429753
714.0, 0.0006409164129189437
715.0, 0.0007776021496913345
716.0, 0.0008360069201819923
717.0, 0.0009908718361858518
718.0, 0.0009059402463315241
719.0, 0.0005732432302422697
720.0, 0.0012840620741053962
721.0, 0.001445563503834106
722.0, 0.0014625934066662051
723.0, 0.0015257927414764137
724.0, 0.0018199731543606153
725.0, 0.0012974925390190298
726.0, 0.0014773058414426221
727.0, 0.0018021137280747918
728.0, 0.0016307783823604506
729.0, 0.0015186432480951556
730.0, 0.0020391293856343432
731.0, 0.002286141352040244
732.0, 0.002110743341385726
733.0, 0.002468406812930549
734.0, 0.002232028716926352
735.0, 0.002245805730861328
736.0, 0.0025963234824173385
737.0, 0.0031971693161546213
738.0, 0.00321059757279194
739.0, 0.0032688084835284245
740.0, 0.003489441532243508
741.0, 0.0038628785787471766
742.0, 0.0038872695711809633
743.0, 0.0047116619518681865
744.0, 0.00516039767426805
745.0, 0.005289520618607229
746.0, 0.005837089470232214
747.0, 0.0063713957223725005
748.0, 0.006263722076897502
749.0, 0.006441565978673628
750.0, 0.007579662756696148
751.0, 0.008106758801099076
752.0, 0.009220335668888224
753.0, 0.010348344504675236
754.0, 0.011450836842881862
755.0, 0.01296977283815265
756.0, 0.014843095753305382
757.0, 0.017003324331914857
758.0, 0.019916389629402863
759.0, 0.024074184803118397
760.0, 0.029735033062491752
761.0, 0.03725809753326638
762.0, 0.04589202707950532
763.0, 0.055294638527203406
764.0, 0.06548071084676907
765.0, 0.07575407609427631
766.0, 0.08226048864578067
767.0, 0.08325524127282792
768.0, 0.07768805784933969
769.0, 0.0713546288809564
770.0, 0.060934361281572924
771.0, 0.05012427843450266
772.0, 0.041230648981906926
773.0, 0.035779299232934166
774.0, 0.029443290892017478
775.0, 0.024916788009414007
776.0, 0.021946548137432045
777.0, 0.01950769588101972
778.0, 0.016805258774602202
779.0, 0.015799282498375117
780.0, 0.014774062055095115
781.0, 0.0132523314652298
782.0, 0.013251129939955602
783.0, 0.013204665692838928
784.0, 0.012810382612964933
785.0, 0.012402788166910728
786.0, 0.012519638323743318
787.0, 0.013026095621498894
788.0, 0.01288303978822459
789.0, 0.012514898715665426
790.0, 0.012145017603923653
791.0, 0.011693414647040224
792.0, 0.012041905757615936
793.0, 0.012227326214653571
794.0, 0.012196662713912875
795.0, 0.01211913656630858
796.0, 0.01267385499270254
797.0, 0.012649502769862781
798.0, 0.01240752277200492
799.0, 0.012373724543030236
800.0, 0.013412178040072449
801.0, 0.013524175531796273
802.0, 0.013997620017186695
803.0, 0.01468734935071018
804.0, 0.015224223669344948
805.0, 0.01639896952600856
806.0, 0.017585138082775193
807.0, 0.018485761026411116
808.0, 0.019588465873815804
809.0, 0.022815329250544816
810.0, 0.02409820494596565
811.0, 0.025678332086987936
812.0, 0.028232394445373205
813.0, 0.031801727356597045
814.0, 0.03174024213061053
815.0, 0.03380763039992301
816.0, 0.03455732689713252
817.0, 0.03374022422920444
818.0, 0.03380610579169025
819.0, 0.03089330510581635
820.0, 0.029149169353960065
821.0, 0.0280778955260449
822.0, 0.027094596583313483
823.0, 0.026763851332809552
824.0, 0.02705082226361093
825.0, 0.027031675170374893
826.0, 0.02671304204925457
827.0, 0.02655716519547617
828.0, 0.027281770561044437
829.0, 0.026898435741521055
830.0, 0.026965344331138733
831.0, 0.028314873206869137
832.0, 0.03016468262538338
833.0, 0.03045470664589094
834.0, 0.03163132150152939
835.0, 0.03289304878055141
836.0, 0.03277492825608788
837.0, 0.03352716201402906
838.0, 0.034947482329461835
839.0, 0.035994521266607876
840.0, 0.036861113422099676
841.0, 0.03936497175777326
842.0, 0.040899114933616726
843.0, 0.042179201118250687
844.0, 0.04383693348213385
845.0, 0.046197680057235686
846.0, 0.047907226884290145
847.0, 0.05072257605490467
848.0, 0.05356047509349926
849.0, 0.05644967197881673
850.0, 0.05993089373611934
851.0, 0.06796192487109359
852.0, 0.07350033879758837
853.0, 0.07984658555467321
854.0, 0.08891326408001606
855.0, 0.10059114504132186
856.0, 0.10928221414462297
857.0, 0.12469468509853217
858.0, 0.14484624998630652
859.0, 0.16656597891901007
860.0, 0.19647798142023087
861.0, 0.2334716891131305
862.0, 0.28116261439713425
863.0, 0.34809251308926337
864.0, 0.4479667199599618
865.0, 0.5552742087756749
866.0, 0.6900588170116368
867.0, 0.8374849417490955
868.0, 0.967344610466195
869.0, 0.9967109679606249
870.0, 0.9619393739535197
871.0, 0.8543911215701318
872.0, 0.7074531398162016
873.0, 0.5641850572862164
874.0, 0.44524283333972253
875.0, 0.3457365903500088
876.0, 0.26779930907351546
877.0, 0.20997953004493866
878.0, 0.16721355913887848
879.0, 0.13837620998351965
880.0, 0.11427389384866432
881.0, 0.09545562258352047
882.0, 0.08140607149430958
883.0, 0.06929566810855793
884.0, 0.061296820456969284
885.0, 0.05386872466264029
886.0, 0.0475534595459339
887.0, 0.0429775270531408
888.0, 0.037381996168928594
889.0, 0.0345246407225797
890.0, 0.032418514923928804
891.0, 0.030128618947316603
892.0, 0.027066989720242355
893.0, 0.025474068622010983
894.0, 0.02357012335978038
895.0, 0.02188085243942791
896.0, 0.0206017243526866
897.0, 0.01953716503003967
898.0, 0.018338598901566684
899.0, 0.018081273193714255
900.0, 0.017501694989110163
901.0, 0.015972067503019563
902.0, 0.015886205600245604
903.0, 0.01614799118221175
904.0, 0.016078865147974367
905.0, 0.015544833121523422
906.0, 0.014628416692312816
907.0, 0.01422221245647517
908.0, 0.012880349117181587
909.0, 0.012181661716927996
910.0, 0.011908210266394768
911.0, 0.01066700311398902
912.0, 0.011135026665064307
913.0, 0.010809963538781197
914.0, 0.00988796283088478
915.0, 0.008883226776477902
916.0, 0.008944380713626465
917.0, 0.008734140731434773
918.0, 0.008656118009861807
919.0, 0.008678439357640969
920.0, 0.008583725431597241
921.0, 0.0075346967836202264
922.0, 0.007134468098681888
923.0, 0.0069043845933611184
924.0, 0.006813815810788267
925.0, 0.006899829355467356
926.0, 0.007073785485243516
927.0, 0.006028972073304691
928.0, 0.006021437693188468
929.0, 0.0066186246848103265
930.0, 0.006141547106383295
931.0, 0.005958487031211545
932.0, 0.006307125692378797
933.0, 0.006449039235997632
934.0, 0.00636388624753073
935.0, 0.006732211875123857
936.0, 0.006437728586780021
937.0, 0.006083285913477289
938.0, 0.005958335270986297
939.0, 0.006204085465415605
940.0, 0.006750430678092827
941.0, 0.006309366592658005
942.0, 0.005985085549241271
943.0, 0.00567369436390019
944.0, 0.0053964897526116475
945.0, 0.006072767969850699
946.0, 0.006009738453052632
947.0, 0.005777782795813924
948.0, 0.005666008479178309
949.0, 0.005748643129093472
950.0, 0.004974353342356292
951.0, 0.005404530492461862
952.0, 0.005542736782134012
953.0, 0.005249042813099179
954.0, 0.004870508800393274
955.0, 0.004886725251000328
956.0, 0.003804912610308511
957.0, 0.0035316795418781828
958.0, 0.003864498478065292
959.0, 0.0034035155797332434
960.0, 0.003242370013016997
961.0, 0.0026866325905115346
962.0, 0.002025121847968999
963.0, 0.0016827001900626979
964.0, 0.0022648890878136313
965.0, 0.001777074845555772
966.0, 0.0017016360672864308
967.0, 0.0018723842140225063
968.0, 0.0020094459446893705
969.0, 0.0016620399571121533
970.0, 0.0016328455360642502
971.0, 0.0013123230256479783
972.0, 0.0008823493919348544
973.0, 0.0005035304023383881
974.0, 0.00023010416608496993
975.0, 0.0006483079939146961
976.0, 0.0004657874910696538
977.0, 0.0003773329612686315
978.0, 0.0007763791788360991
979.0, 0.0007134581547621883
980.0, 0.0002697864998047917
981.0, 0.00037449469536286235
982.0, 0.00047061315014424354
983.0, 0.00014854618600164526
984.0, 0.0003670849642604134
985.0, 0.000609240721223802
986.0, 0.0005595513858704684
987.0, 0.00045367009300676406
988.0, 0.0005095433353620521
989.0, 0.00028509089011056435
990.0, 0.000284836670640655
991.0, 0.00019539843486110709
992.0, 0.0001807166119542904
993.0, 0.00038853340851327566
994.0, 9.718622264436239e-05
995.0, 0.0002952901506227286
996.0, 0.00043756281103030954
997.0, 0.0003445326245672839
998.0, 1.9341908128471426e-05
999.0, 4.368078171531166e-05
1000.0, 0.0003893544403977741
1001.0, 0.0006286940524052484
1002.0, 0.0006337385912376343
1003.0, 0.000427462486113474
1004.0, 0.00043087265001491446
1005.0, 0.00038066980846773203
1006.0, 0.00025397198903752275
1007.0, 0.0003037488199190417
1008.0, 0.00074830543460825
1009.0, 0.0001473767909882918
1010.0, 0.00021739225880168425
1011.0, 0.00024000730210081413
1012.0, 0.00021170092368482838
1013.0, 0.00038361735156708246
1014.0, 0.0004038021572620212
1015.0, 0.00023848437385287147
1016.0, 0.0003527329647621847
1017.0, 0.0005148490325367558
1018.0, 0.00025717871360303213
1019.0, 0.0002107425442348708
1020.0, 0.0002734683754336691
1021.0, 0.0001852397864616507
1022.0, 0.00017768189463313362
1023.0, 0.0006150707407603197
1024.0, 0.0007335899866893138
1025.0, 0.0002803042184944472
1026.0, 0.00039277025334603715
1027.0, 0.0008140204904533309
1028.0, 0.0007596612833797865
1029.0, 0.0005691063523730263
1030.0, 0.0005796896855959885
1031.0, 0.0003712941571011053
1032.0, 0.0002673959747895318
1033.0, 0.0007026481668306598
1034.0, 0.0002654812373987136
1035.0, 0.0003876213679775034
1036.0, 0.0005935241651537064
1037.0, 0.0005525870953909421
1038.0, 0.00014948856650047276
1039.0, 0.0005800308429228299
1040.0, 0.0003497328575239333
1041.0, 0.0003072639867367851
1042.0, 0.00035579166383589434
1043.0, 0.0002003803246515973
1044.0, 0.00020568337323180044
1045.0, 0.0006030762603451429
1046.0, 0.0007858561250793078
1047.0, 0.0005576745933769331
1048.0, 2.2709073015953312e-05
1049.0, 0.00019365338298646764
1050.0, 0.00043149594404481346
1051.0, 0.00033121075483984256
1052.0, 0.00012655961929359069
1053.0, 9.421182163901316e-05
1054.0, 0.00013209783607649126
1055.0, 0.00031588875857187346
1056.0, 0.00023006270538049507
1057.0, 7.681835848863524e-05
1058.0, 8.927462145953162e-05
1059.0, 0.00030693476797197337
1060.0, 0.0002543190475948076
1061.0, 0.0002084886212662882
1062.0, 0.0004488958272928083
1063.0, 0.0008396427690953197
1064.0, 0.00033790854064959334
1065.0, 8.351481136570435e-05
1066.0, 0.0002800569865109006
1067.0, 0.00034577823588904894
1068.0, 0.0001575635030053636
1069.0, 0.0003921565775669777
1070.0, 0.0005629240808117206
1071.0, 0.00045026006513691167
1072.0, 0.00037132241752470713
1073.0, 0.0004692951217070306
1074.0, 0.0006700497442594303
1075.0, 0.00024580038813952834
1076.0, 0.00012489115652057522
1077.0, 0.00018623496595275636
1078.0, 0.0003065758449820421
1079.0, 0.0003751753570742563
1080.0, 0.0005299274198603465
1081.0, 0.00039162210101609913
1082.0, 0.0004125749299664274
1083.0, 0.0004351771606724709
1084.0, 0.00011629119276037201
1085.0, 0.00021540517072437583
1086.0, 0.0005976558636197055
1087.0, 0.0006954695189882689
1088.0, 0.0007002878391168258
1089.0, 0.0008406545967695616
1090.0, 0.0003082889938911255
1091.0, 0.0006388435477764014
1092.0, 0.0007466120152895338
1093.0, 0.0006295062853527097
1094.0, 0.00045668434900751403
1095.0, 0.0002973695401381315
1096.0, 0.0009008805092279715
1097.0, 0.0005413752540007316
1098.0, 0.000178955774386511
1099.0, 0.00032920305634431016
1100.0, 0.00035058516964684973
1101.0, 0.0007894218809053533
1102.0, 0.0009340013863110558
1103.0, 0.000847985888331302
1104.0, 0.0007480935113462982
1105.0, 0.0009419350972184983
1106.0, 0.0008481423991269363
1107.0, 0.0004029207819853724
1108.0, 0.0004129179614417266
1109.0, 0.0006153746703256893
1110.0, 0.0003481503365684424
1111.0, 0.0007148662978545318
1112.0, 0.0006361631900011021
1113.0, 0.0005462781340013791
1114.0, 0.0004458516104073529
1115.0, 0.00025784596360815836
1116.0, 9.53947734376453e-05
1117.0, 0.00026899452542078776
1118.0, 0.0004924552847647565
1119.0, 0.0005174553501441092
1120.0, 0.00034716228022686497
1121.0, 0.0004675683235909101
1122.0, 0.0011435511531599932
1123.0, 0.0008660057360435238
1124.0, 0.0007948406724222108
1125.0, 0.0010563388432892433
1126.0, 0.0006595364629392284
1127.0, 0.0006306709533364446
1128.0, 0.0007066182440535753
1129.0, 0.0006521762491094485
1130.0, 0.0005727421391343436
1131.0, 0.0006767636224508381
1132.0, 0.0006321111130696688
1133.0, 0.00041732350691405456
1134.0, 0.0006734201042926021
1135.0, 0.0006885695916617404
1136.0, 0.0001365561561729208
1137.0, 0.0007882066326702075
1138.0, 0.0011128941559889925
1139.0, 0.0005450880319315271
1140.0, 0.0005160228496423878
1141.0, 0.0011203961001619842
1142.0, 0.0004806727465750891
1143.0, 0.0006005451458440176
1144.0, 0.000512549357686037
1145.0, 0.0005821625532119123
1146.0, 0.0009111588767858461
1147.0, 0.0013194579205637739
1148.0, 0.0007282865348005772
1149.0, 0.00037644033472057094
1150.0, 0.0009514048474412031
1151.0, 0.0013808641725994207
1152.0, 0.0008168654634545926
1153.0, 0.0005557020943770445
1154.0, 0.0008201908291881777
1155.0, 0.0008539133055842375
1156.0, 0.0008608280274868609
1157.0, 0.0009717198006566813
1158.0, 0.0010993421605375146
1159.0, 0.0006558964918382569
1160.0, 0.0013879467501762108
1161.0, 0.0017790735510270494
1162.0, 0.0014374364545668386
1163.0, 0.0008142811384198409
1164.0, 0.001516713067439902
1165.0, 0.0012170284906971307
1166.0, 0.001192699330574323
1167.0, 0.00149372984968833
1168.0, 0.0017180967925598343
1169.0, 0.0010580245837246436
1170.0, 0.0011962145680218593
1171.0, 0.0010885193365179006
1172.0, 0.001183205631097921
1173.0, 0.0013883179752305894
1174.0, 0.0011393631895924563
1175.0, 0.0008620354318036578
1176.0, 0.001505063122198726
1177.0, 0.0018658018173221325
1178.0, 0.001591887679975246
1179.0, 0.001021168524627202
1180.0, 0.0017871935423859663
1181.0, 0.0014672667465226797
1182.0, 0.0015411238014295186
1183.0, 0.0017119699354324965
1184.0, 0.0016353298419186577
1185.0, 0.0011976352126403709
1186.0, 0.0016774817149357102
1187.0, 0.0016822584086262837
1188.0, 0.00160662080758718
1189.0, 0.0015531460329939546
1190.0, 0.0014540538478134651
1191.0, 0.00111204667397754
1192.0, 0.0014109571567495903
1193.0, 0.0016082417717360469
1194.0, 0.001362236332951167
1195.0, 0.000916225197238228
1196.0, 0.001234439395734331
1197.0, 0.0016611591811058427
1198.0, 0.0016223452687601564
1199.0, 0.0015886200260121152
1200.0, 0.001423616312367434
1201.0, 0.0009753002783403921
1202.0, 0.0017576060315757326
1203.0, 0.001988768631984671
1204.0, 0.0015071905795373032
1205.0, 0.0013724781582488117
1206.0, 0.0017505541218006322
1207.0, 0.0011703963327478189
1208.0, 0.0013146937066840856
1209.0, 0.0018761992667386755
1210.0, 0.0018866611936761697
1211.0, 0.001537197366981317
1212.0, 0.001532831873742935
1213.0, 0.001965450430774545
1214.0, 0.0014545343903125826
1215.0, 0.0014885662963259655
1216.0, 0.0017007675650090848
1217.0, 0.0016946275644786238
1218.0, 0.0014406381595397522
1219.0, 0.0009402604710407717
1220.0, 0.001123186561956286
1221.0, 0.0010450772307651743
1222.0, 0.0010431291837950237
1223.0, 0.0015082751832024384
1224.0, 0.0007840286794925874
1225.0, 0.001199878666501592
1226.0, 0.0015491947937708488
1227.0, 0.0014773216008058345
1228.0, 0.0011927356494879525
1229.0, 0.00132968513558314
1230.0, 0.001187217399163977
1231.0, 0.001178873280005618
1232.0, 0.002090687241005751
1233.0, 0.0021981491058146846
1234.0, 0.0007710684400122547
1235.0, 0.0017882563629073138
1236.0, 0.0014406252760916032
1237.0, 0.0010909320001747124
1238.0, 0.0013922865393349944
1239.0, 0.0016677217176541389
1240.0, 0.0007812736892104952
1241.0, 0.001338338385196388
1242.0, 0.0015665747364769602
1243.0, 0.0013201406680891908
1244.0, 0.0012765134833376784
1245.0, 0.0014833819163426198
1246.0, 0.0007750036934870514
1247.0, 0.0009596887475677681
1248.0, 0.0014229904319435949
1249.0, 0.0015179041555003056
1250.0, 0.0013741627929922528
1251.0, 0.0014155234565522339
1252.0, 0.0017651175015240576
1253.0, 0.0012205000335021082
1254.0, 0.001245010216121668
1255.0, 0.001519314915071187
1256.0, 0.0015607779768510158
1257.0, 0.0010951830210839482
1258.0, 0.0014615107622210643
1259.0, 0.001204178134696237
1260.0, 0.0010260439771729128
1261.0, 0.0010216856152514865
1262.0, 0.0010270792995872432
1263.0, 0.0007160082601329706
1264.0, 0.0006930289524129875
1265.0, 0.0011549748856119737
1266.0, 0.0009826020533484764
1267.0, 0.0006698450075142013
1268.0, 0.0008843034301644374
1269.0, 0.00039536879449731706
1270.0, 0.00041959186705950636
1271.0, 0.0008756362062501058
1272.0, 0.00104573998171559
1273.0, 0.0009135227460788652
1274.0, 0.0009537255236506425
1275.0, 0.0007825721146354006
1276.0, 0.0007307089664557701
1277.0, 0.0005455829176832664
1278.0, 0.00043892555783190827
1279.0, 0.0006267567304971852
1280.0, 0.0011623760526231644
1281.0, 0.0013925204317158416
1282.0, 0.0008717014447388483
1283.0, 0.0006282659938673686
1284.0, 0.0008567543146988598
1285.0, 0.0011692941116704654
1286.0, 0.0006203215517145667
1287.0, 0.0002755292661185831
1288.0, 0.0005035169027613879
1289.0, 0.0004607201110531788
1290.0, 0.0004295552508730556
1291.0, 0.0008992046377573847
1292.0, 0.0010120092975410813
1293.0, 0.0008058946007973176
1294.0, 0.0008929785682395526
1295.0, 0.001044406836190385
1296.0, 0.0009503404674170504
1297.0, 0.0005752684341750534
1298.0, 0.0013776389190545957
1299.0, 0.0007923374709166136
1300.0, 0.0007092217013646767
1301.0, 0.000938618712167772
1302.0, 0.0009733950150407583
1303.0, 0.000493868665860232
1304.0, 0.0008082844052736443
1305.0, 0.0004487658745867955
1306.0, 0.0005338367075172438
1307.0, 0.0006600478612960216
1308.0, 0.0004889090528756119
1309.0, 0.0003376186986685357
1310.0, 0.0015105496219706797
1311.0, 0.0007243554138529183
1312.0, 0.00023591842622567138
1313.0, 0.0006522118003685292
1314.0, 0.0012543406463117295
1315.0, 8.255566815337932e-05
1316.0, 0.0001413067355862293
1317.0, 0.0007997147355161636
1318.0, 0.0007574597819476031
1319.0, 0.0004196138814090707
1320.0, 0.0005582116279914562
1321.0, 0.0010221481407398589
1322.0, 0.0009357885363408519
1323.0, 0.0013453714623116691
1324.0, 0.0011896830191667708
1325.0, 0.0005728823556354904
1326.0, 0.00042756240193157606
1327.0, 0.0021591512193264058
1328.0, 0.0009633642250283492
1329.0, 0.0006899283001698246
1330.0, 0.0013190699387144304
1331.0, 0.001585220610578342
1332.0, 0.0006139557639860335
1333.0, 0.0009421259750575139
1334.0, 0.0006749031475551224
1335.0, 0.0003520995503029315
1336.0, 0.0007141328052221383
1337.0, 0.0011327868346731823
1338.0, 0.0006243964276943496
1339.0, 0.00047884827625781044
1340.0, 0.0006990520652236936
1341.0, 0.0005923723500181487
1342.0, 0.0006254769782477401
1343.0, 0.001022042569918808
1344.0, 0.0015178718540624244
1345.0, 0.0009145756356664504
1346.0, 0.0015278859870868525
1347.0, 0.0013098396659116196
1348.0, 0.0007571245825290914
1349.0, 0.0005519027677847504
1350.0, 0.0008793250315735831
1351.0, 8.08729906317941e-05
1352.0, 6.709609686714954e-06
1353.0, 0.000822561117931358
1354.0, 0.0010732570997720747
1355.0, 0.0008455701822486484
1356.0, 0.0011417491930993191
1357.0, 0.0010112674565354353
1358.0, 0.00037446347374775176
1359.0, 0.0007964917033405953
1360.0, 0.0007377065016389577
1361.0, 0.0002621802096843414
1362.0, 0.0006063550394414935
1363.0, 0.001798088233391858
1364.0, 0.0008872850809578544
1365.0, 0.0010219323767533123
1366.0, 0.0011182463010463385
1367.0, 0.0008696441444443251
1368.0, 0.0006424278104738977
1369.0, 0.00015507605238261092
1370.0, 0.00045802259439255513
1371.0, 0.000508668756460096
1372.0, 0.0004243525890360577
1373.0, 0.00033370265562016483
1374.0, 0.0002979017262765202
1375.0, 0.0003199313009686867
1376.0, 0.0013746754989747184
1377.0, 0.0007733588568083399
1378.0, 0.0008230662719273011
1379.0, 0.0011570053090909594
1380.0, 0.0006106199607060946
1381.0, 0.00041784875581600295
1382.0, 0.001279813724005624
1383.0, 0.000869726800558696
1384.0, 0.00032730821625543945
1385.0, 0.0006765502569434776
1386.0, 0.001574305558984231
1387.0, 0.0002430757985770298
1388.0, 0.0010198964468948587
1389.0, 0.001352393332836586
1390.0, 0.0008767577792987215
1391.0, 0.0006421990143162055
1392.0, 0.0011467470307875
1393.0, 0.0010625885828719588
1394.0, 0.0003062011731499825
1395.0, 0.0014752334772244191
1396.0, 0.001637200352595934
1397.0, 0.0011512065682974296
1398.0, 0.001078336051067998
1399.0, 0.0017647979755347925
1400.0, 0.001041468522837775
1401.0, 0.0010626456609744632
1402.0, 0.0012489058142607383
1403.0, 0.0010423767065589828
1404.0, 0.0009912935589594329
1405.0, 0.0020727700924169424
1406.0, 0.001166314687340882
1407.0, 0.00041431362060853215
1408.0, 0.000822409290697683
1409.0, 0.0010308414347812095
1410.0, 0.0007970866924964268
1411.0, 0.0008762233860303628
1412.0, 0.001463485814916685
1413.0, 0.0003965221969560121
1414.0, 0.0012360524356525289
1415.0, 0.0020145897302697928
1416.0, 0.001755463176944916
1417.0, 0.0010326974483878069
1418.0, 0.0020171212085006883
1419.0, 0.0008742244955678234
1420.0, 0.0007179261815879778
1421.0, 0.0012829936907780214
1422.0, 0.0015192419160016634
1423.0, 0.0008956094350884252
1424.0, 0.00024997279230146055
1425.0, 0.0017095693779272821
1426.0, 0.0008670671788422922
1427.0, 0.0008471990529947848
1428.0, 0.0014240739138111239
1429.0, 0.0016554824840898112
1430.0, 0.001048863938388728
1431.0, 0.0009310532461148528
1432.0, 0.0008297850815020913
1433.0, 0.0004544704387069371
1434.0, 0.0008642404647953164
1435.0, 0.0013124496006362747
1436.0, 0.0007278798483910556
1437.0, 0.0010213700974418172
1438.0, 0.0014180817663097004
1439.0, 0.000790116789407875
1440.0, 0.0007692811227396864
1441.0, 0.0014424297413503026
1442.0, 0.0018570119946574434
1443.0, 0.0008882192112186611
1444.0, 0.001303120514226048
1445.0, 0.0015554442081957259
1446.0, 0.0009708446551788477
1447.0, 0.001113384123824783
1448.0, 0.0019088277831830493
1449.0, 0.0015395956956884918
1450.0, 0.0007356347490842098
1451.0, 0.0014386054264567889
1452.0, 0.0008404016058702539
1453.0, 0.000842936899177507
1454.0, 0.0014624505823979063
1455.0, 0.0015365693235453034
1456.0, 0.0007649130717903889
1457.0, 0.0016850956930421384
1458.0, 0.001310468909760045
1459.0, 0.0007134879055387033
1460.0, 0.0007106719146388393
1461.0, 0.0011329375390788522
1462.0, 0.0009465564532531226
1463.0, 0.0011643549997971696
1464.0, 0.0019754087042702204
1465.0, 0.0015863636668298911
1466.0, 0.0010529887236086746
1467.0, 0.0009995237605088458
1468.0, 0.0012480385874809213
1469.0, 0.0012941658895344384
1470.0, 0.0013914009733468962
1471.0, 0.0010715728217756191
1472.0, 0.0007727094059228741
1473.0, 0.0010351810106011558
1474.0, 0.0016437123047122418
1475.0, 0.0015021385281336471
1476.0, 0.0014092382556734825
1477.0, 0.0016097233906524331
1478.0, 0.001220717681113839
1479.0, 0.0012260826052490745
1480.0, 0.001534296498336618
1481.0, 0.001317398661506673
1482.0, 0.0007745710789432852
1483.0, 0.0013769643152908122
1484.0, 0.0013976148818494838
1485.0, 0.0011651535661740037
1486.0, 0.0011144350526877936
1487.0, 0.0012919685958274864
1488.0, 0.001235483432099999
1489.0, 0.0008505714342354633
1490.0, 0.0013299023107167577
1491.0, 0.0009461719999896106
1492.0, 0.0008261136720494888
1493.0, 0.0012186228036975613
1494.0, 0.001495606764022215
1495.0, 0.0011725201915249212
1496.0, 0.0014944374600718252
1497.0, 0.001715390896706489
1498.0, 0.0007931343963595369
1499.0, 0.0004985674976122029
1500.0, 0.0011961581066429177
1501.0, 0.0010539906148324101
1502.0, 0.00016620620623200978
1503.0, 0.000809779192447229
1504.0, 0.0009800048641249498
1505.0, 0.0010017720840984638
1506.0, 0.0013030632726654262
1507.0, 0.0015663473782912608
1508.0, 0.0005690701021895304
1509.0, 0.0006612940576346842
1510.0, 0.001258654372047716
1511.0, 0.000850794213959793
1512.0, 0.0005929164118287769
1513.0, 0.0010446491567585032
1514.0, 0.0014367521272328583
1515.0, 1.4360952484225001e-05
1516.0, 0.0011194542300623721
1517.0, 0.0005467523964478847
1518.0, 0.00043841941817881726
1519.0, 0.0009849501706546359
1520.0, 0.0011443430098067552
1521, 0.0
1522, 0.0
1523, 0.0
1524, 0.0
1525, 0.0
1526, 0.0
1527, 0.0
1528, 0.0
1529, 0.0
1530, 0.0
1531, 0.0
1532, 0.0
1533, 0.0
1534, 0.0
1535, 0.0
1536, 0.0
1537, 0.0
1538, 0.0
1539, 0.0
1540, 0.0
1541, 0.0
1542, 0.0
1543, 0.0
1544, 0.0
1545, 0.0
1546, 0.0
1547, 0.0
1548, 0.0
1549, 0.0
1550, 0.0
1551, 0.0
1552, 0.0
1553, 0.0
1554, 0.0
1555, 0.0
1556, 0.0
1557, 0.0
1558, 0.0
1559, 0.0
1560, 0.0
1561, 0.0
1562, 0.0
1563, 0.0
1564, 0.0
1565, 0.0
1566, 0.0
1567, 0.0
1568, 0.0
1569, 0.0
1570, 0.0
1571, 0.0
1572, 0.0
1573, 0.0
1574, 0.0
1575, 0.0
1576, 0.0
1577, 0.0
1578, 0.0
1579, 0.0
1580, 0.0
1581, 0.0
1582, 0.0
1583, 0.0
1584, 0.0
1585, 0.0
1586, 0.0
1587, 0.0
1588, 0.0
1589, 0.0
1590, 0.0
1591, 0.0
1592, 0.0
1593, 0.0
1594, 0.0
1595, 0.0
1596, 0.0
1597, 0.0
1598, 0.0
1599, 0.0
