30, 0.0
31, 0.0
32, 0.0
33, 0.0
34, 0.0
35, 0.0
36, 0.0
37, 0.0
38, 0.0
39, 0.0
40, 0.0
41, 0.0
42, 0.0
43, 0.0
44, 0.0
45, 0.0
46, 0.0
47, 0.0
48, 0.0
49, 0.0
50, 0.0
51, 0.0
52, 0.0
53, 0.0
54, 0.0
55, 0.0
56, 0.0
57, 0.0
58, 0.0
59, 0.0
60, 0.0
61, 0.0
62, 0.0
63, 0.0
64, 0.0
65, 0.0
66, 0.0
67, 0.0
68, 0.0
69, 0.0
70, 0.0
71, 0.0
72, 0.0
73, 0.0
74, 0.0
75, 0.0
76, 0.0
77, 0.0
78, 0.0
79, 0.0
80, 0.0
81, 0.0
82, 0.0
83, 0.0
84, 0.0
85, 0.0
86, 0.0
87, 0.0
88, 0.0
89, 0.0
90, 0.0
91, 0.0
92, 0.0
93, 0.0
94, 0.0
95, 0.0
96, 0.0
97, 0.0
98, 0.0
99, 0.0
100, 0.0
101, 0.0
102, 0.0
103, 0.0
104, 0.0
105, 0.0
106, 0.0
107, 0.0
108, 0.0
109, 0.0
110, 0.0
111, 0.0
112, 0.0
113, 0.0
114, 0.0
115, 0.0
116, 0.0
117, 0.0
118, 0.0
119, 0.0
120, 0.0
121, 0.0
122, 0.0
123, 0.0
124, 0.0
125.0, 2.29533414864704e-05
126.0, 4.541785783811678e-05
127.0, 1.4350052461866482e-05
128.0, 1.6983958495743936e-05
129.0, 1.4606536758802905e-05
130.0, 6.67546490334288e-05
131.0, 0.00011711705301931716
132.0, 0.00016394044852731203
133.0, 0.00023246361715465103
134.0, 0.000254577085058226
135.0, 0.00042276645921851075
136.0, 0.0006975205181024057
137.0, 0.0010194733614953733
138.0, 0.0013783760429472935
139.0, 0.0015558543572511308
140.0, 0.0016017848058974236
141.0, 0.001525068594204272
142.0, 0.0013358003120890376
143.0, 0.0013820154758856017
144.0, 0.0014340881130587813
145.0, 0.0014735243686771848
146.0, 0.001581073811357677
147.0, 0.0017097539842332648
148.0, 0.0017376682826474468
149.0, 0.0018712000961214348
150.0, 0.0021873254039410164
151.0, 0.0024082759238813456
152.0, 0.0024913226281182655
153.0, 0.002607583294734717
154.0, 0.002761198642578035
155.0, 0.002918160938568999
156.0, 0.0028209365040412987
157.0, 0.0025797222525783064
158.0, 0.0024263454948009935
159.0, 0.0024829621540135016
160.0, 0.0024510929472360394
161.0, 0.002437143325404716
162.0, 0.002444973902148233
163.0, 0.0024293571086144512
164.0, 0.0023151215644357237
165.0, 0.0024024815079384363
166.0, 0.002543856568940015
167.0, 0.002611676381871526
168.0, 0.002571709433859361
169.0, 0.0026577854229660916
170.0, 0.0028278348700512346
171.0, 0.0029690442095333656
172.0, 0.0030106998304018596
173.0, 0.003053422011745236
174.0, 0.0032689365689733967
175.0, 0.0034142775746006217
176.0, 0.00338250072177944
177.0, 0.003449027292076407
178.0, 0.003475727673058818
179.0, 0.0036981508842708812
180.0, 0.004071026578627179
181.0, 0.004268514120447329
182.0, 0.004423446614776091
183.0, 0.004699926053672121
184.0, 0.004984366262059814
185.0, 0.005175623875729744
186.0, 0.0056668033616720966
187.0, 0.00637293800382135
188.0, 0.007210010098031594
189.0, 0.008583876103831286
190.0, 0.011138235034109007
191.0, 0.013032019762376864
192.0, 0.014548011359581788
193.0, 0.016087137947507647
194.0, 0.01774493579453955
195.0, 0.01914366201925023
196.0, 0.02065652169235038
197.0, 0.02227611334490962
198.0, 0.023864340139276855
199.0, 0.025396547276385222
200.0, 0.027545362526839225
201.0, 0.030198884461204008
202.0, 0.03323483590999289
203.0, 0.03670985680063815
204.0, 0.04062058972438165
205.0, 0.045429298673413915
206.0, 0.05128100142531282
207.0, 0.05803465700055798
208.0, 0.06482552362130807
209.0, 0.07027461337622579
210.0, 0.07049554577462128
211.0, 0.06287353726687002
212.0, 0.04796199755109739
213.0, 0.03279704699692819
214.0, 0.021147336914384654
215.0, 0.013659876348081171
216.0, 0.009374529983013422
217.0, 0.0069612398427031765
218.0, 0.0052686985315935535
219.0, 0.0040264146880730255
220.0, 0.003153451411226938
221.0, 0.0024885073758459824
222.0, 0.0019564124486985087
223.0, 0.0016205738214855583
224.0, 0.0014199359152267084
225.0, 0.0012185508297670993
226.0, 0.0009594484087664045
227.0, 0.000672210121197991
228.0, 0.0005781332504044927
229.0, 0.0006569207889776876
230.0, 0.0005601265801601699
231.0, 0.00037337521830220174
232.0, 0.00028735855364236425
233.0, 0.0002551041834924878
234.0, 0.00013575441286293262
235.0, 5.6507982459342084e-05
236.0, 3.025691163707178e-05
237.0, 4.6346570836919596e-05
238.0, 7.725568616889917e-05
239.0, 7.32154505170114e-05
240.0, 3.364863741498983e-05
241.0, 5.638028241467076e-05
242.0, 8.428689969436211e-05
243.0, 4.5380790379474294e-05
244.0, 0.00010590756964959205
245.0, 0.00018676025784400795
246.0, 0.0002315116336944148
247.0, 0.0002315088746806102
248.0, 0.0002164402653443213
249.0, 0.00012193727604381283
250.0, 7.461235556653731e-05
251.0, 4.805582921532045e-05
252.0, 1.9760869388096264e-05
253.0, 4.3021893696796024e-05
254.0, 6.127115027708405e-05
255.0, 4.666967655941455e-05
256.0, 1.2738308917905325e-05
257.0, 6.695905601082207e-05
258.0, 0.00013854415773899043
259.0, 9.575014617120415e-05
260.0, 1.6612584487486086e-05
261.0, 1.5460263607759703e-05
262.0, 0.00011779794669771527
263.0, 0.0001960907569492175
264.0, 0.0001509271357703791
265.0, 0.00011604232476326921
266.0, 0.0002883262403923928
267.0, 0.00020241853258552852
268.0, 6.813574799352896e-05
269.0, 7.515363830139017e-05
270.0, 0.0001919163362511099
271.0, 0.0001731829528379169
272.0, 0.00024629768906366217
273.0, 0.00010717806344735988
274.0, 3.7783278333125916e-05
275.0, 0.00020914655230481612
276.0, 0.0003726342160040186
277.0, 0.00018263846838725443
278.0, 8.343112447908959e-05
279.0, 0.0002887692178813494
280.0, 0.0005105023459372522
281.0, 0.0005056980687116868
282.0, 0.0004904130213835122
283.0, 0.0005835916929059307
284.0, 0.0007655122288334244
285.0, 0.000929314219835234
286.0, 0.0010143187029794754
287.0, 0.0010771349126542714
288.0, 0.0011630866942050275
289.0, 0.0013057992022890883
290.0, 0.0015459235763946486
291.0, 0.0018484910862720768
292.0, 0.0021134845878436038
293.0, 0.0023613271758024007
294.0, 0.002731082384562085
295.0, 0.003025709240905687
296.0, 0.0035469612165479835
297.0, 0.004261811361523941
298.0, 0.005011654958155561
299.0, 0.005819436997631642
300.0, 0.006777193101898934
301.0, 0.008187985285076551
302.0, 0.009940741980154637
303.0, 0.011961350508351338
304.0, 0.015013494193032674
305.0, 0.01907651408522677
306.0, 0.024020555225453682
307.0, 0.03007617069035724
308.0, 0.037387029021064395
309.0, 0.04449737345758096
310.0, 0.051596255084331646
311.0, 0.058409494064106
312.0, 0.0648825602127596
313.0, 0.07166675505953103
314.0, 0.0795679158092501
315.0, 0.08876177493000996
316.0, 0.09944637979184197
317.0, 0.11187654216106314
318.0, 0.1265196902596718
319.0, 0.14341059682485785
320.0, 0.16311121027355344
321.0, 0.18518335021571478
322.0, 0.2074617359597572
323.0, 0.2270322627828268
324.0, 0.23949890905272758
325.0, 0.24010976732771042
326.0, 0.22571926142048843
327.0, 0.19344127259537566
328.0, 0.15324137692061854
329.0, 0.11660331824226218
330.0, 0.08701168993456192
331.0, 0.06475995857770657
332.0, 0.04968436712027392
333.0, 0.038748550461064915
334.0, 0.031020106080845905
335.0, 0.025503245465960722
336.0, 0.021159992460762552
337.0, 0.017709216169139792
338.0, 0.015229930156876773
339.0, 0.013249311544741781
340.0, 0.011560714283361279
341.0, 0.01020516371071072
342.0, 0.008883570707123992
343.0, 0.0077166429819878896
344.0, 0.006891825775318963
345.0, 0.006266516641209263
346.0, 0.00549365024498502
347.0, 0.004931196450494018
348.0, 0.004417073473331852
349.0, 0.003954528883306288
350.0, 0.0035683841622965937
351.0, 0.003201483847136334
352.0, 0.002805292647259173
353.0, 0.002614023802458849
354.0, 0.0024319206247265792
355.0, 0.0021503833846821994
356.0, 0.0020440098057290298
357.0, 0.0019497798355691907
358.0, 0.0018270424622651704
359.0, 0.001679061564473958
360.0, 0.0015697378096724392
361.0, 0.001555025987539996
362.0, 0.0013538826008944952
363.0, 0.0013036688758989742
364.0, 0.0013685308927750307
365.0, 0.0013337533723731258
366.0, 0.0012749213888483303
367.0, 0.0013331405161326562
368.0, 0.001335654484819257
369.0, 0.001313787198221567
370.0, 0.0013711605108564446
371.0, 0.0012165249846811423
372.0, 0.0013371780398936603
373.0, 0.0014113596323588626
374.0, 0.00133414742065144
375.0, 0.0013073398314991866
376.0, 0.001384548758332537
377.0, 0.0013419464907160213
378.0, 0.0013326930251827264
379.0, 0.0013747817732215318
380.0, 0.0013303944875134176
381.0, 0.001223126916158746
382.0, 0.0011945824434604925
383.0, 0.0011517006314629274
384.0, 0.0010506213056791698
385.0, 0.0009744866970684678
386.0, 0.000978076265619217
387.0, 0.0010495483076752017
388.0, 0.0009461146134772997
389.0, 0.0007665796737775289
390.0, 0.0008180456885224721
391.0, 0.0008028728846326733
392.0, 0.0005535157233276608
393.0, 0.00035784665359116013
394.0, 0.0003356377446091904
395.0, 0.0003514892109214211
396.0, 0.00035106409755127923
397.0, 0.0003622878813584596
398.0, 0.00029267724154139027
399.0, 0.00016620110389009335
400.0, 0.00014370958121024432
401.0, 0.00012952382833291844
402.0, 0.00018011710579918634
403.0, 0.00015689763405232619
404.0, 4.6557681182043885e-05
405.0, 1.1034850440312117e-05
406.0, 2.138725289513185e-05
407.0, 6.793401951384761e-06
408.0, 3.1434328784082856e-05
409.0, 2.155914345801728e-05
410.0, 3.492621170923778e-06
411.0, 3.7138801836652904e-05
412.0, 1.920657184877031e-05
413.0, 6.181638690961344e-05
414.0, 3.4937994449449736e-05
415.0, 0.00013196426176192796
416.0, 8.021047504997407e-05
417.0, 4.754384319511507e-05
418.0, 7.064671954963624e-05
419.0, 8.274544666278934e-05
420.0, 5.167712803111506e-05
421.0, 0.00020658368052164415
422.0, 0.00016824151232289593
423.0, 0.00013565877880411943
424.0, 0.00014683094372458259
425.0, 3.8620708130891516e-05
426.0, 7.072032174821245e-05
427.0, 3.940764027031921e-05
428.0, 0.00013472963950695587
429.0, 0.00010434087997118005
430.0, 2.738147163486655e-05
431.0, 3.263060642368933e-05
432.0, 9.901420709296437e-05
433.0, 7.460499800281259e-05
434.0, 2.9773677542714958e-05
435.0, 8.436067216106945e-05
436.0, 4.593319465226282e-05
437.0, 4.6080740008443885e-05
438.0, 3.101014161162355e-05
439.0, 8.448984815699956e-05
440.0, 8.141342669352838e-05
441.0, 0.0001128330021328121
442.0, 7.630233046101199e-05
443.0, 3.772395589767806e-05
444.0, 7.694339693389648e-05
445.0, 0.00018078926195066363
446.0, 0.00022379610514210966
447.0, 0.00024451196744677063
448.0, 0.0005626528806993284
449.0, 0.000733129683021257
450.0, 0.0004850407416612512
451.0, 0.00036481114375518304
452.0, 0.0005388972398841131
453.0, 0.0004982120647880694
454.0, 0.0004249864114536051
455.0, 0.0004958282991364727
456.0, 0.00048146165136474044
457.0, 0.0005143671925267962
458.0, 0.0005930852207646427
459.0, 0.0006891354030085777
460.0, 0.0007426875897907154
461.0, 0.0007033112044045199
462.0, 0.0006398269640280545
463.0, 0.0007115048701482849
464.0, 0.0007943347329600211
465.0, 0.0008786772266805202
466.0, 0.0010126731037308503
467.0, 0.0009664010582552863
468.0, 0.0010483667051559824
469.0, 0.001167161822844663
470.0, 0.001258180320903968
471.0, 0.0013241100980654137
472.0, 0.0013831440415389559
473.0, 0.001440313379211379
474.0, 0.0015682440850780866
475.0, 0.0016293184736768966
476.0, 0.001603078993724164
477.0, 0.001788717812509859
478.0, 0.0019188497632091218
479.0, 0.00195681038309468
480.0, 0.0020072623677107747
481.0, 0.0020833708917216355
482.0, 0.002116346298088742
483.0, 0.0022235773607119378
484.0, 0.0023361637416393316
485.0, 0.002372405832048794
486.0, 0.0023904528498833446
487.0, 0.0024791990505637165
488.0, 0.0024926315082991427
489.0, 0.0025555188238889776
490.0, 0.002638131478207194
491.0, 0.0027168990206011163
492.0, 0.0027734313055451784
493.0, 0.002785935665366301
494.0, 0.002878651037481159
495.0, 0.0030377086105724087
496.0, 0.003171115810739224
497.0, 0.003230094551074964
498.0, 0.003243097190117091
499.0, 0.0032401592303000415
500.0, 0.003186876463587949
501.0, 0.0031894198352761414
502.0, 0.0032577343714459777
503.0, 0.003328172654675574
504.0, 0.003404590257011014
505.0, 0.0033970910719000255
506.0, 0.003386711638073993
507.0, 0.0033747982048383356
508.0, 0.0033204416144280717
509.0, 0.0032360271151985745
510.0, 0.0032543682172944356
511.0, 0.003253340122614551
512.0, 0.0032192160792996276
513.0, 0.0031585051111601386
514.0, 0.0030741797171305995
515.0, 0.003121745843950033
516.0, 0.003100778828219285
517.0, 0.0030906999432181136
518.0, 0.0030121431482844
519.0, 0.002793090312620191
520.0, 0.002732635371011388
521.0, 0.002633754861687748
522.0, 0.0026079031096162514
523.0, 0.002589195710511445
524.0, 0.0025026952086131546
525.0, 0.0024039490152353094
526.0, 0.0023561567125016222
527.0, 0.0022942234967722967
528.0, 0.0022607024359239513
529.0, 0.0021958686317809398
530.0, 0.0020307065000547395
531.0, 0.001914777953085011
532.0, 0.0018201274176896072
533.0, 0.0017983492772454823
534.0, 0.0017523333177549326
535.0, 0.0016491849582415687
536.0, 0.0016043953840789963
537.0, 0.001398460956903708
538.0, 0.001388904301160401
539.0, 0.0014530921528971646
540.0, 0.0013988098757989115
541.0, 0.0012273217266458504
542.0, 0.0011779778404897381
543.0, 0.0012050973069662526
544.0, 0.0011357380200599622
545.0, 0.0010512521881778536
546.0, 0.0010490458292460349
547.0, 0.0010584130187714388
548.0, 0.0008469127605508389
549.0, 0.0008630778847783162
550.0, 0.000825108974079514
551.0, 0.0007095763066811398
552.0, 0.0007360260471965757
553.0, 0.000791316164201734
554.0, 0.0006140792560561823
555.0, 0.0005599584163357475
556.0, 0.0006131684373291287
557.0, 0.0006076308735696223
558.0, 0.0005066089697379157
559.0, 0.00047763735579042435
560.0, 0.00045553237971241806
561.0, 0.000467526926100705
562.0, 0.0004528047799478099
563.0, 0.0003784065794375707
564.0, 0.0003948065467039886
565.0, 0.0004495808212535369
566.0, 0.00041282331730891297
567.0, 0.0003689066120742264
568.0, 0.00038017508662030296
569.0, 0.0004021773197317684
570.0, 0.0004079702758228529
571.0, 0.00032956349965946333
572.0, 0.00030383304037293675
573.0, 0.0003518688801251964
574.0, 0.0003479742622618016
575.0, 0.00021143798080128822
576.0, 0.00031690223738754607
577.0, 0.00024641135917137497
578.0, 0.000257223158443969
579.0, 0.0003049146576183182
580.0, 0.00021202126353969236
581.0, 0.0002014716433784721
582.0, 0.0002093256096542174
583.0, 0.00020911455784617688
584.0, 0.00021357844097951714
585.0, 0.00019045313771478954
586.0, 0.00011729224711887269
587.0, 0.00010723404711421566
588.0, 0.00012602248537952696
589.0, 0.00016877103353355962
590.0, 0.00016056226230519403
591.0, 9.828587560851878e-05
592.0, 8.882605171344174e-05
593.0, 0.00012364746091259187
594.0, 7.735626315657972e-05
595.0, 5.031027641222479e-05
596.0, 7.475254263436168e-05
597.0, 8.56867327945803e-05
598.0, 2.0867898253901672e-05
599.0, 1.5900530954472815e-05
600.0, 3.7118738548104644e-05
601.0, 0.00018158358589105572
602.0, 0.00024348632468120763
603.0, 4.4640341428516515e-05
604.0, 2.6779474108016547e-05
605.0, 1.341996006767344e-05
606.0, 2.0414377148111293e-05
607.0, 3.102890964208017e-05
608.0, 3.8395975222085765e-06
609.0, 1.315124360251932e-06
610.0, 7.919399303188204e-06
611.0, 0.00010846339970875836
612.0, 8.249404036539375e-05
613.0, 3.486133647811513e-05
614.0, 3.0181202863765562e-05
615.0, 9.689643545909462e-06
616.0, 0.00011247088344109205
617.0, 0.00021597885143807412
618.0, 9.17953906258227e-05
619.0, 1.1031622052168703e-05
620.0, 4.151275686714883e-05
621.0, 3.81041963721846e-05
622.0, 4.5241291707782735e-05
623.0, 8.864506842207947e-05
624.0, 5.4101881787914865e-05
625.0, 9.80292722847746e-06
626.0, 1.1963370381271462e-05
627.0, 2.618107923976768e-05
628.0, 0.0001097298982153164
629.0, 4.449883121922401e-05
630.0, 2.5175693506068062e-05
631.0, 4.799936437186965e-05
632.0, 3.648341428746838e-05
633.0, 0.00012029757948022558
634.0, 9.872480860469896e-05
635.0, 3.312559885368472e-05
636.0, 7.045076719461746e-05
637.0, 3.5920543891358114e-05
638.0, 1.853719652179625e-05
639.0, 8.550963154415224e-05
640.0, 6.654705659194371e-05
641.0, 2.3768812708514002e-05
642.0, 0.00027848066723385595
643.0, 0.0005144811838285914
644.0, 0.0003010977890891497
645.0, 0.00025044543835475014
646.0, 4.6131492066418735e-05
647.0, 0.0004786259376235337
648.0, 0.00042385394928229114
649.0, 0.00012765775852324507
650.0, 0.0002145589094197254
651.0, 0.00016629872349971007
652.0, 0.00039862934172855025
653.0, 0.0003632174830492774
654.0, 0.0003440612571675991
655.0, 0.0003849507772820539
656.0, 0.0003379545977878829
657.0, 0.00027274917018197455
658.0, 0.000311643653395985
659.0, 0.00033612012510390876
660.0, 0.000369303676106737
661.0, 0.00043868099636562986
662.0, 0.0005049236672303307
663.0, 0.0005230968496739011
664.0, 0.0005753366996679167
665.0, 0.0005267067848669976
666.0, 0.000456972039895886
667.0, 0.0004381996520773836
668.0, 0.0005116344681266497
669.0, 0.000633103801695862
670.0, 0.000581732393038448
671.0, 0.0006236089661873937
672.0, 0.0006405572534874632
673.0, 0.0006576400996128943
674.0, 0.0007320456530906441
675.0, 0.0007982311812206814
676.0, 0.0007196547097094124
677.0, 0.0007365018889297928
678.0, 0.0008663330782532738
679.0, 0.0009049248617880652
680.0, 0.0008450487744831507
681.0, 0.0008774644823038845
682.0, 0.0008999840488043327
683.0, 0.0009728381990965335
684.0, 0.0010791233686480663
685.0, 0.0011097744944594825
686.0, 0.001090705521310853
687.0, 0.0011443274065011566
688.0, 0.0012237325364473502
689.0, 0.0012874008994266115
690.0, 0.0013707610262157462
691.0, 0.0014590230579704234
692.0, 0.0014877086316843935
693.0, 0.00151123520584417
694.0, 0.0017375382991167442
695.0, 0.001832929210963492
696.0, 0.0020568009218404682
697.0, 0.002205712248135326
698.0, 0.0022805168474215745
699.0, 0.0024168365951994235
700.0, 0.002621230133135785
701.0, 0.0027714606544656678
702.0, 0.0029593055882445284
703.0, 0.0033074220837271185
704.0, 0.0036066481565985202
705.0, 0.0038525701831510903
706.0, 0.00424394195727712
707.0, 0.004566268886203988
708.0, 0.0050357705519612425
709.0, 0.005475628158742775
710.0, 0.005971661834790065
711.0, 0.006536074376845366
712.0, 0.007180243938425361
713.0, 0.008094635370982399
714.0, 0.009147937620366576
715.0, 0.009872414002337694
716.0, 0.010804566806527988
717.0, 0.012017495579363652
718.0, 0.013340114067713122
719.0, 0.014807038318834082
720.0, 0.016625784863469672
721.0, 0.019369613390298118
722.0, 0.02126945048447466
723.0, 0.02307129456986963
724.0, 0.02547073117264689
725.0, 0.028101860799644184
726.0, 0.0310067235348412
727.0, 0.034142438327644214
728.0, 0.03728743335160462
729.0, 0.04041405240249902
730.0, 0.04358040299920491
731.0, 0.04684867856427154
732.0, 0.05016819035388019
733.0, 0.053150528459851895
734.0, 0.05543848050435113
735.0, 0.057206240693317346
736.0, 0.058142123317724344
737.0, 0.05798210497216744
738.0, 0.056748860633501645
739.0, 0.05432136403651048
740.0, 0.0509973587321453
741.0, 0.047032423918326044
742.0, 0.04261417944042219
743.0, 0.03798465087007581
744.0, 0.03349121546333817
745.0, 0.029554359260604512
746.0, 0.025931005812932385
747.0, 0.022557910781669525
748.0, 0.01967057016359173
749.0, 0.017110834169198643
750.0, 0.014820076551027392
751.0, 0.012870802349636199
752.0, 0.01104518678511344
753.0, 0.009565075683459347
754.0, 0.00832365247626896
755.0, 0.007173835971197197
756.0, 0.0061296285811330824
757.0, 0.005202890034986329
758.0, 0.004377593900157397
759.0, 0.0038802194156617735
760.0, 0.00337467277019111
761.0, 0.002873163806525738
762.0, 0.0024637525264398527
763.0, 0.002146178667057386
764.0, 0.0018557378447228762
765.0, 0.0015923716568401927
766.0, 0.0014296575590453285
767.0, 0.001178125457932711
768.0, 0.0009788000652973818
769.0, 0.0008292545682851295
770.0, 0.0007467743799842608
771.0, 0.0007073287400413477
772.0, 0.0004966307756795254
773.0, 0.0004144865700641157
774.0, 0.0004141206649823301
775.0, 0.00046027918947597356
776.0, 0.0003998808465274437
777.0, 0.00024058606216274052
778.0, 0.00016077954780867966
779.0, 6.428072937399405e-05
780.0, 9.981706613623059e-06
781.0, 3.334076842911394e-05
782.0, 5.155950044213619e-05
783.0, 1.1691735195556258e-05
784.0, 8.567128369445775e-05
785.0, 8.662826612499781e-05
786.0, 2.3684214746399153e-05
787.0, 1.9751889411132255e-05
788.0, 1.2704609621636746e-05
789.0, 6.206186886864999e-05
790.0, 6.539371109216493e-05
791.0, 1.4348595421416259e-05
792.0, 6.379982223831405e-05
793.0, 0.0001457440257313971
794.0, 4.7421381344232395e-05
795.0, 7.85037594556198e-05
796.0, 0.0001114134972459178
797.0, 9.34775078977648e-05
798.0, 0.00019131584974750118
799.0, 0.00012119909682711844
800.0, 9.465637117087118e-05
801.0, 1.1993349755128016e-05
802.0, 1.9391140218535362e-05
803.0, 3.2849020039768906e-05
804.0, 3.053083754447688e-05
805.0, 3.9897571840814414e-05
806.0, 8.05604264079987e-05
807.0, 0.0007068765099193941
808.0, 0.00033366660372361823
809.0, 6.68087193490414e-05
810.0, 0.00012093039620648801
811.0, 0.00012944928690156721
812.0, 3.2226078294766625e-05
813.0, 4.682104769974461e-05
814.0, 3.5859936093853585e-05
815.0, 7.07591017131906e-05
816.0, 0.000122140488369915
817.0, 0.00010859876091983957
818.0, 9.658099676306004e-05
819.0, 9.872033507981568e-05
820.0, 9.036954940687198e-05
821.0, 0.00016897631783872888
822.0, 9.490263999142511e-05
823.0, 4.9502496015828774e-05
824.0, 0.00013879127171593025
825.0, 0.00025518754427053623
826.0, 0.0002676633935721223
827.0, 0.00019888552315407325
828.0, 0.0002517035943206942
829.0, 0.00021622746142984365
830.0, 0.0001637830546961246
831.0, 0.0002290728773784096
832.0, 0.00029918900592413585
833.0, 0.00028140631029827616
834.0, 0.0003000389899150097
835.0, 0.000336844386470548
836.0, 0.00023790330270117392
837.0, 0.0002712660365762494
838.0, 0.0003392987646983724
839.0, 0.00040798344572503165
840.0, 0.00043080269126742165
841.0, 0.0003390528943192731
842.0, 0.0003472508570306827
843.0, 0.00040468242330183495
844.0, 0.0003824746622365507
845.0, 0.0003461110909726305
846.0, 0.0004029191144824776
847.0, 0.0004502374473582725
848.0, 0.00040743582694848993
849.0, 0.00045633447550967035
850.0, 0.0004440750867191786
851.0, 0.00040571274965428057
852.0, 0.0005218065349281084
853.0, 0.0005958350514485964
854.0, 0.0005135756010520744
855.0, 0.0005578997867459692
856.0, 0.0009700550914174457
857.0, 0.000619829978969199
858.0, 0.0004771231259733166
859.0, 0.0005866978414369702
860.0, 0.0005949720443583752
861.0, 0.0005830248675937661
862.0, 0.0006644305943690908
863.0, 0.0006942701434438353
864.0, 0.0007671689022599508
865.0, 0.0009562615982747447
866.0, 0.0011873699716879443
867.0, 0.001348302755144387
868.0, 0.0014462566373111645
869.0, 0.0015992180331992534
870.0, 0.0018689587804863674
871.0, 0.0021316681373791946
872.0, 0.0024142779097292054
873.0, 0.00269729918182822
874.0, 0.0029576884945545228
875.0, 0.0030328598055885466
876.0, 0.0030241278297116823
877.0, 0.0030994928285468996
878.0, 0.003168221533532052
879.0, 0.002944050399217115
880.0, 0.0026700561791729084
881.0, 0.002211276075821585
882.0, 0.001710449289270503
883.0, 0.0013293173260388277
884.0, 0.0010688028842680494
885.0, 0.0008912500079397025
886.0, 0.0008184696299897674
887.0, 0.000709175353348439
888.0, 0.0006558056100044908
889.0, 0.0006471553257753297
890.0, 0.0006186078016018695
891.0, 0.0006024834608101518
892.0, 0.0005919451423098349
893.0, 0.0005477088249572264
894.0, 0.0005552961980264685
895.0, 0.0005667423614208234
896.0, 0.000505672136338071
897.0, 0.0005058969617012839
898.0, 0.0005691568959335216
899.0, 0.0006025210694635937
900.0, 0.0005723023217268318
901.0, 0.0005415402420363992
902.0, 0.0005194003453204684
903.0, 0.00048045532429479004
904.0, 0.0006360089740108023
905.0, 0.0006707774034756253
906.0, 0.0005992417451215686
907.0, 0.0005262044080347854
908.0, 0.0004996994305381153
909.0, 0.0005938173783730371
910.0, 0.0006261520949602497
911.0, 0.0006812270985715352
912.0, 0.0005805166985985981
913.0, 0.0005444087001534737
914.0, 0.0005728573496937564
915.0, 0.0005952101085226314
916.0, 0.0005847814938817564
917.0, 0.0005021227510280675
918.0, 0.0006390501916375404
919.0, 0.0006904427519434262
920.0, 0.0006724077458076578
921.0, 0.0007419396408463791
922.0, 0.0007661179337026892
923.0, 0.000692332689383238
924.0, 0.0006673329878900549
925.0, 0.0007141344954474696
926.0, 0.0006127728969515389
927.0, 0.0006440914714112517
928.0, 0.0006441349259431396
929.0, 0.000663171267050131
930.0, 0.0007226683743094739
931.0, 0.0007294610926100195
932.0, 0.000691884023637328
933.0, 0.0007242404045223326
934.0, 0.0006429742613261922
935.0, 0.000746873994934287
936.0, 0.0008152330784416892
937.0, 0.0007418391721391697
938.0, 0.0007496508501153189
939.0, 0.0007289150518705728
940.0, 0.0008686462818530406
941.0, 0.000844697813342336
942.0, 0.0009861477937725517
943.0, 0.0008261936933072739
944.0, 0.0008482475816505124
945.0, 0.0008888981950296216
946.0, 0.0008848911778425463
947.0, 0.0008430414179831106
948.0, 0.0008045132998207975
949.0, 0.0008068158020376368
950.0, 0.0008093855041580886
951.0, 0.0009303756869863928
952.0, 0.000912866384482518
953.0, 0.0008157038251594169
954.0, 0.0007109494796572838
955.0, 0.0006827489537363622
956.0, 0.0007375913023350614
957.0, 0.0007368185836600732
958.0, 0.0006637630157779261
959.0, 0.0006616321826510683
960.0, 0.0006520502779945566
961.0, 0.0005773229627451741
962.0, 0.0006085202452781603
963.0, 0.00057885838134665
964.0, 0.00046090595592622013
965.0, 0.00047196133946474767
966.0, 0.0005059574360863336
967.0, 0.000517004765878061
968.0, 0.0003911547668138691
969.0, 0.0004089171229262449
970.0, 0.0004646061654851948
971.0, 0.00037599983529775974
972.0, 0.00032533418528055987
973.0, 0.0004002322901297683
974.0, 0.0003447509003488266
975.0, 0.0003564928134543683
976.0, 0.0001735123600959746
977.0, 0.00026197977160348875
978.0, 0.00024987509446687637
979.0, 0.00017143756943644394
980.0, 0.00015097105167554502
981.0, 0.00017110713530523938
982.0, 0.00016182415290378585
983.0, 7.290798956929537e-05
984.0, 3.873750631281674e-05
985.0, 9.604207916781646e-06
986.0, 9.179397763909322e-05
987.0, 3.1141546654425725e-05
988.0, 1.4212831157332398e-05
989.0, 2.7426387888216648e-05
990.0, 8.635300973951007e-05
991.0, 0.00010935831374497747
992.0, 0.00016118651541150765
993.0, 0.00029243890015664964
994.0, 0.00038664758259406517
995.0, 0.0002267740621152701
996.0, 0.000229261210642394
997.0, 0.0002893068025764466
998.0, 0.00022154070713796558
999.0, 0.00016628422656465207
1000.0, 0.00019455088564658592
1001.0, 0.0001853173186707623
1002.0, 0.00026987400514836424
1003.0, 0.0003191244596359724
1004.0, 0.00031726007602027583
1005.0, 0.00023248022037164907
1006.0, 0.00018192216194058244
1007.0, 8.436641020341498e-05
1008.0, 7.434705724421767e-05
1009.0, 0.00027165236702823034
1010.0, 0.0001028352299926186
1011.0, 0.00018651554799923087
1012.0, 8.914751073610955e-05
1013.0, 0.00017527945492570434
1014.0, 9.927928472023214e-05
1015.0, 9.572315509800053e-06
1016.0, 1.6511912006652475e-05
1017.0, 7.548787803502615e-05
1018.0, 8.514303365868473e-05
1019.0, 0.000231027721760379
1020.0, 0.00022522020344149923
1021.0, 0.0003437335136433401
1022.0, 0.00039606436702979936
1023.0, 0.00038314359494998686
1024.0, 0.0007308659466612209
1025.0, 0.0010333178288058598
1026.0, 0.0008592042077775048
1027.0, 0.0008926575231718445
1028.0, 0.0010378327627838875
1029.0, 0.0013625996045306284
1030.0, 0.001446057885080756
1031.0, 0.0014785148384961345
1032.0, 0.0016571253835015766
1033.0, 0.0019162905486439783
1034.0, 0.002129327263590146
1035.0, 0.0023202117694644388
1036.0, 0.0025634678254855253
1037.0, 0.002925779829286665
1038.0, 0.003130080337872796
1039.0, 0.0035318672117684046
1040.0, 0.003932877765335977
1041.0, 0.004289683566498708
1042.0, 0.004631069511700602
1043.0, 0.00505686028318056
1044.0, 0.00556045505287897
1045.0, 0.00602082049214554
1046.0, 0.006546023411910925
1047.0, 0.0070267609720199515
1048.0, 0.007591075425161256
1049.0, 0.008371830471034533
1050.0, 0.00898825424481029
1051.0, 0.009761669538721351
1052.0, 0.010633150827702999
1053.0, 0.011491209143360919
1054.0, 0.012494564096027914
1055.0, 0.013618157010825463
1056.0, 0.014886528911695528
1057.0, 0.01639147398754447
1058.0, 0.018138650995613553
1059.0, 0.02007466873873071
1060.0, 0.022329360632543857
1061.0, 0.024593445616467327
1062.0, 0.027170368150732593
1063.0, 0.030410499261647832
1064.0, 0.033847983729069143
1065.0, 0.03744758172998214
1066.0, 0.04167014283445164
1067.0, 0.04667782882889699
1068.0, 0.05256624552625518
1069.0, 0.05920725721319863
1070.0, 0.06722139845617862
1071.0, 0.07593256947102832
1072.0, 0.08564454158393361
1073.0, 0.09717305514595558
1074.0, 0.11000251513513686
1075.0, 0.12486456803315903
1076.0, 0.14295961949325064
1077.0, 0.1641596305813584
1078.0, 0.1893931631163567
1079.0, 0.2193321927657696
1080.0, 0.2553344101004102
1081.0, 0.2968263902183702
1082.0, 0.34362984784878975
1083.0, 0.39619613403529763
1084.0, 0.4547387594904562
1085.0, 0.5179577546135486
1086.0, 0.5852217292463898
1087.0, 0.6566817810134138
1088.0, 0.7321517885871918
1089.0, 0.8074302595676683
1090.0, 0.878975341458323
1091.0, 0.9403178719032413
1092.0, 0.9825540308302244
1093.0, 0.9994507165455713
1094.0, 0.987466187777
1095.0, 0.9435469201089871
1096.0, 0.8737638755484919
1097.0, 0.7914809258427307
1098.0, 0.703627381481055
1099.0, 0.6160609822881108
1100.0, 0.535284467969299
1101.0, 0.4615920942581452
1102.0, 0.39425268988438705
1103.0, 0.3349062565384959
1104.0, 0.28259688918939024
1105.0, 0.23739324598692724
1106.0, 0.19995002008985718
1107.0, 0.1675315360415069
1108.0, 0.1407661830556808
1109.0, 0.11843436990478715
1110.0, 0.10010558014545903
1111.0, 0.0850253048935949
1112.0, 0.07234211338776073
1113.0, 0.061672943674420354
1114.0, 0.05262602239895593
1115.0, 0.04493162227724831
1116.0, 0.038641881037921384
1117.0, 0.033580768422150964
1118.0, 0.029168000879495826
1119.0, 0.025276486934958892
1120.0, 0.022097180237530125
1121.0, 0.01912535329275657
1122.0, 0.016752794553405764
1123.0, 0.014860130477295704
1124.0, 0.012987102368165842
1125.0, 0.011473462291781738
1126.0, 0.009938733800460004
1127.0, 0.008900197119145192
1128.0, 0.008033799527458
1129.0, 0.006913878235183764
1130.0, 0.00606268078703299
1131.0, 0.0053802413522518674
1132.0, 0.004770785571007546
1133.0, 0.004196033407818288
1134.0, 0.0036221771351322724
1135.0, 0.003133942464082885
1136.0, 0.0028222615733588807
1137.0, 0.0025146081135026255
1138.0, 0.0022375554326673655
1139.0, 0.0019499428897343028
1140.0, 0.0016978941336711314
1141.0, 0.0014092546572305401
1142.0, 0.001096321648241279
1143.0, 0.00096915315510891
1144.0, 0.0009050583166345405
1145.0, 0.0006921794348178671
1146.0, 0.0005220366144730184
1147.0, 0.00048161323743833943
1148.0, 0.00019615351860904928
1149.0, 0.00017396766359592286
1150.0, 0.00011435318834510921
1151.0, 4.121098141154325e-05
1152.0, 9.195060009752221e-05
1153.0, 9.493065696974284e-05
1154.0, 9.712289451314048e-05
1155.0, 0.00016668524618771612
1156.0, 0.00028645314912132547
1157.0, 0.0003434401503608042
1158.0, 0.00031172780974123677
1159.0, 0.000279155075442692
1160.0, 0.0003520034515008413
1161.0, 0.00015016093131601225
1162.0, 0.00018872876999877862
1163.0, 0.000321263440584533
1164.0, 0.00031389156481964077
1165.0, 0.0003003592766996079
1166.0, 0.0002807245195688457
1167.0, 0.0002542544907683045
1168.0, 0.00026794252299379987
1169.0, 0.0002197819631647664
1170.0, 8.233811143177734e-05
1171.0, 6.061612098768702e-05
1172.0, 8.884436990836233e-05
1173.0, 3.591509806070562e-05
1174.0, 0.0001177039729218129
1175.0, 0.00010791918105671241
1176.0, 6.556666315099306e-05
1177.0, 7.90624719742501e-05
1178.0, 3.432239668695227e-05
1179.0, 8.492998283111112e-05
1180.0, 0.00013732746467417384
1181.0, 0.00018142212115658751
1182.0, 0.00025912108071947707
1183.0, 0.0003866760905949477
1184.0, 0.00022239484056157884
1185.0, 0.00013456902441530316
1186.0, 0.00010269227698871316
1187.0, 0.00026415653932370157
1188.0, 0.0003964489756454662
1189.0, 0.00042491445222575855
1190.0, 0.0004553575545347592
1191.0, 0.0005105949917232669
1192.0, 0.0005214651151712487
1193.0, 0.0004823699279937436
1194.0, 0.0004908251753515422
1195.0, 0.000606925418180251
1196.0, 0.0007567660424093917
1197.0, 0.0007362258383719947
1198.0, 0.000750799905969273
1199.0, 0.000670806104468963
1200.0, 0.0014078142853311592
1201.0, 0.0011906047384661576
1202.0, 0.0013227742505568932
1203.0, 0.0016350424978213824
1204.0, 0.0011191833641388638
1205.0, 0.000935317525913575
1206.0, 0.0008731470490713368
1207.0, 0.001024084857926647
1208.0, 0.0009971027912896735
1209.0, 0.0009919542137979069
1210.0, 0.0010362152864564881
1211.0, 0.0010235065513523516
1212.0, 0.0011124093483790942
1213.0, 0.0012053779782193808
1214.0, 0.001184999855477705
1215.0, 0.0012125032649246618
1216.0, 0.0012283729070507088
1217.0, 0.0011406134193879679
1218.0, 0.0011367050093673407
1219.0, 0.001137789604086924
1220.0, 0.0011415178659694946
1221.0, 0.001548468976531548
1222.0, 0.0011884485598919283
1223.0, 0.0010543457102116585
1224.0, 0.0009085426726190334
1225.0, 0.0014612902997826055
1226.0, 0.0013597568556601367
1227.0, 0.0008200500117911033
1228.0, 0.000839184690904219
1229.0, 0.000982495609238695
1230.0, 0.0008422459472268002
1231.0, 0.0009270366853006851
1232.0, 0.0010005012883176367
1233.0, 0.000883887631040113
1234.0, 0.0008463018825888686
1235.0, 0.0007921188544488621
1236.0, 0.0008349781999100297
1237.0, 0.0007642981755674045
1238.0, 0.0006951487864273589
1239.0, 0.000663106442668002
1240.0, 0.0007024203909718685
1241.0, 0.0006954064919161117
1242.0, 0.0006214089310879418
1243.0, 0.0006350825422018136
1244.0, 0.0006924373110549343
1245.0, 0.0006417763149599417
1246.0, 0.00058251208294607
1247.0, 0.0005550161977197212
1248.0, 0.0005001420669104411
1249.0, 0.0005173560899708424
1250.0, 0.0005430296608327228
1251.0, 0.0004994403867677917
1252.0, 0.0004517267005024589
1253.0, 0.00042999963001662733
1254.0, 0.00043749625267053467
1255.0, 0.0004761674127804419
1256.0, 0.0004977762245912972
1257.0, 0.0005066394846871354
1258.0, 0.0005013637318937216
1259.0, 0.00038132474541960847
1260.0, 0.0004223080709261077
1261.0, 0.0003683529827717113
1262.0, 0.0003923108136424583
1263.0, 0.00020722858381923157
1264.0, 0.00031178134103971634
1265.0, 0.00022909209419660583
1266.0, 0.00016595187262557343
1267.0, 0.00024222740233610632
1268.0, 0.0002468913569569769
1269.0, 0.00027456998874959094
1270.0, 0.0002779313504784293
1271.0, 0.000246869426561172
1272.0, 0.00030067581756884187
1273.0, 0.0001757640271564069
1274.0, 0.00019113648573611166
1275.0, 0.00021765061016192853
1276.0, 0.0002954274432297054
1277.0, 0.00022898537003302545
1278.0, 0.00024731619805935584
1279.0, 0.00011238704623245613
1280.0, 0.00012457585541184371
1281.0, 0.00020417392232462852
1282.0, 0.00016344718468347898
1283.0, 3.2071317506051024e-05
1284.0, 5.62682773991304e-05
1285.0, 0.0001515431291863357
1286.0, 0.00013392284385310238
1287.0, 0.00010833094366548995
1288.0, 7.095627086546914e-05
1289.0, 4.915631065956805e-05
1290.0, 0.00011953097898116179
1291.0, 0.00012230824327577388
1292.0, 7.109489783585099e-05
1293.0, 0.00013329283196344282
1294.0, 7.512469073223831e-05
1295.0, 2.7570507570910963e-05
1296.0, 4.729673117677724e-05
1297.0, 4.5385815225160706e-05
1298.0, 2.7772659409372913e-06
1299.0, 8.864546370374732e-05
1300.0, 0.000141816411774183
1301.0, 2.8700187984527016e-05
1302.0, 7.940607590168474e-07
1303, 0.0
1304, 0.0
1305, 0.0
1306, 0.0
1307, 0.0
1308, 0.0
1309, 0.0
1310, 0.0
1311, 0.0
1312, 0.0
1313, 0.0
1314, 0.0
1315, 0.0
1316, 0.0
1317, 0.0
1318, 0.0
1319, 0.0
1320, 0.0
1321, 0.0
1322, 0.0
1323, 0.0
1324, 0.0
1325, 0.0
1326, 0.0
1327, 0.0
1328, 0.0
1329, 0.0
1330, 0.0
1331, 0.0
1332, 0.0
1333, 0.0
1334, 0.0
1335, 0.0
1336, 0.0
1337, 0.0
1338, 0.0
1339, 0.0
1340, 0.0
1341, 0.0
1342, 0.0
1343, 0.0
1344, 0.0
1345, 0.0
1346, 0.0
1347, 0.0
1348, 0.0
1349, 0.0
1350, 0.0
1351, 0.0
1352, 0.0
1353, 0.0
1354, 0.0
1355, 0.0
1356, 0.0
1357, 0.0
1358, 0.0
1359, 0.0
1360, 0.0
1361, 0.0
1362, 0.0
1363, 0.0
1364, 0.0
1365, 0.0
1366, 0.0
1367, 0.0
1368, 0.0
1369, 0.0
1370, 0.0
1371, 0.0
1372, 0.0
1373, 0.0
1374, 0.0
1375, 0.0
1376, 0.0
1377, 0.0
1378, 0.0
1379, 0.0
1380, 0.0
1381, 0.0
1382, 0.0
1383, 0.0
1384, 0.0
1385, 0.0
1386, 0.0
1387, 0.0
1388, 0.0
1389, 0.0
1390, 0.0
1391, 0.0
1392, 0.0
1393, 0.0
1394, 0.0
1395, 0.0
1396, 0.0
1397, 0.0
1398, 0.0
1399, 0.0
1400, 0.0
1401, 0.0
1402, 0.0
1403, 0.0
1404, 0.0
1405, 0.0
1406, 0.0
1407, 0.0
1408, 0.0
1409, 0.0
1410, 0.0
1411, 0.0
1412, 0.0
1413, 0.0
1414, 0.0
1415, 0.0
1416, 0.0
1417, 0.0
1418, 0.0
1419, 0.0
1420, 0.0
1421, 0.0
1422, 0.0
1423, 0.0
1424, 0.0
1425, 0.0
1426, 0.0
1427, 0.0
1428, 0.0
1429, 0.0
1430, 0.0
1431, 0.0
1432, 0.0
1433, 0.0
1434, 0.0
1435, 0.0
1436, 0.0
1437, 0.0
1438, 0.0
1439, 0.0
1440, 0.0
1441, 0.0
1442, 0.0
1443, 0.0
1444, 0.0
1445, 0.0
1446, 0.0
1447, 0.0
1448, 0.0
1449, 0.0
1450, 0.0
1451, 0.0
1452, 0.0
1453, 0.0
1454, 0.0
1455, 0.0
1456, 0.0
1457, 0.0
1458, 0.0
1459, 0.0
1460, 0.0
1461, 0.0
1462, 0.0
1463, 0.0
1464, 0.0
1465, 0.0
1466, 0.0
1467, 0.0
1468, 0.0
1469, 0.0
1470, 0.0
1471, 0.0
1472, 0.0
1473, 0.0
1474, 0.0
1475, 0.0
1476, 0.0
1477, 0.0
1478, 0.0
1479, 0.0
1480, 0.0
1481, 0.0
1482, 0.0
1483, 0.0
1484, 0.0
1485, 0.0
1486, 0.0
1487, 0.0
1488, 0.0
1489, 0.0
1490, 0.0
1491, 0.0
1492, 0.0
1493, 0.0
1494, 0.0
1495, 0.0
1496, 0.0
1497, 0.0
1498, 0.0
1499, 0.0
1500, 0.0
1501, 0.0
1502, 0.0
1503, 0.0
1504, 0.0
1505, 0.0
1506, 0.0
1507, 0.0
1508, 0.0
1509, 0.0
1510, 0.0
1511, 0.0
1512, 0.0
1513, 0.0
1514, 0.0
1515, 0.0
1516, 0.0
1517, 0.0
1518, 0.0
1519, 0.0
1520, 0.0
1521, 0.0
1522, 0.0
1523, 0.0
1524, 0.0
1525, 0.0
1526, 0.0
1527, 0.0
1528, 0.0
1529, 0.0
1530, 0.0
1531, 0.0
1532, 0.0
1533, 0.0
1534, 0.0
1535, 0.0
1536, 0.0
1537, 0.0
1538, 0.0
1539, 0.0
1540, 0.0
1541, 0.0
1542, 0.0
1543, 0.0
1544, 0.0
1545, 0.0
1546, 0.0
1547, 0.0
1548, 0.0
1549, 0.0
1550, 0.0
1551, 0.0
1552, 0.0
1553, 0.0
1554, 0.0
1555, 0.0
1556, 0.0
1557, 0.0
1558, 0.0
1559, 0.0
1560, 0.0
1561, 0.0
1562, 0.0
1563, 0.0
1564, 0.0
1565, 0.0
1566, 0.0
1567, 0.0
1568, 0.0
1569, 0.0
1570, 0.0
1571, 0.0
1572, 0.0
1573, 0.0
1574, 0.0
1575, 0.0
1576, 0.0
1577, 0.0
1578, 0.0
1579, 0.0
1580, 0.0
1581, 0.0
1582, 0.0
1583, 0.0
1584, 0.0
1585, 0.0
1586, 0.0
1587, 0.0
1588, 0.0
1589, 0.0
1590, 0.0
1591, 0.0
1592, 0.0
1593, 0.0
1594, 0.0
1595, 0.0
1596, 0.0
1597, 0.0
1598, 0.0
1599, 0.0
