30, 0.0
31, 0.0
32, 0.0
33, 0.0
34, 0.0
35, 0.0
36, 0.0
37, 0.0
38, 0.0
39, 0.0
40, 0.0
41, 0.0
42, 0.0
43, 0.0
44, 0.0
45, 0.0
46, 0.0
47, 0.0
48, 0.0
49, 0.0
50, 0.0
51, 0.0
52, 0.0
53, 0.0
54, 0.0
55, 0.0
56, 0.0
57, 0.0
58, 0.0
59, 0.0
60, 0.0
61, 0.0
62, 0.0
63, 0.0
64, 0.0
65, 0.0
66, 0.0
67, 0.0
68, 0.0
69, 0.0
70, 0.0
71, 0.0
72, 0.0
73, 0.0
74, 0.0
75, 0.0
76, 0.0
77, 0.0
78, 0.0
79, 0.0
80, 0.0
81, 0.0
82, 0.0
83, 0.0
84, 0.0
85, 0.0
86, 0.0
87, 0.0
88, 0.0
89, 0.0
90, 0.0
91, 0.0
92, 0.0
93, 0.0
94, 0.0
95, 0.0
96, 0.0
97, 0.0
98, 0.0
99, 0.0
100, 0.0
101, 0.0
102, 0.0
103, 0.0
104, 0.0
105, 0.0
106, 0.0
107, 0.0
108, 0.0
109, 0.0
110, 0.0
111, 0.0
112, 0.0
113, 0.0
114, 0.0
115, 0.0
116, 0.0
117, 0.0
118, 0.0
119, 0.0
120, 0.0
121, 0.0
122, 0.0
123, 0.0
124, 0.0
125, 0.0
126, 0.0
127, 0.0
128, 0.0
129, 0.0
130, 0.0
131, 0.0
132, 0.0
133, 0.0
134, 0.0
135.0, 0.001089814358493194
136.0, 0.0034586076631480593
137.0, 0.007934339787186398
138.0, 0.003848683915446379
139.0, 0.0035571022161484936
140.0, 0.009883183445754333
141.0, 0.003467747821176009
142.0, 0.005425078469541908
143.0, 0.009968389490890454
144.0, 0.00883719628972722
145.0, 0.010510793238721988
146.0, 0.014931568773564365
147.0, 0.02096907329467977
148.0, 0.015321590108350455
149.0, 0.019688137919825547
150.0, 0.023472323552456088
151.0, 0.014739582029462937
152.0, 0.01591522171569904
153.0, 0.014059883815536273
154.0, 0.008925102421275335
155.0, 0.008814907455127741
156.0, 0.011199949943036138
157.0, 0.011699062348410606
158.0, 0.006653730812126113
159.0, 0.013209098541940517
160.0, 0.013326806036683559
161.0, 0.010243305140134855
162.0, 0.019561591572874668
163.0, 0.024753406197901014
164.0, 0.03048322622951196
165.0, 0.0389519871383044
166.0, 0.05845166890650699
167.0, 0.07417592876540739
168.0, 0.0927891017384353
169.0, 0.1302891353299723
170.0, 0.16471800183731453
171.0, 0.2137243238317666
172.0, 0.2818008815491809
173.0, 0.3491242246705262
174.0, 0.4172794117756182
175.0, 0.4714612673384702
176.0, 0.48864378871097913
177.0, 0.41335105878389933
178.0, 0.3305299833194281
179.0, 0.2512479879010161
180.0, 0.17154776406110395
181.0, 0.12456555892160744
182.0, 0.09177442404975453
183.0, 0.06316499940812521
184.0, 0.04726630545758199
185.0, 0.03710432070464662
186.0, 0.02956005223752295
187.0, 0.016630741863188796
188.0, 0.018259600096527037
189.0, 0.017307384809976283
190.0, 0.008212147790447733
191.0, 0.011528434520112768
192.0, 0.011597296097358422
193.0, 0.009514449049983139
194.0, 0.006329283025302933
195.0, 0.011276720928936456
196.0, 0.011428589499508656
197.0, 0.007268497420450613
198.0, 0.016357163100487678
199.0, 0.016579843671751974
200.0, 0.016737999585511962
201.0, 0.02300393970722331
202.0, 0.027767505002405952
203.0, 0.030110840331048657
204.0, 0.03289529450364844
205.0, 0.044317891979305815
206.0, 0.04341631432311193
207.0, 0.04920826717753176
208.0, 0.06624860701645262
209.0, 0.0644384722598268
210.0, 0.0685534942409387
211.0, 0.07381762654993242
212.0, 0.07481458428254345
213.0, 0.06814699963135701
214.0, 0.06708752629007306
215.0, 0.06880761068357333
216.0, 0.05402974057778906
217.0, 0.05558272999313305
218.0, 0.05790373634694109
219.0, 0.053759458646386246
220.0, 0.05810152833144297
221.0, 0.06311573189798687
222.0, 0.06484422964827413
223.0, 0.05553137406336162
224.0, 0.0611489404753251
225.0, 0.057953499599396566
226.0, 0.045924287683849874
227.0, 0.05335271335364553
228.0, 0.05358392772455183
229.0, 0.05435300743486795
230.0, 0.06071622720424333
231.0, 0.07167583675374258
232.0, 0.07537340203866427
233.0, 0.07464369158797891
234.0, 0.07532663917320655
235.0, 0.07110419575822984
236.0, 0.06666080133931157
237.0, 0.06173158577472076
238.0, 0.04536468073297878
239.0, 0.03315833897564048
240.0, 0.026096331629991486
241.0, 0.02574364178103207
242.0, 0.013967120360677406
243.0, 0.013397423595692801
244.0, 0.017674215058134136
245.0, 0.010630325320826991
246.0, 0.014271040449503997
247.0, 0.017648076639146054
248.0, 0.018006446889739038
249.0, 0.01417684203837276
250.0, 0.019076894869431104
251.0, 0.02174681961366572
252.0, 0.013625605357827772
253.0, 0.025550661439378758
254.0, 0.028432223072567733
255.0, 0.026160563363528785
256.0, 0.028585319970314285
257.0, 0.027086687691740063
258.0, 0.018436256837244386
259.0, 0.0048242972689439105
260.0, 0.009098893306736003
261.0, 0.010208698549984333
262.0, 0.0075820486292597555
263.0, 0.0003821064928906468
264.0, 0.004345087952935938
265.0, 0.004808363700237595
266.0, 0.004148724936378711
267.0, 0.006912978264938203
268.0, 0.004359359432256794
269.0, 0.007354563557545828
270.0, 0.01434758146221568
271.0, 0.0070543784532853225
272.0, 0.01295993690570823
273.0, 0.021107118348722084
274.0, 0.02633053689796112
275.0, 0.029267053742098592
276.0, 0.04364225283744815
277.0, 0.06058496006285348
278.0, 0.06874368486603613
279.0, 0.09220413698896031
280.0, 0.10530552109339998
281.0, 0.10825327984067586
282.0, 0.1095360453834495
283.0, 0.10208425155330783
284.0, 0.08471489680185067
285.0, 0.059004000712537176
286.0, 0.05381075431718428
287.0, 0.03778142890120427
288.0, 0.024019816555290428
289.0, 0.023580384069499544
290.0, 0.01593763115394125
291.0, 0.01183470110947711
292.0, 0.012546136991318922
293.0, 0.02078185067905235
294.0, 0.01797212300808719
295.0, 0.02303510418689729
296.0, 0.034462080427478066
297.0, 0.02709982719457523
298.0, 0.03353172373477147
299.0, 0.03924795251424728
300.0, 0.037745414531792185
301.0, 0.031299570531674446
302.0, 0.032549203433315195
303.0, 0.031013794049219983
304.0, 0.015136978260822534
305.0, 0.01995912357488357
306.0, 0.018588552104485602
307.0, 0.01323173221463243
308.0, 0.012514719529948738
309.0, 0.01529443140352044
310.0, 0.013363082328258426
311.0, 0.008692291730879183
312.0, 0.023021571645691605
313.0, 0.023259668436439368
314.0, 0.02636309562434702
315.0, 0.03990134804170252
316.0, 0.0448810211137957
317.0, 0.04729940581457839
318.0, 0.04993802976643303
319.0, 0.055739766954145
320.0, 0.04114490663364262
321.0, 0.036904721756377074
322.0, 0.03671949430456081
323.0, 0.0236640547768519
324.0, 0.021783592287107145
325.0, 0.022091764664221865
326.0, 0.021229068411608047
327.0, 0.010735041191888044
328.0, 0.014283164825804148
329.0, 0.013623083217539802
330.0, 0.0032989626853395376
331.0, 0.009356554159745047
332.0, 0.0062436267264245615
333.0, 0.001974872225256068
334.0, 0.0027397583454613567
335.0, 0.002582897721763051
336.0, 0.006328736277334367
337.0, 0.009411040438955087
338.0, 0.004388440850902644
339.0, 0.007127515327853524
340.0, 0.006927067242987417
341.0, 0.003833580666874888
342.0, 0.0011890983657596524
343.0, 0.006446623473274493
344.0, 0.008475466387781428
345.0, 0.005783666369575977
346.0, 0.006558576976171521
347.0, 0.006515487914150715
348.0, 0.005185783237038608
349.0, 0.0028007666251835812
350.0, 0.008810381288218906
351.0, 0.01646760480054991
352.0, 0.020387948598183214
353.0, 0.015566470723223758
354.0, 0.03337960010878162
355.0, 0.03983683037680771
356.0, 0.04353777140030209
357.0, 0.05866090661837489
358.0, 0.07266154001995613
359.0, 0.07991004706348111
360.0, 0.08501729218100179
361.0, 0.1019263693778888
362.0, 0.0915431426116624
363.0, 0.08481511777923685
364.0, 0.08416527934266688
365.0, 0.06901659635610471
366.0, 0.05452256887637733
367.0, 0.04495751425198398
368.0, 0.04040187867735616
369.0, 0.023234949500698564
370.0, 0.023957643923848092
371.0, 0.02404484461118562
372.0, 0.0125213602898004
373.0, 0.016196070790629007
374.0, 0.01727462978268823
375.0, 0.015421541768306016
376.0, 0.010031438391444053
377.0, 0.020067143335882925
378.0, 0.01848112292498281
379.0, 0.01461959530313085
380.0, 0.025422266013053717
381.0, 0.02148818814795358
382.0, 0.017368648206617394
383.0, 0.01559587080591661
384.0, 0.019080517113619053
385.0, 0.0077153138418253
386.0, 0.0051336105108330185
387.0, 0.011041019510667733
388.0, 0.005834186150204205
389.0, 0.0026196837508609674
390.0, 0.0017366015878779724
391.0, 0.003652672621996931
392.0, 0.01044621701276974
393.0, 0.006017785436811735
394.0, 0.004791165606423501
395.0, 0.011849644477001571
396.0, 0.0033844748271220884
397.0, 0.0014718893106730098
398.0, 0.002568838773221432
399.0, 0.00448474009273076
400.0, 0.009656433185824573
401.0, 0.00625321039423041
402.0, 0.006426583594684821
403.0, 0.0223863414889486
404.0, 0.01770973456537417
405.0, 0.02083577338293154
406.0, 0.02925057322363324
407.0, 0.039010061082972385
408.0, 0.03612502442221196
409.0, 0.04605205002283345
410.0, 0.059086640528788995
411.0, 0.053347360265111846
412.0, 0.06507698131963466
413.0, 0.07134997341784317
414.0, 0.07167451984529746
415.0, 0.07156726795126006
416.0, 0.08300447100081255
417.0, 0.08259511887733452
418.0, 0.07360286156047087
419.0, 0.08255958884041295
420.0, 0.0736732912417097
421.0, 0.06591106537364834
422.0, 0.06376408893677989
423.0, 0.06572623703446541
424.0, 0.05624013976384674
425.0, 0.05565458053950328
426.0, 0.0657379811388285
427.0, 0.051793674558741884
428.0, 0.05353331822613232
429.0, 0.05645709322246026
430.0, 0.0542166591562208
431.0, 0.045462114743230385
432.0, 0.04983662952884836
433.0, 0.04934512987734857
434.0, 0.036530358249528896
435.0, 0.04565236068889576
436.0, 0.04159729613724742
437.0, 0.0352356697806307
438.0, 0.033857395733877735
439.0, 0.041750694130556674
440.0, 0.036781551727368286
441.0, 0.03487748258078896
442.0, 0.04815287344861491
443.0, 0.03759427568204466
444.0, 0.03571041170537703
445.0, 0.03750138873810692
446.0, 0.03837967492202925
447.0, 0.02578885259809646
448.0, 0.030122679380743835
449.0, 0.03518212066893431
450.0, 0.02296646461532459
451.0, 0.02885709656238
452.0, 0.032467646334375
453.0, 0.031417300508346326
454.0, 0.023058909146976933
455.0, 0.03427382643243742
456.0, 0.03045451422454765
457.0, 0.024209860341584215
458.0, 0.0350409927995492
459.0, 0.028921061107143892
460.0, 0.02406334015630346
461.0, 0.024822931088473336
462.0, 0.036770752986805995
463.0, 0.02376452044783269
464.0, 0.02562966279401284
465.0, 0.03267915004055399
466.0, 0.024456168557070244
467.0, 0.0244763940109192
468.0, 0.027816427318875153
469.0, 0.028470200391597346
470.0, 0.01623398408930919
471.0, 0.028685915111078698
472.0, 0.02657785950101527
473.0, 0.01895568049853516
474.0, 0.028847938014250583
475.0, 0.032127382467743895
476.0, 0.030696507545670992
477.0, 0.0319590149717697
478.0, 0.04988797974550395
479.0, 0.04329906358189087
480.0, 0.051744034265857095
481.0, 0.06731360322451588
482.0, 0.06753163331037856
483.0, 0.07206849451157743
484.0, 0.08160690909490617
485.0, 0.0893880548120729
486.0, 0.08212485236473194
487.0, 0.09906261462384049
488.0, 0.1017000954464054
489.0, 0.09782954900313225
490.0, 0.10872490012699074
491.0, 0.1188534888348404
492.0, 0.11769293384316874
493.0, 0.11795488612158778
494.0, 0.144375445605343
495.0, 0.13789956407018245
496.0, 0.1433642178832129
497.0, 0.1596084955625243
498.0, 0.1786995086591324
499.0, 0.17805742744591024
500.0, 0.19723335387773333
501.0, 0.219722955611504
502.0, 0.21480404466859715
503.0, 0.2350994588204541
504.0, 0.2457313387310716
505.0, 0.24742130094084097
506.0, 0.24404349037551235
507.0, 0.2598787493313922
508.0, 0.25446335991570224
509.0, 0.24675105041211734
510.0, 0.2638080429424297
511.0, 0.2534081021853927
512.0, 0.25130279103809294
513.0, 0.25889757615308245
514.0, 0.2766522338000436
515.0, 0.257409864116851
516.0, 0.26445405106383696
517.0, 0.2746338595736011
518.0, 0.2639747063555394
519.0, 0.26602712868377204
520.0, 0.2703529602480122
521.0, 0.266184173157153
522.0, 0.24571276537567424
523.0, 0.26489222183459504
524.0, 0.2603121532811199
525.0, 0.25633104482585684
526.0, 0.2695325757236456
527.0, 0.2722885086789314
528.0, 0.26888321245200514
529.0, 0.27958188122730787
530.0, 0.31107518518220934
531.0, 0.294877471446101
532.0, 0.3094217806669996
533.0, 0.32595762178154525
534.0, 0.330985522187943
535.0, 0.3326334540331594
536.0, 0.34415353412106503
537.0, 0.3424909822096551
538.0, 0.32581987824068886
539.0, 0.3372306224818489
540.0, 0.3274791422046785
541.0, 0.31080027977534347
542.0, 0.29598848081350765
543.0, 0.3012748175165267
544.0, 0.2721931567925347
545.0, 0.2603207735370414
546.0, 0.26565630912415267
547.0, 0.2497193776429352
548.0, 0.24423672109815717
549.0, 0.2494387617793172
550.0, 0.25524831198468334
551.0, 0.23799936406368916
552.0, 0.2699899120938004
553.0, 0.28170705400623614
554.0, 0.2839819283907298
555.0, 0.30924758701815774
556.0, 0.34142772639215685
557.0, 0.36255206070836565
558.0, 0.3903071683007095
559.0, 0.4486159823428898
560.0, 0.45632096852360593
561.0, 0.480028964109398
562.0, 0.5071521291960516
563.0, 0.5238203197506957
564.0, 0.5022718101885881
565.0, 0.5172344152472341
566.0, 0.5218995057168954
567.0, 0.4904286128790418
568.0, 0.5028995177664506
569.0, 0.49311173662030316
570.0, 0.4690788909440842
571.0, 0.4399107638065147
572.0, 0.4397709200730537
573.0, 0.3964576867421339
574.0, 0.3577073520356938
575.0, 0.33379323749633555
576.0, 0.3018355253625321
577.0, 0.26813397868399175
578.0, 0.24788977827743763
579.0, 0.23375738904699628
580.0, 0.19784923042407673
581.0, 0.19420137361904904
582.0, 0.18582186335552883
583.0, 0.1726808920549398
584.0, 0.16271472115759894
585.0, 0.17068249497483673
586.0, 0.16018913346674443
587.0, 0.1516271625594271
588.0, 0.16992062883264644
589.0, 0.1634746436223573
590.0, 0.16683235951807512
591.0, 0.1797133525154639
592.0, 0.19941109892251166
593.0, 0.1950698694214662
594.0, 0.22419091514166686
595.0, 0.25193890062213475
596.0, 0.2672719735134168
597.0, 0.3083739171921767
598.0, 0.36598565452331533
599.0, 0.4116907061495826
600.0, 0.4495107722127948
601.0, 0.5225554696086061
602.0, 0.5433853356291538
603.0, 0.5578856884971553
604.0, 0.5676585662885703
605.0, 0.5600791959624885
606.0, 0.485274725128697
607.0, 0.4389654584641483
608.0, 0.4007209497425664
609.0, 0.33678880721646653
610.0, 0.3082009963531387
611.0, 0.28479291081212993
612.0, 0.2589690576245259
613.0, 0.22818580531499885
614.0, 0.23342003185254243
615.0, 0.21123632274955637
616.0, 0.19402869661035205
617.0, 0.19281396543528062
618.0, 0.18747525575390817
619.0, 0.1659634659532759
620.0, 0.1571377783446172
621.0, 0.15576129271617878
622.0, 0.127857953254823
623.0, 0.1292778298808716
624.0, 0.12382047211004107
625.0, 0.11184593846983058
626.0, 0.10057585825626142
627.0, 0.11238102231259654
628.0, 0.10431982471400689
629.0, 0.09734162852856065
630.0, 0.10915430247451613
631.0, 0.1101642445132437
632.0, 0.1064198654352316
633.0, 0.11340714736796706
634.0, 0.13125695352108294
635.0, 0.1182736107863181
636.0, 0.13020931160506943
637.0, 0.13723878184171004
638.0, 0.13402588232953971
639.0, 0.12726213824163857
640.0, 0.13528153364325646
641.0, 0.12257807845002752
642.0, 0.10441729351469282
643.0, 0.10769216552619097
644.0, 0.09453165067172702
645.0, 0.07823813148764419
646.0, 0.07043954444297358
647.0, 0.07605989644374682
648.0, 0.05288096063792445
649.0, 0.055000327583179284
650.0, 0.056122638441158494
651.0, 0.04786024886737046
652.0, 0.0399469513840898
653.0, 0.048166471137811584
654.0, 0.04231975690443357
655.0, 0.03166194584578459
656.0, 0.045144383768884265
657.0, 0.03675323366790946
658.0, 0.03197978913198943
659.0, 0.03343611870625189
660.0, 0.040704498973924474
661.0, 0.02470701550051424
662.0, 0.030336366847560723
663.0, 0.03494657859699973
664.0, 0.028636821036254295
665.0, 0.020859528592925038
666.0, 0.028916039797742158
667.0, 0.02573510491042027
668.0, 0.016617325073204323
669.0, 0.027853823357047454
670.0, 0.021587017924351568
671.0, 0.016354520735396273
672.0, 0.016448065308517692
673.0, 0.02368968830622978
674.0, 0.006702952319503203
675.0, 0.012644914237665571
676.0, 0.017157278619434568
677.0, 0.009905191485061927
678.0, 0.007599549208205301
679.0, 0.015630583687382682
680.0, 0.012903695279234347
681.0, 0.004802709751952703
682.0, 0.01441210593310983
683.0, 0.009712182462519488
684.0, 0.0050763936117533374
685.0, 0.006268680936478987
686.0, 0.01656453191637132
687.0, 0.007637876700849349
688.0, 0.009263938114473635
689.0, 0.009305262538949617
690.0, 0.003926154090345202
691.0, 0.0027205421601761972
692.0, 0.010374651144783475
693.0, 0.010905201191780322
694.0, 0.0073953673579435514
695.0, 0.011247180141884963
696.0, 0.004207301959671373
697.0, 0.0025771616459266352
698.0, 0.005297404420937803
699.0, 0.010092909484910843
700.0, 0.009398359291748773
701.0, 0.009276213851097318
702.0, 0.006513231070658605
703.0, 0.0024185914387371103
704.0, 0.004754114546739035
705.0, 0.007892799272687805
706.0, 0.00887798329077672
707.0, 0.008159216930817623
708.0, 0.006821569403684733
709.0, 0.0022215136399881758
710.0, 0.0032454109134588097
711.0, 0.0064195552251879945
712.0, 0.008836672625494686
713.0, 0.0064259361604662255
714.0, 0.008162719562220904
715.0, 0.006645908570592002
716.0, 0.002942008007408386
717.0, 0.0022487939357417118
718.0, 0.010810162965083029
719.0, 0.0086973499020134
720.0, 0.006439729106220902
721.0, 0.01152994309506671
722.0, 0.007386018968623127
723.0, 0.003140183926127593
724.0, 0.006900797056483434
725.0, 0.013932005007010641
726.0, 0.004902459617651156
727.0, 0.011518255056504762
728.0, 0.011157210581849224
729.0, 0.00574344667320789
730.0, 0.0008026749850541248
731.0, 0.015132200944958252
732.0, 0.010128994323770388
733.0, 0.006925984839735742
734.0, 0.010565910482136075
735.0, 0.007027926168314687
736.0, 0.003289558201474328
737.0, 0.00977477383428016
738.0, 0.014828780016205275
739.0, 0.003284144004026397
740.0, 0.0092416001295305
741.0, 0.010570409672389142
742.0, 0.007114514099387019
743.0, 0.0034321338472466717
744.0, 0.017797555667633542
745.0, 0.006757097360333824
746.0, 0.0075918118397292535
747.0, 0.014961422620937456
748.0, 0.012767814037209918
749.0, 0.006192589376136563
750.0, 0.015620679512562028
751.0, 0.017140143786246398
752.0, 0.00533338275980994
753.0, 0.015491149801725742
754.0, 0.01714563130074479
755.0, 0.012743168669972042
756.0, 0.011720803888985288
757.0, 0.026238343292242484
758.0, 0.012052596622423375
759.0, 0.01621109332337182
760.0, 0.023913636308721738
761.0, 0.02509149647421286
762.0, 0.01367616965864028
763.0, 0.027631996428441587
764.0, 0.02672386179340463
765.0, 0.01992821566042092
766.0, 0.029147455553801726
767.0, 0.03498775558036174
768.0, 0.02440311905698594
769.0, 0.024246471353906403
770.0, 0.03781501621170587
771.0, 0.022361970667760026
772.0, 0.022861914002208397
773.0, 0.028000988038341862
774.0, 0.0280094136757899
775.0, 0.01475740755834583
776.0, 0.031257428496768304
777.0, 0.025846084754051896
778.0, 0.020445997620861352
779.0, 0.023693772492799907
780.0, 0.03054337222228139
781.0, 0.01678502326075023
782.0, 0.020896235751003526
783.0, 0.028385625091584033
784.0, 0.020982476176486565
785.0, 0.021637443290286464
786.0, 0.031032157976027437
787.0, 0.02794797820429312
788.0, 0.018286674744797452
789.0, 0.03538160760309174
790.0, 0.0269349323622482
791.0, 0.023022606678881608
792.0, 0.02622069952926024
793.0, 0.03364256806616144
794.0, 0.021879989334954997
795.0, 0.03249260922605335
796.0, 0.03628855265189822
797.0, 0.031395086130626894
798.0, 0.028288072105797757
799.0, 0.04196286816237865
800.0, 0.03458241390397758
801.0, 0.031576263761360045
802.0, 0.04216188105610944
803.0, 0.037318426244118685
804.0, 0.031579423000280146
805.0, 0.03680829598681963
806.0, 0.03985253950024856
807.0, 0.02466659136682276
808.0, 0.03282715156382415
809.0, 0.032941258441318705
810.0, 0.026385556828950683
811.0, 0.02127808762714096
812.0, 0.03682139023665449
813.0, 0.022590361262930864
814.0, 0.022156222034592103
815.0, 0.02740762220617478
816.0, 0.027596344075924432
817.0, 0.013466513143160105
818.0, 0.02493811640807915
819.0, 0.0246297817473858
820.0, 0.017027236423419485
821.0, 0.022409717591614482
822.0, 0.025799300064766592
823.0, 0.01329689266538963
824.0, 0.01211199252088645
825.0, 0.024319646352432778
826.0, 0.01350593971112627
827.0, 0.011108510489644305
828.0, 0.017409387811035522
829.0, 0.017737377689778733
830.0, 0.004271657939690459
831.0, 0.02066442255368028
832.0, 0.016992935072517305
833.0, 0.011463495730281813
834.0, 0.011747265556929412
835.0, 0.0218116573618498
836.0, 0.006289041166021416
837.0, 0.012003646175986208
838.0, 0.01709534639717276
839.0, 0.012295590360533197
840.0, 0.004308625938200797
841.0, 0.016314612144178682
842.0, 0.010305646323813379
843.0, 0.005045479906150161
844.0, 0.01585482410756641
845.0, 0.013426520365191884
846.0, 0.005236651140043066
847.0, 0.011185652408670652
848.0, 0.017698440883675587
849.0, 0.00030033666858650734
850.0, 0.007579791191941361
851.0, 0.013397262532985111
852.0, 0.011293795500193335
853.0, 0.006195611341889605
854.0, 0.016938773719699617
855.0, 0.0061817319143025184
856.0, 0.004829522549735643
857.0, 0.010144231184354022
858.0, 0.015454490497799829
859.0, 0.005491609514690389
860.0, 0.014039463963784003
861.0, 0.011643064911736573
862.0, 0.00409933692166936
863.0, 0.0037222716217123657
864.0, 0.016548196557183988
865.0, 0.011937165507676635
866.0, 0.010171941508040442
867.0, 0.011182616493429247
868.0, 0.004859351666227225
869.0, 0.003687599132165518
870.0, 0.010027700732078114
871.0, 0.011142616852364553
872.0, 0.005788878293379747
873.0, 0.007384072797993525
874.0, 0.006783112665639227
875.0, 0.006744349551718636
876.0, 0.013639404182628375
877.0, 0.023958546708615636
878.0, 0.0026438999304408926
879.0, 0.00872181843522485
880.0, 0.01136287982219465
881.0, 0.008120138289712305
882.0, 0.0039055541528534125
883.0, 0.020145223828823392
884.0, 0.009392989263059485
885.0, 0.0021274443593420587
886.0, 0.004984443657805594
887.0, 0.014703979094006269
888.0, 0.0064181443082536056
889.0, 0.012828909881937734
890.0, 0.011505095187118572
891.0, 0.0018181280254290124
892.0, 0.00016493754174680126
893.0, 0.011958986660319068
894.0, 0.010198085066963191
895.0, 0.008279903536277722
896.0, 0.009940328631836456
897.0, 0.003941049238980357
898.0, 0.004389711173661426
899.0, 0.01070905583776798
900.0, 0.012218599769092973
901.0, 0.005628234436448646
902.0, 0.009339176724183067
903.0, 0.009701982882991607
904.0, 0.006620723665663069
905.0, 0.00845642108988583
906.0, 0.01779672041513537
907.0, 0.002636316813075486
908.0, 0.0027071503771226857
909.0, 0.007067252393193998
910.0, 0.009520722377754764
911.0, 0.0068617966575842786
912.0, 0.014213679684978718
913.0, 0.005967219618299692
914.0, 0.0032367988379954885
915.0, 0.010121140369323397
916.0, 0.021870940576340415
917.0, 0.004841587787064671
918.0, 0.015403997606872596
919.0, 0.01948249999654052
920.0, 0.011684865366382524
921.0, 0.0050958069977316885
922.0, 0.025503621555563315
923.0, 0.015551485097210778
924.0, 0.01189472064112697
925.0, 0.021257696724857413
926.0, 0.022426199425467322
927.0, 0.01211177010846862
928.0, 0.023325485681332858
929.0, 0.026582547751736626
930.0, 0.017339111444328537
931.0, 0.02527056984763906
932.0, 0.03562131665942225
933.0, 0.026747862499820953
934.0, 0.027811696623077857
935.0, 0.043550974636298256
936.0, 0.032072387751403794
937.0, 0.035316309124928454
938.0, 0.047449801198525696
939.0, 0.04890952188851704
940.0, 0.03856932811367816
941.0, 0.058733519736305105
942.0, 0.06088384171676953
943.0, 0.059632923650757154
944.0, 0.0676911930119282
945.0, 0.0836877786417928
946.0, 0.06852134961104997
947.0, 0.08778006912545387
948.0, 0.10137863625716224
949.0, 0.10285459345208864
950.0, 0.09909069091984413
951.0, 0.12622100567321212
952.0, 0.11646920827533197
953.0, 0.11561849234520707
954.0, 0.12495875137052771
955.0, 0.13386262748511135
956.0, 0.1114330556917549
957.0, 0.12655480163522714
958.0, 0.12519098909881649
959.0, 0.11648299834424988
960.0, 0.11691002648542528
961.0, 0.1340308306134029
962.0, 0.12033759231439897
963.0, 0.12462634527742802
964.0, 0.13859160818025051
965.0, 0.1457031150512826
966.0, 0.1341875489145717
967.0, 0.1641944632951421
968.0, 0.17081752981598958
969.0, 0.17426864058784494
970.0, 0.1980356810353848
971.0, 0.22686379373025536
972.0, 0.22049680624361623
973.0, 0.246441590863615
974.0, 0.27190014404798163
975.0, 0.26801985678472984
976.0, 0.27246545269332567
977.0, 0.2933229283525908
978.0, 0.2828783066134454
979.0, 0.27559720207927096
980.0, 0.2950846029485838
981.0, 0.29622397021853225
982.0, 0.2882327546357838
983.0, 0.30978132636808214
984.0, 0.32759223052082653
985.0, 0.32609466658037867
986.0, 0.3594164736706254
987.0, 0.40189258594698657
988.0, 0.4052122810583307
989.0, 0.42099673594820297
990.0, 0.46319423596170106
991.0, 0.44229458326009324
992.0, 0.42252096250703447
993.0, 0.4171829816060067
994.0, 0.3912812637244823
995.0, 0.3448166251474678
996.0, 0.3440935345322168
997.0, 0.31660146199576067
998.0, 0.28619053924068283
999.0, 0.27749934737039667
1000.0, 0.2832378638343785
1001.0, 0.25387750221488325
1002.0, 0.26592775779647404
1003.0, 0.283418592264196
1004.0, 0.28444365630326635
1005.0, 0.2832842331303982
1006.0, 0.3280867450791558
1007.0, 0.3229176071780612
1008.0, 0.3407365646845518
1009.0, 0.3813337086539675
1010.0, 0.42329274206246503
1011.0, 0.4358633991692628
1012.0, 0.5157184761332224
1013.0, 0.5758101555716869
1014.0, 0.6268601115870535
1015.0, 0.6999089749492469
1016.0, 0.8196037958215138
1017.0, 0.8491000664618327
1018.0, 0.9305802651882586
1019.0, 0.9831914320583163
1020.0, 0.9977497026630129
1021.0, 0.9927837859009991
1022.0, 0.9986274995202227
1023.0, 0.9745869269188802
1024.0, 0.9329807131202766
1025.0, 0.8976032674373041
1026.0, 0.8698113637188646
1027.0, 0.7663081205360682
1028.0, 0.7383487528655545
1029.0, 0.6986912371240438
1030.0, 0.6427887808188356
1031.0, 0.5914131491812225
1032.0, 0.5962748731601446
1033.0, 0.5451900960168481
1034.0, 0.5184056529057499
1035.0, 0.5079109008471492
1036.0, 0.49214232677449543
1037.0, 0.44097926170494156
1038.0, 0.4635200116742349
1039.0, 0.4441825477118902
1040.0, 0.4201031311215495
1041.0, 0.4132458237749832
1042.0, 0.42761472953892415
1043.0, 0.3834718849343018
1044.0, 0.3808343522374956
1045.0, 0.3745984159565065
1046.0, 0.3516675752574554
1047.0, 0.319951481354232
1048.0, 0.3329885953084856
1049.0, 0.3058129431659354
1050.0, 0.29053578632249755
1051.0, 0.2886966121018001
1052.0, 0.28589482755573303
1053.0, 0.2524806877313575
1054.0, 0.26667431895366345
1055.0, 0.263555885227705
1056.0, 0.24896153261061496
1057.0, 0.2411285642308239
1058.0, 0.2658915985180816
1059.0, 0.2478725809748678
1060.0, 0.25262938095647364
1061.0, 0.26290233942654556
1062.0, 0.2640988556169303
1063.0, 0.24948146686456957
1064.0, 0.2705256077203929
1065.0, 0.2578525137013529
1066.0, 0.24094163416928083
1067.0, 0.23583726222468504
1068.0, 0.24082066499421012
1069.0, 0.19763642021485692
1070.0, 0.20391512613421728
1071.0, 0.2001752530869111
1072.0, 0.18120154328808427
1073.0, 0.1611943823245206
1074.0, 0.1749192982066772
1075.0, 0.14342119256380462
1076.0, 0.1320397292561452
1077.0, 0.1342927964455264
1078.0, 0.1303815455144108
1079.0, 0.09780756643402083
1080.0, 0.11184716499155856
1081.0, 0.10475395856371844
1082.0, 0.089695212517148
1083.0, 0.08566150212580417
1084.0, 0.09918136708743339
1085.0, 0.0705873363502598
1086.0, 0.07335933994313677
1087.0, 0.07700047527395182
1088.0, 0.06822461421463684
1089.0, 0.05454934803511265
1090.0, 0.07509566944299105
1091.0, 0.05719623273170388
1092.0, 0.04663411994869348
1093.0, 0.05083729410800373
1094.0, 0.053882458802894766
1095.0, 0.03121417272815947
1096.0, 0.043014187097219866
1097.0, 0.04419452929087425
1098.0, 0.03226962629521949
1099.0, 0.029699437356325766
1100.0, 0.04568003425712003
1101.0, 0.024422568466196365
1102.0, 0.02560955403446473
1103.0, 0.035657106532901994
1104.0, 0.030603219607472025
1105.0, 0.016977887376426935
1106.0, 0.034734394055641576
1107.0, 0.03108051294696707
1108.0, 0.020051321848839967
1109.0, 0.025641525416873315
1110.0, 0.031002960810266038
1111.0, 0.014470078856650123
1112.0, 0.02129398130106021
1113.0, 0.02777451746581772
1114.0, 0.015649603163864486
1115.0, 0.014315527432538961
1116.0, 0.029777765360924045
1117.0, 0.0214610983303604
1118.0, 0.016600079027743686
1119.0, 0.03132267360052135
1120.0, 0.028459658214602765
1121.0, 0.017724387744121856
1122.0, 0.02773198044265241
1123.0, 0.034039780773910025
1124.0, 0.018147206357877345
1125.0, 0.02613881338118401
1126.0, 0.03335990572056651
1127.0, 0.023388144947927687
1128.0, 0.01731532606263738
1129.0, 0.03862411250659906
1130.0, 0.023478566667166495
1131.0, 0.020714741278224393
1132.0, 0.03217318485040935
1133.0, 0.032191179921967496
1134.0, 0.013869428704121781
1135.0, 0.03597659142616932
1136.0, 0.03277852453032467
1137.0, 0.023390135581911116
1138.0, 0.028865546710260776
1139.0, 0.046423850414578256
1140.0, 0.02309630199987598
1141.0, 0.032874613153467694
1142.0, 0.041699311780153445
1143.0, 0.03716622200744892
1144.0, 0.027567436480745486
1145.0, 0.05721502715794453
1146.0, 0.044264159758122645
1147.0, 0.044260633801697966
1148.0, 0.054958013249091095
1149.0, 0.05847919215811451
1150.0, 0.032125015068054395
1151.0, 0.05270402787360427
1152.0, 0.049602472387656894
1153.0, 0.03583195868115043
1154.0, 0.03409669201254943
1155.0, 0.05143996282817976
1156.0, 0.031097355271300774
1157.0, 0.03496677090627942
1158.0, 0.04473528445136126
1159.0, 0.03916542900512282
1160.0, 0.028390187976932296
1161.0, 0.044665400550761306
1162.0, 0.039534336692811284
1163.0, 0.02944881802051792
1164.0, 0.03912145774963032
1165.0, 0.04288770576052933
1166.0, 0.030882341977449497
1167.0, 0.05184123887685535
1168.0, 0.05859411547654303
1169.0, 0.03573831540377477
1170.0, 0.034505731758970905
1171.0, 0.0458898806387248
1172.0, 0.0352864766566381
1173.0, 0.02145459718756011
1174.0, 0.042480443124627794
1175.0, 0.02959756539445618
1176.0, 0.018769821246472727
1177.0, 0.02709038397610836
1178.0, 0.03362540352404309
1179.0, 0.012332136845726403
1180.0, 0.02374019433227401
1181.0, 0.023086777626730993
1182.0, 0.011856372042015255
1183.0, 0.007385725633925333
1184.0, 0.028994037070426262
1185.0, 0.00542386594387414
1186.0, 0.007666392914178792
1187.0, 0.01664322861868508
1188.0, 0.01588790965831948
1189.0, 0.00298699062857544
1190.0, 0.01821694756154945
1191.0, 0.013309382731016369
1192.0, 0.0047078765302311755
1193.0, 0.008516276484621057
1194.0, 0.01646759836045092
1195.0, 0.004457775727538177
1196.0, 0.005464377241370335
1197.0, 0.012910162175255795
1198.0, 0.00943007340035069
1199.0, 0.010561868020922969
1200.0, 0.018898026826793007
1201.0, 0.009114890220184985
1202.0, 0.002724536123064851
1203.0, 0.01985156739904232
1204.0, 0.015236402061785123
1205.0, 0.0035751886853420877
1206.0, 0.008422716015440396
1207.0, 0.019720735912397192
1208.0, 0.010607089871363828
1209.0, 0.014762917710388377
1210.0, 0.01378727846388113
1211.0, 0.006495971692098858
1212.0, 0.004105088729963237
1213.0, 0.02290917764288479
1214.0, 0.005730135546574475
1215.0, 0.0072968794087228134
1216.0, 0.013120873086278283
1217.0, 0.017217498392410803
1218.0, 0.022747676720839542
1219.0, 0.017846656162324406
1220.0, 0.00865212411449518
1221.0, 0.004551048963956424
1222.0, 0.011202793532188029
1223.0, 0.017005787192524977
1224.0, 0.0009028846997320163
1225.0, 0.0077823867242061695
1226.0, 0.018532669376207143
1227.0, 0.011326860506113347
1228.0, 0.011224430138405987
1229.0, 0.02280734092628371
1230.0, 0.012530936001364037
1231.0, 0.0022352612238988176
1232.0, 0.019918828866903163
1233.0, 0.016447714872384757
1234.0, 0.007280968715875471
1235.0, 0.012034777649941195
1236.0, 0.02320700095467366
1237.0, 0.006440724749093025
1238.0, 0.014487392841392738
1239.0, 0.014447519864723148
1240.0, 0.00800014095332507
1241.0, 0.008501625179061244
1242.0, 0.02473904697394834
1243.0, 0.005748968467488877
1244.0, 0.004739913835833918
1245.0, 0.014754875329091803
1246.0, 0.017087185798841
1247.0, 0.007227996603360974
1248.0, 0.02088530296897729
1249.0, 0.01938761446431969
1250.0, 0.008870866664200946
1251.0, 0.01606321316708915
1252.0, 0.021835342475166244
1253.0, 0.007197306503482146
1254.0, 0.006276271390825881
1255.0, 0.022806813741542482
1256.0, 0.009596856057490865
1257.0, 0.008484899531547897
1258.0, 0.016914051191230975
1259.0, 0.015496280323343265
1260.0, 0.0032883365727965864
1261.0, 0.020717259701647506
1262.0, 0.014476494310762044
1263.0, 0.004905837106042191
1264.0, 0.009649416098334045
1265.0, 0.024642199337048008
1266.0, 0.0009794140149412076
1267.0, 0.01324355116258547
1268.0, 0.02026892234293331
1269.0, 0.012642393433815497
1270.0, 0.009629042378301044
1271.0, 0.02243819835843145
1272.0, 0.01192088590966179
1273.0, 0.0032441630065017956
1274.0, 0.020489194452431504
1275.0, 0.01570764817173093
1276.0, 0.005653428635774451
1277.0, 0.015758040604505034
1278.0, 0.023728715980738148
1279.0, 0.008780643281027421
1280.0, 0.019862190059415318
1281.0, 0.02146978687160688
1282.0, 0.011057527458593893
1283.0, 0.005433449886156664
1284.0, 0.02661525381782517
1285.0, 0.007271413079552232
1286.0, 0.006351712740978263
1287.0, 0.017055080703773807
1288.0, 0.01778481030148613
1289.0, 0.007428770297999699
1290.0, 0.020487179548779415
1291.0, 0.021977742234109206
1292.0, 0.0075477148362413735
1293.0, 0.016133941621182334
1294.0, 0.019974310380817196
1295.0, 0.007779635276866644
1296.0, 0.010836649007654322
1297.0, 0.027940618609909026
1298.0, 0.008059316159800916
1299.0, 0.009934835088454188
1300.0, 0.020222129593122883
1301.0, 0.019153234415535424
1302.0, 0.004877463714901361
1303.0, 0.024966747067916593
1304.0, 0.015070307062911728
1305.0, 0.005210238628458772
1306.0, 0.01393862298212811
1307.0, 0.022359920578238338
1308.0, 0.0032880332050123657
1309.0, 0.009566116229392987
1310.0, 0.025858671368820245
1311.0, 0.010928428930226938
1312.0, 0.011746535394382425
1313.0, 0.021854587946057016
1314.0, 0.013587677788109088
1315.0, 0.0006458602261618894
1316.0, 0.02422431319522781
1317.0, 0.01565596021241103
1318.0, 0.008537221818071128
1319.0, 0.016278724649934292
1320.0, 0.02566390147958905
1321.0, 0.0017959540231585209
1322.0, 0.01648602333856969
1323.0, 0.023743240445184496
1324.0, 0.012960399261476793
1325.0, 0.01183501426975431
1326.0, 0.022975069899880053
1327.0, 0.01369820683341108
1328.0, 0.0025763131276481475
1329.0, 0.022972345524331823
1330.0, 0.014340420676769793
1331.0, 0.008082347180066604
1332.0, 0.017353566036489857
1333.0, 0.024960629761297582
1334.0, 0.0009159610011608369
1335.0, 0.020226020249664522
1336.0, 0.021546500834422912
1337.0, 0.012212467458861445
1338.0, 0.014679907297193994
1339.0, 0.030002659573449976
1340.0, 0.009715742383388654
1341.0, 0.012105375848745183
1342.0, 0.030345860468417696
1343.0, 0.018124433603485608
1344.0, 0.010484082895946722
1345.0, 0.02444029137154472
1346.0, 0.026662124606543422
1347.0, 0.00289758488748899
1348.0, 0.021059428872220006
1349.0, 0.018961346943685956
1350.0, 0.008158453632193915
1351.0, 0.010051315072316385
1352.0, 0.026371351894717725
1353.0, 0.00491956641520685
1354.0, 0.012044380806063593
1355.0, 0.02291309788916091
1356.0, 0.014720542231772799
1357.0, 0.011399900292255046
1358.0, 0.025465406277264603
1359.0, 0.022832284014494546
1360.0, 0.004009872835964039
1361.0, 0.02618906290578722
1362.0, 0.02038150327138565
1363.0, 0.011099397401106744
1364.0, 0.018050613723834437
1365.0, 0.030576205965321762
1366.0, 0.006898658356154486
1367.0, 0.019320628222814294
1368.0, 0.02546732199465792
1369.0, 0.013930128818033223
1370.0, 0.010340958669291817
1371.0, 0.024145555031097533
1372.0, 0.013827207318637954
1373.0, 0.007584845480263416
1374.0, 0.01906042509246488
1375.0, 0.016425231070765156
1376.0, 0.013012902032339046
1377.0, 0.020727610122937647
1378.0, 0.03167884522049361
1379.0, 0.004995415910405672
1380.0, 0.021885090099446548
1381.0, 0.028216459097023253
1382.0, 0.015552477162952707
1383.0, 0.013298731309462226
1384.0, 0.02832866562298728
1385.0, 0.015463915345740388
1386.0, 0.0049865402651315515
1387.0, 0.029615266138137204
1388.0, 0.0191703960312321
1389.0, 0.009625761593944465
1390.0, 0.019347103850840354
1391.0, 0.029914963134130602
1392.0, 0.0030554088829908028
1393.0, 0.021060970119844227
1394.0, 0.025846675666421848
1395.0, 0.012990530457635716
1396.0, 0.01367803649223926
1397.0, 0.027717521453560223
1398.0, 0.015094097649743482
1399.0, 0.008738091141815537
1400.0, 0.030316403793906814
1401.0, 0.016288228221844482
1402.0, 0.010935046099356019
1403.0, 0.022684757664034196
1404.0, 0.02795468846810309
1405.0, 0.0024788957542495934
1406.0, 0.021977967031119316
1407.0, 0.027836406672332368
1408.0, 0.011716465173096269
1409.0, 0.017149990932929033
1410.0, 0.0318446741341871
1411.0, 0.016089124501967676
1412.0, 0.009443419227566861
1413.0, 0.034587960721682035
1414.0, 0.0169413317946197
1415.0, 0.013222366844973231
1416.0, 0.022666968610640735
1417.0, 0.022898699108035374
1418.0, 0.005590028696672697
1419.0, 0.028267817290331135
1420.0, 0.022870327698848378
1421.0, 0.00961999989492973
1422.0, 0.0202378985166488
1423.0, 0.027258218045424776
1424.0, 0.01223749499654116
1425.0, 0.010438136315110674
1426.0, 0.03628899910562395
1427.0, 0.008885704756594531
1428.0, 0.012122765060621094
1429.0, 0.025958091689002056
1430.0, 0.022448101021777533
1431.0, 0.005951611178375176
1432.0, 0.02579577593940693
1433.0, 0.025383807111764547
1434.0, 0.007026684615579224
1435.0, 0.020987675484263488
1436.0, 0.025157547047767407
1437.0, 0.013225183760236122
1438.0, 0.014061306584715133
1439.0, 0.03985503925259849
1440.0, 0.012823424095219846
1441.0, 0.01770139204395456
1442.0, 0.02905462140177397
1443.0, 0.020397979512374525
1444.0, 0.011087990943452582
1445.0, 0.029885209355823644
1446.0, 0.026103892988461518
1447.0, 0.008395649323119462
1448.0, 0.02782671934907472
1449.0, 0.027159118071759542
1450.0, 0.014305907804721671
1451.0, 0.016419287095892264
1452.0, 0.03683301853449066
1453.0, 0.010946478640942866
1454.0, 0.01612434600198837
1455.0, 0.029732920777979864
1456.0, 0.017470561311358285
1457.0, 0.014970840522149309
1458.0, 0.02903703167791869
1459.0, 0.025611865205715456
1460.0, 0.0035711936115963867
1461.0, 0.033386052369167994
1462.0, 0.02516289534385626
1463.0, 0.01416314618943761
1464.0, 0.023385949575605528
1465.0, 0.032711828188286586
1466.0, 0.01157792773566885
1467.0, 0.015518637721494423
1468.0, 0.03902042964216275
1469.0, 0.016272720851184353
1470.0, 0.01918348730063309
1471.0, 0.03101415429595429
1472.0, 0.024739544253425057
1473.0, 0.008345298351559755
1474.0, 0.03580035456170681
1475.0, 0.02333842600166528
1476.0, 0.011526816272571364
1477.0, 0.024978053623138277
1478.0, 0.026491962391071197
1479.0, 0.013623653219262264
1480.0, 0.01838142341812215
1481.0, 0.037608042969713124
1482.0, 0.00900579028772116
1483.0, 0.019038545580174124
1484.0, 0.031322921200395426
1485.0, 0.01961146553640633
1486.0, 0.010680195185106805
1487.0, 0.03145154171154796
1488.0, 0.024748844868623616
1489.0, 0.003075985181529052
1490.0, 0.0309494494586522
1491.0, 0.02525060112110073
1492.0, 0.012857496110595881
1493.0, 0.020341438438385158
1494.0, 0.03390198316303698
1495.0, 0.007174654912160286
1496.0, 0.016677587572961138
1497.0, 0.03209833086906128
1498.0, 0.012733923214301664
1499.0, 0.014012899275455133
1500.0, 0.026745134632021366
1501.0, 0.02059262344495094
1502.0, 0.005251470783924151
1503.0, 0.037514650113840455
1504.0, 0.025568560078678505
1505.0, 0.00873190268008887
1506.0, 0.023709294372893572
1507.0, 0.02954240152340164
1508.0, 0.01251340497270564
1509.0, 0.01485805732556716
1510.0, 0.03612534830138171
1511.0, 0.010020971112468089
1512.0, 0.016746972138758393
1513.0, 0.028119712469458286
1514.0, 0.018157644153028393
1515.0, 0.010858680536696053
1516.0, 0.027752083245181837
1517, 0.0
1518, 0.0
1519, 0.0
1520, 0.0
1521, 0.0
1522, 0.0
1523, 0.0
1524, 0.0
1525, 0.0
1526, 0.0
1527, 0.0
1528, 0.0
1529, 0.0
1530, 0.0
1531, 0.0
1532, 0.0
1533, 0.0
1534, 0.0
1535, 0.0
1536, 0.0
1537, 0.0
1538, 0.0
1539, 0.0
1540, 0.0
1541, 0.0
1542, 0.0
1543, 0.0
1544, 0.0
1545, 0.0
1546, 0.0
1547, 0.0
1548, 0.0
1549, 0.0
1550, 0.0
1551, 0.0
1552, 0.0
1553, 0.0
1554, 0.0
1555, 0.0
1556, 0.0
1557, 0.0
1558, 0.0
1559, 0.0
1560, 0.0
1561, 0.0
1562, 0.0
1563, 0.0
1564, 0.0
1565, 0.0
1566, 0.0
1567, 0.0
1568, 0.0
1569, 0.0
1570, 0.0
1571, 0.0
1572, 0.0
1573, 0.0
1574, 0.0
1575, 0.0
1576, 0.0
1577, 0.0
1578, 0.0
1579, 0.0
1580, 0.0
1581, 0.0
1582, 0.0
1583, 0.0
1584, 0.0
1585, 0.0
1586, 0.0
1587, 0.0
1588, 0.0
1589, 0.0
1590, 0.0
1591, 0.0
1592, 0.0
1593, 0.0
1594, 0.0
1595, 0.0
1596, 0.0
1597, 0.0
1598, 0.0
1599, 0.0
