30, 0.0
31, 0.0
32, 0.0
33, 0.0
34, 0.0
35, 0.0
36, 0.0
37, 0.0
38, 0.0
39, 0.0
40, 0.0
41, 0.0
42, 0.0
43, 0.0
44, 0.0
45, 0.0
46, 0.0
47, 0.0
48, 0.0
49, 0.0
50, 0.0
51, 0.0
52, 0.0
53, 0.0
54, 0.0
55, 0.0
56, 0.0
57, 0.0
58, 0.0
59, 0.0
60, 0.0
61, 0.0
62, 0.0
63, 0.0
64, 0.0
65, 0.0
66, 0.0
67, 0.0
68, 0.0
69, 0.0
70, 0.0
71, 0.0
72, 0.0
73, 0.0
74, 0.0
75, 0.0
76, 0.0
77, 0.0
78, 0.0
79, 0.0
80, 0.0
81, 0.0
82, 0.0
83, 0.0
84, 0.0
85, 0.0
86, 0.0
87, 0.0
88, 0.0
89, 0.0
90.0, 0.013733448044463002
91.0, 0.06445354317059532
92.0, 0.03818129946162292
93.0, 0.04917575185874581
94.0, 0.056836718658142764
95.0, 0.038583848433763474
96.0, 0.003490554022057003
97.0, 0.01660503433512748
98.0, 0.0043296330840254735
99.0, 0.004265802701670242
100.0, 0.027311464055092913
101.0, 0.05922806415834302
102.0, 0.0453944118416251
103.0, 0.026442510344939885
104.0, 0.0293543837033486
105.0, 0.04167824393942548
106.0, 0.053080826932414754
107.0, 0.055189776821108205
108.0, 0.05653709700664491
109.0, 0.0751296574044436
110.0, 0.06561678655558872
111.0, 0.07230714044885923
112.0, 0.08715022784344603
113.0, 0.07754765785830539
114.0, 0.07513520765617121
115.0, 0.06561436845333572
116.0, 0.07229030585625111
117.0, 0.1074445623393353
118.0, 0.11524519310418226
119.0, 0.1319783675803472
120.0, 0.14644220405622402
121.0, 0.15110294158246368
122.0, 0.1693294393355332
123.0, 0.18210378944159292
124.0, 0.18268900722369993
125.0, 0.1769457908418528
126.0, 0.181312157420443
127.0, 0.17259174329881782
128.0, 0.15921456181312393
129.0, 0.14857313239335868
130.0, 0.14230571039620607
131.0, 0.14419835879002513
132.0, 0.1415387525618279
133.0, 0.13194515407887764
134.0, 0.12266007422156154
135.0, 0.1281468182627378
136.0, 0.12389197248144267
137.0, 0.09495324116380678
138.0, 0.05387435459954739
139.0, 0.05091028319302813
140.0, 0.021349262491385964
141.0, 0.0028005559546326543
142.0, 0.00908459203425204
143.0, 0.005199559638685921
144.0, 0.007480374728145004
145.0, 0.017610057731245625
146.0, 0.009235602791671424
147.0, 0.0094163655595795
148.0, 0.02547240392193433
149.0, 0.014179594095937192
150.0, 0.0011528702869827183
151.0, 0.005177939981530433
152.0, 0.007476906034194817
153.0, 0.009308344249856246
154.0, 0.011684388487545036
155.0, 0.0019250903516685003
156.0, 0.006357111436021031
157.0, 0.014827423426295075
158.0, 0.012523103469424555
159.0, 0.010704140512349053
160.0, 0.004981454167317509
161.0, 0.009129229226227376
162.0, 0.00812350042766457
163.0, 0.004034147061867495
164.0, 0.0030635286525917704
165.0, 0.003190345256521002
166.0, 0.007771982653587734
167.0, 0.008628989857207822
168.0, 0.010455703435377856
169.0, 0.02346163027227504
170.0, 0.02658825800254121
171.0, 0.025601952983149823
172.0, 0.03251103648422401
173.0, 0.05095608090586378
174.0, 0.039595207125662286
175.0, 0.04738315616560876
176.0, 0.06608535148131472
177.0, 0.0743437672263517
178.0, 0.09772872528324696
179.0, 0.11550273019894305
180.0, 0.13997420203941754
181.0, 0.1791732242267367
182.0, 0.2203777645643174
183.0, 0.24029631786816982
184.0, 0.24747434544109273
185.0, 0.25918096762876197
186.0, 0.289094466224486
187.0, 0.3244045830520839
188.0, 0.3356983721860299
189.0, 0.36353434014432817
190.0, 0.42516833789768804
191.0, 0.43949961558054224
192.0, 0.4768426804649076
193.0, 0.5129604026212691
194.0, 0.5236901928352748
195.0, 0.5179698270180144
196.0, 0.5149148020355564
197.0, 0.5171602840797217
198.0, 0.530075514502682
199.0, 0.5467221051396266
200.0, 0.5266712768445803
201.0, 0.5104883008743303
202.0, 0.5082954432091588
203.0, 0.5192162299986098
204.0, 0.5409283568562889
205.0, 0.5285354098215698
206.0, 0.5305244537478393
207.0, 0.5540600139586613
208.0, 0.5664826897689667
209.0, 0.5490853947993265
210.0, 0.5193553531313717
211.0, 0.5037104234880538
212.0, 0.5057543215922802
213.0, 0.48202973616814637
214.0, 0.45550241937503344
215.0, 0.43724089138471217
216.0, 0.42483143052793737
217.0, 0.40867128324218244
218.0, 0.3845504724159825
219.0, 0.3685903764651884
220.0, 0.3598123168983914
221.0, 0.3524046577348002
222.0, 0.34793996055231885
223.0, 0.33173960322412
224.0, 0.3298101452517288
225.0, 0.3395994615847641
226.0, 0.32161432705481874
227.0, 0.2946284166006917
228.0, 0.2886718381181609
229.0, 0.2905567257295243
230.0, 0.27489012025489684
231.0, 0.24101893269857486
232.0, 0.23776273562185976
233.0, 0.23542734207020866
234.0, 0.21950058783346438
235.0, 0.2059947026750954
236.0, 0.18619334183688033
237.0, 0.17663518925254484
238.0, 0.17524103368873237
239.0, 0.17286915077397538
240.0, 0.16609523904230727
241.0, 0.1676525016291884
242.0, 0.16609378153400112
243.0, 0.1599795234731887
244.0, 0.16078559624992067
245.0, 0.14945585325958263
246.0, 0.1440043130543557
247.0, 0.13533696987825736
248.0, 0.1137345576497875
249.0, 0.11007252801541295
250.0, 0.10380265155003611
251.0, 0.09711206140155353
252.0, 0.09003196444602266
253.0, 0.07967907638829842
254.0, 0.08315293401660373
255.0, 0.09196715697467603
256.0, 0.09112326783533276
257.0, 0.074059465523257
258.0, 0.05166415088608399
259.0, 0.05830442921580511
260.0, 0.05845568363286999
261.0, 0.04883324921399351
262.0, 0.053218804848559065
263.0, 0.042627674206171744
264.0, 0.03475374373611142
265.0, 0.03140446390182409
266.0, 0.031187705181532095
267.0, 0.03558119868686466
268.0, 0.03400518641358952
269.0, 0.03193832127968107
270.0, 0.03183212739741196
271.0, 0.031610735849349904
272.0, 0.029071716989504122
273.0, 0.011798576245441304
274.0, 0.006815315508354447
275.0, 0.016143120965230403
276.0, 0.008620360609005296
277.0, 0.013542731057128343
278.0, 0.01835124438102106
279.0, 0.019195375770455134
280.0, 0.01577134388403137
281.0, 0.006192351709926565
282.0, 0.0038711139189122356
283.0, 0.0023307464214069686
284.0, 0.00896460559759129
285.0, 0.0108332492277573
286.0, 0.009553525488619612
287.0, 0.015842575986234855
288.0, 0.01951871660855432
289.0, 0.012017179827886349
290.0, 0.0010829216328462244
291.0, 0.0007041493373272476
292.0, 0.004987899336746234
293.0, 0.01019487015073993
294.0, 0.010654301701091221
295.0, 0.008403318681722907
296.0, 0.014714059796636933
297.0, 0.01145559399819784
298.0, 0.001816669228477062
299.0, 0.004672851590148402
300.0, 0.013416693742781215
301.0, 0.007170181235996928
302.0, 0.003799310163191561
303.0, 0.01306888379641419
304.0, 0.018039117888521392
305.0, 0.015807513858683748
306.0, 0.010807416291072576
307.0, 0.00670543176415857
308.0, 0.007434922068034409
309.0, 0.01834949823674183
310.0, 0.021407655620960177
311.0, 0.020684443619019853
312.0, 0.021788497737176386
313.0, 0.023340452552603922
314.0, 0.010702211760814541
315.0, 0.00985076995899104
316.0, 0.010927516861437241
317.0, 0.009464906199348058
318.0, 0.015321417600220984
319.0, 0.004569351920885638
320.0, 0.00047930416123700276
321.0, 0.0033269921120697827
322.0, 0.0051175318714791135
323.0, 0.0038974935794681936
324.0, 0.006965695825780117
325.0, 0.0034928136521082996
326.0, 0.001512301327892972
327.0, 0.004071389793712684
328.0, 0.006522649983848081
329.0, 0.008274722092338706
330.0, 0.003029757597555522
331.0, 0.005267544163869747
332.0, 0.003203130002558934
333.0, 0.009049011921135516
334.0, 0.008929001484666963
335.0, 0.0036063018774636847
336.0, 0.00637039411261364
337.0, 0.003076647819103494
338.0, 0.004750599001486059
339.0, 0.004827983538085809
340.0, 0.001505864580991073
341.0, 0.004468062443054107
342.0, 0.0018798558849428982
343.0, 0.003792250079137527
344.0, 0.00031423021837712767
345.0, 0.00041743374357999417
346.0, 0.0017905733110610694
347.0, 0.000661964757531804
348.0, 0.003128385571070126
349.0, 0.0032460246199990783
350.0, 0.009652554947373774
351.0, 0.00634460341527564
352.0, 0.004068395877772236
353.0, 0.006681200442320357
354.0, 0.003439838500832208
355.0, 0.002012456573233478
356.0, 0.0016703608000509461
357.0, 0.001509969359256426
358.0, 0.0012001060313849717
359.0, 0.007757705701332117
360.0, 0.018959394627026296
361.0, 0.013779489498044677
362.0, 0.017920797012184016
363.0, 0.004417970190143036
364.0, 0.005480409192467959
365.0, 0.000658708360810278
366.0, 0.001459264137494192
367.0, 0.002751698456440588
368.0, 0.005353780270620409
369.0, 0.002444887419976875
370.0, 0.0009176175482348216
371.0, 0.007864952072859883
372.0, 0.01286761165213853
373.0, 0.008914062175562648
374.0, 0.001282346384663658
375.0, 0.007471926351866638
376.0, 0.002576248554680138
377.0, 0.0015218836178775641
378.0, 0.0007929019210010138
379.0, 0.0004473939556142412
380.0, 0.0021542309186787754
381.0, 0.001997921317828842
382.0, 0.007005366314857147
383.0, 0.008486338453248804
384.0, 0.002937861849889798
385.0, 0.0031898842942097447
386.0, 0.004392646741201151
387.0, 0.002834860886537868
388.0, 0.0045971537418030535
389.0, 0.0053810202619280715
390.0, 0.006371023823234313
391.0, 0.0011638433792663487
392.0, 0.0011224329235732726
393.0, 0.0008585807417382461
394.0, 0.0033088626715693705
395.0, 0.011390700482441986
396.0, 0.020984008958270906
397.0, 0.020651389091026366
398.0, 0.012284498729618008
399.0, 0.014358259196058477
400.0, 0.03988295497212258
401.0, 0.036488628953621385
402.0, 0.0332308601293551
403.0, 0.03820167592458703
404.0, 0.04518122384133194
405.0, 0.04752348330230354
406.0, 0.05840003427207232
407.0, 0.07716986222049221
408.0, 0.08341599808036296
409.0, 0.08578554625535538
410.0, 0.10243328318847568
411.0, 0.11168407542311332
412.0, 0.12014961137293406
413.0, 0.12680218039643018
414.0, 0.13522850041057446
415.0, 0.14739529529049714
416.0, 0.15234772367639565
417.0, 0.16142778744757047
418.0, 0.17682863188042278
419.0, 0.19187501905501902
420.0, 0.1992030383340515
421.0, 0.20704154133007333
422.0, 0.2029680981196079
423.0, 0.2062954192433924
424.0, 0.20935036765866227
425.0, 0.19629806628745364
426.0, 0.18595045695184773
427.0, 0.1825423190426
428.0, 0.17945102480030412
429.0, 0.16847950372507906
430.0, 0.14567388481331844
431.0, 0.11733015818706659
432.0, 0.11725728629411589
433.0, 0.11825737798567444
434.0, 0.11070619990794046
435.0, 0.10135471318107821
436.0, 0.09339031318022968
437.0, 0.10143112774387482
438.0, 0.09274734724007389
439.0, 0.0842423020752426
440.0, 0.0914810497773035
441.0, 0.08994349399236602
442.0, 0.09042539028222141
443.0, 0.09793751446627381
444.0, 0.1126536267962346
445.0, 0.12616731222574964
446.0, 0.12630730681208013
447.0, 0.14031238791047937
448.0, 0.15401661633824482
449.0, 0.16843899620713101
450.0, 0.1838998711826744
451.0, 0.1968618024685144
452.0, 0.21715586988018845
453.0, 0.2514692887393082
454.0, 0.2782933273422839
455.0, 0.29793589660498887
456.0, 0.3290312072561351
457.0, 0.34745013800086216
458.0, 0.373853677669481
459.0, 0.4109383574173176
460.0, 0.4446326749787721
461.0, 0.468182976172608
462.0, 0.5018348816318592
463.0, 0.5364145347699185
464.0, 0.5633516294887626
465.0, 0.5976112160985078
466.0, 0.6460388709100061
467.0, 0.6753821350654813
468.0, 0.7228996749494552
469.0, 0.7530950347583276
470.0, 0.7765844022549241
471.0, 0.8055561293454248
472.0, 0.8193055491691162
473.0, 0.8471297358377168
474.0, 0.8990767167740145
475.0, 0.9359215372003733
476.0, 0.9425021089633515
477.0, 0.9470829884619119
478.0, 0.9612887528813483
479.0, 0.9853761838281044
480.0, 0.9854029657697786
481.0, 0.9764175120089946
482.0, 0.9952740150941416
483.0, 0.9983569319141713
484.0, 0.9757066323412956
485.0, 0.9590579303411503
486.0, 0.9337742217868589
487.0, 0.8858015151580557
488.0, 0.8601490654601754
489.0, 0.8376653402876684
490.0, 0.7986836128914517
491.0, 0.7492594051055849
492.0, 0.694129632513305
493.0, 0.6306116660920426
494.0, 0.599536469601866
495.0, 0.543854553914543
496.0, 0.4797042171418409
497.0, 0.43062364166258693
498.0, 0.3887438402786525
499.0, 0.3431975510258356
500.0, 0.2920165918702607
501.0, 0.25163617546876066
502.0, 0.22067144568607802
503.0, 0.18967041398689707
504.0, 0.1538218666835091
505.0, 0.138134828527132
506.0, 0.13216329475226066
507.0, 0.11352716126253873
508.0, 0.07980918505978789
509.0, 0.060566290833347025
510.0, 0.0494889049271417
511.0, 0.03579222095468677
512.0, 0.025509464813949737
513.0, 0.02260845279918798
514.0, 0.02121748716102696
515.0, 0.012778439053955036
516.0, 0.011591920870975589
517.0, 0.0031416462966275456
518.0, 0.003598149209797117
519.0, 0.001569105552584935
520.0, 0.0021461736549452347
521.0, 0.015570836342587484
522.0, 0.010402629385035457
523.0, 0.0014458457455119413
524.0, 0.0019799202851137946
525.0, 0.00790567604848701
526.0, 0.0028118712435535958
527.0, 0.0013752197436711462
528.0, 0.007255578811144332
529.0, 0.008688853740311472
530.0, 0.003652032052262313
531.0, 0.006037878986130844
532.0, 0.006192380892137918
533.0, 0.0008304716086662046
534.0, 0.002541411008156219
535.0, 0.010684014516533911
536.0, 0.0021646277631067424
537.0, 0.0002682977896197073
538.0, 0.0004658437148463302
539.0, 0.0032326346111114365
540.0, 0.002660556948396706
541.0, 0.004218825368092601
542.0, 0.004238743958339351
543.0, 0.0020335544002050526
544.0, 0.003365766832873631
545.0, 0.002130760565373357
546.0, 0.0006997772365582452
547.0, 0.0032555369813468842
548.0, 0.00743989107630275
549.0, 0.0022755127928133292
550.0, 0.001359779528973868
551.0, 0.0018517730339063807
552.0, 0.00405757785232544
553.0, 0.00056882043318742
554.0, 0.0006057496642373723
555.0, 0.00020442205514509268
556.0, 0.0008697897414193317
557.0, 0.001146092858786761
558.0, 0.0018468093131077906
559.0, 0.006897363583511985
560.0, 0.002125679796902226
561.0, 0.0039195945631012655
562.0, 0.0021911896903440173
563.0, 0.00409058549810415
564.0, 0.004233794132581271
565.0, 0.0026769558697629166
566.0, 0.006316616752590327
567.0, 0.008239487353714834
568.0, 0.005908588926891588
569.0, 0.004769579602074945
570.0, 0.005376223541653233
571.0, 0.006326982668076742
572.0, 0.003154786209430532
573.0, 0.004205538413058469
574.0, 0.009865172791347004
575.0, 0.005365811536632485
576.0, 0.004586508555392333
577.0, 0.006153976925956614
578.0, 0.005565170162522534
579.0, 0.004164182110655844
580.0, 0.006646439592865606
581.0, 0.007716546102657264
582.0, 0.014953771776786471
583.0, 0.007855010820275163
584.0, 0.007109355634285445
585.0, 0.017583074457296958
586.0, 0.021303638441599482
587.0, 0.018794700012858018
588.0, 0.02155528826883382
589.0, 0.01685290970152834
590.0, 0.01792462426374978
591.0, 0.02456067292975793
592.0, 0.011793753951988934
593.0, 0.003593401577537482
594.0, 0.01759924397680858
595.0, 0.02588455709843277
596.0, 0.021386764173009328
597.0, 0.018652800217455648
598.0, 0.027766726904219666
599.0, 0.02539897360858767
600.0, 0.02710174443023045
601.0, 0.0299665132564013
602.0, 0.030944561404164836
603.0, 0.031008006116371306
604.0, 0.029831979894492884
605.0, 0.027669478847424784
606.0, 0.02636913378097143
607.0, 0.025852551412212852
608.0, 0.02542964752217006
609.0, 0.02698794753272629
610.0, 0.033918339656040866
611.0, 0.03512144100231778
612.0, 0.0337953728619316
613.0, 0.035360312907764715
614.0, 0.035846690957623155
615.0, 0.028377416275789123
616.0, 0.03309743856767435
617.0, 0.03510324274069138
618.0, 0.03365359812207205
619.0, 0.033060143459859435
620.0, 0.0348066591090599
621.0, 0.03616032733395804
622.0, 0.040345082446607776
623.0, 0.04697527079425446
624.0, 0.0397079797958395
625.0, 0.0330558225015635
626.0, 0.037328610750794876
627.0, 0.03679908203147724
628.0, 0.041656199058659436
629.0, 0.030175236147204795
630.0, 0.026588541025338478
631.0, 0.03342503913133209
632.0, 0.032389325956735104
633.0, 0.02207159165919824
634.0, 0.027116471723082774
635.0, 0.0257126734162808
636.0, 0.02685358487493457
637.0, 0.027558245340585666
638.0, 0.02415184131961381
639.0, 0.029235107031341124
640.0, 0.03344395193302613
641.0, 0.027702479820413003
642.0, 0.026223262066138484
643.0, 0.03066777639181135
644.0, 0.032052941613114165
645.0, 0.029499073313991674
646.0, 0.021297597384841542
647.0, 0.026821182954171692
648.0, 0.02751907198842172
649.0, 0.022158323458099774
650.0, 0.021424086866025358
651.0, 0.023132170969857684
652.0, 0.021223237976761313
653.0, 0.02787450381357909
654.0, 0.027075305732826377
655.0, 0.023032752108507807
656.0, 0.024436904321199486
657.0, 0.018679496188672044
658.0, 0.011396238725072335
659.0, 0.008984352430429958
660.0, 0.016141684672471016
661.0, 0.020633256633356842
662.0, 0.015239965277804125
663.0, 0.013953651880134012
664.0, 0.019402325690883387
665.0, 0.011677577992431288
666.0, 0.0058886648516174095
667.0, 0.005915943603268083
668.0, 0.00569440518016435
669.0, 0.001792711473267708
670.0, 0.0032623024633593673
671.0, 0.0017698456354668197
672.0, 0.005215970867229932
673.0, 0.009405618599534636
674.0, 0.007206741694817083
675.0, 0.0026598666826575267
676.0, 0.0038452217378731153
677.0, 0.0011936792576891459
678.0, 0.002034344497615505
679.0, 0.0018288426077879857
680.0, 0.0009339829307194623
681.0, 0.0014546947836347026
682.0, 0.0032088171618493825
683.0, 0.00229616054489828
684.0, 0.0011758455495805564
685.0, 0.0010232508057080232
686.0, 0.0005194555244740451
687.0, 0.001824285838461708
688.0, 0.001919537553930907
689.0, 0.001962579883303208
690.0, 0.003226097575119531
691.0, 0.0020997777159752883
692.0, 0.0031187298655051586
693.0, 0.005619231068147258
694.0, 0.0022487186429683763
695.0, 0.0007735802388309067
696.0, 0.0016474815761626706
697.0, 0.0008226619708445199
698.0, 0.0010965451764553343
699.0, 0.0012898153707304374
700.0, 0.0019759092992271787
701.0, 0.001740962013197702
702.0, 0.0045046560981247315
703.0, 0.003325695004811226
704.0, 0.0006467833057774904
705.0, 0.002956126330810144
706.0, 0.010318327741839516
707.0, 0.006298044224020417
708.0, 0.0025742640250922865
709.0, 0.00782512776300897
710.0, 0.013433741197426033
711.0, 0.01103947503009031
712.0, 0.00461468086001944
713.0, 0.0040126802331665705
714.0, 0.006574655752493708
715.0, 0.01089802837866287
716.0, 0.007923887849726398
717.0, 0.004253796936228381
718.0, 0.006295093038276949
719.0, 0.005532860876335734
720.0, 0.004751305178594254
721.0, 0.013067117035124141
722.0, 0.021157312314294012
723.0, 0.01879628231911423
724.0, 0.011659149893905405
725.0, 0.01455447430212535
726.0, 0.023063907933084056
727.0, 0.01624507179384067
728.0, 0.015685174694879254
729.0, 0.016554043041153727
730.0, 0.013529250943805282
731.0, 0.013608016604768009
732.0, 0.022525624172108762
733.0, 0.013201308437543129
734.0, 0.014114993497613096
735.0, 0.010787701545533138
736.0, 0.005736079915390598
737.0, 0.007736770893000302
738.0, 0.01460110924892999
739.0, 0.018798649453497594
740.0, 0.00728439169026492
741.0, 0.004652605851814658
742.0, 0.008675151721228725
743.0, 0.009718927131822153
744.0, 0.011843823826314343
745.0, 0.025949136252690467
746.0, 0.02678360917331147
747.0, 0.022693993575290224
748.0, 0.02068196140533461
749.0, 0.02291505357560699
750.0, 0.02168509387544071
751.0, 0.01254917635690796
752.0, 0.018891963264890753
753.0, 0.015056256792862002
754.0, 0.015955288379779452
755.0, 0.02301781307520276
756.0, 0.02428393476759679
757.0, 0.022092610505494277
758.0, 0.03159267149051103
759.0, 0.03303573811117749
760.0, 0.032001679436633575
761.0, 0.021736454805577305
762.0, 0.020793568904145555
763.0, 0.027495557372239167
764.0, 0.028631575557764355
765.0, 0.03866197646655911
766.0, 0.03487200279336412
767.0, 0.025782883299742824
768.0, 0.02482011537894204
769.0, 0.025355129907469562
770.0, 0.022315163805927737
771.0, 0.024353095594709894
772.0, 0.031707136277163386
773.0, 0.02386081037350388
774.0, 0.02512006378265428
775.0, 0.02118079595162849
776.0, 0.012657607654374653
777.0, 0.012395960769157905
778.0, 0.016623250268245748
779.0, 0.002592958401871016
780.0, 0.00382001545266256
781.0, 0.0072139449809205045
782.0, 0.009096632123487429
783.0, 0.013936397195014947
784.0, 0.01350412724139184
785.0, 0.006199553191513441
786.0, 0.011802204151170184
787.0, 0.007917887775122638
788.0, 0.002918748961850479
789.0, 0.0017795578641648306
790.0, 0.0014273872494407645
791.0, 0.008770931458377967
792.0, 0.005464785653753019
793.0, 0.005744591936040266
794.0, 0.007650169063774363
795.0, 0.00763063189369851
796.0, 0.005930252496853154
797.0, 0.0016415776787737538
798.0, 0.0005444502509391723
799.0, 0.00044218351079759716
800.0, 0.007482823801239082
801.0, 0.015210461699604823
802.0, 0.006009750024048693
803.0, 0.0007610896455316059
804.0, 0.007264289089233219
805.0, 0.008284852866444068
806.0, 0.00046706386224198147
807.0, 0.005317776192528201
808.0, 0.003928501793537271
809.0, 0.009896172776085125
810.0, 0.009570135541052722
811.0, 0.0009641400920904719
812.0, 0.0009709806901581136
813.0, 0.0018586105516246408
814.0, 0.004876304638493676
815.0, 0.01165930821551473
816.0, 0.013447241121417491
817.0, 0.009697440526985505
818.0, 0.0070636599175933215
819.0, 0.007240279509166775
820.0, 0.002136975315888371
821.0, 0.0005357354675896252
822.0, 0.0014109849887268529
823.0, 0.004099905090785825
824.0, 0.0064283785809087
825.0, 0.004191589063354578
826.0, 0.0010186680870472385
827.0, 0.0053650435711753855
828.0, 0.0009450073372350812
829.0, 0.0017372931859758944
830.0, 0.0012338795957367518
831.0, 0.0038022891390162026
832.0, 0.009142720708900647
833.0, 0.010561981516416158
834.0, 0.011273569116720282
835.0, 0.002331223447109337
836.0, 0.0018834079704979831
837.0, 0.008030328802176275
838.0, 0.0013636713608708305
839.0, 0.0006427699641631178
840.0, 0.008620465349766985
841.0, 0.0023189377441974936
842.0, 0.013590071534395688
843.0, 0.006469605086823876
844.0, 0.004983678791309075
845.0, 0.010066986241578618
846.0, 0.008352391771989032
847.0, 0.002689180481982477
848.0, 0.007492018677214085
849.0, 0.007543957657916365
850.0, 0.001093390525222735
851.0, 0.002007980536474076
852.0, 0.004886113457421746
853.0, 0.010376440372838566
854.0, 0.012415220027919897
855.0, 0.0030205700445304125
856.0, 0.003168413996174571
857.0, 0.015588146358334914
858.0, 0.022788998775573194
859.0, 0.017101051230044673
860.0, 0.012052103005665182
861.0, 0.00680970154694748
862.0, 0.0020474647201285784
863.0, 0.0143746003781471
864.0, 0.022013521601131902
865.0, 0.021219664293210115
866.0, 0.01897995248631561
867.0, 0.007527471260835821
868.0, 0.0011982390452767145
869.0, 0.008011988741046503
870.0, 0.014002973155877528
871.0, 0.011735164548616863
872.0, 0.0005342376649404387
873.0, 0.0013123803729766757
874.0, 0.005141729931309835
875.0, 0.009247607184574643
876.0, 0.005212401903751782
877.0, 0.0001837803923703332
878.0, 0.0037712208610737254
879.0, 0.004913452261880972
880.0, 0.0008076021233659684
881.0, 0.002193318048045958
882.0, 0.011059133620229573
883.0, 0.013781112023744883
884.0, 0.009391310666354428
885.0, 0.0038808004667389147
886.0, 0.0013753694718874412
887.0, 0.0024727257155217697
888.0, 0.007630397382716163
889.0, 0.020099058581602665
890.0, 0.0208258565257251
891.0, 0.009037774558099076
892.0, 0.0033915403255775785
893.0, 0.008999727841548066
894.0, 0.013027619232797516
895.0, 0.009023509179465504
896.0, 0.009542957569715677
897.0, 0.0077757802559879595
898.0, 0.007497221174877191
899.0, 0.007458902414974533
900.0, 0.004838478152763461
901.0, 0.009087236115964091
902.0, 0.009684106428627283
903.0, 0.003818671215342899
904.0, 0.009424277072475125
905.0, 0.010415482528504305
906.0, 0.006517071820895398
907.0, 0.007298424036726965
908.0, 0.008970408846747008
909.0, 0.0004441583662791184
910.0, 0.007604172385253644
911.0, 0.014255972298566875
912.0, 0.005763093095226672
913.0, 0.003412433039579184
914.0, 0.005843047363789952
915.0, 0.007446203548480124
916.0, 0.014270794054053805
917.0, 0.008963292161678944
918.0, 0.01696240184723907
919.0, 0.0027778584640088134
920.0, 0.01054948789464009
921.0, 0.016377323199401463
922.0, 0.014369456649596284
923.0, 0.013810532601543331
924.0, 0.00923876692087836
925.0, 0.013639297030294878
926.0, 0.012954637719512272
927.0, 0.007576899415443443
928.0, 0.008189338561338584
929.0, 0.004683806541614962
930.0, 0.0011521195370385975
931.0, 0.006856113511187969
932.0, 0.011737965859098923
933.0, 0.0046797096199589
934.0, 0.008592600036225051
935.0, 0.0038036037464191782
936.0, 0.0029665037674808693
937.0, 0.0021535566152225075
938.0, 0.0019625027023799533
939.0, 0.005233005931873315
940.0, 0.00935867109837531
941.0, 0.01654780235826717
942.0, 0.011855805981899887
943.0, 0.009179528534198391
944.0, 0.0018907667081006496
945.0, 0.0017393643139730118
946.0, 0.0008976612312463499
947.0, 0.0028096014499135245
948.0, 0.000347462079172608
949.0, 0.0021104010310142077
950.0, 0.0023100639642979126
951.0, 0.001572292804746614
952.0, 0.002619964169409295
953.0, 0.00551253216963924
954.0, 0.009144442328039848
955.0, 0.007888177316363742
956.0, 0.005189332094340089
957.0, 0.010298039958532137
958.0, 0.0015146812223937331
959.0, 0.001663027785960126
960.0, 0.0030781051698098834
961.0, 0.0011330667235503627
962.0, 0.0033681571501730477
963.0, 0.005984821458620096
964.0, 0.00026250298724916704
965.0, 0.0008295558878093742
966.0, 0.0006440237257127775
967.0, 0.0035745510430944837
968.0, 0.0005623918588061565
969.0, 0.001608658648274458
970.0, 0.011376357992900593
971.0, 0.0159866114833056
972.0, 0.009675496599334771
973.0, 0.008066811023864156
974.0, 0.020342988720389317
975.0, 0.016532414678012176
976.0, 0.0037403297593428288
977.0, 0.006389699802874565
978.0, 0.006740340136175995
979.0, 0.0005821020679459065
980.0, 0.0010847180164590274
981.0, 0.006679526357732892
982.0, 0.011339488456812881
983.0, 0.008182398944789268
984.0, 0.0069902633811059255
985.0, 0.004428703073335713
986.0, 0.006493096832662924
987.0, 0.009871948006156376
988.0, 0.009735060558104807
989.0, 0.012190031963461898
990.0, 0.015704142157794008
991.0, 0.0028597214987308044
992.0, 0.0066280417241652125
993.0, 0.007443252110576808
994.0, 0.00967222461677205
995.0, 0.02005549238519287
996.0, 0.0168291843955584
997.0, 0.0047491633855176385
998.0, 0.0011742427458817733
999.0, 0.0042909972924759145
1000.0, 0.012247577167242306
1001.0, 0.010984135855444803
1002.0, 0.007970790315114697
1003.0, 0.014395082402383632
1004.0, 0.0075700087858730026
1005.0, 0.0064327356929687884
1006.0, 0.008954681418944272
1007.0, 0.0022848690542254632
1008.0, 4.963691924337432e-05
1009.0, 0.002081167587043011
1010.0, 0.011961464029985566
1011.0, 0.006624840247839731
1012.0, 0.01029078693938515
1013.0, 0.014017880368020671
1014.0, 0.009713667510494463
1015.0, 0.00868202307341307
1016.0, 0.01120375687943655
1017.0, 0.007229316989673169
1018.0, 0.01638822887882519
1019.0, 0.01656647699415229
1020.0, 0.0028729070278310097
1021.0, 0.0010632908438058509
1022.0, 0.006505006049254086
1023.0, 0.0037325401077325454
1024.0, 0.0033106599480135493
1025.0, 0.0004624544560461219
1026.0, 0.003540300612697269
1027.0, 0.009119108438543235
1028.0, 0.010593586061287623
1029.0, 0.0188915655652479
1030.0, 0.0019215167907682199
1031.0, 0.0003655006212299761
1032.0, 0.007887068753237077
1033.0, 0.013587785806940507
1034.0, 0.013632005898259853
1035.0, 0.01693098669052651
1036.0, 0.014817673556205536
1037.0, 0.00990260520420685
1038.0, 0.0014854470505364817
1039.0, 0.0005739273922095474
1040.0, 0.0013091370147523015
1041.0, 0.001179742324760063
1042.0, 0.00013174154099796864
1043.0, 0.0017379121467143309
1044.0, 0.000401060906396152
1045.0, 0.0031548433105369864
1046.0, 0.00147949014331938
1047.0, 0.0006927203106566061
1048.0, 0.0038148154380664213
1049.0, 0.0018368493031401154
1050.0, 0.0013162912231093323
1051.0, 0.0015123510735732316
1052.0, 0.0008114533880640875
1053.0, 0.002850367669530221
1054.0, 0.0032176168730660955
1055.0, 0.0039169390324194685
1056.0, 0.0017968881463258212
1057.0, 0.002857747492988178
1058.0, 0.007546211810828322
1059.0, 0.002621096387420449
1060.0, 0.0006755134877746354
1061.0, 0.004367174495236889
1062.0, 0.007761214652168032
1063.0, 0.01134971370892995
1064.0, 0.019275341952952316
1065.0, 0.01103743010832937
1066.0, 0.011371487734860972
1067.0, 0.013436379467796107
1068.0, 0.013829613347619606
1069.0, 0.024853803280268292
1070.0, 0.027663123052866664
1071.0, 0.026481637566357862
1072.0, 0.03002761522693835
1073.0, 0.023432138956609092
1074.0, 0.01686179669519212
1075.0, 0.025171313183041662
1076.0, 0.022585017853031866
1077.0, 0.02991704014939905
1078.0, 0.03289208385426945
1079.0, 0.021396841025084313
1080.0, 0.024143552387906
1081.0, 0.03615558701937915
1082.0, 0.03505882934116363
1083.0, 0.0310812440019755
1084.0, 0.03718872499716396
1085.0, 0.04522240993848807
1086.0, 0.04221212784392307
1087.0, 0.042799925028770065
1088.0, 0.04333011009407166
1089.0, 0.045153583172476607
1090.0, 0.04586927935697635
1091.0, 0.0465000682564047
1092.0, 0.04870671250004502
1093.0, 0.04930902324152508
1094.0, 0.04903612162596
1095.0, 0.04460173167764996
1096.0, 0.052693386135170946
1097.0, 0.04943671948490024
1098.0, 0.0463369962790632
1099.0, 0.040669772011606514
1100.0, 0.0453786256073007
1101.0, 0.05092924209610374
1102.0, 0.04745916448382663
1103.0, 0.05014215061132787
1104.0, 0.05545497936256145
1105.0, 0.055079455088632275
1106.0, 0.05946845247584272
1107.0, 0.04937980667750242
1108.0, 0.04147064316894902
1109.0, 0.046704238467956974
1110.0, 0.05408135466832684
1111.0, 0.05283603560049596
1112.0, 0.04797069961343256
1113.0, 0.04633766104115971
1114.0, 0.047553107104211616
1115.0, 0.05465195076939688
1116.0, 0.051436740443887095
1117.0, 0.052464993708906775
1118.0, 0.050060914403415695
1119.0, 0.062365429812493337
1120.0, 0.05346168048186153
1121.0, 0.047826075644684496
1122.0, 0.04925473498789012
1123.0, 0.046199281206981725
1124.0, 0.05021660283645616
1125.0, 0.04524560057197103
1126.0, 0.05392641826154628
1127.0, 0.05157463519063053
1128.0, 0.0484898639672228
1129.0, 0.04696735549884546
1130.0, 0.03891176116017328
1131.0, 0.036528562508784876
1132.0, 0.035464356498851914
1133.0, 0.039370014857662526
1134.0, 0.04539031231569438
1135.0, 0.040281520786812595
1136.0, 0.04517820667902355
1137.0, 0.040620494232236175
1138.0, 0.03344748838460979
1139.0, 0.032204603513590814
1140.0, 0.038439132596452805
1141.0, 0.039075411411968984
1142.0, 0.03411334848080479
1143.0, 0.03099953590157075
1144.0, 0.03129784279253431
1145.0, 0.03256983962003742
1146.0, 0.03230717107959518
1147.0, 0.028124545400299152
1148.0, 0.027255975381577216
1149.0, 0.02484643375545908
1150.0, 0.030429914077238104
1151.0, 0.019759207074313685
1152.0, 0.015786291621204738
1153.0, 0.016139705376577048
1154.0, 0.015931227334293564
1155.0, 0.013776580239074611
1156.0, 0.01159642512166965
1157.0, 0.014060363902021377
1158.0, 0.01667617771518238
1159.0, 0.016563895422089383
1160.0, 0.0070181794523777674
1161.0, 0.009648178815258928
1162.0, 0.009055146080470925
1163.0, 0.01166666829903736
1164.0, 0.005813557102765654
1165.0, 0.009701834755682651
1166.0, 0.004843902835520858
1167.0, 0.0024432929471213598
1168.0, 0.0010796053638538815
1169.0, 0.0044572739165022884
1170.0, 0.010258706486886038
1171.0, 0.007646331660947836
1172.0, 0.007018049694641497
1173.0, 0.009879184550241615
1174.0, 0.00397503952340798
1175.0, 0.00368609839110202
1176.0, 0.008356697828661868
1177.0, 0.00897957865866627
1178.0, 0.0035314498162404627
1179.0, 0.0012690545063141108
1180.0, 0.005464327515508082
1181.0, 0.003589962489678823
1182.0, 0.004325373167984683
1183.0, 0.0005684502249571297
1184.0, 0.00037187313140981293
1185.0, 0.0016398729684268844
1186.0, 0.0015321405435458763
1187.0, 0.0010089442675246738
1188.0, 0.0011276252254656426
1189.0, 0.0010678670440372202
1190.0, 0.002074121109869269
1191.0, 0.0008343245629164428
1192.0, 0.0004467790375214268
1193.0, 0.003154138411265564
1194.0, 0.00609297064419889
1195.0, 0.004795639557669256
1196.0, 0.0014847449111689498
1197.0, 0.0009394311005122512
1198.0, 0.008726972319663075
1199.0, 0.003402927250244355
1200.0, 0.0008082857903422521
1201.0, 0.005563665745378843
1202.0, 0.009656567039442326
1203.0, 0.010834800911105646
1204.0, 0.010503646741995049
1205.0, 0.009234145261632664
1206.0, 0.013159373682721635
1207.0, 0.00799741295599123
1208.0, 0.010576412510636438
1209.0, 0.010595510542697001
1210.0, 0.007225651799958011
1211.0, 0.005248925049765824
1212.0, 0.008332380568087074
1213.0, 0.0024526176843885365
1214.0, 0.0005105787565570075
1215.0, 0.000467581611013879
1216.0, 0.0026346468914314816
1217.0, 0.007115738800631883
1218.0, 0.01294354437471769
1219.0, 0.0011748924003612046
1220.0, 0.004442972349336668
1221.0, 0.010909271699489959
1222.0, 0.012528514374155381
1223.0, 0.007777605400327784
1224.0, 0.004950044774379315
1225.0, 0.006694598120688585
1226.0, 0.0063938442597934395
1227.0, 0.004662293871770718
1228.0, 0.004373583854833252
1229.0, 0.0032697836864926445
1230.0, 0.003771645598874294
1231.0, 0.009171076433891805
1232.0, 0.011279757764065012
1233.0, 0.015449409300907772
1234.0, 0.015972592282521673
1235.0, 0.006153645508416773
1236.0, 0.005168520126098484
1237.0, 0.0014588627333856174
1238.0, 0.0006357417678720988
1239.0, 0.007227483041803629
1240.0, 0.01022266922473501
1241.0, 0.006612046539653871
1242.0, 0.002890937400819139
1243.0, 0.0013084691288018549
1244.0, 0.008130648299211287
1245.0, 0.021084661540681858
1246.0, 0.00854656013337653
1247.0, 0.003737483032566973
1248.0, 0.009716803265525903
1249.0, 0.0013755195894097957
1250.0, 0.009935864954721483
1251.0, 0.016472570514013424
1252.0, 0.011799045491479601
1253.0, 0.008855209612422801
1254.0, 0.008801646319054663
1255.0, 0.0067029785752482285
1256.0, 0.005693744079464971
1257.0, 0.0055366893511283035
1258.0, 0.0034709607477893846
1259.0, 0.00998308240232826
1260.0, 0.012104377450761976
1261.0, 0.00244628398048366
1262.0, 0.009658386327498292
1263.0, 0.013350899096160962
1264.0, 0.013985538534732608
1265.0, 0.013589329973916434
1266.0, 0.015917678777095226
1267.0, 0.010472446981706428
1268.0, 0.0013127372977763598
1269.0, 0.005364692096285532
1270.0, 0.014792792490611807
1271.0, 0.011765047296600563
1272.0, 0.00884544373362041
1273.0, 0.010466212751704397
1274.0, 0.012490995236097771
1275.0, 0.010340825411425985
1276.0, 0.005852707368339202
1277.0, 0.007371269115538361
1278.0, 0.007908334151962149
1279.0, 0.005213472375741413
1280.0, 0.005725793951278816
1281.0, 0.0038159518100271215
1282.0, 0.0037353534714068756
1283.0, 0.005431595706356284
1284.0, 0.007813199111181396
1285.0, 0.012676395159618223
1286.0, 0.01095531282391648
1287.0, 0.0029412393835790986
1288.0, 0.0013888277933502846
1289.0, 0.009293615551892094
1290.0, 0.006108841310244267
1291.0, 0.009520154694046455
1292.0, 0.010063976669505445
1293.0, 0.010141090859221009
1294.0, 0.00330003168863138
1295.0, 0.0020656854120617418
1296.0, 0.00028152994000041733
1297.0, 0.004662374684646189
1298.0, 0.007021016283837779
1299.0, 0.004354166617165681
1300.0, 0.0024148612992161596
1301.0, 0.0012631290855629309
1302.0, 0.0026336998097088904
1303, 0.0
1304, 0.0
1305, 0.0
1306, 0.0
1307, 0.0
1308, 0.0
1309, 0.0
1310, 0.0
1311, 0.0
1312, 0.0
1313, 0.0
1314, 0.0
1315, 0.0
1316, 0.0
1317, 0.0
1318, 0.0
1319, 0.0
1320, 0.0
1321, 0.0
1322, 0.0
1323, 0.0
1324, 0.0
1325, 0.0
1326, 0.0
1327, 0.0
1328, 0.0
1329, 0.0
1330, 0.0
1331, 0.0
1332, 0.0
1333, 0.0
1334, 0.0
1335, 0.0
1336, 0.0
1337, 0.0
1338, 0.0
1339, 0.0
1340, 0.0
1341, 0.0
1342, 0.0
1343, 0.0
1344, 0.0
1345, 0.0
1346, 0.0
1347, 0.0
1348, 0.0
1349, 0.0
1350, 0.0
1351, 0.0
1352, 0.0
1353, 0.0
1354, 0.0
1355, 0.0
1356, 0.0
1357, 0.0
1358, 0.0
1359, 0.0
1360, 0.0
1361, 0.0
1362, 0.0
1363, 0.0
1364, 0.0
1365, 0.0
1366, 0.0
1367, 0.0
1368, 0.0
1369, 0.0
1370, 0.0
1371, 0.0
1372, 0.0
1373, 0.0
1374, 0.0
1375, 0.0
1376, 0.0
1377, 0.0
1378, 0.0
1379, 0.0
1380, 0.0
1381, 0.0
1382, 0.0
1383, 0.0
1384, 0.0
1385, 0.0
1386, 0.0
1387, 0.0
1388, 0.0
1389, 0.0
1390, 0.0
1391, 0.0
1392, 0.0
1393, 0.0
1394, 0.0
1395, 0.0
1396, 0.0
1397, 0.0
1398, 0.0
1399, 0.0
1400, 0.0
1401, 0.0
1402, 0.0
1403, 0.0
1404, 0.0
1405, 0.0
1406, 0.0
1407, 0.0
1408, 0.0
1409, 0.0
1410, 0.0
1411, 0.0
1412, 0.0
1413, 0.0
1414, 0.0
1415, 0.0
1416, 0.0
1417, 0.0
1418, 0.0
1419, 0.0
1420, 0.0
1421, 0.0
1422, 0.0
1423, 0.0
1424, 0.0
1425, 0.0
1426, 0.0
1427, 0.0
1428, 0.0
1429, 0.0
1430, 0.0
1431, 0.0
1432, 0.0
1433, 0.0
1434, 0.0
1435, 0.0
1436, 0.0
1437, 0.0
1438, 0.0
1439, 0.0
1440, 0.0
1441, 0.0
1442, 0.0
1443, 0.0
1444, 0.0
1445, 0.0
1446, 0.0
1447, 0.0
1448, 0.0
1449, 0.0
1450, 0.0
1451, 0.0
1452, 0.0
1453, 0.0
1454, 0.0
1455, 0.0
1456, 0.0
1457, 0.0
1458, 0.0
1459, 0.0
1460, 0.0
1461, 0.0
1462, 0.0
1463, 0.0
1464, 0.0
1465, 0.0
1466, 0.0
1467, 0.0
1468, 0.0
1469, 0.0
1470, 0.0
1471, 0.0
1472, 0.0
1473, 0.0
1474, 0.0
1475, 0.0
1476, 0.0
1477, 0.0
1478, 0.0
1479, 0.0
1480, 0.0
1481, 0.0
1482, 0.0
1483, 0.0
1484, 0.0
1485, 0.0
1486, 0.0
1487, 0.0
1488, 0.0
1489, 0.0
1490, 0.0
1491, 0.0
1492, 0.0
1493, 0.0
1494, 0.0
1495, 0.0
1496, 0.0
1497, 0.0
1498, 0.0
1499, 0.0
1500, 0.0
1501, 0.0
1502, 0.0
1503, 0.0
1504, 0.0
1505, 0.0
1506, 0.0
1507, 0.0
1508, 0.0
1509, 0.0
1510, 0.0
1511, 0.0
1512, 0.0
1513, 0.0
1514, 0.0
1515, 0.0
1516, 0.0
1517, 0.0
1518, 0.0
1519, 0.0
1520, 0.0
1521, 0.0
1522, 0.0
1523, 0.0
1524, 0.0
1525, 0.0
1526, 0.0
1527, 0.0
1528, 0.0
1529, 0.0
1530, 0.0
1531, 0.0
1532, 0.0
1533, 0.0
1534, 0.0
1535, 0.0
1536, 0.0
1537, 0.0
1538, 0.0
1539, 0.0
1540, 0.0
1541, 0.0
1542, 0.0
1543, 0.0
1544, 0.0
1545, 0.0
1546, 0.0
1547, 0.0
1548, 0.0
1549, 0.0
1550, 0.0
1551, 0.0
1552, 0.0
1553, 0.0
1554, 0.0
1555, 0.0
1556, 0.0
1557, 0.0
1558, 0.0
1559, 0.0
1560, 0.0
1561, 0.0
1562, 0.0
1563, 0.0
1564, 0.0
1565, 0.0
1566, 0.0
1567, 0.0
1568, 0.0
1569, 0.0
1570, 0.0
1571, 0.0
1572, 0.0
1573, 0.0
1574, 0.0
1575, 0.0
1576, 0.0
1577, 0.0
1578, 0.0
1579, 0.0
1580, 0.0
1581, 0.0
1582, 0.0
1583, 0.0
1584, 0.0
1585, 0.0
1586, 0.0
1587, 0.0
1588, 0.0
1589, 0.0
1590, 0.0
1591, 0.0
1592, 0.0
1593, 0.0
1594, 0.0
1595, 0.0
1596, 0.0
1597, 0.0
1598, 0.0
1599, 0.0
