30, 0.0
31, 0.0
32, 0.0
33, 0.0
34, 0.0
35, 0.0
36, 0.0
37, 0.0
38, 0.0
39, 0.0
40, 0.0
41, 0.0
42, 0.0
43, 0.0
44, 0.0
45, 0.0
46, 0.0
47, 0.0
48, 0.0
49, 0.0
50, 0.0
51, 0.0
52, 0.0
53, 0.0
54, 0.0
55, 0.0
56, 0.0
57, 0.0
58, 0.0
59, 0.0
60, 0.0
61, 0.0
62, 0.0
63, 0.0
64, 0.0
65, 0.0
66, 0.0
67, 0.0
68, 0.0
69, 0.0
70, 0.0
71, 0.0
72, 0.0
73, 0.0
74, 0.0
75, 0.0
76, 0.0
77, 0.0
78, 0.0
79, 0.0
80, 0.0
81, 0.0
82, 0.0
83, 0.0
84, 0.0
85, 0.0
86, 0.0
87, 0.0
88, 0.0
89, 0.0
90, 0.0
91, 0.0
92, 0.0
93, 0.0
94, 0.0
95, 0.0
96, 0.0
97, 0.0
98, 0.0
99, 0.0
100, 0.0
101, 0.0
102, 0.0
103, 0.0
104, 0.0
105, 0.0
106, 0.0
107, 0.0
108, 0.0
109, 0.0
110, 0.0
111, 0.0
112, 0.0
113, 0.0
114, 0.0
115, 0.0
116, 0.0
117, 0.0
118, 0.0
119, 0.0
120, 0.0
121, 0.0
122, 0.0
123, 0.0
124, 0.0
125, 0.0
126, 0.0
127, 0.0
128, 0.0
129, 0.0
130, 0.0
131, 0.0
132, 0.0
133, 0.0
134, 0.0
135, 0.0
136, 0.0
137, 0.0
138, 0.0
139, 0.0
140, 0.0
141.0, 9.927050182353915e-05
142.0, 4.796474351935965e-06
143.0, 0.00012754951809401354
144.0, 0.0002708544872667632
145.0, 0.0003118946466407472
146.0, 0.00024666604213144827
147.0, 1.284356438919591e-05
148.0, 8.348220691222342e-05
149.0, 0.00018003444518153444
150.0, 0.0001709452828503876
151.0, 0.00014163515311510616
152.0, 0.0004813596885374374
153.0, 0.0003092800678030053
154.0, 0.0002005342648688531
155.0, 0.00034448773689390504
156.0, 0.0002964788840067202
157.0, 0.000440383456028543
158.0, 0.0005658655381449069
159.0, 0.0005641407674905446
160.0, 0.0004399917361647167
161.0, 0.0003514574149355677
162.0, 0.00029690337557756617
163.0, 0.0003427037385885834
164.0, 0.00044031694722043203
165.0, 0.00027458632888500983
166.0, 0.0003221031050831328
167.0, 0.0003777494683254233
168.0, 0.00029583146676348407
169.0, 0.0002098028226822888
170.0, 0.0003031115402909717
171.0, 0.00043758871452439683
172.0, 0.0004630689958299066
173.0, 0.00034166611534162787
174.0, 0.0003368932837664273
175.0, 0.00037203320285254994
176.0, 0.00029197454212870165
177.0, 9.709573198782401e-05
178.0, 0.0001295263001623004
179.0, 0.0002618532457324264
180.0, 0.00024321685980305014
181.0, 0.00019052239293589675
182.0, 0.0004134339795276871
183.0, 0.0002649750684734143
184.0, 0.00021392142984822234
185.0, 0.00030017860573842536
186.0, 0.00030987542676567974
187.0, 0.00034841262257393553
188.0, 0.0002678716235911274
189.0, 0.00013579709394671404
190.0, 8.887223372198397e-05
191.0, 0.00022328000949869636
192.0, 0.00011853271007786533
193.0, 7.288824720764579e-05
194.0, 0.0001925022580432733
195.0, 0.0002675880968146026
196.0, 6.15860487779903e-05
197.0, 0.00010133373456469871
198.0, 0.00030556517099022295
199.0, 0.0002158642274898082
200.0, 0.0001383022701978376
201.0, 0.0002306889069079966
202.0, 0.0002194478660492302
203.0, 7.109675355467635e-05
204.0, 0.00012249424209358014
205.0, 5.348485771616268e-05
206.0, 4.249612811745503e-05
207.0, 5.5533116563287815e-05
208.0, 0.00027584738050604195
209.0, 0.00034661862899209824
210.0, 0.00014728824031073
211.0, 3.0829892303892646e-05
212.0, 0.00012130615904664737
213.0, 0.00014112353683208437
214.0, 7.00170926602664e-05
215.0, 0.00011162417378235052
216.0, 0.00021928222713510053
217.0, 0.00022493047141314198
218.0, 0.00021241623893919912
219.0, 0.00022262722817670036
220.0, 0.00024399489873905037
221.0, 0.00020363882820633927
222.0, 4.8961039068065854e-05
223.0, 2.187045320376774e-05
224.0, 0.00017533604496514915
225.0, 0.0002916513438712068
226.0, 0.00019623443550033403
227.0, 0.00027258289482145516
228.0, 0.00013508671949279713
229.0, 6.401073660011563e-05
230.0, 0.00023663133850653897
231.0, 0.00018544677107629033
232.0, 0.00010438206797774887
233.0, 0.00013999656033512
234.0, 0.00021742471462046423
235.0, 0.00016390106886649794
236.0, 0.00013501230003745582
237.0, 8.517475697926473e-05
238.0, 0.00013763248636863693
239.0, 0.00026425709696798676
240.0, 4.632554405153744e-05
241.0, 5.200407610065865e-05
242.0, 0.00020682467703977728
243.0, 0.0003038058053228529
244.0, 0.00018711681619866036
245.0, 0.00023449209146239147
246.0, 0.00015856413680781094
247.0, 6.544614169154368e-05
248.0, 0.00011104972849436451
249.0, 0.0003020531462953429
250.0, 0.00021268073296539292
251.0, 7.228842234660417e-05
252.0, 2.74393552847118e-05
253.0, 9.018202261571582e-05
254.0, 0.0001026738460948525
255.0, 0.00017005130004698485
256.0, 0.00017828143751447433
257.0, 0.0001370236245334781
258.0, 0.0002681686888051145
259.0, 0.00012791744175007686
260.0, 8.473535992812598e-05
261.0, 0.00015572334405875737
262.0, 0.00014258777369345792
263.0, 4.543634735562358e-05
264.0, 6.686444350029004e-05
265.0, 0.00021511520200904983
266.0, 0.00031570479179695936
267.0, 0.00012215631221334388
268.0, 3.249391244012724e-05
269.0, 2.4923668728642853e-05
270.0, 0.00017375166738390837
271.0, 0.0002390405267522879
272.0, 0.00018489687257098748
273.0, 0.00012246229926182717
274.0, 0.00013224293598778207
275.0, 0.00014977279429045023
276.0, 0.00010203692064554172
277.0, 0.000250101443511945
278.0, 0.0002532282174424138
279.0, 0.00011848234292851982
280.0, 3.7513570413563617e-07
281.0, 7.889434514917853e-05
282.0, 0.00015412759695255853
283.0, 0.00011524705715414283
284.0, 5.579980119428507e-05
285.0, 6.484020593500345e-05
286.0, 1.8877562252030963e-05
287.0, 2.833254792736417e-05
288.0, 0.00011008646735657024
289.0, 0.00012973283200899514
290.0, 8.653885385016955e-05
291.0, 8.077244077352299e-05
292.0, 2.429555584291029e-05
293.0, 3.2428012611667456e-05
294.0, 0.00024048561142012357
295.0, 0.0001289750385409092
296.0, 1.114490659163922e-05
297.0, 6.33885248143352e-05
298.0, 0.00022760698251928494
299.0, 0.00030966998538668706
300.0, 0.00023691958164441407
301.0, 5.842497697958581e-05
302.0, 5.630393897382169e-05
303.0, 0.00012206369301053976
304.0, 8.89905759557968e-06
305.0, 0.0001241186785630816
306.0, 0.0003307018592407414
307.0, 0.0002713390067253829
308.0, 3.7424756802066225e-05
309.0, 0.00021956033568633327
310.0, 0.0001950219419565237
311.0, 0.00017550332132240936
312.0, 0.00017538655264638902
313.0, 9.572826942795785e-05
314.0, 4.152181930250114e-05
315.0, 4.4715551287899894e-05
316.0, 0.00013650104243941347
317.0, 0.00012802945912445893
318.0, 8.046080875103375e-05
319.0, 0.00018494828174204695
320.0, 0.00018260683881336057
321.0, 0.00012402359637066313
322.0, 7.245159506815377e-05
323.0, 3.028978174546946e-05
324.0, 0.00014817374417634127
325.0, 0.00020352127016708455
326.0, 0.00015667527037144545
327.0, 0.00010400859183697965
328.0, 0.00021662292068706202
329.0, 0.00028721359813576995
330.0, 0.00021142952493852894
331.0, 0.00012411034139054244
332.0, 0.00015087101494241115
333.0, 0.00015505996912574993
334.0, 0.00021242556875006007
335.0, 0.00019237356245388972
336.0, 0.00012973402462077398
337.0, 0.00015348983990926918
338.0, 0.0002739539281528732
339.0, 0.0001844037133693681
340.0, 0.00018173414444282128
341.0, 0.00023203826956688238
342.0, 2.0209866281469524e-05
343.0, 0.00011827450135781506
344.0, 3.0183765169302606e-05
345.0, 6.803910623332326e-05
346.0, 3.9425706107474326e-05
347.0, 0.00018303917580114206
348.0, 0.0002442834636833984
349.0, 0.0001773211612687276
350.0, 4.7824558701444004e-05
351.0, 3.0262866393508697e-05
352.0, 0.00016893935660379709
353.0, 0.00014606177268012066
354.0, 0.00012521665162276832
355.0, 0.00020786552736634865
356.0, 0.0002874266535098509
357.0, 0.0001554280298759812
358.0, 2.257482080458558e-05
359.0, 6.875210496219644e-05
360.0, 1.1770589454538614e-05
361.0, 0.00016493027634555905
362.0, 0.00012266450380941376
363.0, 0.00016522076312399688
364.0, 0.0002404058241536911
365.0, 0.00024255891065370273
366.0, 0.00014700482708080467
367.0, 0.0002315415658173359
368.0, 0.00015258508762391667
369.0, 0.00012912583277024445
370.0, 0.00021429833630859434
371.0, 0.00024610003501671914
372.0, 0.00027981466634079274
373.0, 8.82087412016892e-05
374.0, 1.6587810337664864e-05
375.0, 0.00011054656141409831
376.0, 0.00031129590281413146
377.0, 0.00030901840301615874
378.0, 0.0002410693295487849
379.0, 0.00018699782875040508
380.0, 0.0001818340553436513
381.0, 0.0002403664222344997
382.0, 0.00035656172266678576
383.0, 0.0003399786044862889
384.0, 0.0001821255639908417
385.0, 0.00013095591720536253
386.0, 0.00038897713795282623
387.0, 0.0001191266237728286
388.0, 6.287055195518447e-05
389.0, 0.0001563993357227006
390.0, 0.00020387488148464403
391.0, 0.0002732023443667433
392.0, 0.0003663445703069493
393.0, 0.00035459468962089637
394.0, 0.0002767178564305498
395.0, 0.00024030223484732474
396.0, 0.00030882835537150276
397.0, 0.00031024903051440596
398.0, 0.00032902566889671166
399.0, 0.00033944782418559357
400.0, 0.00033279820734701546
401.0, 0.00040738755557641375
402.0, 0.00016154327478746085
403.0, 0.00011726388824624796
404.0, 0.00025873400309338275
405.0, 0.00037987824659684396
406.0, 0.00031922350819151826
407.0, 0.00024522108521487964
408.0, 0.0002871862876074973
409.0, 0.0003279206252788426
410.0, 0.0002408791474050238
411.0, 0.00010519776485068631
412.0, 0.00025008874147806805
413.0, 0.0003281140738418773
414.0, 0.000362595396970285
415.0, 0.0004115979382574079
416.0, 0.0003454033388869863
417.0, 0.0003222094532869347
418.0, 0.0002543914548945067
419.0, 0.00021386911951847153
420.0, 0.0002256313933548097
421.0, 0.0001936672675122346
422.0, 0.00021606062250008028
423.0, 0.00015359311980613272
424.0, 0.00017618593363436373
425.0, 0.000308639205455475
426.0, 0.00033104356472447687
427.0, 0.0001945195094507918
428.0, 0.0001355707825149407
429.0, 0.0001770319103456482
430.0, 0.00025066116307165726
431.0, 0.00026389198986661634
432.0, 0.00017306982794712073
433.0, 0.00014851686872356147
434.0, 0.00015421476414054255
435.0, 0.00011650458196608525
436.0, 7.571372905995287e-05
437.0, 0.00022763682627627312
438.0, 0.00017779021901305513
439.0, 0.00012154800638247733
440.0, 0.00015680692654757724
441.0, 0.00015868704305180753
442.0, 7.611672827512764e-05
443.0, 0.0001031872556210012
444.0, 0.00019559376253574113
445.0, 0.0002560988820179969
446.0, 0.00022603454131619652
447.0, 0.00020613351952372233
448.0, 7.497277290668374e-05
449.0, 5.657770178545798e-05
450.0, 0.0001303927927080257
451.0, 0.00014093476061462204
452.0, 7.190909329528454e-05
453.0, 8.934343128359949e-05
454.0, 0.00010013930164727745
455.0, 0.00013039774863772574
456.0, 0.0002238425978327792
457.0, 0.00030469530623772193
458.0, 0.00032901863564666626
459.0, 0.00016045711913138878
460.0, 0.00010152119461762469
461.0, 0.0001912351285842234
462.0, 6.348419623404292e-05
463.0, 7.039131011405928e-05
464.0, 0.00012605776934624643
465.0, 0.00019099008974802012
466.0, 0.00019488354494188719
467.0, 6.921395758722798e-05
468.0, 3.0190365522237465e-05
469.0, 1.192549398022115e-05
470.0, 9.692689620034161e-05
471.0, 0.00023366693584355
472.0, 0.00023356155809565608
473.0, 5.0231501636547785e-05
474.0, 0.00023317254126229483
475.0, 0.00024143743960585524
476.0, 4.917613552514035e-05
477.0, 1.763943680478067e-05
478.0, 2.107446644558296e-05
479.0, 3.962299422888419e-05
480.0, 0.00013314842346178566
481.0, 0.00010921204134068444
482.0, 1.5070430314958764e-05
483.0, 5.106972041898775e-05
484.0, 3.705388767580821e-05
485.0, 1.7117179484061286e-05
486.0, 0.00013142175643870735
487.0, 0.00026960639994223854
488.0, 0.000171814129868861
489.0, 0.00015543273444792855
490.0, 4.7789848145857304e-05
491.0, 3.3276218815200454e-05
492.0, 4.923947289596032e-05
493.0, 3.452960524078061e-05
494.0, 3.9457252479314296e-05
495.0, 5.634033924049957e-05
496.0, 3.600476235833624e-05
497.0, 0.00010930082461634853
498.0, 6.087239905919507e-05
499.0, 2.6905247488821968e-05
500.0, 2.538363195375028e-05
501.0, 5.2897247053924646e-05
502.0, 0.00011495922120609873
503.0, 8.311091593563057e-05
504.0, 5.590601485179101e-05
505.0, 0.00015914795153978268
506.0, 0.0001404637633509039
507.0, 9.851052835203101e-05
508.0, 9.990335401266183e-05
509.0, 9.98562465859609e-05
510.0, 9.749158829536287e-05
511.0, 3.0360651178340112e-05
512.0, 6.83100482960059e-05
513.0, 0.00015206674808119697
514.0, 0.00012226261152176505
515.0, 4.0633083162242685e-05
516.0, 0.0002525566323139632
517.0, 0.0003014361531193562
518.0, 0.00023646829021174386
519.0, 0.00018742980595361314
520.0, 0.00018198247908229702
521.0, 1.2944048044766773e-05
522.0, 1.7876920892936986e-05
523.0, 8.298361368868701e-05
524.0, 0.00018656107464522134
525.0, 0.00024200129069763574
526.0, 0.00011264015742008488
527.0, 4.2581539440611244e-05
528.0, 4.0953244093150395e-05
529.0, 9.364418086372214e-05
530.0, 0.0001127803810422723
531.0, 3.261068711012031e-05
532.0, 6.479844357899469e-05
533.0, 0.00010390296512341227
534.0, 7.9394754885285e-05
535.0, 4.8778595228268644e-05
536.0, 7.025026998757189e-05
537.0, 0.00010207164129010588
538.0, 7.239337059173664e-05
539.0, 2.3396994248060117e-05
540.0, 1.2783598707029818e-05
541.0, 1.724548355706509e-05
542.0, 0.00010132302463928987
543.0, 0.00019155827643447054
544.0, 5.0710376653682237e-05
545.0, 6.98623141361411e-05
546.0, 0.00021051171544457409
547.0, 0.00022079104463609223
548.0, 5.4555078783825894e-05
549.0, 0.00012161496133281736
550.0, 0.00016226367815690466
551.0, 0.0001596024621798996
552.0, 0.00010385029361266596
553.0, 2.1079362902350846e-06
554.0, 3.9056512266031955e-05
555.0, 5.140242575163397e-05
556.0, 3.792436542657128e-05
557.0, 9.863256785377228e-05
558.0, 9.108640543880272e-05
559.0, 3.2076431137658393e-05
560.0, 9.39715161511073e-05
561.0, 0.00011033354324234029
562.0, 0.00017634589951114648
563.0, 0.00022398805109899165
564.0, 7.459348920383881e-05
565.0, 5.988874958024041e-05
566.0, 9.198865826998679e-05
567.0, 0.00011022819711007115
568.0, 0.00011213518100939352
569.0, 0.00010687594999064695
570.0, 0.00013071882200330298
571.0, 9.410141662095696e-05
572.0, 0.00013125923120668078
573.0, 0.0001608323532286819
574.0, 0.00011943149509623491
575.0, 3.419107972640619e-05
576.0, 0.0001513977916516741
577.0, 8.138971274264263e-05
578.0, 9.549237171968268e-05
579.0, 0.00010099657065546614
580.0, 0.000134699773620675
581.0, 0.00020298457484782125
582.0, 0.00011745892144216447
583.0, 0.00017898963263791602
584.0, 0.0001578438098745427
585.0, 0.00017547017653498617
586.0, 0.00019032195979479886
587.0, 6.240452824467921e-05
588.0, 0.0002486048699568128
589.0, 0.000274794260649094
590.0, 0.0002656526956218823
591.0, 0.00018480607686078407
592.0, 4.952170544390407e-05
593.0, 0.00022196107487746012
594.0, 0.00022907523182262682
595.0, 0.0002028375509578033
596.0, 0.00015094871451925
597.0, 0.00016929084568169294
598.0, 0.00023969620827383198
599.0, 0.00020084726818644314
600.0, 0.00021670083466126527
601.0, 0.00037145815108835013
602.0, 0.00028236673647052566
603.0, 0.00014889324446230463
604.0, 0.0003063200039276552
605.0, 0.0003223805858080718
606.0, 0.00019741052910721585
607.0, 0.00013061195355945992
608.0, 0.00015532899779110862
609.0, 0.000236316070481457
610.0, 0.00033903425745984207
611.0, 0.0003518032989092693
612.0, 0.0002524256920960353
613.0, 0.0003006974294664137
614.0, 0.000280825265463473
615.0, 0.000238692808479584
616.0, 0.00033675048930266173
617.0, 0.0001803100381624018
618.0, 0.00020354203579462567
619.0, 0.0002884575736086309
620.0, 0.00026619013527676724
621.0, 0.00022291895326609476
622.0, 0.00010030452843084419
623.0, 0.00026560653314462235
624.0, 0.0002266073384882184
625.0, 0.00017947820067462373
626.0, 0.00025393375864794776
627.0, 0.00023434202777409684
628.0, 0.00016575724275271948
629.0, 0.0002730542564228855
630.0, 0.0002947538448073706
631.0, 0.0002863200052612659
632.0, 0.000294608615072548
633.0, 0.00020053111996024654
634.0, 0.00016822796819603142
635.0, 0.0002553471201891244
636.0, 0.00017693825279071145
637.0, 0.00012617372512489645
638.0, 0.00019363432931737403
639.0, 0.00022163903693894123
640.0, 0.00020743838870817375
641.0, 0.00031975167429551565
642.0, 0.00022704058141752987
643.0, 0.0002212049836425219
644.0, 0.0002727699226608017
645.0, 0.00024370388804858989
646.0, 0.00018339936506393036
647.0, 0.00017094670959277007
648.0, 3.424283618689297e-05
649.0, 5.073395722761911e-05
650.0, 0.00018972820239194455
651.0, 0.0001558902393872919
652.0, 7.821007168871964e-05
653.0, 0.00017183317695207363
654.0, 0.00014225472909328512
655.0, 2.3488703686102192e-05
656.0, 2.4620418978575095e-05
657.0, 0.0001507927162134299
658.0, 2.403191029492284e-05
659.0, 8.229541523466405e-05
660.0, 4.460827980022029e-05
661.0, 8.758641753968045e-05
662.0, 0.00017291509684819097
663.0, 0.0001250068703768027
664.0, 7.407072168220332e-05
665.0, 0.00011119215640728985
666.0, 3.73972444072517e-05
667.0, 3.620667506642497e-05
668.0, 0.0001238592509314773
669.0, 0.00015580247922319555
670.0, 0.00019141174092925182
671.0, 0.00026868852101664584
672.0, 0.00017631036519490914
673.0, 7.806148484601942e-05
674.0, 2.8054441866865816e-05
675.0, 4.48340966658903e-05
676.0, 0.00010421610958553057
677.0, 0.00011441844261409354
678.0, 7.790688983607258e-05
679.0, 6.331433870307477e-05
680.0, 9.43217130975838e-05
681.0, 7.705061133506771e-05
682.0, 0.00018917444225131363
683.0, 0.0003135165173559445
684.0, 0.00019937059755848483
685.0, 4.8973672839229224e-05
686.0, 6.79873773529175e-05
687.0, 0.0001540149703165575
688.0, 0.0001778775427682182
689.0, 0.00016225063817015112
690.0, 0.0001223310034701611
691.0, 6.695503730915074e-05
692.0, 6.42741933457349e-05
693.0, 8.6940916688685e-05
694.0, 5.371797205016469e-05
695.0, 9.56860115720881e-05
696.0, 0.00015445348823101674
697.0, 0.00011715566966712113
698.0, 8.886346997547028e-05
699.0, 0.00012493232889693748
700.0, 7.464791642949055e-05
701.0, 0.00015908018722722277
702.0, 0.00010834132151450721
703.0, 0.00012793485479199292
704.0, 0.00015449750008557573
705.0, 0.00016383205383136253
706.0, 0.00022021715287343397
707.0, 0.00023564470009557504
708.0, 0.00020715119752003812
709.0, 0.00017197368188563914
710.0, 0.00014353630924052489
711.0, 9.242625538242534e-05
712.0, 0.00010016851026078109
713.0, 0.00010694117308382134
714.0, 0.00024649012167799893
715.0, 0.00011615569538584618
716.0, 4.740613506701627e-05
717.0, 0.00013790723742418946
718.0, 6.391643905562679e-05
719.0, 6.839453899034904e-05
720.0, 0.00019326895691178152
721.0, 0.00015338039569781737
722.0, 0.00012823095369414862
723.0, 3.0234644018979278e-05
724.0, 2.7755652076850627e-06
725.0, 7.138027552151673e-07
726.0, 2.5175177239851307e-05
727.0, 5.230518817427561e-05
728.0, 9.653656348810219e-05
729.0, 9.619291694441625e-05
730.0, 7.266095626604234e-05
731.0, 8.151527087553895e-05
732.0, 7.391566421433212e-05
733.0, 4.6204810709081986e-05
734.0, 7.118526252503142e-05
735.0, 6.594079881298544e-05
736.0, 0.0001194836114770417
737.0, 0.00012136787733152564
738.0, 0.00018413263952834163
739.0, 0.00029148857357809725
740.0, 0.00022824192902078645
741.0, 0.0001378863006262849
742.0, 6.187320434881454e-05
743.0, 9.349042418879615e-05
744.0, 0.00011966611984742632
745.0, 0.00011677475193236908
746.0, 0.00011899337930508039
747.0, 7.767326178290448e-05
748.0, 0.0002282615085044062
749.0, 0.00021051892363943418
750.0, 0.00016183078947500456
751.0, 0.00014279518777279536
752.0, 0.00012620494483891862
753.0, 0.00025436383946798803
754.0, 0.00014043359996710196
755.0, 0.00017243509097556578
756.0, 0.00025987775698037003
757.0, 0.00021761062613608108
758.0, 0.00012752930163037476
759.0, 6.093416767935339e-05
760.0, 7.664015422119301e-05
761.0, 7.641189481288524e-05
762.0, 0.0001101441267723953
763.0, 0.0002321806034666942
764.0, 0.0002453439161231084
765.0, 0.0001680680978644684
766.0, 0.00031099464199349784
767.0, 0.00026518553073107674
768.0, 0.000273503155775186
769.0, 0.00020157378413674312
770.0, 0.00011498889169081962
771.0, 0.00011822678240997037
772.0, 0.00015824060390965503
773.0, 0.0001829884826373174
774.0, 0.00013524012278822174
775.0, 0.00011320508844449467
776.0, 0.00011821630455885862
777.0, 9.176064434201437e-05
778.0, 9.138413009451344e-05
779.0, 0.0002270622316054979
780.0, 0.0002678807831545578
781.0, 0.0001248042354911033
782.0, 7.968919841723512e-05
783.0, 0.00016732920123551927
784.0, 0.0002039068485362853
785.0, 0.00014022066766965877
786.0, 0.0001022485645670775
787.0, 0.00023380286702831196
788.0, 0.00012229445649303985
789.0, 9.457546424883063e-05
790.0, 0.00016733574067652644
791.0, 0.00021815555739015136
792.0, 0.00016455053848764856
793.0, 1.8361795099341695e-05
794.0, 0.00010004634952134676
795.0, 0.00027128075924016384
796.0, 0.00017702780877858884
797.0, 4.4334707919910605e-05
798.0, 5.458162948847955e-05
799.0, 9.407279879473862e-05
800.0, 2.314689363589062e-05
801.0, 2.898307305871675e-05
802.0, 6.994049870567512e-05
803.0, 0.00013847267268807188
804.0, 0.00012745771978830313
805.0, 0.0001038433912013842
806.0, 0.00020138574997441823
807.0, 0.00016771824274346554
808.0, 0.00014543746704618788
809.0, 0.00013869356681721955
810.0, 0.0001058155369456199
811.0, 4.344677093328232e-05
812.0, 2.085234075061833e-05
813.0, 0.0001170805656316384
814.0, 0.00014635603679655107
815.0, 0.0001611841682415534
816.0, 0.00013571623913434479
817.0, 0.00012562070553910048
818.0, 0.00013757075108858724
819.0, 0.00021579691800637478
820.0, 0.0001143643306982577
821.0, 0.00016957142954596597
822.0, 0.00017270255272041138
823.0, 0.00015738137731856886
824.0, 8.886743536678016e-05
825.0, 7.202309388006666e-05
826.0, 0.00017797864416161586
827.0, 0.00021804071512072302
828.0, 0.00014850849544910673
829.0, 0.0001442275715283211
830.0, 9.469383821678131e-05
831.0, 1.8583362302206324e-05
832.0, 5.440024968317365e-05
833.0, 6.401787513027542e-05
834.0, 7.272347186573828e-05
835.0, 9.084388398329383e-05
836.0, 0.00016784553075702784
837.0, 4.562799453770011e-05
838.0, 2.2017389264130264e-05
839.0, 3.377924660259445e-05
840.0, 9.497322866465269e-06
841.0, 5.8900779044353714e-05
842.0, 0.00011839669242838387
843.0, 0.00010002203126530324
844.0, 8.664367928107135e-05
845.0, 9.194915604206607e-05
846.0, 9.638505424710118e-05
847.0, 6.2329342844652e-05
848.0, 0.0001298618186113704
849.0, 0.00016651187046366373
850.0, 0.00010582513793070231
851.0, 8.139631061754544e-05
852.0, 1.7995203821954665e-05
853.0, 7.581311227934193e-05
854.0, 0.00010713848664901902
855.0, 0.00013622322563440988
856.0, 0.00021380473201224718
857.0, 0.00018276154467976636
858.0, 0.0001548344671610664
859.0, 9.494732650756409e-05
860.0, 9.940509362574984e-05
861.0, 0.00014346043573077762
862.0, 0.00015420859699789884
863.0, 0.00015249749132068984
864.0, 0.00013346318513738877
865.0, 7.652900427207487e-05
866.0, 0.0001490625178573667
867.0, 4.940338230220867e-05
868.0, 1.4104440291298963e-05
869.0, 1.747156431486767e-05
870.0, 5.866697554560399e-05
871.0, 5.521566926698563e-05
872.0, 3.54394546391092e-05
873.0, 0.00021817814851340752
874.0, 4.729681030676724e-06
875.0, 0.00016284265692503614
876.0, 0.00014574062534370826
877.0, 2.2642792157190075e-05
878.0, 8.050250597757934e-05
879.0, 0.00010022399296595321
880.0, 7.297286584581869e-05
881.0, 0.00014193688259570136
882.0, 9.094960290910639e-05
883.0, 0.00010130609336318949
884.0, 0.00013108784030078463
885.0, 0.00010545746333977339
886.0, 5.46275528033569e-05
887.0, 4.974720245672689e-06
888.0, 8.918427911564494e-05
889.0, 0.00013059739025366005
890.0, 0.00013892311921739507
891.0, 0.00010466328919193065
892.0, 8.64193345361371e-05
893.0, 8.034546601720294e-05
894.0, 7.279527732861414e-05
895.0, 0.0001889448143193935
896.0, 0.0001625560561915701
897.0, 0.00013202233317587077
898.0, 0.00017547378909728984
899.0, 0.00016186499231618854
900.0, 4.923178754321893e-05
901.0, 6.959355254418172e-05
902.0, 0.00011583849463432093
903.0, 7.885386310128596e-05
904.0, 6.068895906680006e-05
905.0, 0.00010990635623383701
906.0, 7.963675437395861e-05
907.0, 8.785286721407367e-06
908.0, 6.347532900241906e-05
909.0, 0.00013130841898832037
910.0, 0.00013157667658361723
911.0, 0.00020391659404331059
912.0, 0.00012617361984527197
913.0, 0.00010659248066883519
914.0, 0.00012066256202788993
915.0, 4.571530566953591e-05
916.0, 0.00013171695360531682
917.0, 0.00016900881322012837
918.0, 6.628181087463301e-05
919.0, 5.209846281834648e-05
920.0, 4.86018520207145e-05
921.0, 6.698815275690069e-05
922.0, 6.032360585659452e-05
923.0, 7.027292017322807e-05
924.0, 1.8525012916578505e-05
925.0, 3.396904700985683e-05
926.0, 0.00016738806187595263
927.0, 9.753214875170906e-05
928.0, 0.00016506474248239496
929.0, 0.00024298506368300028
930.0, 0.00015611458171017995
931.0, 0.00026339324936376575
932.0, 0.00014215450295763005
933.0, 5.171611932897276e-05
934.0, 0.00010706821556626009
935.0, 0.0001502896677531392
936.0, 0.00017834990750733852
937.0, 0.00015510014270752882
938.0, 0.00018079765996391965
939.0, 0.0001311418825839383
940.0, 0.0001808221330000835
941.0, 4.612362230816702e-05
942.0, 8.712241689719024e-05
943.0, 0.00012867722816879386
944.0, 4.2769977642375966e-05
945.0, 0.00012972836859746528
946.0, 0.00014275049171708735
947.0, 7.992660696347606e-05
948.0, 4.3499040349940055e-05
949.0, 2.1487545682264087e-05
950.0, 2.233731188874787e-05
951.0, 3.0612764811417686e-05
952.0, 0.00020185108814689784
953.0, 0.00013209169899315072
954.0, 0.0001273371182850241
955.0, 0.00026093452037983855
956.0, 0.00021513499646117704
957.0, 6.175230468572058e-05
958.0, 7.449761131756756e-05
959.0, 0.00014967218607971172
960.0, 0.00011520613404071616
961.0, 6.427716680621238e-05
962.0, 2.058637805648018e-05
963.0, 8.224069869002936e-05
964.0, 9.272083824745809e-05
965.0, 1.133486775411873e-05
966.0, 2.3350173844781468e-05
967.0, 0.0001178762746928673
968.0, 0.00010609363649041912
969.0, 0.00010662896082989114
970.0, 0.00014375715251320747
971.0, 0.00019906802479552265
972.0, 0.0001331228780611589
973.0, 0.00015155963271193702
974.0, 0.00021340536271104027
975.0, 7.73288929892812e-05
976.0, 9.526521463662075e-05
977.0, 8.883606087583831e-05
978.0, 0.00020008108187352766
979.0, 0.00014006788038170069
980.0, 9.278357448361763e-05
981.0, 0.00014853545037063416
982.0, 0.00010852585649326254
983.0, 1.420244299542059e-05
984.0, 0.00019592884151940825
985.0, 0.00024246443761022674
986.0, 0.0001931361583190756
987.0, 0.00015813239274705695
988.0, 0.00012886037494422124
989.0, 0.0001626464170447894
990.0, 0.00018665588303684954
991.0, 0.00016782058481962096
992.0, 0.00019928588386179934
993.0, 0.00012876832997077629
994.0, 0.0002122011027107619
995.0, 0.0003267326553689018
996.0, 0.00019862964568087378
997.0, 0.00019645461126847384
998.0, 0.0002335249933299869
999.0, 0.0001735930434760626
1000.0, 0.00021569451270629983
1001.0, 0.00018798911013626174
1002.0, 7.396400630723109e-05
1003.0, 0.00015856344490264738
1004.0, 0.00023234449640501575
1005.0, 0.0001838592087628758
1006.0, 0.00017408847627728823
1007.0, 0.00015442538398874897
1008.0, 5.630308227391269e-06
1009.0, 2.559578595287534e-05
1010.0, 9.442819927787022e-05
1011.0, 0.0001066791367700245
1012.0, 0.00014918858284359904
1013.0, 0.00024713327794025807
1014.0, 0.00017859825347284785
1015.0, 1.878649358992922e-05
1016.0, 5.418338012372497e-05
1017.0, 0.00012003636021636447
1018.0, 0.00010992711665161986
1019.0, 0.00018586713981847563
1020.0, 8.602387982938185e-05
1021.0, 0.00010522259357501881
1022.0, 0.00020518383728192706
1023.0, 0.00027983898532964565
1024.0, 0.00017935611908862398
1025.0, 1.0454277365779164e-05
1026.0, 2.7185622364191e-05
1027.0, 0.0001345477014995303
1028.0, 0.00025512193608666416
1029.0, 0.00013886102063534198
1030.0, 0.00012648235296422295
1031.0, 0.0001734058658391094
1032.0, 0.00013967606203375642
1033.0, 6.688894865064155e-05
1034.0, 8.714501237972823e-05
1035.0, 8.033784105283171e-05
1036.0, 0.00017137887807609648
1037.0, 5.031267664363221e-05
1038.0, 2.603886246445058e-05
1039.0, 5.0814217900159333e-05
1040.0, 6.561624953439574e-05
1041.0, 8.909722132659169e-05
1042.0, 0.0001068781879883062
1043.0, 8.859618448007262e-05
1044.0, 4.972790201393587e-05
1045.0, 4.0768518297007214e-05
1046.0, 0.00010122569129428226
1047.0, 3.2013807055052474e-05
1048.0, 2.4624366133503442e-05
1049.0, 1.9921126401680387e-05
1050.0, 3.997672287768116e-05
1051.0, 1.4163275604312636e-05
1052.0, 6.095580275091812e-05
1053.0, 3.940392105929955e-05
1054.0, 0.00010527812374640636
1055.0, 0.00011848945886274859
1056.0, 5.1322566862444565e-05
1057.0, 2.64474106368287e-05
1058.0, 4.227252221656471e-05
1059.0, 8.728055316356175e-05
1060.0, 0.00011399666832774212
1061.0, 1.2365071409250367e-05
1062.0, 3.997513716754985e-06
1063.0, 1.7388097588125037e-05
1064.0, 3.763564191027312e-05
1065.0, 6.808012767080245e-05
1066.0, 8.65247195103452e-05
1067.0, 3.1115644204226025e-05
1068.0, 1.5018039436008921e-05
1069.0, 8.4614679812789e-06
1070.0, 4.030746100465303e-05
1071.0, 2.1552878827680817e-05
1072.0, 1.61270871459607e-05
1073.0, 7.432448094334319e-05
1074.0, 5.592913896208694e-05
1075.0, 0.0001014341553415546
1076.0, 0.00014575695729486838
1077.0, 3.16133355789761e-05
1078.0, 0.00014010063139515967
1079.0, 2.918137479229034e-05
1080.0, 2.5261405484994283e-05
1081.0, 1.3755289477170255e-05
1082.0, 4.687093050985953e-05
1083.0, 8.266080352397702e-05
1084.0, 0.00011133819427267814
1085.0, 0.00015068877797133905
1086.0, 0.00013862931320936678
1087.0, 0.00015690255698260722
1088.0, 0.00013041908131159125
1089.0, 0.00015742261689362036
1090.0, 0.0001728251201206814
1091.0, 0.00018366867139672235
1092.0, 0.0002227250754546972
1093.0, 0.00014356611363965034
1094.0, 1.6772284302352224e-05
1095.0, 7.634215233136818e-05
1096.0, 5.404761442866606e-05
1097.0, 0.00018944244812367102
1098.0, 0.00023437407807642987
1099.0, 0.00018623308790822988
1100.0, 0.00010557319082843895
1101.0, 0.00017026577070372231
1102.0, 0.00017996395418523633
1103.0, 0.00010277421987578063
1104.0, 0.00019734181020597592
1105.0, 0.00034828421209582476
1106.0, 0.00025744383419656176
1107.0, 0.00026698774055728227
1108.0, 0.0002648612995309421
1109.0, 0.0003016939403799078
1110.0, 0.000277788638844675
1111.0, 0.00026461250783835086
1112.0, 0.00028179568930769935
1113.0, 0.00028817510338045746
1114.0, 0.0002909328435056673
1115.0, 0.0002731761964265788
1116.0, 0.00034077474566679764
1117.0, 0.00027175707644067255
1118.0, 0.0003797455480712001
1119.0, 0.0003824894472450903
1120.0, 0.00038730929080192054
1121.0, 0.00044386648061311485
1122.0, 0.00042397952418699736
1123.0, 0.00041012802219162034
1124.0, 0.00047462455923204586
1125.0, 0.00037012331668302955
1126.0, 0.00037869795154356285
1127.0, 0.00042356172946667514
1128.0, 0.0003414899925737385
1129.0, 0.000290249414361835
1130.0, 0.0003763983601992999
1131.0, 0.00042508400001432334
1132.0, 0.0003941349613308001
1133.0, 0.00042126992132925214
1134.0, 0.00046463815135865225
1135.0, 0.0004333517222777788
1136.0, 0.0005400441252965388
1137.0, 0.000516346986445328
1138.0, 0.00046790627931530404
1139.0, 0.00037940089627634915
1140.0, 0.00036969486608962043
1141.0, 0.0004852362057489914
1142.0, 0.0005062278072906609
1143.0, 0.00041856610147970495
1144.0, 0.000500225292427569
1145.0, 0.0005303244924890355
1146.0, 0.0005190903024925228
1147.0, 0.0005225181263091924
1148.0, 0.0004253753914932196
1149.0, 0.0004895213163234438
1150.0, 0.00045832477895644424
1151.0, 0.00035915072811690415
1152.0, 0.0004380741231294994
1153.0, 0.00048551212030615166
1154.0, 0.0005143723552047953
1155.0, 0.0004704304440739307
1156.0, 0.0004154922565217572
1157.0, 0.0005671926916573063
1158.0, 0.000468961215619498
1159.0, 0.0003727560124319321
1160.0, 0.00042650546943991623
1161.0, 0.00048458620685526443
1162.0, 0.0004483212186917342
1163.0, 0.0004392907099851741
1164.0, 0.00037829226680900004
1165.0, 0.00044620165009395015
1166.0, 0.0004704200843149075
1167.0, 0.0004934531735130793
1168.0, 0.00038129546665568623
1169.0, 0.0004462502955600435
1170.0, 0.0004917624096179472
1171.0, 0.00045278139858064134
1172.0, 0.0004430563049133395
1173.0, 0.0004947261018372708
1174.0, 0.0004946970049793015
1175.0, 0.00041859839590393025
1176.0, 0.0003836539959167842
1177.0, 0.00033349843149353876
1178.0, 0.0004666829822923963
1179.0, 0.0002981882248063461
1180.0, 0.0003172773282380013
1181.0, 0.0004638449648593618
1182.0, 0.0005059411335289813
1183.0, 0.00039411184764811955
1184.0, 0.0002132062587814966
1185.0, 0.00022590301434850194
1186.0, 0.0003162252322355964
1187.0, 0.00021074532845107689
1188.0, 0.0003014377816064516
1189.0, 0.00035098587003754467
1190.0, 0.0004464897289654461
1191.0, 0.00035363586253070727
1192.0, 0.00026550733533146074
1193.0, 0.0003774945897050133
1194.0, 0.0003876768119461102
1195.0, 0.00023887125105725993
1196.0, 0.00026895132540974767
1197.0, 0.0003104538226327778
1198.0, 0.0002283508953406384
1199.0, 0.00042841646642416826
1200.0, 0.00031989566086730093
1201.0, 0.0001243442754594663
1202.0, 0.00023490814106335724
1203.0, 0.00026881810582998913
1204.0, 0.00024574855163468856
1205.0, 0.0002952895005207287
1206.0, 0.00021148263299839063
1207.0, 0.00023344238994926094
1208.0, 0.00012887568718458514
1209.0, 0.00010754633967836417
1210.0, 3.953364903303237e-05
1211.0, 3.019875074613021e-06
1212.0, 0.00011608231228648774
1213.0, 0.00012723181689903537
1214.0, 8.431430905058816e-05
1215.0, 6.845100762525018e-05
1216.0, 3.612573259026965e-05
1217.0, 8.879049474073895e-05
1218.0, 0.000153067734657992
1219.0, 2.3606406397553174e-05
1220.0, 8.166470959117282e-05
1221.0, 1.735241330343714e-05
1222.0, 3.3156831007024247e-05
1223.0, 2.1406029852013654e-05
1224.0, 7.542508017402288e-06
1225.0, 9.462539126389074e-05
1226.0, 3.408861611760894e-05
1227.0, 0.00014551679680868923
1228.0, 7.6222814638213e-06
1229.0, 3.7547912795441356e-05
1230.0, 4.640065544524171e-05
1231.0, 8.759451439717198e-05
1232.0, 7.431075291328772e-05
1233.0, 0.00018828393518366803
1234.0, 3.5555758565958495e-05
1235.0, 4.64643588512374e-05
1236.0, 3.824146856694726e-05
1237.0, 7.563634219230739e-05
1238.0, 5.399191160559841e-05
1239.0, 6.824489647906963e-05
1240.0, 6.733564580664364e-05
1241.0, 0.00014003170213681805
1242.0, 3.472379784548652e-05
1243.0, 0.0001191453163794496
1244.0, 7.024965661934364e-05
1245.0, 2.725593796124987e-05
1246.0, 0.00011677251321396431
1247.0, 0.00015611537108715533
1248.0, 6.497010333137469e-05
1249.0, 7.62988320925696e-05
1250.0, 9.219622675492064e-05
1251.0, 2.0093391869816323e-05
1252.0, 5.991910594239455e-05
1253.0, 0.0001872096344166266
1254.0, 0.00024733499850301843
1255.0, 8.774352420120153e-05
1256.0, 0.00011508711025336768
1257.0, 1.1443613419504335e-05
1258.0, 0.00015880084371773956
1259.0, 0.00026734641025223123
1260.0, 0.00020720668262296272
1261.0, 0.00022275793102044807
1262.0, 0.00020553204837204947
1263.0, 0.0002465214360118711
1264.0, 0.00038155738515459277
1265.0, 0.0003308429817388187
1266.0, 0.0002668549603862512
1267.0, 0.00032753332140346257
1268.0, 0.00027350076665031754
1269.0, 0.0003576116743243513
1270.0, 0.0003706566845744951
1271.0, 0.00035970726889176353
1272.0, 0.00039707226800811483
1273.0, 0.0005187012672421816
1274.0, 0.0004226934946675187
1275.0, 0.00043529963636756427
1276.0, 0.000563445043617837
1277.0, 0.000507926920798093
1278.0, 0.0005547691275875657
1279.0, 0.0006468565345192957
1280.0, 0.0006158016319242766
1281.0, 0.0006709330916087033
1282.0, 0.0007223545059535986
1283.0, 0.000981832210078154
1284.0, 0.0009110929959104908
1285.0, 0.0007817844043568318
1286.0, 0.0008698843001411523
1287.0, 0.0010034567805549152
1288.0, 0.0011278944367169388
1289.0, 0.0010647744685582182
1290.0, 0.000919257467862356
1291.0, 0.0010670732259572128
1292.0, 0.0011255833373514754
1293.0, 0.001130863057468071
1294.0, 0.0012708235204452077
1295.0, 0.001441626959784944
1296.0, 0.0015513725955558619
1297.0, 0.0016470400437496036
1298.0, 0.0017251439144906084
1299.0, 0.0017251541507696264
1300.0, 0.0018127167347787433
1301.0, 0.0020015615298964004
1302.0, 0.0020488818358079448
1303.0, 0.0021233638085617138
1304.0, 0.002362774097491533
1305.0, 0.002444031767504548
1306.0, 0.002759775637338276
1307.0, 0.0028028592601334907
1308.0, 0.0030132400311091087
1309.0, 0.0030690694953255464
1310.0, 0.0033809147192559452
1311.0, 0.003892827174665513
1312.0, 0.004128919788072351
1313.0, 0.004704332356739262
1314.0, 0.005534081630069364
1315.0, 0.006449432882111147
1316.0, 0.007308678902866561
1317.0, 0.008635407257976568
1318.0, 0.01127508671421005
1319.0, 0.015015604400526596
1320.0, 0.022611053294740134
1321.0, 0.03662773563131704
1322.0, 0.05886402950618982
1323.0, 0.08024786267757517
1324.0, 0.09591186180072968
1325.0, 0.11191262473956791
1326.0, 0.13237083641776687
1327.0, 0.1601694987182836
1328.0, 0.20144762431943078
1329.0, 0.2747892203259079
1330.0, 0.38663330429017745
1331.0, 0.5530956045581444
1332.0, 0.7930939410955455
1333.0, 0.9990148989912115
1334.0, 0.8708253747669197
1335.0, 0.4863766820046569
1336.0, 0.22499029237982643
1337.0, 0.11066163421315388
1338.0, 0.061435713798979635
1339.0, 0.03926456196459193
1340.0, 0.02771364631751221
1341.0, 0.020621510859035345
1342.0, 0.01566775708367234
1343.0, 0.012290698858998151
1344.0, 0.010025292761657298
1345.0, 0.008460822892873806
1346.0, 0.007181731391515356
1347.0, 0.0058428852488140275
1348.0, 0.005020780694498841
1349.0, 0.004412938740065015
1350.0, 0.0038404871575286157
1351.0, 0.00337298090545476
1352.0, 0.002887030637507456
1353.0, 0.002561935845267932
1354.0, 0.002450338599151403
1355.0, 0.0021082617309382597
1356.0, 0.0017862674687457686
1357.0, 0.0016901800868840675
1358.0, 0.0014294482709072364
1359.0, 0.0011416384260242271
1360.0, 0.0010905179539756388
1361.0, 0.0009714859628698391
1362.0, 0.00078486105467277
1363.0, 0.0008898025267627717
1364.0, 0.000785309788051736
1365.0, 0.0006765377525402503
1366.0, 0.0006493122004115285
1367.0, 0.00039341553129850507
1368.0, 0.0004702703480677006
1369.0, 0.00040545331030887935
1370.0, 0.00026836221737935406
1371.0, 0.00030310497575337437
1372.0, 0.0003078607256123416
1373.0, 0.0002665011978453061
1374.0, 0.00016580693846187655
1375.0, 7.190570360352651e-05
1376.0, 0.00010408530109210672
1377.0, 8.675181705484632e-05
1378.0, 6.352031003463252e-05
1379.0, 5.6710212448857494e-05
1380.0, 3.119835679968386e-05
1381.0, 2.8807690674984108e-05
1382.0, 8.950461976567961e-06
1383.0, 9.307921976053495e-05
1384.0, 9.04087545040635e-06
1385.0, 7.353181919077107e-05
1386.0, 7.28057753634987e-05
1387.0, 9.70718647934689e-05
1388.0, 6.855916284351785e-05
1389.0, 3.003144175119979e-05
1390.0, 6.011832596939721e-05
1391.0, 4.7810484413185784e-05
1392.0, 5.7299671688744604e-05
1393.0, 7.162096866021531e-05
1394.0, 4.114237347891724e-05
1395.0, 4.475439152513375e-05
1396.0, 9.175130762647777e-05
1397.0, 2.3045538249190526e-05
1398.0, 3.985532462008814e-05
1399.0, 3.869821702601622e-05
1400.0, 6.784938685031478e-06
1401.0, 3.511605317643579e-05
1402.0, 0.0001463071163565718
1403.0, 0.0001302021003972981
1404.0, 0.00014335652607340213
1405.0, 6.8061833790456e-05
1406.0, 0.00011978587311730015
1407.0, 0.00017204861599778894
1408.0, 0.00022091612797045507
1409.0, 0.00015791989569828924
1410.0, 0.0001295989130850257
1411.0, 0.000231099288505829
1412.0, 0.00023642956814102215
1413.0, 0.00010059870974589143
1414.0, 0.0002483360765482955
1415.0, 0.0003180683204453002
1416.0, 0.00011773690856851515
1417.0, 0.00023625753433610038
1418.0, 0.00031162320624695915
1419.0, 0.0001841095045201866
1420.0, 0.0002466964212210024
1421.0, 0.00032772210819493095
1422.0, 6.859836652535565e-05
1423.0, 0.00033783240985417245
1424.0, 0.0004445705744547358
1425.0, 0.0005185848385363421
1426.0, 0.0004031144906407047
1427.0, 0.00028957138003950277
1428.0, 0.00027861478713604276
1429.0, 0.00039408118174542195
1430.0, 0.0004795124852435569
1431.0, 0.0003989751170932182
1432.0, 0.0004037817354094426
1433.0, 0.0005185972545842321
1434.0, 0.0005382776442520214
1435.0, 0.0005682056222293719
1436.0, 0.00038160824332720563
1437.0, 0.0006198417381363707
1438.0, 0.0007058523390173362
1439.0, 0.0006485265102957878
1440.0, 0.0006709769606998142
1441.0, 0.0006830399335350541
1442.0, 0.0006737557602710154
1443.0, 0.0006464625328497825
1444.0, 0.0008065669671961693
1445.0, 0.0006256920029582724
1446.0, 0.0006646267293988759
1447.0, 0.0007841317466285274
1448.0, 0.000710961170839591
1449.0, 0.0006735522035470724
1450.0, 0.0006721002819966438
1451.0, 0.0005711035227294956
1452.0, 0.0005350688713965009
1453.0, 0.0006155839116772867
1454.0, 0.0006140164715643253
1455.0, 0.0004139811089274521
1456.0, 0.0004733420257211131
1457.0, 0.0005623514560676311
1458.0, 0.0005927417986943845
1459.0, 0.0005382404923786818
1460.0, 0.0005635210977319095
1461.0, 0.000530791400446771
1462.0, 0.0002966171003062892
1463.0, 0.0004243749882239531
1464.0, 0.00036697627905921224
1465.0, 8.250550509381242e-05
1466.0, 0.00023952253195014625
1467.0, 0.0003245946693429342
1468.0, 0.00023924302258249443
1469.0, 0.00018778820679753337
1470.0, 0.00020814531531309347
1471.0, 8.828530721412302e-05
1472.0, 2.4748068027279977e-05
1473.0, 3.4867180889644787e-06
1474.0, 8.037672495685852e-06
1475.0, 4.3238678327135694e-05
1476.0, 8.218625151101123e-05
1477.0, 8.145784453865912e-05
1478.0, 0.00025574732306398167
1479.0, 0.00022934951578731385
1480.0, 5.339885978901229e-05
1481.0, 0.0002069202926989842
1482.0, 0.00024187650549951722
1483.0, 0.0002481839077850166
1484.0, 0.00023372498753849983
1485.0, 0.00010950773887460963
1486.0, 9.675673965590282e-05
1487.0, 0.00013553882892693853
1488.0, 3.0360622420924264e-05
1489.0, 7.31312895328443e-05
1490.0, 8.348985301194042e-05
1491.0, 9.467663736920272e-05
1492.0, 0.0001880780023507343
1493.0, 0.00017117366764294323
1494.0, 0.00012155108525273711
1495.0, 0.00016453391467845916
1496.0, 0.00015203357025800955
1497.0, 3.6053650383885706e-05
1498.0, 5.901837418924745e-05
1499.0, 7.935683971045242e-05
1500, 0.0
1501, 0.0
1502, 0.0
1503, 0.0
1504, 0.0
1505, 0.0
1506, 0.0
1507, 0.0
1508, 0.0
1509, 0.0
1510, 0.0
1511, 0.0
1512, 0.0
1513, 0.0
1514, 0.0
1515, 0.0
1516, 0.0
1517, 0.0
1518, 0.0
1519, 0.0
1520, 0.0
1521, 0.0
1522, 0.0
1523, 0.0
1524, 0.0
1525, 0.0
1526, 0.0
1527, 0.0
1528, 0.0
1529, 0.0
1530, 0.0
1531, 0.0
1532, 0.0
1533, 0.0
1534, 0.0
1535, 0.0
1536, 0.0
1537, 0.0
1538, 0.0
1539, 0.0
1540, 0.0
1541, 0.0
1542, 0.0
1543, 0.0
1544, 0.0
1545, 0.0
1546, 0.0
1547, 0.0
1548, 0.0
1549, 0.0
1550, 0.0
1551, 0.0
1552, 0.0
1553, 0.0
1554, 0.0
1555, 0.0
1556, 0.0
1557, 0.0
1558, 0.0
1559, 0.0
1560, 0.0
1561, 0.0
1562, 0.0
1563, 0.0
1564, 0.0
1565, 0.0
1566, 0.0
1567, 0.0
1568, 0.0
1569, 0.0
1570, 0.0
1571, 0.0
1572, 0.0
1573, 0.0
1574, 0.0
1575, 0.0
1576, 0.0
1577, 0.0
1578, 0.0
1579, 0.0
1580, 0.0
1581, 0.0
1582, 0.0
1583, 0.0
1584, 0.0
1585, 0.0
1586, 0.0
1587, 0.0
1588, 0.0
1589, 0.0
1590, 0.0
1591, 0.0
1592, 0.0
1593, 0.0
1594, 0.0
1595, 0.0
1596, 0.0
1597, 0.0
1598, 0.0
1599, 0.0
