30, 0.0
31, 0.0
32, 0.0
33, 0.0
34, 0.0
35, 0.0
36, 0.0
37, 0.0
38, 0.0
39, 0.0
40, 0.0
41, 0.0
42, 0.0
43, 0.0
44, 0.0
45, 0.0
46, 0.0
47, 0.0
48, 0.0
49, 0.0
50, 0.0
51, 0.0
52, 0.0
53, 0.0
54, 0.0
55, 0.0
56, 0.0
57, 0.0
58, 0.0
59, 0.0
60, 0.0
61, 0.0
62, 0.0
63, 0.0
64, 0.0
65, 0.0
66, 0.0
67, 0.0
68, 0.0
69, 0.0
70, 0.0
71, 0.0
72, 0.0
73, 0.0
74, 0.0
75, 0.0
76, 0.0
77, 0.0
78, 0.0
79, 0.0
80, 0.0
81, 0.0
82, 0.0
83, 0.0
84, 0.0
85, 0.0
86, 0.0
87, 0.0
88, 0.0
89, 0.0
90, 0.0
91, 0.0
92, 0.0
93, 0.0
94, 0.0
95, 0.0
96, 0.0
97, 0.0
98, 0.0
99, 0.0
100, 0.0
101, 0.0
102, 0.0
103, 0.0
104, 0.0
105, 0.0
106, 0.0
107, 0.0
108, 0.0
109, 0.0
110, 0.0
111, 0.0
112, 0.0
113, 0.0
114, 0.0
115.0, 0.0003011043005079752
116.0, 0.0005309774736331241
117.0, 0.00021064375293554247
118.0, 0.0006125432893114569
119.0, 0.0003007718416328778
120.0, 0.00012590006364241965
121.0, 0.0001592449170935594
122.0, 0.0002647866477116487
123.0, 0.0002496494839874466
124.0, 0.0012834066953827307
125.0, 0.0011775095627983832
126.0, 0.0010751495133885093
127.0, 0.0013524754034168176
128.0, 0.0011801034173747227
129.0, 0.0008713821608534578
130.0, 0.0004747843291752386
131.0, 0.0009238244785826783
132.0, 0.0013465352743313873
133.0, 0.0005187984880173121
134.0, 0.0011924414432380895
135.0, 0.001145193189223657
136.0, 0.0011142287571813563
137.0, 0.0015609406681340416
138.0, 0.0023179708164707533
139.0, 0.0018994133679278587
140.0, 0.001235227158887877
141.0, 0.0017616331926938813
142.0, 0.0017830343811955263
143.0, 0.0013168336053440664
144.0, 0.0020518559812752416
145.0, 0.0018977118168326287
146.0, 0.002223835444792033
147.0, 0.0018328079434304567
148.0, 0.0012364597746344975
149.0, 0.0013825888118642537
150.0, 0.0020641802123142544
151.0, 0.0030973725039036924
152.0, 0.0024937483610845907
153.0, 0.0018621227169425293
154.0, 0.002159471300467638
155.0, 0.0024571991210852505
156.0, 0.002483703788543055
157.0, 0.002930620839857494
158.0, 0.0027442423857131303
159.0, 0.002313182502235832
160.0, 0.0026405564813767796
161.0, 0.002269589948671514
162.0, 0.0025434581947156682
163.0, 0.0025584867550109006
164.0, 0.0023669227599913377
165.0, 0.0022976255637592287
166.0, 0.002787721172510548
167.0, 0.002558322376720543
168.0, 0.002504073457810049
169.0, 0.002440208015086896
170.0, 0.0023787809671371044
171.0, 0.0024954479948440795
172.0, 0.0023745161888444537
173.0, 0.0024719783047054147
174.0, 0.002407868206866408
175.0, 0.0024445023518090024
176.0, 0.0028058818438591255
177.0, 0.0030061481909423203
178.0, 0.0029708331363040904
179.0, 0.003151087936551242
180.0, 0.003056398279253452
181.0, 0.0026435933717444933
182.0, 0.0023914178439597327
183.0, 0.002413466662508914
184.0, 0.0024950820339943594
185.0, 0.002235131195376153
186.0, 0.0022838883045878597
187.0, 0.003089460116979493
188.0, 0.0031415962728425276
189.0, 0.0030192747210540027
190.0, 0.002812862922720289
191.0, 0.0027669792238929217
192.0, 0.0025678666237970477
193.0, 0.0014630871655372522
194.0, 0.0018036407487231848
195.0, 0.0020614360481655534
196.0, 0.0025778240038350996
197.0, 0.0029300989946954227
198.0, 0.0027113030363278556
199.0, 0.0025049277450385236
200.0, 0.0022584227894871527
201.0, 0.0016183557641941478
202.0, 0.0014098045977579384
203.0, 0.0016978591818240856
204.0, 0.0017299292329053765
205.0, 0.002346019998017312
206.0, 0.0025671967048392585
207.0, 0.002928467922511728
208.0, 0.0031030918071857593
209.0, 0.00283505318435978
210.0, 0.0028899456676182217
211.0, 0.003562208411173634
212.0, 0.003222766732639466
213.0, 0.002499131335831161
214.0, 0.0020746620320872245
215.0, 0.002329279639763524
216.0, 0.001981552296287764
217.0, 0.0021756738945055473
218.0, 0.002326017439991833
219.0, 0.002325331414671497
220.0, 0.0023712664492434653
221.0, 0.0030200827763671068
222.0, 0.0023416975300039923
223.0, 0.0023909032150646304
224.0, 0.0027576640357142
225.0, 0.002948337157367746
226.0, 0.0026002213857508403
227.0, 0.0019932877513869525
228.0, 0.0025927042421358304
229.0, 0.002589472411679981
230.0, 0.002763303753150397
231.0, 0.0032798156695802677
232.0, 0.00275801793873902
233.0, 0.0029036219275650555
234.0, 0.0016828896189224115
235.0, 0.001802978209648674
236.0, 0.0025151003394492015
237.0, 0.0022735068717441484
238.0, 0.00253550441803813
239.0, 0.0032708354492682044
240.0, 0.003191279235055001
241.0, 0.0021564222032996426
242.0, 0.0013251669327350593
243.0, 0.002486222566939033
244.0, 0.002893869922287597
245.0, 0.0024283513637280893
246.0, 0.003447091055037181
247.0, 0.003680446625422326
248.0, 0.0019059603724433528
249.0, 0.001358743323334273
250.0, 0.002235244660012135
251.0, 0.0023445286726913634
252.0, 0.002517635677160263
253.0, 0.002548493212683913
254.0, 0.001970343351001968
255.0, 0.0018436766558077586
256.0, 0.0023971407804575092
257.0, 0.002283376917154736
258.0, 0.00205648988054859
259.0, 0.0018596265889651638
260.0, 0.001277548605110779
261.0, 0.0013476393997774072
262.0, 0.0018005807045075966
263.0, 0.0017759203738948216
264.0, 0.0012318918523957457
265.0, 0.0008141841238537564
266.0, 0.0019305401753649475
267.0, 0.0012513476239593615
268.0, 0.0005910172804742839
269.0, 0.0013667827017083117
270.0, 0.0023930541492601753
271.0, 0.002092794417016971
272.0, 0.0024978328016332005
273.0, 0.0030118872610815734
274.0, 0.002272420747965078
275.0, 0.002293640519289317
276.0, 0.0028623592184513122
277.0, 0.0020474464359550976
278.0, 0.002265472220167618
279.0, 0.002197156525726215
280.0, 0.0015614171645115032
281.0, 0.0014600188882251811
282.0, 0.001979317461813754
283.0, 0.0014592895837973474
284.0, 0.0009956777291236045
285.0, 0.002002075046798177
286.0, 0.0020560702496489527
287.0, 0.0014730375903982398
288.0, 0.001352747034336832
289.0, 0.0021301755642002974
290.0, 0.001904715764941097
291.0, 0.001872992919841872
292.0, 0.0018556633154195666
293.0, 0.0018719696326213193
294.0, 0.0019207240387201288
295.0, 0.0013722253668595383
296.0, 0.0021802903899568443
297.0, 0.002506400780823856
298.0, 0.002176723683385565
299.0, 0.0015326390589161904
300.0, 0.0011474276249206986
301.0, 0.0011673984322139307
302.0, 0.0007056190673215682
303.0, 0.0009882735556522631
304.0, 0.0013929885403722367
305.0, 0.001641187118177961
306.0, 0.0021509371794893916
307.0, 0.0011416099649365122
308.0, 0.0013149492938099544
309.0, 0.0011000822632289055
310.0, 0.0007347642890980397
311.0, 0.0007259670812975527
312.0, 0.0011217454352944948
313.0, 0.0017451714477275822
314.0, 0.0007639450699282021
315.0, 0.0011104418598426257
316.0, 0.0017336372206493075
317.0, 0.0013653207944865542
318.0, 0.0020566899674276154
319.0, 0.0016541718058350114
320.0, 0.001464654057290759
321.0, 0.0018337561573856383
322.0, 0.0019236631074084894
323.0, 0.0010988443669176595
324.0, 0.0012509842163575282
325.0, 0.0015989747496477438
326.0, 0.0011986320065331575
327.0, 0.001956114015976717
328.0, 0.0024272257413227327
329.0, 0.000551915405341948
330.0, 0.001654682151128236
331.0, 0.0015591765715243606
332.0, 0.0008668150575214363
333.0, 0.000882932491737293
334.0, 0.0012629641275124204
335.0, 0.0007530457061154276
336.0, 0.0009941551679479353
337.0, 0.0012137885782803558
338.0, 0.0007568653897201569
339.0, 0.0003271877403504585
340.0, 0.0003910966564355604
341.0, 0.0008428830557266054
342.0, 0.0007921731292384453
343.0, 0.0009633235959402075
344.0, 0.0011236538333938278
345.0, 0.0011212756327888234
346.0, 0.0010693557791665773
347.0, 0.001247217416976467
348.0, 0.0010213340019038294
349.0, 0.0008212324610227767
350.0, 0.0011389919017634764
351.0, 0.0015234945257157917
352.0, 0.0017434920544528198
353.0, 0.0019677268649027713
354.0, 0.0009511579108575456
355.0, 0.0009122637412101494
356.0, 0.0008769287237067474
357.0, 0.000687220902104883
358.0, 0.0004845239735468333
359.0, 0.0005584620999239821
360.0, 0.0013882585131416785
361.0, 0.00120906540881512
362.0, 0.002037736327585834
363.0, 0.0017843061332844634
364.0, 0.0006761518104263276
365.0, 0.002590521730252983
366.0, 0.0014422160259824374
367.0, 0.0006844052955747659
368.0, 0.00037723471132334436
369.0, 0.0004921981924943494
370.0, 0.0007246397593518893
371.0, 0.000544193814967708
372.0, 0.00036395993283000775
373.0, 0.00043605837690394546
374.0, 0.0003420506352231312
375.0, 0.0004179423229325537
376.0, 0.000960678510306933
377.0, 0.0017912106274844838
378.0, 0.0008774778721075602
379.0, 0.0006745554427326322
380.0, 0.001052818531123099
381.0, 0.0018721084187908318
382.0, 0.002314518475059963
383.0, 0.0011245684952696207
384.0, 0.0001663796477879908
385.0, 0.0006463689490600859
386.0, 0.0004086903135268302
387.0, 0.00026454699602579667
388.0, 0.0005736905040626919
389.0, 0.0005520358097793742
390.0, 0.0004900117475255133
391.0, 0.0007539957021803365
392.0, 0.0006131104288077639
393.0, 0.000700249391179715
394.0, 0.0009251805162647362
395.0, 0.0005195199401710418
396.0, 0.000855007629998485
397.0, 0.0008713801669241959
398.0, 0.0007185162994123986
399.0, 0.0005399881589575597
400.0, 0.00039792907452869825
401.0, 0.00025959999249735785
402.0, 2.5995288693955485e-05
403.0, 0.00019718023238241114
404.0, 0.0005834288010088831
405.0, 0.001139685032822663
406.0, 0.0012411736375138773
407.0, 0.00047063704708885255
408.0, 0.0008218548129274244
409.0, 0.00020601420468497301
410.0, 0.0006542964239330649
411.0, 0.0008530584469387382
412.0, 0.000743816081669323
413.0, 0.0007767791398502311
414.0, 5.489706949425165e-05
415.0, 6.626209468770486e-05
416.0, 0.00039456357274138504
417.0, 0.0006753797914583169
418.0, 0.0011171988474092142
419.0, 0.0014727809677690044
420.0, 5.055411769517417e-06
421.0, 4.024361902150613e-05
422.0, 3.1824778060358545e-05
423.0, 0.0006610516174804423
424.0, 0.0009292104137911865
425.0, 0.00048048285863402083
426.0, 0.0008979821801645559
427.0, 0.0011333675755565854
428.0, 0.0008015847387878115
429.0, 0.0005725963977472083
430.0, 0.0006198551488196542
431.0, 0.0006504817538563255
432.0, 0.00022126332531769783
433.0, 0.0007877628830496235
434.0, 0.0005165430635553342
435.0, 0.000247106942840532
436.0, 0.0003024828953881416
437.0, 0.0003928743604916228
438.0, 0.0001486849407813381
439.0, 0.0009818203898837733
440.0, 0.0007411020978059197
441.0, 0.0008181317631803415
442.0, 0.0005432226064693547
443.0, 0.0003264941490221107
444.0, 0.0007298036793599752
445.0, 0.0005082769428284277
446.0, 0.0006666235969353739
447.0, 0.0010304878394671593
448.0, 0.0008507689956915305
449.0, 0.0004026553031387515
450.0, 0.00020827390021344692
451.0, 0.00036854554022378483
452.0, 0.00127186393505889
453.0, 0.0008525366337852158
454.0, 0.00039743121481235514
455.0, 0.000469535769102531
456.0, 0.0007136687923365306
457.0, 0.00023097929561839616
458.0, 4.87041863240551e-05
459.0, 0.0003871410668396208
460.0, 0.0009025643307928224
461.0, 0.0007953589908431506
462.0, 0.0005701700426422002
463.0, 0.001195680851281207
464.0, 0.001596805348297625
465.0, 0.0005467355808409056
466.0, 0.0014563725124320192
467.0, 0.001460858371878473
468.0, 0.0008982591807483358
469.0, 0.0008124296451838535
470.0, 0.00030241756543316397
471.0, 0.0023139199544070866
472.0, 0.0017527136640800283
473.0, 0.0007211574825583466
474.0, 0.0011596592309747944
475.0, 0.0022577804222612533
476.0, 0.0010816366273460553
477.0, 0.0008901026765470761
478.0, 0.0008485763110642854
479.0, 0.00040980306493616976
480.0, 0.00012553582832950218
481.0, 0.00033158069599345454
482.0, 0.0009646777469235438
483.0, 0.0016345194908857358
484.0, 0.001303876343109557
485.0, 0.0014071138290451674
486.0, 0.0010904893789515343
487.0, 0.0006527696960333994
488.0, 0.0005289373071662394
489.0, 0.0005906147891634083
490.0, 0.0008601186593492106
491.0, 0.0011822123164222224
492.0, 0.0014073293349363455
493.0, 0.0009194900537701681
494.0, 0.00034235554683258315
495.0, 0.0008234924610107426
496.0, 0.00122698632122458
497.0, 0.00046213383700570085
498.0, 0.0003163532862464862
499.0, 0.0008238207114668146
500.0, 0.0012407895560387096
501.0, 0.00102905023309314
502.0, 0.0006219138280468779
503.0, 0.0005797005327798829
504.0, 0.00021378032305398718
505.0, 0.0003218065031468569
506.0, 0.0007872309030922428
507.0, 0.0012752597221315854
508.0, 0.0014310956255453625
509.0, 0.0007782656339977934
510.0, 0.0008127057612163978
511.0, 0.0007822017058216999
512.0, 0.0010282870375143325
513.0, 0.0012730226308939037
514.0, 0.0010975722740330532
515.0, 0.0005379972289481913
516.0, 0.0008093028808148941
517.0, 0.0009067674313918043
518.0, 0.000599944969794047
519.0, 0.0010301781382729147
520.0, 0.0017876372963559763
521.0, 0.0014626650984085278
522.0, 0.0009737398330496226
523.0, 0.0011528965767700198
524.0, 0.0007339082377865936
525.0, 0.0007239644207145627
526.0, 0.001050807067824965
527.0, 0.001139087455742081
528.0, 0.0007278747735732088
529.0, 0.0017655396083231713
530.0, 0.0006817458167259192
531.0, 0.00041973308966271696
532.0, 0.001145985710739412
533.0, 0.0016449811277353405
534.0, 0.0009527563544636347
535.0, 0.0005569576044444308
536.0, 0.0007845624178909634
537.0, 0.0006431158063531353
538.0, 0.0006873194846801806
539.0, 0.000744402411227088
540.0, 0.0008348427573063118
541.0, 0.0012444959543027763
542.0, 0.0008894835760704515
543.0, 0.001519149897469291
544.0, 0.0015823470962339303
545.0, 0.0010391792185722984
546.0, 0.0007883760241023737
547.0, 0.001200737216461154
548.0, 0.0010231529672552607
549.0, 0.0005633122129960824
550.0, 0.0015533768056741784
551.0, 0.0012200189643287768
552.0, 0.0008686107317016105
553.0, 0.0009139348657146388
554.0, 0.0006533505055664857
555.0, 0.0002799513393651205
556.0, 0.001413488737796569
557.0, 0.001602156501271127
558.0, 0.0014649883840238706
559.0, 0.0011594264936928558
560.0, 0.0009070475825928506
561.0, 0.001044271276145996
562.0, 0.0012730613066873943
563.0, 0.0010594656746438886
564.0, 0.0004271278709604932
565.0, 0.00022493742571623497
566.0, 0.00038666458774476816
567.0, 0.0007114526257357636
568.0, 0.001417201285899854
569.0, 0.001421496730167759
570.0, 0.001657606777782378
571.0, 0.001815414131048846
572.0, 0.0017137695771386558
573.0, 0.0010901919033395728
574.0, 0.00018980028738845527
575.0, 0.0002607513510292701
576.0, 0.00014297076128890878
577.0, 0.0003468610853883531
578.0, 0.00039316371459865063
579.0, 0.0005969333896725028
580.0, 0.0007247447483960032
581.0, 0.000475631541908551
582.0, 0.0009636955696736939
583.0, 0.0002777486204840482
584.0, 0.00024288995292131267
585.0, 0.000787406384626565
586.0, 0.0011495180751282942
587.0, 0.0010663281372085792
588.0, 0.0008564147226412366
589.0, 0.00029019167701256095
590.0, 0.0009048795422928171
591.0, 0.001535950033055902
592.0, 0.0009073437832967274
593.0, 0.00021137307339060704
594.0, 0.0003621894295980984
595.0, 0.000803670116362806
596.0, 0.0011472592617495284
597.0, 0.001044295676379989
598.0, 0.000630343575626417
599.0, 0.0009041619353475986
600.0, 0.0011773507466007005
601.0, 0.0007795629555398649
602.0, 0.0002772066008158824
603.0, 0.0009897129801512664
604.0, 0.0007950526043313726
605.0, 0.0005448544415244998
606.0, 0.0008052332387239754
607.0, 0.0011010038990521835
608.0, 0.0012352931512980962
609.0, 0.0018336893540674274
610.0, 0.0012815796781543353
611.0, 0.0015504781128404031
612.0, 0.0007780903779860667
613.0, 0.0007222295587654362
614.0, 0.0007005303122959246
615.0, 0.00025699509195985015
616.0, 0.0010316379623295166
617.0, 0.0007957187954028489
618.0, 0.001301336520495397
619.0, 0.0011072719427037646
620.0, 0.0008420914921529619
621.0, 0.0008288600026959398
622.0, 0.0007913857261514087
623.0, 0.0002977752113051071
624.0, 0.0010878341676724842
625.0, 0.000377981597248478
626.0, 0.0009926534624220456
627.0, 0.0007553616967296722
628.0, 0.00015756972818453934
629.0, 0.0003169300569077714
630.0, 0.0007992974062332791
631.0, 0.0023150609807997685
632.0, 0.0008090099687168112
633.0, 0.0010697892670183775
634.0, 0.0009656520464372588
635.0, 0.0008700664697466317
636.0, 0.001455863049810903
637.0, 0.0015688202112809314
638.0, 0.00048758198355490533
639.0, 0.0006930093986578313
640.0, 0.0004102762611888779
641.0, 0.00014334867931192703
642.0, 0.0003494394501352085
643.0, 0.0007425959373964165
644.0, 0.0005697119224733072
645.0, 0.0007264685901751063
646.0, 0.0006350597424009277
647.0, 0.0006116211424332515
648.0, 0.0012190561250307928
649.0, 0.0010800810555337283
650.0, 0.00046837906053613014
651.0, 0.0012749344582625713
652.0, 0.0010532695391234624
653.0, 0.0006519043191697015
654.0, 0.0005110129952147342
655.0, 0.0014610038354616443
656.0, 0.001582045025774498
657.0, 0.0010200778407143275
658.0, 0.0015722475822121968
659.0, 0.0013694798720961909
660.0, 0.0013900100838127867
661.0, 0.0007489648604104025
662.0, 0.001186784107151866
663.0, 0.0015804409022132319
664.0, 0.0012930441840101282
665.0, 0.0008080856085260355
666.0, 0.0007245040045355062
667.0, 0.0001232505453096606
668.0, 2.3457967843262662e-05
669.0, 0.0005824462749214513
670.0, 0.0005280950608444253
671.0, 0.00014467622348794966
672.0, 0.00034493319771193337
673.0, 0.0009050661068651386
674.0, 0.00021280080352864707
675.0, 0.001474535653552102
676.0, 0.0006047424379419866
677.0, 0.0007679982721596414
678.0, 0.0009801283211268127
679.0, 0.0003173163267839236
680.0, 0.0006131010653196613
681.0, 0.001954437551278627
682.0, 0.0006614279067934006
683.0, 0.0003262867769096523
684.0, 0.00045233952570741765
685.0, 0.0004779706149342282
686.0, 0.0005504883564615957
687.0, 0.0008863961089945202
688.0, 0.0002706024004438264
689.0, 0.0005931889137908592
690.0, 0.0009077878226724056
691.0, 0.0008358530525413491
692.0, 0.0009722390217624726
693.0, 0.0011666616323968721
694.0, 0.0009329443561029393
695.0, 0.0004070782288298512
696.0, 6.289930494799277e-05
697.0, 0.0008141884095616206
698.0, 0.0012385246103634984
699.0, 0.0014468672368929648
700.0, 0.0011416038773409349
701.0, 0.0008727362496690619
702.0, 0.0016628836836953466
703.0, 0.001591603180543391
704.0, 0.0007902732026675715
705.0, 0.0012500689435851063
706.0, 0.001342122144637025
707.0, 0.0011894385508471124
708.0, 0.0008664964168952282
709.0, 0.0005216870476549913
710.0, 0.0010545562334822753
711.0, 0.00011105490698137767
712.0, 0.001188525484357785
713.0, 0.0011893584760135475
714.0, 0.0005052279482220494
715.0, 0.000506265066934699
716.0, 0.0015293827415289866
717.0, 0.0021549838954814816
718.0, 0.0008181311952386764
719.0, 0.0005740758869793209
720.0, 0.00156977067993227
721.0, 0.0009989672279922621
722.0, 0.0007613745055358845
723.0, 0.0011408110236001592
724.0, 0.0007841811519466223
725.0, 0.00010084605931477719
726.0, 0.0008397399001176685
727.0, 0.00041894668649376896
728.0, 0.0009221027102731819
729.0, 0.000674466894249203
730.0, 0.0006295384057306672
731.0, 0.001211250177310509
732.0, 0.0010743154623121165
733.0, 0.0007722523383606046
734.0, 0.0012824306834080996
735.0, 0.001118298469347755
736.0, 0.0011764709802767027
737.0, 0.0009097249864215342
738.0, 0.0009883914194215907
739.0, 0.0016524393992215065
740.0, 0.0012271962237327839
741.0, 0.0013860164234424802
742.0, 0.00028054955454639155
743.0, 0.0007001003890990359
744.0, 0.0006155338306879123
745.0, 0.0008771888055833322
746.0, 0.0012557901840735282
747.0, 0.0007300027509851559
748.0, 0.0009890973381151622
749.0, 0.0009185381372994938
750.0, 0.0012403328204327897
751.0, 0.0014812867136115217
752.0, 0.0013082762682245575
753.0, 0.000768984847650199
754.0, 0.0006952708310071734
755.0, 0.001671723629771946
756.0, 0.001413952192431374
757.0, 0.001021561225403363
758.0, 0.0013272984437501475
759.0, 0.001095618131289617
760.0, 0.0008312625820840014
761.0, 0.0010003352139713417
762.0, 0.0014906957754624776
763.0, 0.0016875892756343868
764.0, 0.0008807399638622016
765.0, 0.0017172907633795078
766.0, 0.0008606282806320998
767.0, 0.0010796355525059705
768.0, 0.0010235088846678978
769.0, 0.0007810106902594266
770.0, 0.000999009401170262
771.0, 0.0005603885260474359
772.0, 0.0019329454580812267
773.0, 0.0006302285415020001
774.0, 0.0011569872335670762
775.0, 0.0013731139970051187
776.0, 0.0013471253045529326
777.0, 0.0019486864308446202
778.0, 0.002859729896148758
779.0, 0.0021237319973242256
780.0, 0.0018823471622500772
781.0, 0.0007763960561559975
782.0, 0.0012276573486307907
783.0, 0.0017488398072404894
784.0, 0.0015113799852881954
785.0, 0.0010326728549281728
786.0, 0.0012091023999535459
787.0, 0.001869446181749351
788.0, 0.003106054395797739
789.0, 0.0026472351979151573
790.0, 0.0030797777785110574
791.0, 0.003410324706695287
792.0, 0.003421229937832541
793.0, 0.002804122789884623
794.0, 0.001824442838451994
795.0, 0.0024795323855478094
796.0, 0.0026552250874471266
797.0, 0.0027295843857415235
798.0, 0.0034623270111120968
799.0, 0.003542451380425275
800.0, 0.003765836274056348
801.0, 0.004050277980164294
802.0, 0.0036611119931421626
803.0, 0.0035902784770973973
804.0, 0.0024258670597462895
805.0, 0.002852077179671788
806.0, 0.0028156766160748353
807.0, 0.0034314608972540526
808.0, 0.0034766090044385345
809.0, 0.002507533158759886
810.0, 0.0019048733242017142
811.0, 0.002970226456549015
812.0, 0.0025135857943361524
813.0, 0.0021462819815570014
814.0, 0.0018418948599027822
815.0, 0.0020385422134085746
816.0, 0.0021600444033046473
817.0, 0.0026262068248465516
818.0, 0.003494908482374439
819.0, 0.002849746198182729
820.0, 0.0009860286294037146
821.0, 0.001986893321646874
822.0, 0.0022172497966008098
823.0, 0.001174621079031287
824.0, 0.0012149493929030951
825.0, 0.0012014033288896323
826.0, 0.0003028196451663695
827.0, 0.0010674324879461944
828.0, 0.0012460953791273502
829.0, 0.0015464680694809903
830.0, 0.0020644619845440896
831.0, 0.00135214028367254
832.0, 0.0010011242164323034
833.0, 0.0011482793992291641
834.0, 0.001241609655250609
835.0, 0.001389842602833557
836.0, 0.0019203078468494528
837.0, 0.002143698566733804
838.0, 0.0013301023554683025
839.0, 0.000955484974195463
840.0, 0.0017189419028485124
841.0, 0.0017969416900589378
842.0, 0.0011854595649826453
843.0, 0.0013781180239666724
844.0, 0.0014669786078964947
845.0, 0.0015202823949065393
846.0, 0.0013539145761247446
847.0, 0.0014456555707908969
848.0, 0.0012225329298698154
849.0, 0.0012641205855845202
850.0, 0.0014744739102756704
851.0, 0.0010928909925887176
852.0, 0.00018108803680483374
853.0, 0.0012186830451119568
854.0, 0.0020324979634635484
855.0, 0.0011555081288350075
856.0, 0.00038759279463582554
857.0, 0.00020400467886374094
858.0, 0.0007099187142275057
859.0, 0.0013800581130503213
860.0, 0.0016237825816174706
861.0, 0.0018885435320005746
862.0, 0.0003738605926608998
863.0, 0.0008210414608374559
864.0, 0.0012953589822404506
865.0, 0.0009495388392697749
866.0, 0.0011856841485061791
867.0, 0.0014624421881173492
868.0, 0.00091487416960928
869.0, 0.0008821637233992563
870.0, 0.0010543170701145404
871.0, 0.000983271134361626
872.0, 0.0010506240711920395
873.0, 0.0018074448550602562
874.0, 0.0019786564232050444
875.0, 0.0017282564828481443
876.0, 0.0011929679401213994
877.0, 0.0007382376961568874
878.0, 0.0022661385404726194
879.0, 0.0017105008871743453
880.0, 0.0008996331741772217
881.0, 0.0012640966556070104
882.0, 0.0009975678484659362
883.0, 0.0009325961077282967
884.0, 0.0010351468618107638
885.0, 0.000850121256081807
886.0, 0.0008615941581142524
887.0, 0.001651221768271624
888.0, 0.0008009260093191648
889.0, 0.0010966302097417868
890.0, 0.0016272431214899511
891.0, 0.0011792976443143885
892.0, 0.0006840292444697828
893.0, 0.0006824141509486995
894.0, 0.0008407674705174394
895.0, 0.0009340402936461081
896.0, 0.0007555404753099527
897.0, 0.0011592795244038515
898.0, 0.0019292865448419353
899.0, 0.0016017137151792442
900.0, 0.0015810467964933247
901.0, 0.0012705992900619934
902.0, 0.0005938603024999064
903.0, 0.00038352331183556863
904.0, 0.000493962882392895
905.0, 0.0009493208979839565
906.0, 0.0012215471465553474
907.0, 0.0010127303883769216
908.0, 0.0010327809414152156
909.0, 0.0008064011489439932
910.0, 0.00047765556119798094
911.0, 0.0006495803620565966
912.0, 0.0013374382771121189
913.0, 0.0014384257572223585
914.0, 0.0006412706828452807
915.0, 0.0004964996407556224
916.0, 0.00024945489170478664
917.0, 0.0004935712054461674
918.0, 0.001218935050418452
919.0, 0.0014284893068568648
920.0, 0.0010755796822959325
921.0, 0.0010002300665407037
922.0, 0.0009810800853051554
923.0, 0.00111342530594145
924.0, 0.000980940093895593
925.0, 0.001002237602270153
926.0, 0.00104854398252019
927.0, 0.001052169441185743
928.0, 0.0010522481456768824
929.0, 0.0011045105757850715
930.0, 0.0011307809979703295
931.0, 0.0009625767278210645
932.0, 0.0009864246521565014
933.0, 0.0011973420612807107
934.0, 0.0007862414805452565
935.0, 0.0013860970444526232
936.0, 0.000837934633443807
937.0, 0.00028814493956643214
938.0, 0.0012451349925384377
939.0, 0.002164677366534297
940.0, 0.0004454676148454115
941.0, 0.0011564358166505993
942.0, 0.001179417582915646
943.0, 0.0008764498773961387
944.0, 0.0007716973531760377
945.0, 0.0009391169238647647
946.0, 0.0011625006250632341
947.0, 0.0014540338299202855
948.0, 0.0017190981961860488
949.0, 0.0016290805007787665
950.0, 0.001875318643653546
951.0, 0.0018477051643496245
952.0, 0.0017207825428152577
953.0, 0.0019704751042852495
954.0, 0.0014901465956856398
955.0, 0.0008296357414172627
956.0, 0.00045265883136006953
957.0, 0.0006557216781716791
958.0, 0.0013048424343249417
959.0, 0.0007965743048117205
960.0, 0.0013543392784439627
961.0, 0.0017108623581768016
962.0, 0.0011331640984782532
963.0, 0.0006689094821328632
964.0, 0.0008547045424330609
965.0, 0.0008530790583243438
966.0, 0.0005244976497414546
967.0, 0.0006206248130530938
968.0, 0.001061441985294629
969.0, 0.0018075652644568812
970.0, 0.0019882930202826674
971.0, 0.001836136317574322
972.0, 0.0017773294465144006
973.0, 0.0011389421936258313
974.0, 0.0009135033148658373
975.0, 0.0007539769121789163
976.0, 0.00022487689837107243
977.0, 0.00020091462291993743
978.0, 0.00015920027584740207
979.0, 0.0005425085493861504
980.0, 0.0006099249394811803
981.0, 0.0003771236644189392
982.0, 0.0005557215657259144
983.0, 0.0007263174981755478
984.0, 0.00042609496345076715
985.0, 0.0002758446277115282
986.0, 0.0010123373422591061
987.0, 0.0017963145799909385
988.0, 0.0013960079863402674
989.0, 0.0022712380395695925
990.0, 0.0006852040909100542
991.0, 0.0008640043719007681
992.0, 0.000536384790202001
993.0, 0.0007399612330383294
994.0, 0.0008405604125073711
995.0, 0.0002587850645392204
996.0, 0.0004380407440783548
997.0, 0.001931208526519815
998.0, 0.0016815568865247783
999.0, 0.0012152873458715365
1000.0, 0.0018037954226834572
1001.0, 0.001477953033482646
1002.0, 0.0006591327594728239
1003.0, 0.000433205032725268
1004.0, 0.0009349558316967241
1005.0, 0.001405634909309342
1006.0, 0.0012504372638233482
1007.0, 0.0008236413265190943
1008.0, 0.0013011150331129603
1009.0, 0.0005651582205062367
1010.0, 0.0013816651252559129
1011.0, 0.0009915791708341708
1012.0, 0.0006943356942088151
1013.0, 0.00042738884408120696
1014.0, 0.00014049615923698055
1015.0, 7.417252252982869e-05
1016.0, 0.00035384877242883225
1017.0, 0.0013355181505853644
1018.0, 0.0002520638830118689
1019.0, 0.0007823038683307734
1020.0, 0.0006640473156471881
1021.0, 0.0005769472767051515
1022.0, 0.0002879261364097126
1023.0, 0.0009467285299426658
1024.0, 0.0013554537827377992
1025.0, 0.0007449516733233077
1026.0, 0.0009093742170330223
1027.0, 0.001396878705935099
1028.0, 0.0004209302288128949
1029.0, 0.0008728056228558329
1030.0, 0.00042314410833822926
1031.0, 0.000970067242080732
1032.0, 0.0008027737995633943
1033.0, 0.000586704965024778
1034.0, 0.0007564319326451918
1035.0, 0.0008758910050140216
1036.0, 0.000732700639811044
1037.0, 0.0005260169803290779
1038.0, 0.00011291532919091433
1039.0, 0.0006450635749841132
1040.0, 0.00048492723543861653
1041.0, 0.001558780075885849
1042.0, 0.0007796837057419644
1043.0, 0.0009427542459799409
1044.0, 0.0009199401716607537
1045.0, 0.0003494488585908114
1046.0, 0.0011900970179262627
1047.0, 0.002086294411702214
1048.0, 0.0020827734869027746
1049.0, 0.001998734527373771
1050.0, 0.0022525673325866063
1051.0, 0.0020846591478934137
1052.0, 0.002001730075778195
1053.0, 0.001728034410553818
1054.0, 0.0013476732126757427
1055.0, 0.0009198489867781575
1056.0, 0.000677012049951419
1057.0, 0.0010980288932207628
1058.0, 0.0018036645674206332
1059.0, 0.0018965157667194857
1060.0, 0.0013144501591001694
1061.0, 0.0009359379048819429
1062.0, 0.0013220624767684807
1063.0, 0.0020105053593981047
1064.0, 0.0018744057996488326
1065.0, 0.0018731922175565172
1066.0, 0.0015861548415161066
1067.0, 0.0008195106251173477
1068.0, 0.0023581699322534804
1069.0, 0.0017103220129751676
1070.0, 0.0014146126849416815
1071.0, 0.0022566299256351987
1072.0, 0.0007693313919710533
1073.0, 0.0006149455758853476
1074.0, 0.0007975126689164141
1075.0, 0.0007293015032915971
1076.0, 0.0005217807071921404
1077.0, 0.0004281083143784664
1078.0, 0.0005701862690921037
1079.0, 0.0007093370944498171
1080.0, 0.0005620973307979279
1081.0, 0.0007932289586270956
1082.0, 0.000612919675673971
1083.0, 0.001637976116658085
1084.0, 0.001759751913111463
1085.0, 0.001823081965074099
1086.0, 0.00135182870075465
1087.0, 0.0007990888129337243
1088.0, 0.0006540566618872881
1089.0, 0.00036756412026397247
1090.0, 0.0008281071544458624
1091.0, 0.0014358574236812325
1092.0, 0.000595520836267455
1093.0, 0.0012856968112568536
1094.0, 0.0009622852846580186
1095.0, 0.0012259700274623519
1096.0, 0.0007101531171041137
1097.0, 0.000602837709333654
1098.0, 0.0008109884950662981
1099.0, 0.0007728088026649659
1100.0, 0.0010334634661443277
1101.0, 0.0004825848915186006
1102.0, 0.0009952170437078055
1103.0, 0.001387152518055959
1104.0, 0.001886424215477198
1105.0, 0.0015784065008952414
1106.0, 0.0005230988113882344
1107.0, 0.000982970753578353
1108.0, 0.000992066324098945
1109.0, 0.0006499108645002847
1110.0, 0.001358291007986805
1111.0, 0.0019451978967864475
1112.0, 0.0010369462146826893
1113.0, 0.0009869831836317087
1114.0, 0.001443296556849154
1115.0, 0.0004955846848262876
1116.0, 0.0009469869695650165
1117.0, 0.00038704480121929167
1118.0, 0.0003858997821160228
1119.0, 0.0008572120534705479
1120.0, 0.0007936067660590796
1121.0, 0.0007300711001611871
1122.0, 0.00094420234857589
1123.0, 0.000416051357991047
1124.0, 0.0016294760969568032
1125.0, 0.0012296211098558895
1126.0, 0.0012366586319226302
1127.0, 0.0006154142574764448
1128.0, 0.000791819630560521
1129.0, 0.0008021988633748078
1130.0, 0.0011549288890518854
1131.0, 0.0013323795830618187
1132.0, 0.0012071637056415788
1133.0, 0.0011258305088431542
1134.0, 0.0010505586178626736
1135.0, 0.0011213393122102768
1136.0, 0.0015914498863633382
1137.0, 0.0009617934657307275
1138.0, 0.0011228585149748447
1139.0, 0.0010164440753292474
1140.0, 0.0019932455369823087
1141.0, 0.0018412603171970381
1142.0, 0.0017227180021014339
1143.0, 0.0010800094804031385
1144.0, 0.0005343199979898503
1145.0, 0.0007011842144090013
1146.0, 0.00039505740830835846
1147.0, 0.0011147699104478625
1148.0, 0.0010168059831713173
1149.0, 0.0005889277618388293
1150.0, 0.001388358587963524
1151.0, 0.001176108469007102
1152.0, 0.0011870068545299546
1153.0, 0.001235556957718696
1154.0, 0.0013581746622163356
1155.0, 0.0011895345830446828
1156.0, 0.0010998173137006378
1157.0, 0.001333698792263938
1158.0, 0.0011108858991238917
1159.0, 0.0007121816713040698
1160.0, 0.00025793335644049475
1161.0, 0.0003135260462644896
1162.0, 0.00025823129373129817
1163.0, 0.0002074830967168386
1164.0, 5.7054408768473144e-05
1165.0, 0.00024011693332190624
1166.0, 0.0002768341270334431
1167.0, 0.00030310753189573335
1168.0, 0.0005296374063175053
1169.0, 0.0006245628974809585
1170.0, 0.0003829165457194331
1171.0, 0.0003210993697724149
1172.0, 0.0006985531390403978
1173.0, 0.0005901734530898644
1174.0, 9.094849019225404e-05
1175.0, 0.0014715185281732185
1176.0, 0.0013064274967290596
1177.0, 0.0007461637257523711
1178.0, 0.0005401610453887127
1179.0, 0.0004203761264195517
1180.0, 0.00046036906547424107
1181.0, 0.0006121671387362494
1182.0, 0.0008231949169287936
1183.0, 0.0013734492020142245
1184.0, 0.0008781626010892214
1185.0, 0.0004063708983352573
1186.0, 0.0003809184317707205
1187.0, 0.00033899429596040675
1188.0, 0.0005968268174967613
1189.0, 0.000638506643515349
1190.0, 0.001071703856402025
1191.0, 0.0011896179830106076
1192.0, 0.00164629239496337
1193.0, 0.0014782663446859723
1194.0, 0.000511339234354091
1195.0, 0.000512286701250804
1196.0, 0.0004915466079949694
1197.0, 0.0014624403449020518
1198.0, 0.0013602894121467026
1199.0, 0.0013996181452675446
1200.0, 0.0006705698683526432
1201.0, 0.0010888909660765377
1202.0, 0.0009250552449493283
1203.0, 0.0006889553456685548
1204.0, 0.0008353298340074084
1205.0, 0.0007880976929535997
1206.0, 0.00046134936649119184
1207.0, 0.0007793823658661536
1208.0, 0.0012670963518667836
1209.0, 5.558337056566813e-05
1210.0, 0.0004447882043509499
1211.0, 0.0018882380092554128
1212.0, 0.0003177873978542947
1213.0, 0.000883632625442974
1214.0, 0.00041129707807260895
1215.0, 0.0005881070371175323
1216.0, 0.000790011977226213
1217.0, 0.001063475801278646
1218.0, 0.001401912513744747
1219.0, 0.001302888145419565
1220.0, 0.0007924777563274481
1221.0, 0.0005055875460592733
1222.0, 0.000537801542678254
1223.0, 0.0006922828768819186
1224.0, 0.0003653431054914322
1225.0, 0.0001640411218025907
1226.0, 0.00166589800670548
1227.0, 0.0004945727938493421
1228.0, 0.0002007173128813603
1229.0, 0.0009256543470319678
1230.0, 0.0009184165429842511
1231.0, 0.0011166298717909683
1232.0, 0.0008954370688090697
1233.0, 0.0007258084928622294
1234.0, 0.0012580236313192933
1235.0, 0.0006920570089083487
1236.0, 0.0005238092264381191
1237.0, 0.0014359391877763238
1238.0, 0.00035787904919039944
1239.0, 0.0013767399831269224
1240.0, 0.0016154724099495382
1241.0, 0.0004989320372796504
1242.0, 0.001239474117467593
1243.0, 0.0009760716096099368
1244.0, 0.0008303486639252369
1245.0, 0.000917603619402345
1246.0, 0.0008279199529122625
1247.0, 0.0005860916315934328
1248.0, 0.00047913303762527065
1249.0, 0.0006972980925137457
1250.0, 0.00044784175465035353
1251.0, 0.00046244817085941176
1252.0, 0.0017689763902558472
1253.0, 0.0005008565981611343
1254.0, 0.0009249875231091429
1255.0, 0.0008020747356567996
1256.0, 0.0009929434366257662
1257.0, 0.0009670739741103458
1258.0, 0.0013110750691737942
1259.0, 0.000914197234667679
1260.0, 0.0009046793465088442
1261.0, 0.0010063459125734255
1262.0, 0.0004085770116321753
1263.0, 0.0009069828007123779
1264.0, 0.0012289135954408092
1265.0, 0.00014043500837053005
1266.0, 0.0002333497829656494
1267.0, 0.0008800747856503925
1268.0, 0.0012024898837954732
1269.0, 0.0005466019230417995
1270.0, 0.0014291343194857721
1271.0, 0.0011420549914603225
1272.0, 0.0011878813119341938
1273.0, 0.001256014932278463
1274.0, 0.0012859324530352931
1275.0, 0.0011917898285437403
1276.0, 0.0006572980284906108
1277.0, 0.0007927759398528376
1278.0, 0.001786199743832075
1279.0, 0.0004691035170995611
1280.0, 0.0008504435131319921
1281.0, 0.0006885968978116235
1282.0, 8.120599573981861e-05
1283.0, 0.0008986384994079671
1284.0, 0.0005572204225754953
1285.0, 0.0007190286684111836
1286.0, 0.0009320474562852302
1287.0, 0.0013712073864238128
1288.0, 0.001186602675615495
1289.0, 0.0008706302335170738
1290.0, 0.0008684566585204351
1291.0, 0.0008752119277712165
1292.0, 0.0012980275590163083
1293.0, 0.0020602739209873524
1294.0, 0.001433774102581461
1295.0, 0.0018002437127151191
1296.0, 0.0023270310943606398
1297.0, 0.0007719295131221575
1298.0, 0.0014908742021399828
1299.0, 0.002254693984642064
1300.0, 0.0020049003039319564
1301.0, 0.0029613138586128645
1302.0, 0.00212912805141043
1303.0, 0.0023123006642671025
1304.0, 0.002901650743379007
1305.0, 0.002548112025857577
1306.0, 0.0023202559369570924
1307.0, 0.0027937690625265284
1308.0, 0.0027667013794760733
1309.0, 0.002494656593618317
1310.0, 0.003839805039711747
1311.0, 0.0037906094607253085
1312.0, 0.0041311954772345
1313.0, 0.005906412988282307
1314.0, 0.005791294873641422
1315.0, 0.006644042589656828
1316.0, 0.007143423581061299
1317.0, 0.008928982095444096
1318.0, 0.009992721893904205
1319.0, 0.011951297386777847
1320.0, 0.013788753908213547
1321.0, 0.016472072166559833
1322.0, 0.021289045100004286
1323.0, 0.02761020210145697
1324.0, 0.038274961879898886
1325.0, 0.06033565261160476
1326.0, 0.10161866713033904
1327.0, 0.18111434356376627
1328.0, 0.3155559641644864
1329.0, 0.4842650609489717
1330.0, 0.6891877977952474
1331.0, 0.8980263701099449
1332.0, 0.9864866115193804
1333.0, 0.9044120532185919
1334.0, 0.6914851564908927
1335.0, 0.4459502430662722
1336.0, 0.2505182353355405
1337.0, 0.13249200265878797
1338.0, 0.07454444667904175
1339.0, 0.046812551033927334
1340.0, 0.031239622750000112
1341.0, 0.02266422329057226
1342.0, 0.017251992393912615
1343.0, 0.013720124509503554
1344.0, 0.011185523499065063
1345.0, 0.009338801397785482
1346.0, 0.00802383655292747
1347.0, 0.006724208657842007
1348.0, 0.006340426770809277
1349.0, 0.006265980142970188
1350.0, 0.005578893259414274
1351.0, 0.004144442386320251
1352.0, 0.0038562307312520654
1353.0, 0.0036673388749176145
1354.0, 0.0034400087274960413
1355.0, 0.0035811921025899456
1356.0, 0.003596376612886994
1357.0, 0.003506168696568429
1358.0, 0.0031485329985789312
1359.0, 0.0021555269178301435
1360.0, 0.002480156524563676
1361.0, 0.001092131162919485
1362.0, 0.0017149115645276436
1363.0, 0.0016725758277147723
1364.0, 0.001534069508473837
1365.0, 0.0009895746220047242
1366.0, 0.001059936680026014
1367.0, 0.0005164505734372199
1368.0, 0.0010382443909241522
1369.0, 0.001265630792072555
1370.0, 0.001647925056931034
1371.0, 0.0011350196720786485
1372.0, 0.0011120025939407709
1373.0, 0.0017768284210082225
1374.0, 0.0017872794351464273
1375.0, 0.0016224570384353507
1376.0, 0.00211733684220202
1377.0, 0.001930035334911654
1378.0, 0.0005537879885517406
1379.0, 0.0008477042095211526
1380.0, 0.0009234393320051412
1381.0, 0.0006293167099961229
1382.0, 0.0007425804239992962
1383.0, 0.001021512748293126
1384.0, 0.001047249415801689
1385.0, 0.0007466314341256895
1386.0, 0.0012721071486464551
1387.0, 0.0009902579302303641
1388.0, 0.0009237341041750601
1389.0, 0.001002922013355385
1390.0, 0.001107956269006586
1391.0, 0.0010971099373073443
1392.0, 0.0005911275343384175
1393.0, 0.0002714384172831225
1394.0, 0.0006083799745658112
1395.0, 0.0005585111544356715
1396.0, 0.00012944349437231406
1397.0, 0.0005869824899247027
1398.0, 0.0010945094762552687
1399.0, 0.0005036362858776558
1400.0, 0.0013308608600451615
1401.0, 0.00133280599347686
1402.0, 0.0009114546760650601
1403.0, 0.001273388189166367
1404.0, 0.0016704331886463026
1405.0, 0.0005393935169657523
1406.0, 0.0008595999445165905
1407.0, 0.0007490772838628497
1408.0, 0.0013278547607281446
1409.0, 0.002188495234666326
1410.0, 0.0014913209120974785
1411.0, 0.0003920335375568373
1412.0, 6.12617723551662e-05
1413.0, 0.00018981286935339153
1414.0, 0.00032450300849127433
1415.0, 0.00043240650401352973
1416.0, 0.000866988445440334
1417.0, 0.0011962275657839475
1418.0, 0.001537908889472167
1419.0, 0.001678164997784933
1420.0, 0.001617791226789506
1421.0, 0.001731243108045418
1422.0, 0.001054170901287471
1423.0, 0.001521598157331738
1424.0, 0.0012034151661749102
1425.0, 0.0006679761905686491
1426.0, 0.0009343356886154493
1427.0, 0.0007911162853040267
1428.0, 0.0007834655861769379
1429.0, 0.0009054944878431091
1430.0, 0.0009071072591361905
1431.0, 0.0010961147782071828
1432.0, 0.0011254728624408247
1433.0, 0.0015259893692928024
1434.0, 0.0021625687717422015
1435.0, 0.0018783368107123779
1436.0, 0.000871039911197146
1437.0, 0.0009266809365295703
1438.0, 0.002239290315413923
1439.0, 0.0018517731374560488
1440.0, 0.0025711367416558282
1441.0, 0.0015215668860896125
1442.0, 0.0024978961130589688
1443.0, 0.0024682220192456298
1444.0, 0.0006191687207759727
1445.0, 0.0016241012055352119
1446.0, 0.0016929255349681855
1447.0, 0.0014397181000279284
1448.0, 0.0014870557973563033
1449.0, 0.0014616472859364698
1450.0, 0.0012850127918428431
1451.0, 0.00042194053802753885
1452.0, 0.0006817742375673716
1453.0, 0.0007003732538182073
1454.0, 0.0006275502536616965
1455.0, 0.0015879071221692868
1456.0, 0.0017292376995270962
1457.0, 0.0006194876339249025
1458.0, 0.0005012640801271605
1459.0, 0.001769492043228565
1460.0, 0.002552375788287289
1461.0, 0.0016653492781823916
1462.0, 0.0015794199612292272
1463.0, 0.002192445852319032
1464.0, 0.0015651326661808662
1465.0, 0.0008402780843889263
1466.0, 0.0014796340246473706
1467.0, 0.001017261891129048
1468.0, 0.0008988481511441182
1469.0, 0.0006138767720102268
1470.0, 0.0009969800015015508
1471.0, 0.0008092916187710163
1472.0, 0.0003671931134326559
1473.0, 0.0007109857720095872
1474.0, 0.0021295027359338383
1475.0, 0.0012013117854644108
1476.0, 0.0005768338941792702
1477.0, 0.0016769727392787765
1478.0, 0.0011609787863741238
1479.0, 0.0005425937760945509
1480.0, 0.0005746742686362412
1481.0, 0.0003885595869161761
1482.0, 0.00038330898633454075
1483.0, 0.0008431304874216966
1484.0, 0.0011440934021222874
1485.0, 0.0008052667723469757
1486.0, 0.0012897573117023246
1487.0, 0.001461521001460275
1488.0, 0.0009670822460153823
1489.0, 0.0009848365618522123
1490.0, 0.0017737434166525063
1491.0, 0.0009704116499357665
1492.0, 0.0009164313974579516
1493.0, 0.0015907363280018036
1494.0, 0.001253770145886818
1495.0, 0.000433701185789693
1496.0, 0.0001499818517281923
1497.0, 0.0013585568192117194
1498.0, 0.0009636093603801655
1499.0, 0.0012639171458546858
1500.0, 0.00045169757268004963
1501.0, 0.00013548670229141159
1502.0, 0.0007346949555513635
1503.0, 0.0007280609682695178
1504.0, 0.001189847146292702
1505.0, 0.0017639007839143702
1506.0, 0.002154735749703367
1507.0, 0.0015878846226340545
1508.0, 0.0010236943269288836
1509.0, 0.0014580958124969059
1510.0, 0.0012461011415915019
1511.0, 0.00031773114192711066
1512.0, 0.00018936387557769448
1513.0, 0.0007686444306950032
1514.0, 0.0011825571755647239
1515.0, 0.0002456690253808726
1516.0, 0.0009090124960458066
1517.0, 0.0024313303413401183
1518.0, 0.0013158993317649833
1519.0, 0.0012951980117941856
1520.0, 0.0007731540729633199
1521.0, 0.0012123056123410265
1522.0, 0.0018155428523643985
1523.0, 0.002553882976842787
1524.0, 0.001989705891266714
1525.0, 0.0006096001116840354
1526.0, 0.0008044199007268783
1527.0, 0.0010317501992931782
1528.0, 0.0010702861941152355
1529.0, 0.0007863222133949999
1530.0, 0.00020058021265871397
1531.0, 0.001139928680532315
1532.0, 0.0010219928823495632
1533.0, 0.0013099931026480823
1534.0, 0.0013313280080938788
1535.0, 0.0011132091121908584
1536.0, 0.0017589727215591615
1537.0, 0.0023890149759311016
1538.0, 0.001676874429404421
1539.0, 0.0008895625447892133
1540.0, 0.0015976783470385365
1541.0, 0.0017686814820439061
1542.0, 0.0009649801883166653
1543.0, 0.001428498116288198
1544.0, 0.0013942377472751285
1545.0, 0.0008732558416478506
1546.0, 0.001500955400740672
1547.0, 0.0016533311333058922
1548.0, 0.001550125984857193
1549.0, 0.0005495150776092332
1550.0, 0.0005694860825926105
1551.0, 0.0007323513470621392
1552.0, 0.001325991658293497
1553.0, 0.0016906545424723858
1554.0, 0.0017725190326238914
1555.0, 0.002961565426575082
1556.0, 0.00018012662178299517
1557.0, 0.002097586364164431
1558.0, 0.00017555245735930943
1559.0, 0.0011927793297265216
1560.0, 0.0019585300736200168
1561.0, 0.0008953557991163575
1562.0, 0.0010616012526138661
1563.0, 0.0017157438741327432
1564.0, 0.001857825362613952
1565.0, 0.001143624754731733
1566.0, 0.0007701140659139021
1567.0, 0.00035956872877107853
1568.0, 8.066959161500377e-05
1569.0, 0.00030129482363545814
1570.0, 0.00016923007830000854
1571, 0.0
1572, 0.0
1573, 0.0
1574, 0.0
1575, 0.0
1576, 0.0
1577, 0.0
1578, 0.0
1579, 0.0
1580, 0.0
1581, 0.0
1582, 0.0
1583, 0.0
1584, 0.0
1585, 0.0
1586, 0.0
1587, 0.0
1588, 0.0
1589, 0.0
1590, 0.0
1591, 0.0
1592, 0.0
1593, 0.0
1594, 0.0
1595, 0.0
1596, 0.0
1597, 0.0
1598, 0.0
1599, 0.0
