30, 0.0
31, 0.0
32, 0.0
33, 0.0
34, 0.0
35, 0.0
36, 0.0
37, 0.0
38, 0.0
39, 0.0
40, 0.0
41, 0.0
42, 0.0
43, 0.0
44, 0.0
45, 0.0
46, 0.0
47, 0.0
48, 0.0
49, 0.0
50, 0.0
51, 0.0
52, 0.0
53, 0.0
54, 0.0
55, 0.0
56, 0.0
57, 0.0
58, 0.0
59, 0.0
60, 0.0
61, 0.0
62, 0.0
63, 0.0
64, 0.0
65, 0.0
66, 0.0
67, 0.0
68, 0.0
69, 0.0
70, 0.0
71, 0.0
72, 0.0
73, 0.0
74, 0.0
75, 0.0
76, 0.0
77, 0.0
78, 0.0
79, 0.0
80, 0.0
81, 0.0
82, 0.0
83, 0.0
84, 0.0
85, 0.0
86, 0.0
87, 0.0
88, 0.0
89, 0.0
90, 0.0
91, 0.0
92, 0.0
93, 0.0
94, 0.0
95, 0.0
96, 0.0
97, 0.0
98, 0.0
99, 0.0
100, 0.0
101, 0.0
102, 0.0
103, 0.0
104, 0.0
105, 0.0
106, 0.0
107, 0.0
108, 0.0
109, 0.0
110, 0.0
111, 0.0
112, 0.0
113, 0.0
114, 0.0
115, 0.0
116, 0.0
117, 0.0
118, 0.0
119, 0.0
120, 0.0
121, 0.0
122, 0.0
123, 0.0
124, 0.0
125, 0.0
126, 0.0
127, 0.0
128, 0.0
129, 0.0
130, 0.0
131, 0.0
132, 0.0
133, 0.0
134, 0.0
135, 0.0
136, 0.0
137, 0.0
138, 0.0
139, 0.0
140, 0.0
141, 0.0
142, 0.0
143, 0.0
144, 0.0
145, 0.0
146, 0.0
147, 0.0
148, 0.0
149, 0.0
150.0, 0.00036574996145953705
151.0, 0.007371102980005081
152.0, 0.012402309253698368
153.0, 0.013042403290945588
154.0, 0.009445333815799388
155.0, 0.007897624009410593
156.0, 0.007630245871923059
157.0, 0.005176108764840275
158.0, 0.0025527165312896555
159.0, 0.0006849188951920135
160.0, 0.0010385289285296932
161.0, 0.0012384477601422674
162.0, 0.00476640927455597
163.0, 0.005180047533691433
164.0, 0.010734364060876515
165.0, 0.017528621755506468
166.0, 0.015597547652837154
167.0, 0.01888902026353917
168.0, 0.019427741732863282
169.0, 0.021036454498319687
170.0, 0.025858713563839116
171.0, 0.02716269459477507
172.0, 0.028096877599525224
173.0, 0.032375657153770374
174.0, 0.039586109628710224
175.0, 0.04808059944157332
176.0, 0.05948874216196517
177.0, 0.08375586544568873
178.0, 0.12767559766300943
179.0, 0.17368740321399412
180.0, 0.18744180068141345
181.0, 0.14031007172122328
182.0, 0.07685092809998062
183.0, 0.0314568539109699
184.0, 0.013474884251452773
185.0, 0.007785310000319941
186.0, 0.004750912625342464
187.0, 0.00289175768463209
188.0, 0.0024828904865500726
189.0, 0.00366408869904819
190.0, 0.00436894424592321
191.0, 0.003557775033857524
192.0, 0.0025883532580549475
193.0, 0.003259118238601891
194.0, 0.0034830758768074556
195.0, 0.0024096052855135442
196.0, 0.0017803753739328474
197.0, 0.0025941574866841783
198.0, 0.0034157124198800834
199.0, 0.002482010652863074
200.0, 0.0026398185904592674
201.0, 0.002420493173176027
202.0, 0.001423455519046328
203.0, 0.0030838650536009534
204.0, 0.004238376786022602
205.0, 0.0023274319802714075
206.0, 7.741058465042451e-05
207.0, 0.00046313387403133826
208.0, 0.0012288209600048341
209.0, 0.0011744237085463674
210.0, 0.0008296872577751788
211.0, 0.0005898046944516655
212.0, 0.00039051265425469743
213.0, 0.0008485807535221702
214.0, 0.0022085925054776212
215.0, 0.0030424474194967084
216.0, 0.0023489647943148047
217.0, 0.004604195661211159
218.0, 0.007457222077876733
219.0, 0.010559292702745996
220.0, 0.014706525422063505
221.0, 0.0202519397439195
222.0, 0.02358539474325053
223.0, 0.027516681052736882
224.0, 0.032062619633627824
225.0, 0.035743751670239673
226.0, 0.039105220668372555
227.0, 0.04776551359316697
228.0, 0.05589133759214908
229.0, 0.06776730340878698
230.0, 0.08870749181095948
231.0, 0.11694518575678957
232.0, 0.16266995569090206
233.0, 0.22575011272899742
234.0, 0.2835618201688305
235.0, 0.30490774614852517
236.0, 0.25631851071162853
237.0, 0.1752071287185659
238.0, 0.10418043370983282
239.0, 0.06261194918200111
240.0, 0.0518646948885576
241.0, 0.0545008128882721
242.0, 0.06609564196634837
243.0, 0.07998072812565578
244.0, 0.09151961161613932
245.0, 0.1062471863479193
246.0, 0.1222210311990161
247.0, 0.13746713813867012
248.0, 0.15454135591683282
249.0, 0.17845062245914378
250.0, 0.2090340838971964
251.0, 0.24989571335329216
252.0, 0.31243886887297356
253.0, 0.40461207468083144
254.0, 0.5291479862352397
255.0, 0.6992453883123707
256.0, 0.8962963515152369
257.0, 0.9996752951033591
258.0, 0.9310531954474839
259.0, 0.7043892375157832
260.0, 0.4529812934224252
261.0, 0.2682004497800142
262.0, 0.15983462486449393
263.0, 0.10222828680303883
264.0, 0.07137487879082047
265.0, 0.0513528241670859
266.0, 0.04053785579787681
267.0, 0.03271198804304379
268.0, 0.02450808234027627
269.0, 0.0220757621230688
270.0, 0.020530885029071855
271.0, 0.02111795976881819
272.0, 0.023529302315339687
273.0, 0.02611857526989152
274.0, 0.027305875848901026
275.0, 0.026185728731732617
276.0, 0.028750412022010036
277.0, 0.034297112030662553
278.0, 0.03853718136670921
279.0, 0.04457821860302323
280.0, 0.05305643401467877
281.0, 0.06488698438714327
282.0, 0.0815665103685742
283.0, 0.10496649009841724
284.0, 0.13811902134075388
285.0, 0.17649599943772382
286.0, 0.19931604539146397
287.0, 0.1902751441671311
288.0, 0.15052193814116321
289.0, 0.10061921035847694
290.0, 0.06178656234787499
291.0, 0.039181733095927394
292.0, 0.02671257913945278
293.0, 0.01705470016529893
294.0, 0.012677561214624399
295.0, 0.010327763756291687
296.0, 0.007721646363280349
297.0, 0.004836324395760496
298.0, 0.002870390079762639
299.0, 0.003550038277277951
300.0, 0.0026394409511260883
301.0, 0.0016182268752409136
302.0, 0.0013556088377884936
303.0, 0.00047822592252780624
304.0, 0.002631979378153461
305.0, 0.0023455979363754633
306.0, 0.0013183388428158922
307.0, 0.0018579222766744023
308.0, 0.003343916976677631
309.0, 0.0013183943847432673
310.0, 0.0018623987187132976
311.0, 0.0020864551105959517
312.0, 0.00040952602281655454
313.0, 0.0005120168239869255
314.0, 3.01406570636262e-05
315.0, 0.000583267642534373
316.0, 0.000685620168943707
317.0, 0.0003948371284965804
318.0, 0.0022225658372586
319.0, 0.0014234165106728537
320.0, 0.0009381655529303675
321.0, 0.0009396712775204817
322.0, 0.0005718872475360368
323.0, 0.00028074665134344236
324.0, 0.002013309372585595
325.0, 0.0013929319615005103
326.0, 0.00036275615750436035
327.0, 0.0007318203146616625
328.0, 0.0004454231910644805
329.0, 0.00043756999778204943
330.0, 0.00033311756493469957
331.0, 0.00048075350134603174
332.0, 0.00019585827565545499
333.0, 0.0008086242506083152
334.0, 0.0005220368510931153
335.0, 6.256157926201182e-05
336.0, 0.0015999638346970914
337.0, 0.0035930631826182387
338.0, 0.004329555644237893
339.0, 0.004846526276461678
340.0, 0.004717008233086353
341.0, 0.005070711972020935
342.0, 0.005185565404175978
343.0, 0.004372195139062514
344.0, 0.007268573890988817
345.0, 0.008068822015444085
346.0, 0.010706583841078221
347.0, 0.01600602204018768
348.0, 0.021297154693879848
349.0, 0.026914877741930753
350.0, 0.03494948181617098
351.0, 0.04330468790443441
352.0, 0.05058669718097863
353.0, 0.053616921004035596
354.0, 0.04568884581962635
355.0, 0.03661222967413532
356.0, 0.02633926116323678
357.0, 0.017021451171925234
358.0, 0.011970417460501745
359.0, 0.011641626109326174
360.0, 0.009568061405955687
361.0, 0.007597823272244363
362.0, 0.00836596051489148
363.0, 0.0111525021793362
364.0, 0.010183581071707824
365.0, 0.01620998099383558
366.0, 0.020181096882034316
367.0, 0.022607871823919493
368.0, 0.026435591737230296
369.0, 0.03205366271530195
370.0, 0.03582257800460429
371.0, 0.042819201638145586
372.0, 0.051247952849821685
373.0, 0.06036397780880404
374.0, 0.07212176473832212
375.0, 0.08462260408309369
376.0, 0.10683474264469212
377.0, 0.13249839312835238
378.0, 0.15635603997524758
379.0, 0.176791553654851
380.0, 0.19425905899387577
381.0, 0.18660336561512747
382.0, 0.16204289524764853
383.0, 0.1291540312062146
384.0, 0.09568997739097225
385.0, 0.07202733223923254
386.0, 0.05618509672122749
387.0, 0.04786308630377213
388.0, 0.04755159976848392
389.0, 0.05396199308243391
390.0, 0.06513293884370396
391.0, 0.08290498274904269
392.0, 0.10461546116648048
393.0, 0.13231621188849046
394.0, 0.1580408025531006
395.0, 0.16737581381134928
396.0, 0.14833492236678603
397.0, 0.11458291244612268
398.0, 0.07972630718492509
399.0, 0.052332782507044234
400.0, 0.0347226637524415
401.0, 0.024606470146524926
402.0, 0.017512690295219947
403.0, 0.013287231929729687
404.0, 0.009558809181559765
405.0, 0.004892412378932322
406.0, 0.0006266317962838639
407.0, 9.086322048504018e-05
408.0, 0.0007257523326545368
409.0, 0.001647429294734605
410.0, 0.002320264381490145
411.0, 0.0007460885463327894
412.0, 0.0002442669555601569
413.0, 0.00015394327814007925
414.0, 8.010776408943113e-05
415.0, 0.00010392538234274448
416.0, 0.0019683680039317085
417.0, 0.00695738738439728
418.0, 0.007312382434690901
419.0, 0.010428158474115753
420.0, 0.015630204105818887
421.0, 0.019427120757058786
422.0, 0.019993423438695618
423.0, 0.018803577043293378
424.0, 0.01775976712464417
425.0, 0.012918018125021559
426.0, 0.007787207500672124
427.0, 0.005006239535688963
428.0, 0.0036277485851171232
429.0, 0.0032110273940740815
430.0, 0.0034619835120865182
431.0, 0.004217279930962802
432.0, 0.005330527200624594
433.0, 0.006421839569669458
434.0, 0.007084633048205192
435.0, 0.009450509353853179
436.0, 0.013912580912791359
437.0, 0.02168315889265043
438.0, 0.030759280715031617
439.0, 0.03910894804946992
440.0, 0.05418443474633956
441.0, 0.07035558778289118
442.0, 0.07839819591412296
443.0, 0.07762764899155863
444.0, 0.07159661453455161
445.0, 0.06360698438707749
446.0, 0.062271365624149685
447.0, 0.06441961312517802
448.0, 0.06752366623830906
449.0, 0.07158440514839372
450.0, 0.07661395791077846
451.0, 0.07831629226461612
452.0, 0.08177598678069702
453.0, 0.08212148029548948
454.0, 0.07652291989720267
455.0, 0.06761890533247704
456.0, 0.06031291106496742
457.0, 0.04974480316923688
458.0, 0.04217876864183567
459.0, 0.0349293291031588
460.0, 0.026884184857721864
461.0, 0.020437784009373076
462.0, 0.019304726419428483
463.0, 0.015789390393039168
464.0, 0.014194213293582917
465.0, 0.01300042589141619
466.0, 0.010408578804849081
467.0, 0.007969699146528023
468.0, 0.008529694690175947
469.0, 0.0071620456365967455
470.0, 0.006398764215986398
471.0, 0.006423820218797548
472.0, 0.0063219890167015656
473.0, 0.005356716365118672
474.0, 0.0017105854516770676
475.0, 0.0010577150641840065
476.0, 0.001781422777511589
477.0, 0.0027050798875884957
478.0, 0.0025572351762357644
479.0, 0.000167666471624054
480.0, 0.0021237860595036116
481.0, 0.0016993165890068088
482.0, 0.0011307076397249337
483.0, 0.0007801408570826599
484.0, 7.896199367312657e-05
485.0, 0.0033145718965470173
486.0, 0.0038593219518647795
487.0, 0.005377408289694406
488.0, 0.005216313549228037
489.0, 0.0032613022406855633
490.0, 0.0034201729106602043
491.0, 0.00605618851472276
492.0, 0.006630894008033833
493.0, 0.006713420958110494
494.0, 0.008162054559983352
495.0, 0.009803468176036985
496.0, 0.009818719889402762
497.0, 0.010587654879233237
498.0, 0.014741646355984593
499.0, 0.01814375913479209
500.0, 0.019624669562133306
501.0, 0.02094328393216334
502.0, 0.024552977951307592
503.0, 0.027961676146176073
504.0, 0.03302191332270817
505.0, 0.03805877413887897
506.0, 0.042922713664474615
507.0, 0.04748025046005016
508.0, 0.0502107495300196
509.0, 0.048462956757712256
510.0, 0.04697836444866834
511.0, 0.04135651742268235
512.0, 0.034042616535484356
513.0, 0.027960333013120453
514.0, 0.022096932237924072
515.0, 0.01737387113741572
516.0, 0.011670242344969965
517.0, 0.009063222797720014
518.0, 0.006480031003046913
519.0, 0.0025558946380307783
520.0, 0.0011146607517548684
521.0, 0.0015430119784813282
522.0, 0.0012712839073930587
523.0, 0.0011953478251325268
524.0, 0.0010052084369473499
525.0, 0.003620096343049769
526.0, 0.0023394788643641743
527.0, 0.001461477417909875
528.0, 0.0010510805529305963
529.0, 0.0012550415612987075
530.0, 0.0005817174119231738
531.0, 0.0017999851184886217
532.0, 0.0029849166207574153
533.0, 0.0028441791090376544
534.0, 0.002752086669397396
535.0, 0.005881640843781954
536.0, 0.008676134973672013
537.0, 0.00936197190653666
538.0, 0.010460423301543304
539.0, 0.014814342871287182
540.0, 0.01832717497092197
541.0, 0.02174478381558826
542.0, 0.021937710501838098
543.0, 0.01966367793415203
544.0, 0.017032468431511138
545.0, 0.01197116029775007
546.0, 0.009867948588662138
547.0, 0.007520606337273025
548.0, 0.004137228542580119
549.0, 0.0014867935063338272
550.0, 0.0009636215696349113
551.0, 0.001986890998398257
552.0, 0.003899965007448853
553.0, 0.002310776082726966
554.0, 0.0003758638147224046
555.0, 0.0014406349976809256
556.0, 0.005552098772887462
557.0, 0.00513950732795742
558.0, 0.00946784805890144
559.0, 0.011335491764938657
560.0, 0.013531028424483737
561.0, 0.01674031980899946
562.0, 0.021506660402869856
563.0, 0.028359332751381434
564.0, 0.031755943672047655
565.0, 0.038675623171720554
566.0, 0.0471623296413781
567.0, 0.05625602834985431
568.0, 0.06967579094436903
569.0, 0.08923288177796801
570.0, 0.11069266010249926
571.0, 0.13355325655984807
572.0, 0.153200263453404
573.0, 0.15777513125239095
574.0, 0.15124951632383668
575.0, 0.13848790443111753
576.0, 0.11179326616255246
577.0, 0.09164740142033598
578.0, 0.08241838021183634
579.0, 0.07997212185420198
580.0, 0.08057582132550781
581.0, 0.08415474329855645
582.0, 0.09098733986951181
583.0, 0.09176811913743793
584.0, 0.08287091550878539
585.0, 0.0718484347340343
586.0, 0.059379130138121225
587.0, 0.04496995449697167
588.0, 0.03314792001777133
589.0, 0.028018790042245514
590.0, 0.02309978483694764
591.0, 0.01750673437253791
592.0, 0.012770771918373945
593.0, 0.009910847039540028
594.0, 0.009188329392821092
595.0, 0.010166016088597532
596.0, 0.009948125253276721
597.0, 0.00986016823698988
598.0, 0.009677408667383001
599.0, 0.009878347720817226
600.0, 0.011007624587774613
601.0, 0.01207892942402287
602.0, 0.011411685325768712
603.0, 0.011546695170240264
604.0, 0.010402250316975049
605.0, 0.00890291447034847
606.0, 0.00750223259933057
607.0, 0.0073100013717859545
608.0, 0.007725236179205521
609.0, 0.0024036143635142774
610.0, 0.0030651303707120905
611.0, 0.00339128232272733
612.0, 0.002224643907911231
613.0, 0.0017086768358078894
614.0, 0.0018842729909722957
615.0, 0.0009976160062553877
616.0, 0.0005099989970253687
617.0, 0.0017300869939410415
618.0, 0.001291884998688251
619.0, 5.426912073697054e-05
620.0, 0.000548669852605142
621.0, 0.0006389791132470617
622.0, 0.0007478438837233106
623.0, 0.0006634930200970441
624.0, 0.0007696746761580402
625.0, 0.002529011284830811
626.0, 0.004113296686561513
627.0, 0.004237764058494839
628.0, 0.0024935771733098277
629.0, 0.0022564744633864417
630.0, 0.0015854424016844058
631.0, 0.004351508355467397
632.0, 0.005368719104895188
633.0, 0.005807062578234143
634.0, 0.007408438869108703
635.0, 0.007344169431685271
636.0, 0.007039345682746906
637.0, 0.007580999902978914
638.0, 0.010438112853385952
639.0, 0.012125655588522374
640.0, 0.011874945885930067
641.0, 0.012730214078425912
642.0, 0.01566023064683658
643.0, 0.017856242604828217
644.0, 0.018261600951836064
645.0, 0.021637827552993316
646.0, 0.021547694597001822
647.0, 0.01882420776993792
648.0, 0.01833156914130554
649.0, 0.018839470896437532
650.0, 0.014237491372570691
651.0, 0.012609413612359519
652.0, 0.010807868566289843
653.0, 0.00876662900381331
654.0, 0.00657905293788221
655.0, 0.00556248988669455
656.0, 0.006992789035141249
657.0, 0.005279077548212523
658.0, 0.004545300561187584
659.0, 0.003229353471195429
660.0, 0.0009928257708187475
661.0, 0.0002447579162380776
662.0, 0.0015388227962366897
663.0, 0.002099873434643793
664.0, 0.001191777082069417
665.0, 0.0017235443432961446
666.0, 0.0017600480084168184
667.0, 0.0007696628097248789
668.0, 0.0009107543962268523
669.0, 0.0024980639742950136
670.0, 0.003345881997130825
671.0, 0.004069950348365636
672.0, 0.0015623347859528558
673.0, 0.0030919550609626125
674.0, 0.0028806456822018387
675.0, 0.0022299127564912027
676.0, 0.003101627877487555
677.0, 0.0018388744675090008
678.0, 0.0012949970941911215
679.0, 0.0007858705003296199
680.0, 0.0006319464305960593
681.0, 0.0011090039598120123
682.0, 0.0021392000913757394
683.0, 0.0009418911597943114
684.0, 0.0014175792434707054
685.0, 0.0021529566147008767
686.0, 0.0008576311752435781
687.0, 0.0001229089505902156
688.0, 0.0015006943110185056
689.0, 0.0018433770387636576
690.0, 0.00017890070356368107
691.0, 0.0002670387781401383
692.0, 0.00045637129672843865
693.0, 0.00034014981133783577
694.0, 0.00019554470488053832
695.0, 0.0010653109476222898
696.0, 0.000635152900831081
697.0, 0.0009612292523512117
698.0, 0.0028583519179718724
699.0, 0.002190132882960278
700.0, 0.0027777923050491837
701.0, 0.003081127355750283
702.0, 0.003251997219421405
703.0, 0.0031472707424034497
704.0, 0.0023782960513190616
705.0, 0.0025043310634205586
706.0, 0.0037607045916819674
707.0, 0.0018586411391681864
708.0, 0.0015264988673568953
709.0, 0.0017194472342584994
710.0, 0.002493351708167357
711.0, 0.0032416845334134903
712.0, 0.0016000431076706742
713.0, 0.0007343410780862872
714.0, 0.0007991576221424929
715.0, 0.002650595510844825
716.0, 0.000419207385069371
717.0, 0.0014218959453016163
718.0, 0.002090006300297378
719.0, 0.0027978540981364237
720.0, 0.002488635475202241
721.0, 0.0011364402003866691
722.0, 0.0031326841947776104
723.0, 0.004319615349758432
724.0, 0.004522158661008434
725.0, 0.004354129731206977
726.0, 0.0044414567753460876
727.0, 0.004904599179335355
728.0, 0.004600896958353661
729.0, 0.0026018047456196547
730.0, 0.0008720054845923263
731.0, 0.003879288521779032
732.0, 0.0037394427600477196
733.0, 0.00288458270277282
734.0, 0.0032458678598814394
735.0, 0.003805203992709896
736.0, 0.0048010627173857056
737.0, 0.006111963107243435
738.0, 0.0031850952961183414
739.0, 0.004381382068370979
740.0, 0.00796217748593773
741.0, 0.00871471614955935
742.0, 0.009823647122105489
743.0, 0.012965962771176096
744.0, 0.015631988502655732
745.0, 0.017134442660381128
746.0, 0.02156277268552321
747.0, 0.02403569694516697
748.0, 0.0275155161218453
749.0, 0.03176206643117584
750.0, 0.03737314299891415
751.0, 0.04468500954499875
752.0, 0.05235808551355401
753.0, 0.06055709993974966
754.0, 0.07237035460918557
755.0, 0.08002313993343023
756.0, 0.08510326141003569
757.0, 0.08559257177790508
758.0, 0.0803516532407704
759.0, 0.06829695687806916
760.0, 0.05366991670327402
761.0, 0.044508774524138955
762.0, 0.034450398752760465
763.0, 0.027503323948462336
764.0, 0.020519192975627553
765.0, 0.015692697642479485
766.0, 0.013118425916927167
767.0, 0.012562438067476464
768.0, 0.011923999518084864
769.0, 0.008079806792402416
770.0, 0.011020445583156702
771.0, 0.00785387630337156
772.0, 0.006906067862098656
773.0, 0.008481530071575321
774.0, 0.008477555431655088
775.0, 0.007375734172249838
776.0, 0.007568633118568775
777.0, 0.008850488271461164
778.0, 0.009620201656318562
779.0, 0.010035504464987164
780.0, 0.013275583347396713
781.0, 0.014751586104557552
782.0, 0.016965996408807554
783.0, 0.02059488911695868
784.0, 0.023752682729990482
785.0, 0.026639126483975924
786.0, 0.031767034101843915
787.0, 0.036328189664865375
788.0, 0.040092782268641394
789.0, 0.04313982859931819
790.0, 0.04705806103705207
791.0, 0.04943823277130077
792.0, 0.04641681956507711
793.0, 0.039425127440183186
794.0, 0.03360976442149267
795.0, 0.029148853661225504
796.0, 0.024193710082312258
797.0, 0.020067865807653205
798.0, 0.015216569816777225
799.0, 0.011702785512268473
800.0, 0.010333972854892294
801.0, 0.00858508100661483
802.0, 0.005894066210106892
803.0, 0.005236352797970607
804.0, 0.0036109634461702895
805.0, 0.0032797408746695466
806.0, 0.0013502956646890352
807.0, 0.0014154577146917458
808.0, 0.0012152969164882874
809.0, 0.0008135335732339564
810.0, 0.001533574869909357
811.0, 0.0015743682146215883
812.0, 0.001593036525067822
813.0, 0.0013301513300517007
814.0, 0.0015332848237053682
815.0, 0.0009607852047301552
816.0, 0.0004479369032031519
817.0, 0.0009409598946315056
818.0, 0.0016518217132208567
819.0, 0.001924860610557836
820.0, 0.0013353984699967535
821.0, 0.0003003332867895286
822.0, 0.002976719465715532
823.0, 0.0007765793893436275
824.0, 0.00034614674122586224
825.0, 0.0005846339217899423
826.0, 0.0005693637657937066
827.0, 0.0007857890816253465
828.0, 0.0012109391119263634
829.0, 0.0004505489495204261
830.0, 0.0013401172582684455
831.0, 0.0013127862240879587
832.0, 0.0007402224785139096
833.0, 0.0023583912780739667
834.0, 0.0005981036037546819
835.0, 0.0003832712691802426
836.0, 0.001985369592906798
837.0, 0.0007034957971204685
838.0, 0.001409243936721567
839.0, 0.00186239451721706
840.0, 0.0008044449515561079
841.0, 0.0010824739343285254
842.0, 0.0003246527824664068
843.0, 0.00017533071838104632
844.0, 0.0005460261764853636
845.0, 0.0011024088873159124
846.0, 0.0004260574319088132
847.0, 0.0001590056570473745
848.0, 0.003316841327562495
849.0, 0.00017065192408646953
850.0, 0.00011620335720469135
851.0, 0.0008699007582968547
852.0, 0.0019515459697574946
853.0, 0.0030927117165549084
854.0, 0.004409724812819826
855.0, 0.004663721002136862
856.0, 0.0054614143438443995
857.0, 0.009284079352885749
858.0, 0.009155132120843222
859.0, 0.01045017975711781
860.0, 0.013434932575567268
861.0, 0.015464938790181668
862.0, 0.015609039933422542
863.0, 0.018433780225221942
864.0, 0.023640010136376535
865.0, 0.027654280262294124
866.0, 0.03126239741596528
867.0, 0.037616705929679854
868.0, 0.04367730196570041
869.0, 0.05365984927908367
870.0, 0.06585406652488003
871.0, 0.08033627863800372
872.0, 0.09772268008211954
873.0, 0.11858240478136432
874.0, 0.14417202502344661
875.0, 0.17509927145030119
876.0, 0.21080911962265236
877.0, 0.25065924005767454
878.0, 0.2893045631741201
879.0, 0.32257364027608076
880.0, 0.3414647134302838
881.0, 0.3335197339729122
882.0, 0.29916364679368074
883.0, 0.24902814919609118
884.0, 0.1970773415901015
885.0, 0.15351573500963958
886.0, 0.1202040253053908
887.0, 0.09469895918691176
888.0, 0.07781265195218413
889.0, 0.06334006810609026
890.0, 0.05427352874769742
891.0, 0.05160004559684955
892.0, 0.0460361325081854
893.0, 0.04252926953354788
894.0, 0.044903839072551306
895.0, 0.047551455139797194
896.0, 0.0498238448271137
897.0, 0.05549364772550436
898.0, 0.06340639385298649
899.0, 0.07492746750955351
900.0, 0.08729523431722261
901.0, 0.10215138004116618
902.0, 0.12353306724468767
903.0, 0.1456360652982695
904.0, 0.16646513119650963
905.0, 0.18823613801514294
906.0, 0.20909966850265846
907.0, 0.2306094907076747
908.0, 0.23388522135734277
909.0, 0.22874097843600313
910.0, 0.2087233742903429
911.0, 0.18397702043986502
912.0, 0.1551658827620756
913.0, 0.1268591188871554
914.0, 0.10276116616351604
915.0, 0.08316069736424002
916.0, 0.0694862299115907
917.0, 0.0589506762937523
918.0, 0.05017913809497974
919.0, 0.040236453328029706
920.0, 0.03489709538983707
921.0, 0.02905685448955015
922.0, 0.024059862830837636
923.0, 0.020716683340800044
924.0, 0.018162206800627877
925.0, 0.015698710059414457
926.0, 0.012588827583213473
927.0, 0.010346085741277175
928.0, 0.010739111870994978
929.0, 0.007663885888895708
930.0, 0.010404154941564454
931.0, 0.006468163152769154
932.0, 0.007407959447222647
933.0, 0.007625091664877399
934.0, 0.006542436238771541
935.0, 0.004907212231211458
936.0, 0.003555671709871318
937.0, 0.0031371581386859465
938.0, 0.0018374274905735945
939.0, 0.0009333942780796431
940.0, 0.00030557902695426455
941.0, 0.00019218764742728552
942.0, 0.0007780569513465391
943.0, 0.0006003250777064891
944.0, 4.355857316609173e-05
945.0, 0.000844852197957096
946.0, 0.0013768864941767784
947.0, 0.0005804116449556298
948.0, 0.0023122462222357793
949.0, 0.00044332153835735196
950.0, 0.00046354014752900287
951.0, 0.00012363089386525488
952.0, 0.00021118702461347022
953.0, 0.0011691541070876627
954.0, 0.00019367801092060367
955.0, 0.0021349056299684345
956.0, 0.0018271625707563647
957.0, 0.0013769290357996359
958.0, 0.0027448562393061295
959.0, 0.003540381794086486
960.0, 0.003369091154765812
961.0, 0.003107167057451334
962.0, 0.0032757879294252573
963.0, 0.006895459658918782
964.0, 0.008088069752491975
965.0, 0.010268027952048323
966.0, 0.016119441194971277
967.0, 0.02083179416002877
968.0, 0.024156667828818104
969.0, 0.028005230107155336
970.0, 0.03340875183207184
971.0, 0.038753132219668994
972.0, 0.040532864431969344
973.0, 0.037412801968024156
974.0, 0.03336967351428265
975.0, 0.030152624157602646
976.0, 0.02405685527655699
977.0, 0.021006045757060332
978.0, 0.015637186911721543
979.0, 0.013203162549970573
980.0, 0.007732137387071443
981.0, 0.006235142039274693
982.0, 0.007609644032224945
983.0, 0.004436439370337114
984.0, 0.0014676696002699084
985.0, 0.0016051507659992444
986.0, 0.0015162874833010737
987.0, 0.001507086356705736
988.0, 0.0034506751113026124
989.0, 0.001421955396749578
990.0, 0.00048566730365280034
991.0, 0.0009231459378801452
992.0, 0.0008941713113092024
993.0, 0.0017323983737064345
994.0, 0.00043300821043549886
995.0, 0.00039132207290115055
996.0, 0.0007836205244011107
997.0, 0.0035824330880894857
998.0, 0.004079686882884026
999.0, 0.004608085748425129
1000.0, 0.004507316542920801
1001.0, 0.0057320027083419284
1002.0, 0.006747599496742557
1003.0, 0.007996356485374678
1004.0, 0.008013020058326974
1005.0, 0.01036967652123258
1006.0, 0.013630332800141427
1007.0, 0.015519390127940715
1008.0, 0.016037688708681625
1009.0, 0.018959094310845137
1010.0, 0.026177671171668533
1011.0, 0.032514475024323905
1012.0, 0.04205973561329165
1013.0, 0.0512496836584389
1014.0, 0.06208315800710704
1015.0, 0.07681866168317712
1016.0, 0.09339434230643887
1017.0, 0.11719467519796606
1018.0, 0.13929722378877282
1019.0, 0.162901104647796
1020.0, 0.1857458791209406
1021.0, 0.2030970877117205
1022.0, 0.2122897031659255
1023.0, 0.20748796544104844
1024.0, 0.19223864173188887
1025.0, 0.1705917080584976
1026.0, 0.14335067902721108
1027.0, 0.12363623177438555
1028.0, 0.1037767556988391
1029.0, 0.08467689765653065
1030.0, 0.07509098851676564
1031.0, 0.06491495594258691
1032.0, 0.057515791351425205
1033.0, 0.05368367685302281
1034.0, 0.04938707610920884
1035.0, 0.04670228394934459
1036.0, 0.045602000599323546
1037.0, 0.04325134368405255
1038.0, 0.044172406960587246
1039.0, 0.04246889475485058
1040.0, 0.04473104954187553
1041.0, 0.05007544456929578
1042.0, 0.05206402151822469
1043.0, 0.05745991367532056
1044.0, 0.06173159544231806
1045.0, 0.06657185136638978
1046.0, 0.07516696649009601
1047.0, 0.08813547658760272
1048.0, 0.10126431748215885
1049.0, 0.11442738704115954
1050.0, 0.13199641426588193
1051.0, 0.1538394778420947
1052.0, 0.17833678347526222
1053.0, 0.2072999543560848
1054.0, 0.2412700443481824
1055.0, 0.2815470280129079
1056.0, 0.31862404287790996
1057.0, 0.35617507428011064
1058.0, 0.38231966650738886
1059.0, 0.3978731049034496
1060.0, 0.39626997145102755
1061.0, 0.3750323006017737
1062.0, 0.3344098590437691
1063.0, 0.29091831103220345
1064.0, 0.24950782233036078
1065.0, 0.20733205656120346
1066.0, 0.1736983080652822
1067.0, 0.14309886768560856
1068.0, 0.11765231066403666
1069.0, 0.09863756414334089
1070.0, 0.0829137662192627
1071.0, 0.06952576299555131
1072.0, 0.060137255646110735
1073.0, 0.051662655104735944
1074.0, 0.043063310618023244
1075.0, 0.03737819169963587
1076.0, 0.0327246939571051
1077.0, 0.0279544351456263
1078.0, 0.025403081966290316
1079.0, 0.0214364373607739
1080.0, 0.01811518802960151
1081.0, 0.016816338077089984
1082.0, 0.012784671822313598
1083.0, 0.013083651923241306
1084.0, 0.011061323935564629
1085.0, 0.011765830780801295
1086.0, 0.01012167260123114
1087.0, 0.009842524659569906
1088.0, 0.010787823217732874
1089.0, 0.007656412123884096
1090.0, 0.006391438334552099
1091.0, 0.006944562241701014
1092.0, 0.007936442277788227
1093.0, 0.006878520266580207
1094.0, 0.0058028427591690305
1095.0, 0.006748013800289211
1096.0, 0.006581162926420675
1097.0, 0.004862203524034248
1098.0, 0.005008163415689906
1099.0, 0.004331127300828438
1100.0, 0.002080407285125158
1101.0, 0.0004213684913095687
1102.0, 0.00022862296620860856
1103.0, 0.000754145329227336
1104.0, 0.0018895897343736145
1105.0, 0.0011074816367710382
1106.0, 0.000306586747709522
1107.0, 0.0016942183066643289
1108.0, 0.0010401559870745819
1109.0, 0.001016537653801075
1110.0, 0.000510538137380685
1111.0, 0.0019248744113368368
1112.0, 0.00074791968327447
1113.0, 0.0008574218024327836
1114.0, 0.001505538546634377
1115.0, 0.00048531831515683606
1116.0, 3.2771770772129595e-05
1117.0, 0.0009757762583569062
1118.0, 0.003222986928697247
1119.0, 0.0015744901493263026
1120.0, 0.00017385780614126694
1121.0, 0.00022027267758434647
1122.0, 0.0012407219375917104
1123.0, 0.0008263522331650425
1124.0, 0.002622439349456603
1125.0, 0.0015892942151342097
1126.0, 0.0006101504184244569
1127.0, 0.00020348830964691682
1128.0, 0.0008669273242540563
1129.0, 0.00030489271799820003
1130.0, 0.00020270857123378574
1131.0, 0.0002888614582364172
1132.0, 0.0022195759295777218
1133.0, 0.0026460121351897046
1134.0, 0.0005532342222546578
1135.0, 0.003749951078324919
1136.0, 0.003625053750271993
1137.0, 0.0012507222675315847
1138.0, 0.001916604400884698
1139.0, 0.001902706188553443
1140.0, 0.004097586364063023
1141.0, 0.004582593616247807
1142.0, 0.0046467290271345486
1143.0, 0.006096591561906065
1144.0, 0.003320922887212234
1145.0, 0.0033956381163857898
1146.0, 0.0020456411945937282
1147.0, 0.0028579079615317264
1148.0, 0.004322155211723399
1149.0, 0.002860064980089798
1150.0, 0.0015402380508234362
1151.0, 0.0018487719873893492
1152.0, 0.0017165703809928002
1153.0, 0.0013681975327514524
1154.0, 0.002179634449950195
1155.0, 0.0023585077319895776
1156.0, 0.0018197592322677192
1157.0, 0.0038965475684367644
1158.0, 0.0032518994841820494
1159.0, 0.0021863732779294843
1160.0, 0.002796027778157898
1161.0, 0.004095875153753823
1162.0, 0.005619250839910463
1163.0, 0.0028799550690897097
1164.0, 0.004487243289167931
1165.0, 0.0033134053298548172
1166.0, 0.001563324679637949
1167.0, 0.002401966542736748
1168.0, 0.0038094627727520104
1169.0, 0.002863894075795487
1170.0, 0.002243696566741059
1171.0, 0.003098952402993898
1172.0, 0.0018896261650433997
1173.0, 0.00044894478781547025
1174.0, 0.0017054442414450059
1175.0, 0.0018873916960753573
1176.0, 0.0010259312797862808
1177.0, 0.002295184257366558
1178.0, 0.0021141388751803594
1179.0, 0.0017012715839527335
1180.0, 0.0004170864985086099
1181.0, 0.00033632134581303554
1182.0, 0.0023060812715366705
1183.0, 0.003718122642677976
1184.0, 0.0037545086090245957
1185.0, 0.0024244337648331787
1186.0, 0.0036894890960108865
1187.0, 0.0016132672624973841
1188.0, 0.00046959261743005127
1189.0, 0.0033818568521064092
1190.0, 0.002530607732897272
1191.0, 0.002194905761887991
1192.0, 0.0028766730616695472
1193.0, 0.0015397603055050308
1194.0, 0.0027793980094883083
1195.0, 0.002317640050092855
1196.0, 0.0007819992503937118
1197.0, 0.001254173344117985
1198.0, 0.0022813747325693065
1199.0, 0.0013575472825334768
1200.0, 0.001938607241233631
1201.0, 0.004088052775867639
1202.0, 0.003632578801785345
1203.0, 0.0030885418941282885
1204.0, 0.003550043383035458
1205.0, 0.004610790247074199
1206.0, 0.0036852892097183967
1207.0, 0.002433248873612089
1208.0, 0.004274843040334526
1209.0, 0.005663961602286287
1210.0, 0.004323807574555982
1211.0, 0.003834222069261722
1212.0, 0.0046428159064543255
1213.0, 0.003426224420831003
1214.0, 0.0037463083799690283
1215.0, 0.0008170281199015371
1216.0, 0.0015450215549496667
1217.0, 0.001925801469132106
1218.0, 0.0017652749165043935
1219.0, 0.002877507913892589
1220.0, 0.004064049065439922
1221.0, 0.004439967842282623
1222.0, 0.002858096610709134
1223.0, 0.001334431169933246
1224.0, 0.001681008059142093
1225.0, 0.0010199127213547181
1226.0, 1.4278891070430863e-05
1227.0, 0.0028766793261990765
1228.0, 0.0038670910942377695
1229.0, 0.0013406080796844668
1230.0, 0.0004512474469767917
1231, 0.0
1232, 0.0
1233, 0.0
1234, 0.0
1235, 0.0
1236, 0.0
1237, 0.0
1238, 0.0
1239, 0.0
1240, 0.0
1241, 0.0
1242, 0.0
1243, 0.0
1244, 0.0
1245, 0.0
1246, 0.0
1247, 0.0
1248, 0.0
1249, 0.0
1250, 0.0
1251, 0.0
1252, 0.0
1253, 0.0
1254, 0.0
1255, 0.0
1256, 0.0
1257, 0.0
1258, 0.0
1259, 0.0
1260, 0.0
1261, 0.0
1262, 0.0
1263, 0.0
1264, 0.0
1265, 0.0
1266, 0.0
1267, 0.0
1268, 0.0
1269, 0.0
1270, 0.0
1271, 0.0
1272, 0.0
1273, 0.0
1274, 0.0
1275, 0.0
1276, 0.0
1277, 0.0
1278, 0.0
1279, 0.0
1280, 0.0
1281, 0.0
1282, 0.0
1283, 0.0
1284, 0.0
1285, 0.0
1286, 0.0
1287, 0.0
1288, 0.0
1289, 0.0
1290, 0.0
1291, 0.0
1292, 0.0
1293, 0.0
1294, 0.0
1295, 0.0
1296, 0.0
1297, 0.0
1298, 0.0
1299, 0.0
1300, 0.0
1301, 0.0
1302, 0.0
1303, 0.0
1304, 0.0
1305, 0.0
1306, 0.0
1307, 0.0
1308, 0.0
1309, 0.0
1310, 0.0
1311, 0.0
1312, 0.0
1313, 0.0
1314, 0.0
1315, 0.0
1316, 0.0
1317, 0.0
1318, 0.0
1319, 0.0
1320, 0.0
1321, 0.0
1322, 0.0
1323, 0.0
1324, 0.0
1325, 0.0
1326, 0.0
1327, 0.0
1328, 0.0
1329, 0.0
1330, 0.0
1331, 0.0
1332, 0.0
1333, 0.0
1334, 0.0
1335, 0.0
1336, 0.0
1337, 0.0
1338, 0.0
1339, 0.0
1340, 0.0
1341, 0.0
1342, 0.0
1343, 0.0
1344, 0.0
1345, 0.0
1346, 0.0
1347, 0.0
1348, 0.0
1349, 0.0
1350, 0.0
1351, 0.0
1352, 0.0
1353, 0.0
1354, 0.0
1355, 0.0
1356, 0.0
1357, 0.0
1358, 0.0
1359, 0.0
1360, 0.0
1361, 0.0
1362, 0.0
1363, 0.0
1364, 0.0
1365, 0.0
1366, 0.0
1367, 0.0
1368, 0.0
1369, 0.0
1370, 0.0
1371, 0.0
1372, 0.0
1373, 0.0
1374, 0.0
1375, 0.0
1376, 0.0
1377, 0.0
1378, 0.0
1379, 0.0
1380, 0.0
1381, 0.0
1382, 0.0
1383, 0.0
1384, 0.0
1385, 0.0
1386, 0.0
1387, 0.0
1388, 0.0
1389, 0.0
1390, 0.0
1391, 0.0
1392, 0.0
1393, 0.0
1394, 0.0
1395, 0.0
1396, 0.0
1397, 0.0
1398, 0.0
1399, 0.0
1400, 0.0
1401, 0.0
1402, 0.0
1403, 0.0
1404, 0.0
1405, 0.0
1406, 0.0
1407, 0.0
1408, 0.0
1409, 0.0
1410, 0.0
1411, 0.0
1412, 0.0
1413, 0.0
1414, 0.0
1415, 0.0
1416, 0.0
1417, 0.0
1418, 0.0
1419, 0.0
1420, 0.0
1421, 0.0
1422, 0.0
1423, 0.0
1424, 0.0
1425, 0.0
1426, 0.0
1427, 0.0
1428, 0.0
1429, 0.0
1430, 0.0
1431, 0.0
1432, 0.0
1433, 0.0
1434, 0.0
1435, 0.0
1436, 0.0
1437, 0.0
1438, 0.0
1439, 0.0
1440, 0.0
1441, 0.0
1442, 0.0
1443, 0.0
1444, 0.0
1445, 0.0
1446, 0.0
1447, 0.0
1448, 0.0
1449, 0.0
1450, 0.0
1451, 0.0
1452, 0.0
1453, 0.0
1454, 0.0
1455, 0.0
1456, 0.0
1457, 0.0
1458, 0.0
1459, 0.0
1460, 0.0
1461, 0.0
1462, 0.0
1463, 0.0
1464, 0.0
1465, 0.0
1466, 0.0
1467, 0.0
1468, 0.0
1469, 0.0
1470, 0.0
1471, 0.0
1472, 0.0
1473, 0.0
1474, 0.0
1475, 0.0
1476, 0.0
1477, 0.0
1478, 0.0
1479, 0.0
1480, 0.0
1481, 0.0
1482, 0.0
1483, 0.0
1484, 0.0
1485, 0.0
1486, 0.0
1487, 0.0
1488, 0.0
1489, 0.0
1490, 0.0
1491, 0.0
1492, 0.0
1493, 0.0
1494, 0.0
1495, 0.0
1496, 0.0
1497, 0.0
1498, 0.0
1499, 0.0
1500, 0.0
1501, 0.0
1502, 0.0
1503, 0.0
1504, 0.0
1505, 0.0
1506, 0.0
1507, 0.0
1508, 0.0
1509, 0.0
1510, 0.0
1511, 0.0
1512, 0.0
1513, 0.0
1514, 0.0
1515, 0.0
1516, 0.0
1517, 0.0
1518, 0.0
1519, 0.0
1520, 0.0
1521, 0.0
1522, 0.0
1523, 0.0
1524, 0.0
1525, 0.0
1526, 0.0
1527, 0.0
1528, 0.0
1529, 0.0
1530, 0.0
1531, 0.0
1532, 0.0
1533, 0.0
1534, 0.0
1535, 0.0
1536, 0.0
1537, 0.0
1538, 0.0
1539, 0.0
1540, 0.0
1541, 0.0
1542, 0.0
1543, 0.0
1544, 0.0
1545, 0.0
1546, 0.0
1547, 0.0
1548, 0.0
1549, 0.0
1550, 0.0
1551, 0.0
1552, 0.0
1553, 0.0
1554, 0.0
1555, 0.0
1556, 0.0
1557, 0.0
1558, 0.0
1559, 0.0
1560, 0.0
1561, 0.0
1562, 0.0
1563, 0.0
1564, 0.0
1565, 0.0
1566, 0.0
1567, 0.0
1568, 0.0
1569, 0.0
1570, 0.0
1571, 0.0
1572, 0.0
1573, 0.0
1574, 0.0
1575, 0.0
1576, 0.0
1577, 0.0
1578, 0.0
1579, 0.0
1580, 0.0
1581, 0.0
1582, 0.0
1583, 0.0
1584, 0.0
1585, 0.0
1586, 0.0
1587, 0.0
1588, 0.0
1589, 0.0
1590, 0.0
1591, 0.0
1592, 0.0
1593, 0.0
1594, 0.0
1595, 0.0
1596, 0.0
1597, 0.0
1598, 0.0
1599, 0.0
