30, 0.0
31, 0.0
32, 0.0
33, 0.0
34, 0.0
35, 0.0
36, 0.0
37, 0.0
38, 0.0
39, 0.0
40, 0.0
41, 0.0
42, 0.0
43, 0.0
44, 0.0
45, 0.0
46, 0.0
47, 0.0
48, 0.0
49, 0.0
50, 0.0
51, 0.0
52, 0.0
53, 0.0
54, 0.0
55, 0.0
56, 0.0
57, 0.0
58, 0.0
59, 0.0
60, 0.0
61, 0.0
62, 0.0
63, 0.0
64, 0.0
65, 0.0
66, 0.0
67, 0.0
68, 0.0
69, 0.0
70, 0.0
71, 0.0
72, 0.0
73, 0.0
74, 0.0
75, 0.0
76, 0.0
77, 0.0
78, 0.0
79, 0.0
80, 0.0
81, 0.0
82, 0.0
83, 0.0
84, 0.0
85, 0.0
86, 0.0
87, 0.0
88, 0.0
89, 0.0
90, 0.0
91, 0.0
92, 0.0
93, 0.0
94, 0.0
95, 0.0
96, 0.0
97, 0.0
98, 0.0
99, 0.0
100, 0.0
101, 0.0
102, 0.0
103, 0.0
104, 0.0
105, 0.0
106, 0.0
107, 0.0
108, 0.0
109, 0.0
110, 0.0
111, 0.0
112, 0.0
113, 0.0
114, 0.0
115, 0.0
116, 0.0
117, 0.0
118, 0.0
119, 0.0
120, 0.0
121, 0.0
122, 0.0
123, 0.0
124, 0.0
125, 0.0
126, 0.0
127, 0.0
128, 0.0
129, 0.0
130, 0.0
131, 0.0
132, 0.0
133, 0.0
134, 0.0
135, 0.0
136, 0.0
137, 0.0
138, 0.0
139, 0.0
140, 0.0
141, 0.0
142, 0.0
143, 0.0
144, 0.0
145, 0.0
146, 0.0
147, 0.0
148, 0.0
149, 0.0
150, 0.0
151, 0.0
152, 0.0
153, 0.0
154, 0.0
155, 0.0
156, 0.0
157, 0.0
158, 0.0
159, 0.0
160, 0.0
161, 0.0
162, 0.0
163, 0.0
164, 0.0
165, 0.0
166, 0.0
167, 0.0
168, 0.0
169, 0.0
170, 0.0
171, 0.0
172, 0.0
173, 0.0
174, 0.0
175, 0.0
176, 0.0
177, 0.0
178, 0.0
179, 0.0
180, 0.0
181, 0.0
182, 0.0
183, 0.0
184, 0.0
185, 0.0
186, 0.0
187, 0.0
188, 0.0
189, 0.0
190, 0.0
191, 0.0
192, 0.0
193, 0.0
194, 0.0
195.0, 0.00029055370187706627
196.0, 0.0013504082279231328
197.0, 0.00040086660461151823
198.0, 0.0018539735500447828
199.0, 0.005867309549408017
200.0, 0.007271986073744772
201.0, 0.01218906840538113
202.0, 0.007113997945937896
203.0, 0.001769647669261096
204.0, 0.012401208548008155
205.0, 0.004714871691130068
206.0, 0.005097152392281446
207.0, 0.029917514607100255
208.0, 0.03545584846171159
209.0, 0.04562042818489543
210.0, 0.04544526823297923
211.0, 0.046100843934017026
212.0, 0.05674914024743402
213.0, 0.06198998604054714
214.0, 0.06661569596062077
215.0, 0.0797475784000279
216.0, 0.09246248698387735
217.0, 0.08541264884296362
218.0, 0.07423057024019325
219.0, 0.07274331389418663
220.0, 0.07221637672769829
221.0, 0.06381065201896532
222.0, 0.06389811160736328
223.0, 0.06797433417252799
224.0, 0.06062574129435479
225.0, 0.04776636751734978
226.0, 0.058009497534739864
227.0, 0.07245685507464102
228.0, 0.07745908674917212
229.0, 0.07169316763941244
230.0, 0.06722111366412967
231.0, 0.0925869985313484
232.0, 0.09432668243022069
233.0, 0.07617511215668023
234.0, 0.05913031823719996
235.0, 0.06613939858791514
236.0, 0.07504728800398099
237.0, 0.07887220771583914
238.0, 0.07700388818581824
239.0, 0.07142904680906477
240.0, 0.06604788577774051
241.0, 0.0739708217348569
242.0, 0.08435805884892063
243.0, 0.08834150926802779
244.0, 0.08579257634156463
245.0, 0.08116485541224959
246.0, 0.09066891165810563
247.0, 0.09639303998274719
248.0, 0.08238043290746175
249.0, 0.08220834045356248
250.0, 0.07910723641637145
251.0, 0.08804119009285266
252.0, 0.09886020947035111
253.0, 0.08183397249778945
254.0, 0.09134233083088948
255.0, 0.09182042777488532
256.0, 0.09800044637802645
257.0, 0.12046088028880524
258.0, 0.11490418758624552
259.0, 0.11931272146622725
260.0, 0.13907936242176128
261.0, 0.15525401505254
262.0, 0.14565444668729205
263.0, 0.15492725713909422
264.0, 0.15987477420288895
265.0, 0.17176909445211633
266.0, 0.19777810333799925
267.0, 0.2182262906936873
268.0, 0.2372294442066224
269.0, 0.26502017602375555
270.0, 0.29787060926801767
271.0, 0.3264533378145609
272.0, 0.3537289011009352
273.0, 0.38408725565097623
274.0, 0.4213818592404039
275.0, 0.4622903745621276
276.0, 0.495062325785106
277.0, 0.5400184420907647
278.0, 0.5845829927231092
279.0, 0.6285040739292587
280.0, 0.6763916668643004
281.0, 0.7211734920536474
282.0, 0.7470230551579208
283.0, 0.776290587457962
284.0, 0.8147311645669343
285.0, 0.846696087566746
286.0, 0.851363306288465
287.0, 0.8500374678831041
288.0, 0.837638866374572
289.0, 0.8124273163913589
290.0, 0.7972334561328198
291.0, 0.7831741328600754
292.0, 0.7497236084973701
293.0, 0.7048954919856449
294.0, 0.6663499837278901
295.0, 0.6297238732652305
296.0, 0.6042598361660318
297.0, 0.5753626772001253
298.0, 0.5367713681112593
299.0, 0.497228893886904
300.0, 0.4764842744898521
301.0, 0.444236435004195
302.0, 0.4102489141224602
303.0, 0.38911283507642547
304.0, 0.37900490874430426
305.0, 0.3500852012877905
306.0, 0.33450747486695614
307.0, 0.321485261582385
308.0, 0.2954729779835368
309.0, 0.2842050530489158
310.0, 0.2511015328296962
311.0, 0.2282966542885878
312.0, 0.22058962749838823
313.0, 0.20788435756972654
314.0, 0.19955058242771512
315.0, 0.17180626527721
316.0, 0.14850388113043977
317.0, 0.1396069888174717
318.0, 0.12954294371634295
319.0, 0.11081475378117138
320.0, 0.09603670053896322
321.0, 0.08158671758179456
322.0, 0.06359632130135517
323.0, 0.05188752662437621
324.0, 0.04532397020793979
325.0, 0.04002323767799995
326.0, 0.03531009451314255
327.0, 0.03014706546878544
328.0, 0.012760753869702005
329.0, 0.015386236474844361
330.0, 0.015988576354439815
331.0, 0.006291769166710506
332.0, 0.005853084602595498
333.0, 0.0021422846871666634
334.0, 0.002003009794559953
335.0, 0.0032256219531460423
336.0, 0.008880933589396149
337.0, 0.026558935548862614
338.0, 0.015267657635525799
339.0, 0.00228580456047562
340.0, 0.001694284295664171
341.0, 0.0028781069267970554
342.0, 0.014878236957607328
343.0, 0.01174624918509671
344.0, 0.012600659572734103
345.0, 0.016886908020035153
346.0, 0.0184557074848069
347.0, 0.026376537118680765
348.0, 0.013126549054271193
349.0, 0.01102436294711836
350.0, 0.01182133047037688
351.0, 0.004707387753084318
352.0, 0.008877896950428437
353.0, 0.008513448501144518
354.0, 0.00205434846146986
355.0, 0.01240513817755343
356.0, 0.02304425751184902
357.0, 0.02415261781067197
358.0, 0.027086210524851228
359.0, 0.034379600323044435
360.0, 0.0421021731204404
361.0, 0.04446854996360989
362.0, 0.042520877462630335
363.0, 0.058519828387229716
364.0, 0.07029694438869567
365.0, 0.07412178417838304
366.0, 0.09806119302599547
367.0, 0.09586744066383573
368.0, 0.1265103390019625
369.0, 0.14759087205131408
370.0, 0.133597597134579
371.0, 0.14243514440840263
372.0, 0.16905693351387324
373.0, 0.18668128041682283
374.0, 0.20376290104241485
375.0, 0.22759834583763744
376.0, 0.23467176652733307
377.0, 0.2673629624894638
378.0, 0.2954176648735608
379.0, 0.3091829709999852
380.0, 0.32196758706492384
381.0, 0.34931494028769955
382.0, 0.37188016952919933
383.0, 0.3886806190829604
384.0, 0.4080450932212092
385.0, 0.43230864407361724
386.0, 0.44605465978198494
387.0, 0.4925691289858025
388.0, 0.5211719846507282
389.0, 0.5284584295784333
390.0, 0.5463220670828242
391.0, 0.5781418576686289
392.0, 0.5960790177004605
393.0, 0.6128414171835188
394.0, 0.6339021788812259
395.0, 0.6509183269483638
396.0, 0.6579977949854945
397.0, 0.6726551532165115
398.0, 0.6793534263945689
399.0, 0.6830910119143564
400.0, 0.697821797864789
401.0, 0.711091986421916
402.0, 0.7156193120339861
403.0, 0.7102147743671782
404.0, 0.7080498994157411
405.0, 0.7166898791360855
406.0, 0.7086869217667897
407.0, 0.6926806666343059
408.0, 0.675482487284753
409.0, 0.6686460029284172
410.0, 0.6691659933382067
411.0, 0.6378280696934704
412.0, 0.6295524356272015
413.0, 0.616356311518984
414.0, 0.5900163738651996
415.0, 0.5648736741692766
416.0, 0.5368142895392151
417.0, 0.5178862224252555
418.0, 0.48942399768710815
419.0, 0.4582272690486152
420.0, 0.4399840744241516
421.0, 0.4264677022182888
422.0, 0.37897846752552017
423.0, 0.3584801772653855
424.0, 0.3487476108642712
425.0, 0.31143452398014626
426.0, 0.2907029896318117
427.0, 0.2678572646235935
428.0, 0.24586871619409584
429.0, 0.23423762949168955
430.0, 0.23042841066641892
431.0, 0.20702665804952275
432.0, 0.18622129338589982
433.0, 0.17256801716035208
434.0, 0.16496851890032524
435.0, 0.1572020307251842
436.0, 0.13842309925034363
437.0, 0.14589884532653463
438.0, 0.14715007852589176
439.0, 0.12945952590291027
440.0, 0.11040986859202268
441.0, 0.11925252292539648
442.0, 0.10666928979345883
443.0, 0.10371774989787129
444.0, 0.104422162103385
445.0, 0.09600313337297403
446.0, 0.08579867352082436
447.0, 0.07551343219575804
448.0, 0.08246133952178775
449.0, 0.08390377977051948
450.0, 0.0750353129308513
451.0, 0.07899368641658161
452.0, 0.07316164859116474
453.0, 0.07509283373501302
454.0, 0.07990425822978234
455.0, 0.08092322603711821
456.0, 0.07743828750777451
457.0, 0.06890877532014462
458.0, 0.06224517725193153
459.0, 0.06673007151270413
460.0, 0.0734833190516477
461.0, 0.07419119670736392
462.0, 0.08992657469022726
463.0, 0.07131089167364961
464.0, 0.06965626948858582
465.0, 0.0785351777036581
466.0, 0.07299859592085076
467.0, 0.07446570956656924
468.0, 0.07364134097201096
469.0, 0.08443614045876247
470.0, 0.0955843328329475
471.0, 0.09807661556254867
472.0, 0.10431155974573447
473.0, 0.1015768977097977
474.0, 0.09586771228263861
475.0, 0.09947836903219345
476.0, 0.10879929967096023
477.0, 0.10693682795306422
478.0, 0.11402677237999953
479.0, 0.13572084938190973
480.0, 0.13601516187056212
481.0, 0.12498735667216035
482.0, 0.1341939005442803
483.0, 0.11803662983513606
484.0, 0.12500450894596163
485.0, 0.1371669713912946
486.0, 0.13648550617488944
487.0, 0.12305779920269917
488.0, 0.13073590755525644
489.0, 0.1382910523311265
490.0, 0.1398317848971069
491.0, 0.14649029591673512
492.0, 0.16292088424108517
493.0, 0.16574177554617298
494.0, 0.15931819200832048
495.0, 0.1512517977291449
496.0, 0.14478405333916336
497.0, 0.14262554109390646
498.0, 0.14662722357610364
499.0, 0.16012370654303681
500.0, 0.16488977617489756
501.0, 0.14747494073225903
502.0, 0.13771921488364552
503.0, 0.15776468937202176
504.0, 0.1613350768977345
505.0, 0.14767225914613039
506.0, 0.140623335168442
507.0, 0.13505373301873774
508.0, 0.12663321419252485
509.0, 0.13025276261822571
510.0, 0.1376854225268069
511.0, 0.13631309979025463
512.0, 0.13012768138413353
513.0, 0.12230027817472384
514.0, 0.10865961244439921
515.0, 0.08601496713622322
516.0, 0.10057797802374308
517.0, 0.10909922525410409
518.0, 0.10377887600522974
519.0, 0.09463722031294419
520.0, 0.07270788341860518
521.0, 0.07761324406819403
522.0, 0.07149059977652975
523.0, 0.057377563297942184
524.0, 0.04998199868869447
525.0, 0.0492557535045937
526.0, 0.039178909639391024
527.0, 0.03204053533546471
528.0, 0.01501632098473802
529.0, 0.0009498604568582596
530.0, 0.0013844610235391106
531.0, 0.01223262606516335
532.0, 0.010631817284358422
533.0, 0.0073390806502641875
534.0, 0.003965278754159174
535.0, 0.0006660749192690261
536.0, 0.0034226128720357303
537.0, 0.013694294491481535
538.0, 0.016848871771224207
539.0, 0.012627113407189158
540.0, 0.01482777848577381
541.0, 0.021017844860645618
542.0, 0.0037865786218646592
543.0, 0.02068604037293869
544.0, 0.02259075584892456
545.0, 0.014916284288828545
546.0, 0.018465100528488942
547.0, 0.01902057932325648
548.0, 0.003472694200469927
549.0, 0.003502884953155855
550.0, 0.007607965081046528
551.0, 0.011317216660829786
552.0, 0.007688328220550277
553.0, 0.007041832989134888
554.0, 0.0007535859996576836
555.0, 0.0147945632856877
556.0, 0.027427835099291618
557.0, 0.025661680757958296
558.0, 0.027456620844581534
559.0, 0.038163554741354216
560.0, 0.038664462807619836
561.0, 0.05222862796076064
562.0, 0.06078463958657329
563.0, 0.04693789348584478
564.0, 0.04819756135552465
565.0, 0.058732331047595655
566.0, 0.06361932401274491
567.0, 0.061796495340971314
568.0, 0.06675717697922871
569.0, 0.08342032440503011
570.0, 0.08021570702224892
571.0, 0.09193172398117475
572.0, 0.0912546479426525
573.0, 0.09469295103077524
574.0, 0.10355731745276119
575.0, 0.08494882014123359
576.0, 0.09126339808998174
577.0, 0.09951642031249905
578.0, 0.10554842677142859
579.0, 0.10842008107100419
580.0, 0.10886872412328771
581.0, 0.1130806357100514
582.0, 0.11938316343211026
583.0, 0.12162516868162654
584.0, 0.1216010423718698
585.0, 0.12354290779455622
586.0, 0.1301021348302738
587.0, 0.14094257149065914
588.0, 0.12036728679700544
589.0, 0.12860424191079503
590.0, 0.1369042081640182
591.0, 0.12336249501232271
592.0, 0.12334976575201562
593.0, 0.11626847325345727
594.0, 0.12449332112072806
595.0, 0.13413373474097953
596.0, 0.12974621945457945
597.0, 0.11607103082585334
598.0, 0.11114514092029819
599.0, 0.10601845254842221
600.0, 0.10630346843619017
601.0, 0.10524515112417365
602.0, 0.10584689472911869
603.0, 0.11124120820900346
604.0, 0.10936655073706465
605.0, 0.10528909383723013
606.0, 0.11002713064388808
607.0, 0.10847580885433797
608.0, 0.10164058369785473
609.0, 0.10303453775800199
610.0, 0.10244576277793127
611.0, 0.10913563917658355
612.0, 0.10599206232399769
613.0, 0.0997892302325319
614.0, 0.10130483177460434
615.0, 0.1105455075969174
616.0, 0.10232677987426482
617.0, 0.11104727234968645
618.0, 0.12479132843527414
619.0, 0.1275671273315783
620.0, 0.12254652847401246
621.0, 0.12439538663976266
622.0, 0.1351485778083193
623.0, 0.12794098524477993
624.0, 0.12544911389743713
625.0, 0.12994995536449006
626.0, 0.13085966777774238
627.0, 0.12489225253856753
628.0, 0.13391854383562174
629.0, 0.14033873719290496
630.0, 0.1432054279245184
631.0, 0.14453420595873354
632.0, 0.1448168810970538
633.0, 0.1435145010130685
634.0, 0.13386539846852127
635.0, 0.13266873679418986
636.0, 0.14300407539621535
637.0, 0.14421487898708268
638.0, 0.1302046857563749
639.0, 0.13208966526433574
640.0, 0.13148861735379724
641.0, 0.12222141046746465
642.0, 0.12605070877392432
643.0, 0.13457495314656895
644.0, 0.13585168229440586
645.0, 0.14721624195946476
646.0, 0.13710992710346176
647.0, 0.1360059275587495
648.0, 0.13630780417363836
649.0, 0.13693331051504065
650.0, 0.1385948148539359
651.0, 0.13078916823405562
652.0, 0.12562735673809264
653.0, 0.13740783394167547
654.0, 0.14331209099258585
655.0, 0.14166874837940602
656.0, 0.142780931005458
657.0, 0.14139357320375054
658.0, 0.12557732461126828
659.0, 0.12145604776338728
660.0, 0.12353349149193317
661.0, 0.12208430072800479
662.0, 0.12069664374024047
663.0, 0.127032064423904
664.0, 0.1232375275680495
665.0, 0.12981929757077704
666.0, 0.12435173224620673
667.0, 0.11321885468473525
668.0, 0.11073003911460441
669.0, 0.11370519054758117
670.0, 0.12447750047226332
671.0, 0.12132090732980451
672.0, 0.10755808340964874
673.0, 0.09784959920447177
674.0, 0.09729624602605373
675.0, 0.09984130885910288
676.0, 0.1099529118568967
677.0, 0.08986096080762893
678.0, 0.07719244285006897
679.0, 0.07218570109304426
680.0, 0.068037064513415
681.0, 0.06971418660793592
682.0, 0.06734864367775678
683.0, 0.07479629462817891
684.0, 0.06650955471461177
685.0, 0.05887395979342938
686.0, 0.05648786157536099
687.0, 0.04563305020348437
688.0, 0.04445500474253319
689.0, 0.03869162458176432
690.0, 0.03907225423400854
691.0, 0.031767025846084
692.0, 0.02845702581946387
693.0, 0.039149192501898286
694.0, 0.0239936423981457
695.0, 0.008892580849510768
696.0, 0.016678056214243557
697.0, 0.019463222003475982
698.0, 0.013782869222055618
699.0, 0.009420888190621767
700.0, 0.00229742755245288
701.0, 0.008926369382137101
702.0, 0.0027844094647723203
703.0, 0.010105309868694037
704.0, 0.019001521774347125
705.0, 0.016919422421522168
706.0, 0.014644231919831243
707.0, 0.0026276987555188215
708.0, 0.0004965650511075892
709.0, 0.008666650494932121
710.0, 0.020190643386418957
711.0, 0.025386992217184403
712.0, 0.021186961066909354
713.0, 0.016707644075967924
714.0, 0.01708016951468331
715.0, 0.01390555064213573
716.0, 0.018122280860016347
717.0, 0.02255464007841583
718.0, 0.017989986906457884
719.0, 0.013812803961602277
720.0, 0.01234081140179886
721.0, 0.012434813032626562
722.0, 0.005960840957906317
723.0, 0.00441693426312194
724.0, 0.012166705937324414
725.0, 0.01523469446801932
726.0, 0.015948124253339885
727.0, 0.006343480007576907
728.0, 0.00800068159426286
729.0, 0.01775412510643528
730.0, 0.02089461689432949
731.0, 0.017735606594351614
732.0, 0.02334958308334241
733.0, 0.019222685984218807
734.0, 0.034116130964774546
735.0, 0.03807999398198565
736.0, 0.02913479546761096
737.0, 0.029320274337646487
738.0, 0.042843204380324414
739.0, 0.0315384618932667
740.0, 0.042172362021043165
741.0, 0.055478348455201436
742.0, 0.05826542576153229
743.0, 0.055088448068184255
744.0, 0.057657427802212974
745.0, 0.07102567083543368
746.0, 0.07530358467994343
747.0, 0.06615339409956666
748.0, 0.06347530754525664
749.0, 0.07199859143266989
750.0, 0.08218991474642588
751.0, 0.08301524131600148
752.0, 0.07922703880184653
753.0, 0.08772728686452963
754.0, 0.08228446437706655
755.0, 0.09082810987676898
756.0, 0.09193956179150932
757.0, 0.07569364210339294
758.0, 0.08904932285392869
759.0, 0.0930225497781567
760.0, 0.0901312546693104
761.0, 0.08522445037964882
762.0, 0.09527649961832133
763.0, 0.11017157456583994
764.0, 0.11002855951388207
765.0, 0.11654151492854316
766.0, 0.11489328040676189
767.0, 0.11212694289094076
768.0, 0.112657755772294
769.0, 0.11524201006665788
770.0, 0.11659131225655443
771.0, 0.11681677045167371
772.0, 0.12136672222877963
773.0, 0.12707243140116617
774.0, 0.13017488228123203
775.0, 0.13457220511854132
776.0, 0.14152556793027837
777.0, 0.14488162524653356
778.0, 0.13841914895639604
779.0, 0.1337249744762967
780.0, 0.12786686663834404
781.0, 0.12719512903902716
782.0, 0.133061191733373
783.0, 0.13791735538487557
784.0, 0.1399042666118306
785.0, 0.1478291368495902
786.0, 0.14644262453448142
787.0, 0.13376577243835142
788.0, 0.1362565317924194
789.0, 0.1507157581840595
790.0, 0.16258931387905323
791.0, 0.16432940618816005
792.0, 0.15884035860621798
793.0, 0.15133903342944055
794.0, 0.1688386136787592
795.0, 0.16421991767128333
796.0, 0.1650522653193346
797.0, 0.17657144748087478
798.0, 0.1726286150972039
799.0, 0.18339647492724906
800.0, 0.17937221400679076
801.0, 0.18874694182618243
802.0, 0.1852818602699555
803.0, 0.18059567512944033
804.0, 0.19237161270583786
805.0, 0.20884582727818388
806.0, 0.2044353958475385
807.0, 0.22427092461706713
808.0, 0.22283067646076465
809.0, 0.2308123842523075
810.0, 0.23563080313942658
811.0, 0.23297695573718125
812.0, 0.2485107688605725
813.0, 0.2799495736164259
814.0, 0.2956007730813963
815.0, 0.3127926763917308
816.0, 0.3112800614226677
817.0, 0.30098170946763697
818.0, 0.3112694131969685
819.0, 0.3417451163130152
820.0, 0.3493896750486406
821.0, 0.3591688585357358
822.0, 0.3750169520050859
823.0, 0.3905917703663266
824.0, 0.4017567001985228
825.0, 0.4107800025226807
826.0, 0.42306969730185573
827.0, 0.4412258012372792
828.0, 0.44308393124532214
829.0, 0.4591430925685976
830.0, 0.48800138765513307
831.0, 0.5000488161639813
832.0, 0.5052493812489823
833.0, 0.5237829573486801
834.0, 0.533129164019231
835.0, 0.5709332221293062
836.0, 0.5784042514301968
837.0, 0.5946031573111582
838.0, 0.6086735446536352
839.0, 0.6134889225778166
840.0, 0.6291603546022999
841.0, 0.6644262283099807
842.0, 0.679128104115067
843.0, 0.689031777272479
844.0, 0.7088561966876086
845.0, 0.7280385924226962
846.0, 0.7396227582422277
847.0, 0.7551988607839404
848.0, 0.7810022012423887
849.0, 0.7931264697015159
850.0, 0.8197642090883808
851.0, 0.828928652854254
852.0, 0.8440841860522212
853.0, 0.8616367173180447
854.0, 0.8780757604953825
855.0, 0.9091663946212972
856.0, 0.9337209511125836
857.0, 0.9425677105424469
858.0, 0.959930619795367
859.0, 0.965682059656019
860.0, 0.9820961104956678
861.0, 0.9977249797818056
862.0, 0.9909956711525721
863.0, 0.9872302308333768
864.0, 0.9852602157177086
865.0, 0.9988223292259767
866.0, 0.972781825361826
867.0, 0.9638766265286604
868.0, 0.9606249630457465
869.0, 0.938353242096203
870.0, 0.9164705106669144
871.0, 0.8713332774557423
872.0, 0.8408534563666478
873.0, 0.7990323774270727
874.0, 0.7719568492141339
875.0, 0.7343923959575636
876.0, 0.6808931684701248
877.0, 0.635666532166984
878.0, 0.5948147793402495
879.0, 0.5527544367143521
880.0, 0.499619196634877
881.0, 0.4539031472185357
882.0, 0.4064236061933523
883.0, 0.36252014010772593
884.0, 0.32870549948830513
885.0, 0.29752465034728587
886.0, 0.26568682331693955
887.0, 0.22397643016616292
888.0, 0.19256691263816958
889.0, 0.16284518995413047
890.0, 0.1345697202392256
891.0, 0.11268152524014491
892.0, 0.09707938834718702
893.0, 0.08118882973689462
894.0, 0.05757767205380789
895.0, 0.0517339725907222
896.0, 0.03129840651112199
897.0, 0.024225104286149567
898.0, 0.02044369141740218
899.0, 0.011888600617250356
900.0, 0.007312458858758662
901.0, 0.002406122711081077
902.0, 0.010488609880389287
903.0, 0.014974180940839873
904.0, 0.015156064731882581
905.0, 0.017756845699643805
906.0, 0.023058390185888424
907.0, 0.02419132492248822
908.0, 0.018328906034298955
909.0, 0.012776452090291731
910.0, 0.027464933499127552
911.0, 0.01276920553240329
912.0, 0.00953998457430322
913.0, 0.01493738557468642
914.0, 0.019360265445596
915.0, 0.01957589728110471
916.0, 0.013833186545344997
917.0, 0.0167678066867661
918.0, 0.011063589946288985
919.0, 0.012961152526361345
920.0, 0.003492687233587514
921.0, 0.009854521712596282
922.0, 0.014009246332398445
923.0, 0.007765206837784288
924.0, 0.0013588601995837741
925.0, 0.009479978537671276
926.0, 0.02009069951154991
927.0, 0.0178336834311263
928.0, 0.016188235410446235
929.0, 0.018704096338088203
930.0, 0.014356157132447913
931.0, 0.011338726823242109
932.0, 0.024380687140686808
933.0, 0.026998776648731085
934.0, 0.02619006445300992
935.0, 0.03834642710262015
936.0, 0.045729626918204744
937.0, 0.04350638988083856
938.0, 0.03510734617867029
939.0, 0.032868611428441843
940.0, 0.04284016310157343
941.0, 0.03823723561775315
942.0, 0.03775256031497102
943.0, 0.04679051311928058
944.0, 0.049100584714661985
945.0, 0.04374773396780178
946.0, 0.04356780871016459
947.0, 0.05552760760731852
948.0, 0.06917268728803133
949.0, 0.06075881294435199
950.0, 0.05827387166823144
951.0, 0.0591033193618498
952.0, 0.054887558728050845
953.0, 0.06643669686571169
954.0, 0.07418853907902588
955.0, 0.07223154650181693
956.0, 0.07766610335142973
957.0, 0.07615021270441878
958.0, 0.07295367649428887
959.0, 0.07706083997485887
960.0, 0.07732940021751143
961.0, 0.07763893703859613
962.0, 0.07508705047283026
963.0, 0.07578963120467452
964.0, 0.08342869732993739
965.0, 0.08466245936889101
966.0, 0.08068831095199884
967.0, 0.08155093052973574
968.0, 0.07582596996576599
969.0, 0.07581443909437384
970.0, 0.07397295055857124
971.0, 0.07123228200646627
972.0, 0.07194882609731379
973.0, 0.07040900949645049
974.0, 0.0656656229274069
975.0, 0.05361494451538478
976.0, 0.06348724403291364
977.0, 0.05741434427631448
978.0, 0.0486280848444525
979.0, 0.052617767882270204
980.0, 0.05556781888647058
981.0, 0.04743435723045435
982.0, 0.045578245705500633
983.0, 0.04629569528040379
984.0, 0.04739497126893606
985.0, 0.05017250650233549
986.0, 0.05431321013125851
987.0, 0.04748921776640089
988.0, 0.04262108049829483
989.0, 0.046270699495070775
990.0, 0.046287255306913494
991.0, 0.040834003939641164
992.0, 0.039320668689999096
993.0, 0.04098207439892218
994.0, 0.035574079857121625
995.0, 0.045602414764885836
996.0, 0.05013796553899426
997.0, 0.04436669016763972
998.0, 0.040983502929419734
999.0, 0.03884943792942413
1000.0, 0.04251033002236569
1001.0, 0.0350318384669608
1002.0, 0.026142416368728095
1003.0, 0.03329982000188038
1004.0, 0.043975524559194734
1005.0, 0.03838006779603492
1006.0, 0.03145279224244081
1007.0, 0.03753696179826958
1008.0, 0.03482945703966008
1009.0, 0.027207089427420755
1010.0, 0.034947189142642686
1011.0, 0.029094139245895514
1012.0, 0.030325409740923445
1013.0, 0.028443160343286658
1014.0, 0.03038485237432527
1015.0, 0.029991284178711358
1016.0, 0.02121615540063426
1017.0, 0.023907840561300322
1018.0, 0.03585756931330392
1019.0, 0.031610890769332003
1020.0, 0.02606076307211097
1021.0, 0.016721328570202577
1022.0, 0.020490267201491826
1023.0, 0.01770216284580425
1024.0, 0.011838568870005674
1025.0, 0.017922871201134748
1026.0, 0.020560723235460224
1027.0, 0.021131839446945
1028.0, 0.018818082340009645
1029.0, 0.0384190388442832
1030.0, 0.0194702328261677
1031.0, 0.014696544463169252
1032.0, 0.019722684842967478
1033.0, 0.019198461799828953
1034.0, 0.019409017927242516
1035.0, 0.01934576860935484
1036.0, 0.008941143049086825
1037.0, 0.013440105725179499
1038.0, 0.0027665221919176666
1039.0, 0.014256808212809603
1040.0, 0.018525457130398926
1041.0, 0.010816767966665657
1042.0, 0.0063361745668775995
1043.0, 0.010439541150475594
1044.0, 0.016311662507500192
1045.0, 0.014584068715019568
1046.0, 0.007575238061604996
1047.0, 0.008455273159536793
1048.0, 0.014340089202327194
1049.0, 0.00852431696653694
1050.0, 0.005788189028817228
1051.0, 0.007230733932634387
1052.0, 0.009261695286821404
1053.0, 0.009400418046552367
1054.0, 0.0014188339567955748
1055.0, 0.0004971023995168898
1056.0, 0.008565970702994532
1057.0, 0.009631133221047453
1058.0, 0.015813414861528638
1059.0, 0.013948278557674556
1060.0, 0.004307551071619216
1061.0, 0.004441887994263218
1062.0, 0.008967094539969302
1063.0, 0.004836044577190522
1064.0, 0.008704786227390718
1065.0, 0.0036006719785138023
1066.0, 0.004446272523822413
1067.0, 0.00996123844885832
1068.0, 0.006761635867659542
1069.0, 0.0026242259208696874
1070.0, 0.005015057465612686
1071.0, 0.009330609160567084
1072.0, 0.01061297917155323
1073.0, 0.006827580312458341
1074.0, 0.007656392518652902
1075.0, 0.011239933663945626
1076.0, 0.0013643975828567041
1077.0, 0.007599288271092156
1078.0, 0.005907305786510779
1079.0, 0.00849435977775471
1080.0, 0.010813028301796887
1081.0, 0.012332812847671591
1082.0, 0.014455710295369288
1083.0, 0.010741930603652744
1084.0, 0.01944655781848812
1085.0, 0.008018339472486513
1086.0, 0.006914054181131516
1087.0, 0.004305825545320132
1088.0, 0.0012833054453359248
1089.0, 0.0037567604580246786
1090.0, 0.008043446573906909
1091.0, 0.0031611269444877838
1092.0, 0.0026231829433703206
1093.0, 0.013191052790553345
1094.0, 0.012183920842652718
1095.0, 0.008339058663901378
1096.0, 0.012969286666190915
1097.0, 0.011331221399522645
1098.0, 0.005260526095851945
1099.0, 0.001554327721008323
1100.0, 0.002650210509759846
1101.0, 0.0058490748797002095
1102.0, 0.00033394946594864414
1103.0, 0.0032009364105068457
1104.0, 0.00880960628411232
1105.0, 0.008980678223413058
1106.0, 0.009405794384405669
1107.0, 0.0037368915844397813
1108.0, 0.005580921703516104
1109.0, 0.0036150235940190555
1110.0, 0.00830086961459278
1111.0, 0.0037355323024112967
1112.0, 0.0025423411024538857
1113.0, 0.003679359799045277
1114.0, 0.0013337412974831456
1115.0, 0.0014661925705148373
1116.0, 0.0013762615799746197
1117.0, 0.0010991523487443445
1118.0, 0.007474209169101882
1119.0, 0.003819519351613745
1120.0, 0.003292053406427329
1121.0, 0.0024409755314122542
1122.0, 0.0034775368490247397
1123.0, 0.007086978519593021
1124.0, 0.0019017434011737555
1125.0, 0.0021662850306531376
1126.0, 0.004654367767644162
1127.0, 0.0026416647060587793
1128.0, 0.0021736444972123383
1129.0, 0.007553842347334972
1130.0, 0.008440783024354182
1131.0, 0.0037560906527373253
1132.0, 0.009145660449185645
1133.0, 0.012556883343739639
1134.0, 0.00528963992318129
1135.0, 0.004426284704279264
1136.0, 0.002313933303934581
1137.0, 0.012114231253903304
1138.0, 0.006328219405785415
1139.0, 0.01215244772225541
1140.0, 0.009692612884506567
1141.0, 0.005415183164658511
1142.0, 0.009414628078310493
1143.0, 0.011276875917608665
1144.0, 0.009774203762964723
1145.0, 0.007030840964091327
1146.0, 0.0007426897306217963
1147.0, 0.006059810353030619
1148.0, 0.0055171375523509975
1149.0, 0.007488982062117907
1150.0, 0.0005091772191250354
1151.0, 0.0019789696557132126
1152.0, 0.009955343666648193
1153.0, 0.006832168816286986
1154.0, 0.0019996347939463975
1155.0, 0.004499897343490046
1156.0, 0.007228957178584228
1157.0, 0.004412815435561249
1158.0, 0.0003400380929168085
1159.0, 0.0019387926183811344
1160.0, 0.006043997878183562
1161.0, 0.003444660526026512
1162.0, 0.015190824622266084
1163.0, 0.014058482056115325
1164.0, 0.00756318037601107
1165.0, 0.006401030695328928
1166.0, 0.004533156507235971
1167.0, 0.0032284396888535762
1168.0, 0.006420310049709783
1169.0, 0.009231085466245093
1170.0, 0.006435524906489478
1171.0, 0.012428859651093787
1172.0, 0.018554708859380372
1173.0, 0.008228336641710542
1174.0, 0.002979400975814341
1175.0, 0.006707010052703795
1176.0, 0.007908544428650015
1177.0, 0.007789413932161469
1178.0, 0.00632223378817993
1179.0, 0.007021318437451449
1180.0, 0.01202065556010813
1181.0, 0.0064161441894653596
1182.0, 0.004215443555415698
1183.0, 0.008718487902602741
1184.0, 0.017215726328699176
1185.0, 0.010642671420164626
1186.0, 0.005388125310471749
1187.0, 0.010496359400818785
1188.0, 0.01214341532322231
1189.0, 0.0018299457075209124
1190.0, 0.0059066219692146945
1191.0, 0.004613340213034372
1192.0, 0.012233717222196279
1193.0, 0.00919468743669662
1194.0, 0.016711368060925116
1195.0, 0.005877155142223938
1196.0, 0.007698932455065666
1197.0, 0.010351668305583924
1198.0, 0.0072457268220080286
1199.0, 0.0010879677596692268
1200.0, 0.0029395955618031033
1201.0, 0.011545541898216997
1202.0, 0.015175069542013793
1203.0, 0.013423953917708469
1204.0, 0.009975555034340606
1205.0, 0.006111465451026577
1206.0, 0.017929866706718284
1207.0, 0.013567252515816017
1208.0, 0.009225357949959948
1209.0, 0.007850872558090695
1210.0, 0.0103248393662629
1211.0, 0.013046279829582784
1212.0, 0.00790246231874961
1213.0, 0.020509467928593716
1214.0, 0.016766822287013674
1215.0, 0.005687166537344179
1216.0, 0.01611132778986237
1217.0, 0.018823847423312487
1218.0, 0.012395232955066698
1219.0, 0.007883824394360132
1220.0, 0.0013650550180972897
1221.0, 0.0010804133594368149
1222.0, 0.009550772901477234
1223.0, 0.009514621213986775
1224.0, 0.021324822321571374
1225.0, 0.015868423996268262
1226.0, 0.015545762175596332
1227.0, 0.02387352842820362
1228.0, 0.018010040323090677
1229.0, 0.0069236074444241355
1230.0, 0.0093154707843806
1231.0, 0.01904325689657197
1232.0, 0.010252833209814982
1233.0, 0.010102545902793181
1234.0, 0.006836897127966529
1235.0, 0.01457826649403653
1236.0, 0.01886801786388378
1237.0, 0.017548025216636925
1238.0, 0.004212222384238427
1239.0, 0.010262532916170903
1240.0, 0.01644815917262034
1241.0, 0.010847785560141371
1242.0, 0.013703488534137715
1243.0, 0.013900517666476542
1244.0, 0.00344050081311209
1245.0, 0.010494813689007725
1246.0, 0.006744327039805894
1247.0, 0.009814226746251188
1248.0, 0.0046425008834690236
1249.0, 0.009863946742778478
1250.0, 0.013050079445557817
1251.0, 0.014104451070212541
1252.0, 0.013147694637811144
1253.0, 0.006650682769128051
1254.0, 0.0006424507073712982
1255.0, 0.005222926448655875
1256.0, 0.01073006165085205
1257.0, 0.009670584561176643
1258.0, 0.013867643618327577
1259.0, 0.003936893760790924
1260.0, 0.0026174641504388965
1261.0, 0.011819889338924222
1262.0, 0.009187428338710767
1263.0, 0.005247175734062497
1264.0, 0.01147029758194834
1265.0, 0.011901109699254439
1266.0, 0.002210296329025752
1267.0, 0.008435231009465478
1268.0, 0.015474933593905048
1269.0, 0.013786591714358306
1270.0, 0.012610352665227096
1271.0, 0.00832957056230852
1272.0, 0.007167391374442172
1273.0, 0.011233528848485365
1274.0, 0.013020632415964302
1275.0, 0.012613554585074141
1276.0, 0.021907570465176673
1277.0, 0.019050796431115558
1278.0, 0.01796663480554243
1279.0, 0.02380999153631676
1280.0, 0.013784974517678378
1281.0, 0.013553957850789815
1282.0, 0.014970212438498179
1283.0, 0.014481584770664205
1284.0, 0.012907951650385982
1285.0, 0.006852600960949731
1286.0, 0.009110952818336472
1287.0, 0.01550020922793037
1288.0, 0.0076637462477036926
1289.0, 0.0026608418052418165
1290.0, 0.005712530889894392
1291.0, 0.008100480726751902
1292.0, 0.014680205210916673
1293.0, 0.011494308370462072
1294.0, 0.009158112969013883
1295.0, 0.004455973166915617
1296.0, 0.007327068684807568
1297.0, 0.015385397574205309
1298.0, 0.013351321162923408
1299.0, 0.005352761343712348
1300.0, 0.001905525336256239
1301.0, 0.001121842729927645
1302, 0.0
1303, 0.0
1304, 0.0
1305, 0.0
1306, 0.0
1307, 0.0
1308, 0.0
1309, 0.0
1310, 0.0
1311, 0.0
1312, 0.0
1313, 0.0
1314, 0.0
1315, 0.0
1316, 0.0
1317, 0.0
1318, 0.0
1319, 0.0
1320, 0.0
1321, 0.0
1322, 0.0
1323, 0.0
1324, 0.0
1325, 0.0
1326, 0.0
1327, 0.0
1328, 0.0
1329, 0.0
1330, 0.0
1331, 0.0
1332, 0.0
1333, 0.0
1334, 0.0
1335, 0.0
1336, 0.0
1337, 0.0
1338, 0.0
1339, 0.0
1340, 0.0
1341, 0.0
1342, 0.0
1343, 0.0
1344, 0.0
1345, 0.0
1346, 0.0
1347, 0.0
1348, 0.0
1349, 0.0
1350, 0.0
1351, 0.0
1352, 0.0
1353, 0.0
1354, 0.0
1355, 0.0
1356, 0.0
1357, 0.0
1358, 0.0
1359, 0.0
1360, 0.0
1361, 0.0
1362, 0.0
1363, 0.0
1364, 0.0
1365, 0.0
1366, 0.0
1367, 0.0
1368, 0.0
1369, 0.0
1370, 0.0
1371, 0.0
1372, 0.0
1373, 0.0
1374, 0.0
1375, 0.0
1376, 0.0
1377, 0.0
1378, 0.0
1379, 0.0
1380, 0.0
1381, 0.0
1382, 0.0
1383, 0.0
1384, 0.0
1385, 0.0
1386, 0.0
1387, 0.0
1388, 0.0
1389, 0.0
1390, 0.0
1391, 0.0
1392, 0.0
1393, 0.0
1394, 0.0
1395, 0.0
1396, 0.0
1397, 0.0
1398, 0.0
1399, 0.0
1400, 0.0
1401, 0.0
1402, 0.0
1403, 0.0
1404, 0.0
1405, 0.0
1406, 0.0
1407, 0.0
1408, 0.0
1409, 0.0
1410, 0.0
1411, 0.0
1412, 0.0
1413, 0.0
1414, 0.0
1415, 0.0
1416, 0.0
1417, 0.0
1418, 0.0
1419, 0.0
1420, 0.0
1421, 0.0
1422, 0.0
1423, 0.0
1424, 0.0
1425, 0.0
1426, 0.0
1427, 0.0
1428, 0.0
1429, 0.0
1430, 0.0
1431, 0.0
1432, 0.0
1433, 0.0
1434, 0.0
1435, 0.0
1436, 0.0
1437, 0.0
1438, 0.0
1439, 0.0
1440, 0.0
1441, 0.0
1442, 0.0
1443, 0.0
1444, 0.0
1445, 0.0
1446, 0.0
1447, 0.0
1448, 0.0
1449, 0.0
1450, 0.0
1451, 0.0
1452, 0.0
1453, 0.0
1454, 0.0
1455, 0.0
1456, 0.0
1457, 0.0
1458, 0.0
1459, 0.0
1460, 0.0
1461, 0.0
1462, 0.0
1463, 0.0
1464, 0.0
1465, 0.0
1466, 0.0
1467, 0.0
1468, 0.0
1469, 0.0
1470, 0.0
1471, 0.0
1472, 0.0
1473, 0.0
1474, 0.0
1475, 0.0
1476, 0.0
1477, 0.0
1478, 0.0
1479, 0.0
1480, 0.0
1481, 0.0
1482, 0.0
1483, 0.0
1484, 0.0
1485, 0.0
1486, 0.0
1487, 0.0
1488, 0.0
1489, 0.0
1490, 0.0
1491, 0.0
1492, 0.0
1493, 0.0
1494, 0.0
1495, 0.0
1496, 0.0
1497, 0.0
1498, 0.0
1499, 0.0
1500, 0.0
1501, 0.0
1502, 0.0
1503, 0.0
1504, 0.0
1505, 0.0
1506, 0.0
1507, 0.0
1508, 0.0
1509, 0.0
1510, 0.0
1511, 0.0
1512, 0.0
1513, 0.0
1514, 0.0
1515, 0.0
1516, 0.0
1517, 0.0
1518, 0.0
1519, 0.0
1520, 0.0
1521, 0.0
1522, 0.0
1523, 0.0
1524, 0.0
1525, 0.0
1526, 0.0
1527, 0.0
1528, 0.0
1529, 0.0
1530, 0.0
1531, 0.0
1532, 0.0
1533, 0.0
1534, 0.0
1535, 0.0
1536, 0.0
1537, 0.0
1538, 0.0
1539, 0.0
1540, 0.0
1541, 0.0
1542, 0.0
1543, 0.0
1544, 0.0
1545, 0.0
1546, 0.0
1547, 0.0
1548, 0.0
1549, 0.0
1550, 0.0
1551, 0.0
1552, 0.0
1553, 0.0
1554, 0.0
1555, 0.0
1556, 0.0
1557, 0.0
1558, 0.0
1559, 0.0
1560, 0.0
1561, 0.0
1562, 0.0
1563, 0.0
1564, 0.0
1565, 0.0
1566, 0.0
1567, 0.0
1568, 0.0
1569, 0.0
1570, 0.0
1571, 0.0
1572, 0.0
1573, 0.0
1574, 0.0
1575, 0.0
1576, 0.0
1577, 0.0
1578, 0.0
1579, 0.0
1580, 0.0
1581, 0.0
1582, 0.0
1583, 0.0
1584, 0.0
1585, 0.0
1586, 0.0
1587, 0.0
1588, 0.0
1589, 0.0
1590, 0.0
1591, 0.0
1592, 0.0
1593, 0.0
1594, 0.0
1595, 0.0
1596, 0.0
1597, 0.0
1598, 0.0
1599, 0.0
