30, 0.0
31, 0.0
32, 0.0
33, 0.0
34, 0.0
35, 0.0
36, 0.0
37, 0.0
38, 0.0
39, 0.0
40, 0.0
41, 0.0
42, 0.0
43, 0.0
44, 0.0
45, 0.0
46, 0.0
47, 0.0
48, 0.0
49, 0.0
50, 0.0
51, 0.0
52, 0.0
53, 0.0
54, 0.0
55, 0.0
56, 0.0
57, 0.0
58, 0.0
59, 0.0
60, 0.0
61, 0.0
62, 0.0
63, 0.0
64, 0.0
65, 0.0
66, 0.0
67, 0.0
68, 0.0
69, 0.0
70, 0.0
71, 0.0
72, 0.0
73, 0.0
74, 0.0
75, 0.0
76, 0.0
77, 0.0
78, 0.0
79, 0.0
80, 0.0
81, 0.0
82, 0.0
83, 0.0
84, 0.0
85, 0.0
86, 0.0
87, 0.0
88, 0.0
89, 0.0
90, 0.0
91, 0.0
92, 0.0
93, 0.0
94, 0.0
95, 0.0
96, 0.0
97, 0.0
98, 0.0
99, 0.0
100, 0.0
101, 0.0
102, 0.0
103, 0.0
104, 0.0
105, 0.0
106, 0.0
107, 0.0
108, 0.0
109, 0.0
110, 0.0
111, 0.0
112, 0.0
113, 0.0
114, 0.0
115, 0.0
116, 0.0
117, 0.0
118, 0.0
119, 0.0
120, 0.0
121, 0.0
122, 0.0
123, 0.0
124, 0.0
125, 0.0
126, 0.0
127, 0.0
128, 0.0
129, 0.0
130, 0.0
131, 0.0
132, 0.0
133, 0.0
134, 0.0
135, 0.0
136, 0.0
137, 0.0
138, 0.0
139, 0.0
140, 0.0
141, 0.0
142, 0.0
143, 0.0
144, 0.0
145, 0.0
146, 0.0
147, 0.0
148, 0.0
149, 0.0
150, 0.0
151, 0.0
152, 0.0
153, 0.0
154, 0.0
155, 0.0
156, 0.0
157, 0.0
158, 0.0
159, 0.0
160, 0.0
161, 0.0
162, 0.0
163, 0.0
164, 0.0
165, 0.0
166, 0.0
167, 0.0
168, 0.0
169, 0.0
170, 0.0
171, 0.0
172, 0.0
173, 0.0
174, 0.0
175, 0.0
176, 0.0
177, 0.0
178, 0.0
179, 0.0
180.0, 0.0016079213144135234
181.0, 0.004446833787351277
182.0, 0.006184093983473768
183.0, 0.002798517365421658
184.0, 0.002297369024942284
185.0, 0.017356620576704063
186.0, 0.038941624211018114
187.0, 0.056627183830894004
188.0, 0.06737380770366173
189.0, 0.07696025870895588
190.0, 0.10035688002424165
191.0, 0.11755975187896477
192.0, 0.13649715319861128
193.0, 0.1636483153743473
194.0, 0.16853229894425498
195.0, 0.18577718554060407
196.0, 0.21285581120582814
197.0, 0.23730281336798842
198.0, 0.2509758782737399
199.0, 0.25660175827211257
200.0, 0.2750848639917032
201.0, 0.2977966480483982
202.0, 0.3062263444690008
203.0, 0.3131094670407506
204.0, 0.3259327199256791
205.0, 0.3447471017898344
206.0, 0.36211169418461403
207.0, 0.36593197395945304
208.0, 0.37292306042274453
209.0, 0.3816292512605054
210.0, 0.3914924441624849
211.0, 0.4035542021789834
212.0, 0.39596679040113947
213.0, 0.4017403101262077
214.0, 0.40259619220062043
215.0, 0.38814032263708476
216.0, 0.39346251362721973
217.0, 0.4068844347543793
218.0, 0.4156091016997287
219.0, 0.41683178947371785
220.0, 0.4170457134611976
221.0, 0.4211235146238105
222.0, 0.41845891130757606
223.0, 0.4142972788757858
224.0, 0.4127463312527067
225.0, 0.3990853527704281
226.0, 0.3677615415191371
227.0, 0.33193190327127575
228.0, 0.2918579151450504
229.0, 0.2384925352716547
230.0, 0.19461011981980866
231.0, 0.15758021477927123
232.0, 0.13031775871255355
233.0, 0.11321685517174798
234.0, 0.09294795948483615
235.0, 0.0825833543308379
236.0, 0.07220033348420211
237.0, 0.057029234477227936
238.0, 0.04094989346184665
239.0, 0.028402431465194344
240.0, 0.0272478994425616
241.0, 0.025335014928476816
242.0, 0.012734717893440021
243.0, 0.006195643243387266
244.0, 0.005322935601249207
245.0, 0.002611607984903285
246.0, 0.009289586404318408
247.0, 0.01540848816693415
248.0, 0.003120715122465087
249.0, 0.0007883639496835126
250.0, 0.0040745701819336535
251.0, 0.00513145715966907
252.0, 0.0124117019766951
253.0, 0.010508029078131647
254.0, 0.014188603851350061
255.0, 0.02442439413423193
256.0, 0.026670041520211667
257.0, 0.03769343575452357
258.0, 0.04657571453854323
259.0, 0.05486418827403826
260.0, 0.06586208099215113
261.0, 0.07750435051747255
262.0, 0.08023268782642656
263.0, 0.08816571793787789
264.0, 0.09859097238092249
265.0, 0.1000232833298127
266.0, 0.09822848551622415
267.0, 0.1094873500213003
268.0, 0.1244410479522648
269.0, 0.13251409464337272
270.0, 0.1303217691268854
271.0, 0.13616969704695103
272.0, 0.14345274267411956
273.0, 0.1394523082904258
274.0, 0.12708431730142966
275.0, 0.13774845291667376
276.0, 0.1316505261016035
277.0, 0.12411437235694792
278.0, 0.12396542296954831
279.0, 0.12236711496223136
280.0, 0.10086914213517428
281.0, 0.0985169391124055
282.0, 0.10425329971561632
283.0, 0.10357407216240462
284.0, 0.10296049466448898
285.0, 0.09992263956645883
286.0, 0.0942333067759044
287.0, 0.08786358174959612
288.0, 0.08303790023501012
289.0, 0.08002194802201032
290.0, 0.08020676927857841
291.0, 0.076106727536559
292.0, 0.07077539597766247
293.0, 0.07464268965882774
294.0, 0.07559726892618229
295.0, 0.07812666673137546
296.0, 0.07687924823720636
297.0, 0.06660508243177929
298.0, 0.05032306640723171
299.0, 0.046409032222375086
300.0, 0.048320483017860315
301.0, 0.04250496670849106
302.0, 0.025699855936689747
303.0, 0.01728704458921642
304.0, 0.008653706351809632
305.0, 0.006031628689597758
306.0, 0.00817737898156794
307.0, 0.0025316429146382455
308.0, 0.008759731297277371
309.0, 0.006495486184830862
310.0, 0.0031575967476563816
311.0, 0.00662968650390863
312.0, 0.0046521337471055885
313.0, 0.0007383803718681965
314.0, 0.004357941696630291
315.0, 0.01035137277455494
316.0, 0.009114393007893158
317.0, 0.0027390180212136686
318.0, 0.0023886992352771547
319.0, 0.0021490274818462053
320.0, 0.006045308129969299
321.0, 0.0006458485636368631
322.0, 0.001328075759857673
323.0, 0.004821610256809395
324.0, 0.010130192662441927
325.0, 0.01260165459031168
326.0, 0.01725095392117361
327.0, 0.015108900964939548
328.0, 0.016908354909350696
329.0, 0.02356181915264661
330.0, 0.0299505921669
331.0, 0.028011338147248918
332.0, 0.03454939083295509
333.0, 0.04603730242849912
334.0, 0.05410252275050532
335.0, 0.054705751863923825
336.0, 0.05754378434380523
337.0, 0.05721474516775246
338.0, 0.06220536126925213
339.0, 0.07000822598404886
340.0, 0.07324719504689686
341.0, 0.07916208026709344
342.0, 0.07125826313082327
343.0, 0.06619636643073086
344.0, 0.06652030367002094
345.0, 0.0603312862557642
346.0, 0.06116492261521974
347.0, 0.06758379396122911
348.0, 0.06539548989287462
349.0, 0.05485754097516884
350.0, 0.053882635719393675
351.0, 0.05696520391682919
352.0, 0.05448170787772113
353.0, 0.04920702915629406
354.0, 0.04720838839897748
355.0, 0.048994883366580026
356.0, 0.049567233116918144
357.0, 0.039113708696605715
358.0, 0.024901281273270473
359.0, 0.018632690781106725
360.0, 0.026805455481143436
361.0, 0.020492385438299978
362.0, 0.014293651057979206
363.0, 0.011383934523303718
364.0, 0.008481625132832316
365.0, 0.0052216115066264675
366.0, 0.006138248841933016
367.0, 0.004417892553386201
368.0, 0.00743855616731876
369.0, 0.004492454584464304
370.0, 0.0020551885124373065
371.0, 0.001486410540638519
372.0, 0.005326667311457767
373.0, 0.011504377654170374
374.0, 0.008706661106135882
375.0, 0.0025114782777264375
376.0, 0.005099998334089054
377.0, 0.0039976808738792485
378.0, 0.003261684078889677
379.0, 0.00684642626374447
380.0, 0.011265181866385615
381.0, 0.014423591810685445
382.0, 0.018485840815920994
383.0, 0.023333930380324424
384.0, 0.02734852006699262
385.0, 0.03518222743157401
386.0, 0.03882512546846249
387.0, 0.03760741532079425
388.0, 0.035882053696177696
389.0, 0.038316138635243725
390.0, 0.03861717572071938
391.0, 0.04347559889468624
392.0, 0.04808359527762826
393.0, 0.04909339991289585
394.0, 0.04871082645139355
395.0, 0.045970282123297596
396.0, 0.05121258664098865
397.0, 0.06731748352420532
398.0, 0.08303454715288873
399.0, 0.08204224174359395
400.0, 0.08817549429238941
401.0, 0.09404719543748244
402.0, 0.10416987053397526
403.0, 0.12064944519475855
404.0, 0.1386233457692088
405.0, 0.14919999500155684
406.0, 0.1684431343037473
407.0, 0.18589887635379038
408.0, 0.20209566671450854
409.0, 0.23238995452673963
410.0, 0.24689414634503246
411.0, 0.26309429256060957
412.0, 0.29297742438922436
413.0, 0.3266702232419859
414.0, 0.3468433416540947
415.0, 0.3855952465361259
416.0, 0.4158280206007221
417.0, 0.44127616274523906
418.0, 0.4746860572782353
419.0, 0.5204021318182701
420.0, 0.5538739349497537
421.0, 0.5865531983302398
422.0, 0.6163223774400954
423.0, 0.6455561206435497
424.0, 0.6811917671785919
425.0, 0.7077471915202366
426.0, 0.7474716676567388
427.0, 0.7776496784336611
428.0, 0.796656069599323
429.0, 0.8243077920818177
430.0, 0.8505497502126091
431.0, 0.8693125232850493
432.0, 0.8863126224396042
433.0, 0.8991184694392825
434.0, 0.8986259757624042
435.0, 0.8908530013053634
436.0, 0.8763339540805424
437.0, 0.8461348869077778
438.0, 0.8172775097581279
439.0, 0.803980348328005
440.0, 0.7737316587566476
441.0, 0.740936400626698
442.0, 0.7143940494305421
443.0, 0.6798022919128911
444.0, 0.6328268307303935
445.0, 0.6119054634156422
446.0, 0.5845171832152095
447.0, 0.5554132069203959
448.0, 0.5345813309071428
449.0, 0.519866399759155
450.0, 0.49210392398228064
451.0, 0.4659748490013085
452.0, 0.44505703492156884
453.0, 0.41673689355948196
454.0, 0.37662358142543595
455.0, 0.34236021025981256
456.0, 0.3384495240679377
457.0, 0.3159971272467657
458.0, 0.2867404591966561
459.0, 0.26303387350953855
460.0, 0.2316759537741382
461.0, 0.20519947207123404
462.0, 0.1852526641281719
463.0, 0.16729343020743043
464.0, 0.14554793974768082
465.0, 0.12028581581664502
466.0, 0.10857027139882852
467.0, 0.09809010069972846
468.0, 0.08066737785803814
469.0, 0.061269541414590435
470.0, 0.0488599544308257
471.0, 0.03834045083098797
472.0, 0.03803751091204195
473.0, 0.03622094894143295
474.0, 0.03298587953359461
475.0, 0.031028949618818098
476.0, 0.025684809987875996
477.0, 0.024065691929251464
478.0, 0.033108852507769605
479.0, 0.03651906207242628
480.0, 0.032179940009315185
481.0, 0.040281118001356926
482.0, 0.0431606589082877
483.0, 0.05615845113283137
484.0, 0.062426078611627606
485.0, 0.059768969871207986
486.0, 0.06395547496652296
487.0, 0.07109453010860202
488.0, 0.06957588767587315
489.0, 0.07460609975038691
490.0, 0.08117265603997438
491.0, 0.07526689210093403
492.0, 0.07343246607647692
493.0, 0.07709038305576225
494.0, 0.07598363363142299
495.0, 0.07698377938918412
496.0, 0.08282241653618741
497.0, 0.07901336933839075
498.0, 0.0720743679500979
499.0, 0.06607076529625724
500.0, 0.06730932975577736
501.0, 0.07130192717184214
502.0, 0.06772671065689471
503.0, 0.06298381742282513
504.0, 0.06377635286865821
505.0, 0.06423650263881267
506.0, 0.05959618492920783
507.0, 0.050970535816223767
508.0, 0.04743768466567225
509.0, 0.046800081378011775
510.0, 0.04009739680887364
511.0, 0.04003719405466516
512.0, 0.04558085485939959
513.0, 0.03296874746594466
514.0, 0.03476254030601021
515.0, 0.035538865176057956
516.0, 0.03224036032505544
517.0, 0.032615567176404146
518.0, 0.038150855842320544
519.0, 0.029294827474256747
520.0, 0.028057981037534378
521.0, 0.01913104077638921
522.0, 0.00845944152236222
523.0, 0.005892088359641846
524.0, 0.0026832144387965375
525.0, 0.00271079181283307
526.0, 0.001383505268044408
527.0, 0.0038778632191370263
528.0, 0.0008862024621094825
529.0, 0.001498294707536991
530.0, 0.0020314300296537637
531.0, 0.004806636095824826
532.0, 0.001655750696646834
533.0, 0.0008629782348167315
534.0, 0.009960531204084178
535.0, 0.0052198906605088954
536.0, 0.0026263464408215064
537.0, 0.009749729178642502
538.0, 0.0120743212840518
539.0, 0.007116889095767497
540.0, 0.010995684975190271
541.0, 0.013019387995127142
542.0, 0.007628591169005514
543.0, 0.0025625492073240597
544.0, 0.0021061842369232593
545.0, 0.006790662069161121
546.0, 0.00082925325281857
547.0, 0.0018571450436431162
548.0, 0.0021963729469968957
549.0, 0.010202363080263037
550.0, 0.014571636573639688
551.0, 0.009102702715228117
552.0, 0.0057311649373179945
553.0, 0.011015594069591
554.0, 0.014328606174679993
555.0, 0.01820803762838046
556.0, 0.025625318318873613
557.0, 0.025002332683970577
558.0, 0.02902762529353089
559.0, 0.03199254240672392
560.0, 0.03464648115720572
561.0, 0.035204704566494494
562.0, 0.03216322231976362
563.0, 0.04560284167705061
564.0, 0.043378101547261315
565.0, 0.041732639810099253
566.0, 0.04357050535569059
567.0, 0.04623870433634922
568.0, 0.05089926151515042
569.0, 0.052424625525607296
570.0, 0.05307390447050348
571.0, 0.05838405873677628
572.0, 0.06083902903512348
573.0, 0.05346431200951023
574.0, 0.04719361059435279
575.0, 0.05104807505350106
576.0, 0.05960901382354002
577.0, 0.06315838165617477
578.0, 0.06278348770384491
579.0, 0.06657371702450925
580.0, 0.06489555420868459
581.0, 0.05982811179384815
582.0, 0.0593020566184304
583.0, 0.062420881427548675
584.0, 0.06380218084443502
585.0, 0.0629841887268206
586.0, 0.06747618197685364
587.0, 0.06289174907868114
588.0, 0.059126797420797
589.0, 0.060989060102726596
590.0, 0.06631041931239458
591.0, 0.07074060259844128
592.0, 0.06419606756533683
593.0, 0.06621737401566616
594.0, 0.06933276796256557
595.0, 0.06968064892134614
596.0, 0.07061174707396625
597.0, 0.05651685100376988
598.0, 0.05270097243471088
599.0, 0.0548105147427019
600.0, 0.05512615940391703
601.0, 0.05385158351337004
602.0, 0.05407517016090639
603.0, 0.04743190927611182
604.0, 0.04988988137982438
605.0, 0.04381082356511174
606.0, 0.03792167191513722
607.0, 0.04490700449799223
608.0, 0.05136320849483099
609.0, 0.04357110080489765
610.0, 0.03768336399790185
611.0, 0.03597654342457864
612.0, 0.03593381820607545
613.0, 0.03654650012171943
614.0, 0.03677694357761778
615.0, 0.03715795103666472
616.0, 0.0373387190312037
617.0, 0.033266305429280524
618.0, 0.028680473309957506
619.0, 0.029429808227606973
620.0, 0.0295527510553543
621.0, 0.02500198299239273
622.0, 0.024444573510724984
623.0, 0.022095084692220445
624.0, 0.017285099487235545
625.0, 0.015466126546049922
626.0, 0.010306224590487342
627.0, 0.009001513944655959
628.0, 0.012750906488458145
629.0, 0.01876495473499858
630.0, 0.019866935164486114
631.0, 0.012582287019826239
632.0, 0.014054598237493823
633.0, 0.00974144671909131
634.0, 0.011382557778612398
635.0, 0.010541525580021244
636.0, 0.006930537044048019
637.0, 0.012683776007475648
638.0, 0.009581259907343407
639.0, 0.012894602703118095
640.0, 0.013776954922020065
641.0, 0.012005516629703969
642.0, 0.011940081473519692
643.0, 0.013656984922193598
644.0, 0.017427674487839554
645.0, 0.012529545929344665
646.0, 0.014683013039474823
647.0, 0.020253081377667348
648.0, 0.01981358070192873
649.0, 0.01519714185862483
650.0, 0.013336765871756959
651.0, 0.019105701985406596
652.0, 0.018245320346938432
653.0, 0.014502385738222715
654.0, 0.014706980096635406
655.0, 0.01647853946973964
656.0, 0.02169402738743542
657.0, 0.023389759428156777
658.0, 0.012446659968703906
659.0, 0.010827892642400576
660.0, 0.02264790056371905
661.0, 0.02320474177118951
662.0, 0.018147654513484025
663.0, 0.009929199653503109
664.0, 0.011075609475089928
665.0, 0.014576757203776982
666.0, 0.014892791850473153
667.0, 0.01645238427193813
668.0, 0.017860359903196028
669.0, 0.01397411268038812
670.0, 0.008973569109384868
671.0, 0.007150771499149738
672.0, 0.008971995874862759
673.0, 0.011558028833794894
674.0, 0.012825133476237982
675.0, 0.010854644355040941
676.0, 0.006396930366162185
677.0, 0.004824426548788778
678.0, 0.006504129784042679
679.0, 0.006770146600336779
680.0, 0.0042082930647266694
681.0, 0.009481257007041957
682.0, 0.012856341790918713
683.0, 0.012049941897063514
684.0, 0.009653775838876551
685.0, 0.00888549507506348
686.0, 0.011565851464885764
687.0, 0.004513518209686099
688.0, 0.005551021459502803
689.0, 0.00740070196465207
690.0, 0.0038076524054126517
691.0, 0.0004031793430511917
692.0, 0.004998696144107102
693.0, 0.008467607366086236
694.0, 0.01012879225615001
695.0, 0.0069779075054938
696.0, 0.005916067440848383
697.0, 0.009034208988635724
698.0, 0.008374345404152059
699.0, 0.002340814057029282
700.0, 0.005504301782598761
701.0, 0.0027383610962008597
702.0, 0.008741083954193091
703.0, 0.003573175969470874
704.0, 0.004539152084431453
705.0, 0.0016160151305159873
706.0, 0.005513367294228982
707.0, 0.003568523383947462
708.0, 0.005273463617441407
709.0, 0.002743765832052834
710.0, 0.004543247145124489
711.0, 0.004335665797281596
712.0, 0.00035153353855069743
713.0, 0.004804051447918491
714.0, 0.008908210801526609
715.0, 0.005100612909330003
716.0, 0.00289109611124543
717.0, 0.0029633363462136042
718.0, 0.003033976898406596
719.0, 0.0014908495998382499
720.0, 0.000915693361395895
721.0, 0.0056900139185574045
722.0, 0.0077237735489961695
723.0, 0.0002120951270190908
724.0, 0.003031163630212555
725.0, 0.0020943673247657084
726.0, 0.003055481940364492
727.0, 0.0009481176129132397
728.0, 0.0022745075957260794
729.0, 0.006002918271437926
730.0, 0.005167295980211299
731.0, 0.006134534816015318
732.0, 0.002388185844339605
733.0, 0.005894503732174629
734.0, 0.004125662786025561
735.0, 0.00028716090972930356
736.0, 0.0068977228320660396
737.0, 0.002142847759676416
738.0, 0.00061388295830633
739.0, 0.00031951703082625605
740.0, 0.007877792061750492
741.0, 0.013865635440755666
742.0, 0.009456775010657273
743.0, 0.007072327308015706
744.0, 0.007142753216715658
745.0, 0.005415382441099241
746.0, 0.002881835633998224
747.0, 0.0005571501325963601
748.0, 0.0005594414026182746
749.0, 0.005090163220085873
750.0, 0.01043081691017185
751.0, 0.001193257718358996
752.0, 0.0075184144194067794
753.0, 0.009047535843962767
754.0, 0.005168294985211798
755.0, 0.007003869629402343
756.0, 0.00923551856809548
757.0, 0.004017333765142781
758.0, 0.004652169730505609
759.0, 0.005545789884138728
760.0, 0.006826108454990562
761.0, 0.006703917091227298
762.0, 0.00383991532717651
763.0, 0.006123592320160454
764.0, 0.0015054825208406352
765.0, 0.0012816200332425305
766.0, 0.002075538774463993
767.0, 0.007220948926394723
768.0, 0.007462978116508339
769.0, 0.003963780477584536
770.0, 0.011424495925614479
771.0, 0.0059254189549283656
772.0, 0.0008128594310975863
773.0, 0.0001759021610996907
774.0, 0.004824347067893704
775.0, 0.008460145572560692
776.0, 0.0006665333278329271
777.0, 0.0033019427372582726
778.0, 0.008017436142757272
779.0, 0.011611798142532322
780.0, 0.00513644889482337
781.0, 0.0014624342210225326
782.0, 0.005081517310345036
783.0, 0.003475301952542119
784.0, 0.006667667394842618
785.0, 0.0021940342146301813
786.0, 0.002854750975229813
787.0, 0.008091796871427002
788.0, 0.010158376494712313
789.0, 0.012282404664026343
790.0, 0.013476487219507142
791.0, 0.007601850218914838
792.0, 0.004864832704135651
793.0, 0.0028826724272506504
794.0, 0.008789801537016232
795.0, 0.013428032379879022
796.0, 0.003923168602166912
797.0, 0.005922210440214224
798.0, 0.012734558221281887
799.0, 0.01236017362298981
800.0, 0.011995752726040983
801.0, 0.010455455670635065
802.0, 0.008107408243753604
803.0, 0.010090563571845962
804.0, 0.010571466456695806
805.0, 0.009894056712144425
806.0, 0.010163365275310992
807.0, 0.013612281970084478
808.0, 0.015052689022083423
809.0, 0.009842198054830796
810.0, 0.004672174257256468
811.0, 0.011734926108051878
812.0, 0.020116863624874467
813.0, 0.014235587236859396
814.0, 0.010466007292048022
815.0, 0.009204878514069934
816.0, 0.01126103470154845
817.0, 0.021265114116431217
818.0, 0.015477805589405966
819.0, 0.01911836673826202
820.0, 0.02483523721303174
821.0, 0.018495951111858866
822.0, 0.015620234459012299
823.0, 0.020802400542176778
824.0, 0.017424141333847124
825.0, 0.01833318629090507
826.0, 0.016718209991552383
827.0, 0.018773724958500614
828.0, 0.019749656180202562
829.0, 0.020069075246503087
830.0, 0.020063427912034786
831.0, 0.018426955709401928
832.0, 0.02004404156153328
833.0, 0.012278777529371336
834.0, 0.01688305176889947
835.0, 0.02123830263877223
836.0, 0.019248230573198053
837.0, 0.016710984482810415
838.0, 0.02066697224667037
839.0, 0.024549271671558605
840.0, 0.025061811786161008
841.0, 0.02339294397233511
842.0, 0.025312872445889284
843.0, 0.026693661632858585
844.0, 0.025338354894362425
845.0, 0.025107556447948813
846.0, 0.02725892981443492
847.0, 0.025468450445869924
848.0, 0.021184058207598874
849.0, 0.017455017619540672
850.0, 0.019258218913274103
851.0, 0.023803196843774355
852.0, 0.023492508947725015
853.0, 0.020470157894072857
854.0, 0.02515975675209626
855.0, 0.029589115534514154
856.0, 0.02675998073235683
857.0, 0.025299191674127575
858.0, 0.029791446972149402
859.0, 0.031212364759560626
860.0, 0.02414540413934365
861.0, 0.027880917053497906
862.0, 0.02113984989875105
863.0, 0.01994007753486449
864.0, 0.022108279910656177
865.0, 0.018656771360853367
866.0, 0.016903559808178186
867.0, 0.019049522778363852
868.0, 0.010215987237797442
869.0, 0.016878056680822505
870.0, 0.02026730284277114
871.0, 0.013539458569597512
872.0, 0.015198378559292328
873.0, 0.018850171939687355
874.0, 0.015320071603333627
875.0, 0.015133372188815098
876.0, 0.017265715354310304
877.0, 0.014748707436344244
878.0, 0.010739424506863878
879.0, 0.006832355308649512
880.0, 0.008953076852081243
881.0, 0.01390786626995505
882.0, 0.013421900445158164
883.0, 0.008060423703719342
884.0, 0.00844590130426228
885.0, 0.016916466203854414
886.0, 0.012402565535230567
887.0, 0.008966885974078485
888.0, 0.012039780982152805
889.0, 0.011476326644117756
890.0, 0.005466571257476457
891.0, 0.01375185772453911
892.0, 0.011260005481458278
893.0, 0.00296710628294855
894.0, 0.0034677846685234157
895.0, 0.007536352890910981
896.0, 0.003770826358255963
897.0, 0.0039932250785198985
898.0, 0.014262846299091718
899.0, 0.00818177780378546
900.0, 0.000716245075721859
901.0, 0.0019997354017422648
902.0, 0.0010011749355640384
903.0, 0.0010044487229040814
904.0, 0.005236912924917859
905.0, 0.007026102347738035
906.0, 0.008019718670164332
907.0, 0.014944559612976294
908.0, 0.0025132321750313213
909.0, 0.0024626688422910176
910.0, 0.006021795868433025
911.0, 0.006121140795816859
912.0, 0.005664239104865417
913.0, 0.00548150599880529
914.0, 0.003925341875519443
915.0, 0.0013921646944427446
916.0, 0.004644843038954469
917.0, 0.007842356545927291
918.0, 0.010541793166496453
919.0, 0.013110130252195035
920.0, 0.014838137519369077
921.0, 0.014398722797380003
922.0, 0.010606113133926634
923.0, 0.014428117972121313
924.0, 0.009437765495478038
925.0, 0.003184687035783082
926.0, 0.009397423541572199
927.0, 0.014675587261651217
928.0, 0.008807620668338725
929.0, 0.00450140528484432
930.0, 0.0032250728279334478
931.0, 0.0034597030768850315
932.0, 0.0007966712562267539
933.0, 0.00043640411787803084
934.0, 0.0011621638847034682
935.0, 0.00045721995765472665
936.0, 0.0015680344285736916
937.0, 0.0029625024791705254
938.0, 0.0004985458057358941
939.0, 0.009340152246475473
940.0, 0.0035520758436996544
941.0, 0.0017659522637500104
942.0, 0.000540941950371172
943.0, 0.001989354609646484
944.0, 0.01013508320240336
945.0, 0.01184977562424873
946.0, 0.0023417245238081205
947.0, 0.005315427779729457
948.0, 0.012896282972230583
949.0, 0.00694555372284275
950.0, 0.004200618158101789
951.0, 0.004763393624179987
952.0, 0.005208501034143631
953.0, 0.011456305379511906
954.0, 0.011743988850300844
955.0, 0.010930878923590874
956.0, 0.004093218779873887
957.0, 0.010651655068802434
958.0, 0.009060273816684703
959.0, 0.010619111213782083
960.0, 0.016731165766199433
961.0, 0.02143677918789641
962.0, 0.027520921344027047
963.0, 0.043145745259611054
964.0, 0.05108314794697177
965.0, 0.060536931224310954
966.0, 0.07276945177957823
967.0, 0.08317346423093598
968.0, 0.09437180100723441
969.0, 0.1141194639545192
970.0, 0.14242055861386232
971.0, 0.15678847571287233
972.0, 0.18257434616268903
973.0, 0.22320460548981705
974.0, 0.26770080505929517
975.0, 0.3119384143438814
976.0, 0.3690813159606273
977.0, 0.4297806571205939
978.0, 0.4797078286452038
979.0, 0.5434060723693458
980.0, 0.6044641198678736
981.0, 0.6884646073387692
982.0, 0.7522130332289587
983.0, 0.8169971813262948
984.0, 0.8771834321037787
985.0, 0.9234098539569887
986.0, 0.9609200913420282
987.0, 0.9831996806212385
988.0, 0.9805072330076201
989.0, 0.9981483248540503
990.0, 0.9784164475670979
991.0, 0.9578734802943547
992.0, 0.9302471707420653
993.0, 0.8909345852198585
994.0, 0.8503791859355684
995.0, 0.8116980858524688
996.0, 0.7747845460351284
997.0, 0.7456230643593625
998.0, 0.7091450486281108
999.0, 0.6809888528403111
1000.0, 0.6538877902754124
1001.0, 0.6313434186474075
1002.0, 0.6126504530586047
1003.0, 0.5914193102315796
1004.0, 0.5707969570578846
1005.0, 0.5562959878698123
1006.0, 0.527084636707995
1007.0, 0.5102641073904367
1008.0, 0.489266076570747
1009.0, 0.4794772222723577
1010.0, 0.4697119820142882
1011.0, 0.4594786339454212
1012.0, 0.4577586955518296
1013.0, 0.4511297395072654
1014.0, 0.43327714508401927
1015.0, 0.44026421975989627
1016.0, 0.44400250151244386
1017.0, 0.45291929868683056
1018.0, 0.46163593962948424
1019.0, 0.47790707718826225
1020.0, 0.4887021958523068
1021.0, 0.4874450083200718
1022.0, 0.4989107875765422
1023.0, 0.5174922879709779
1024.0, 0.5155766593028309
1025.0, 0.5371887940988751
1026.0, 0.5350404608382227
1027.0, 0.5246628570398364
1028.0, 0.5274576357758075
1029.0, 0.51587877483113
1030.0, 0.4813755942086333
1031.0, 0.453632127876263
1032.0, 0.41507811457499016
1033.0, 0.3760411257691077
1034.0, 0.3525123754777956
1035.0, 0.3092902847415494
1036.0, 0.2759711562068215
1037.0, 0.2598337543090662
1038.0, 0.24630973991775607
1039.0, 0.23435740772929212
1040.0, 0.22678900289396126
1041.0, 0.21235537727339387
1042.0, 0.2302595838694019
1043.0, 0.2213847016268075
1044.0, 0.23276466809717306
1045.0, 0.22815272558565383
1046.0, 0.24010917208636048
1047.0, 0.25754465474224014
1048.0, 0.25786171910757316
1049.0, 0.2616465304892119
1050.0, 0.2792902628865805
1051.0, 0.28430043264141136
1052.0, 0.2884796282188989
1053.0, 0.3121633714633168
1054.0, 0.32307585348975715
1055.0, 0.3322307950913292
1056.0, 0.3347036702902278
1057.0, 0.3434689848534615
1058.0, 0.364074755214264
1059.0, 0.3721797373336222
1060.0, 0.3893982724228606
1061.0, 0.4058793604393115
1062.0, 0.4177765023491065
1063.0, 0.4205166556219394
1064.0, 0.4314660822376317
1065.0, 0.45202734510162457
1066.0, 0.47192135279005404
1067.0, 0.48342888112259474
1068.0, 0.48910456132791014
1069.0, 0.4970982351923166
1070.0, 0.5083414992115177
1071.0, 0.5309049455275474
1072.0, 0.5437542757763005
1073.0, 0.5395101063325949
1074.0, 0.5311326493589422
1075.0, 0.5163033185992373
1076.0, 0.5005750476036346
1077.0, 0.48426510934403444
1078.0, 0.45354384337377857
1079.0, 0.41136080522298213
1080.0, 0.3583978482684966
1081.0, 0.30637099910394316
1082.0, 0.25646273162420025
1083.0, 0.2063586652923672
1084.0, 0.17104839563263968
1085.0, 0.13351019453474772
1086.0, 0.0964010958567739
1087.0, 0.07397703852389144
1088.0, 0.05567947810854886
1089.0, 0.03559528738465154
1090.0, 0.01630753308432793
1091.0, 0.00811721000972641
1092.0, 0.012611246503548206
1093.0, 0.004924901894327653
1094.0, 0.006843558834266908
1095.0, 0.011066156044596036
1096.0, 0.010551223336008634
1097.0, 0.01065861244936476
1098.0, 0.013037858939031002
1099.0, 0.016632165337839223
1100.0, 0.011838184434990963
1101.0, 0.017685169507111295
1102.0, 0.01772975171324117
1103.0, 0.014673546768220191
1104.0, 0.011562015372764047
1105.0, 0.004605850689193239
1106.0, 0.0012381858846835098
1107.0, 0.0030263972209728365
1108.0, 0.008093933839363115
1109.0, 0.011440309288406536
1110.0, 0.006024565807307903
1111.0, 0.008282410580348995
1112.0, 0.011115883963111268
1113.0, 0.01512754224006095
1114.0, 0.0238564555218088
1115.0, 0.02912342631464812
1116.0, 0.025489797046670863
1117.0, 0.02382977240719112
1118.0, 0.02991660899787781
1119.0, 0.031012537158399116
1120.0, 0.0339449529425349
1121.0, 0.034420819672643044
1122.0, 0.023494844877228614
1123.0, 0.030026318805406793
1124.0, 0.03503748016875111
1125.0, 0.03331512871311252
1126.0, 0.03127413088234798
1127.0, 0.03152635575862837
1128.0, 0.037946441376664794
1129.0, 0.046260342065602915
1130.0, 0.037148235637152624
1131.0, 0.0331244659283834
1132.0, 0.036930021199656285
1133.0, 0.03810887920918465
1134.0, 0.045727815723128985
1135.0, 0.04678764251359965
1136.0, 0.04130838667982262
1137.0, 0.03933406162104352
1138.0, 0.04288647747433622
1139.0, 0.04513093433708608
1140.0, 0.04568130721187095
1141.0, 0.05317845516030613
1142.0, 0.055475293981891646
1143.0, 0.047799312705194885
1144.0, 0.060779939689098526
1145.0, 0.0618732678324382
1146.0, 0.05401746208382264
1147.0, 0.0539406554565355
1148.0, 0.06045941000662752
1149.0, 0.06448468824600302
1150.0, 0.061661478263714924
1151.0, 0.05794693451795078
1152.0, 0.0633960978025442
1153.0, 0.05716107095746325
1154.0, 0.05049751372044714
1155.0, 0.052236988088935996
1156.0, 0.04643937332671516
1157.0, 0.04497621764244428
1158.0, 0.03747004760998807
1159.0, 0.02729659458851543
1160.0, 0.02638064762346539
1161.0, 0.02670315899557301
1162.0, 0.02043030594698308
1163.0, 0.018536795399386567
1164.0, 0.007844666422859048
1165.0, 0.011571801611147509
1166.0, 0.004362514386965296
1167.0, 0.006896163194450864
1168.0, 0.005147748197683203
1169.0, 0.004626757336634304
1170.0, 0.006027928656460919
1171.0, 0.004508781291400271
1172.0, 0.001022781347819939
1173.0, 0.0011694910690096781
1174.0, 0.001425769944780641
1175.0, 0.0006606782402813608
1176.0, 0.0014032896777152358
1177.0, 0.003012888082356702
1178.0, 0.0034287738863719623
1179.0, 0.009426035429166178
1180.0, 0.0013601070953004942
1181.0, 0.0025331894613773395
1182.0, 0.006048803901681693
1183.0, 0.00025912492953885854
1184.0, 0.004518473414601472
1185.0, 0.0008111819184362702
1186.0, 0.004241581712057992
1187.0, 0.004549557796546965
1188.0, 0.0006641520262347571
1189.0, 0.00023218568790114085
1190.0, 0.0006168502152154799
1191.0, 0.01091076933201697
1192.0, 0.012992090116457007
1193.0, 0.005579428847083704
1194.0, 0.0011863276863652641
1195.0, 0.002980237251508149
1196.0, 0.006108888391495096
1197.0, 0.0071709364394926724
1198.0, 0.005527799028484262
1199.0, 0.00022567665818095008
1200.0, 0.0021366853686273835
1201.0, 0.007781662193175446
1202.0, 0.01124799836546374
1203.0, 0.010672663446384163
1204.0, 0.010466268886749543
1205.0, 0.013298835397969373
1206.0, 0.00531549652216546
1207.0, 0.004912663133786223
1208.0, 0.008339203709528453
1209.0, 0.00015992580009701593
1210.0, 0.015997139896098692
1211.0, 0.009115958012333811
1212.0, 0.00915959496293283
1213.0, 0.018137615595631908
1214.0, 0.009394614946709887
1215.0, 0.010021452512521385
1216.0, 0.011400822535002141
1217.0, 0.0106088483383341
1218.0, 0.008505764786689853
1219.0, 0.009398672194096762
1220.0, 0.01081120014814296
1221.0, 0.0094572231505845
1222.0, 0.010111462036618288
1223.0, 0.002036391404252027
1224.0, 0.0069930300610363495
1225.0, 0.004346793620022955
1226.0, 0.0068368542869999245
1227.0, 0.008923254217975593
1228.0, 0.010506841294212125
1229.0, 0.007508493073465964
1230.0, 0.00840931316086883
1231.0, 0.012738130124501687
1232.0, 0.011259192378442326
1233.0, 0.009868485875419176
1234.0, 0.01325387360208118
1235.0, 0.010407156248985649
1236.0, 0.002425026037177664
1237.0, 0.0004826151217197953
1238.0, 0.006924094319971834
1239.0, 0.0025608162377272837
1240.0, 0.004771105240853721
1241.0, 0.011802167071420433
1242.0, 0.01125486455049728
1243.0, 0.010897652857134899
1244.0, 0.010647519709020866
1245.0, 0.008838729591942639
1246.0, 0.009050545652208659
1247.0, 0.010203914389485562
1248.0, 0.011219448945603394
1249.0, 0.01406167754993643
1250.0, 0.010850123617329049
1251.0, 0.003898367822678334
1252.0, 0.0010404361487181938
1253.0, 0.006323938885989762
1254.0, 0.006543730706147705
1255.0, 0.009694704955901145
1256.0, 0.014127507133655988
1257.0, 0.01204145156284277
1258.0, 0.006923036934050973
1259.0, 0.010377563023698494
1260.0, 0.01519295618236638
1261.0, 0.011998283056287789
1262.0, 0.011326783063137663
1263.0, 0.012211690795695394
1264.0, 0.006313369529209624
1265.0, 0.01439557075119773
1266.0, 0.002888489957496366
1267.0, 0.010538059928686965
1268.0, 0.009522450862472666
1269.0, 0.0071108220659509775
1270.0, 0.0024648419445657994
1271.0, 0.005501429095340979
1272.0, 0.006047234873129296
1273.0, 0.0024708278355821582
1274.0, 0.004491986469164433
1275.0, 0.006744655182127125
1276.0, 0.014103033356276863
1277.0, 0.002650170013212311
1278.0, 0.01013882065631252
1279.0, 0.005299852656019779
1280.0, 0.0036762418707767274
1281.0, 0.0016619369163220665
1282.0, 0.0023001178014059216
1283.0, 0.005187530280144176
1284.0, 0.007132228643861355
1285.0, 0.0035771557618735506
1286.0, 0.006827618421921311
1287.0, 0.01012383662288667
1288.0, 0.004512621416898727
1289.0, 0.0027116202271300323
1290.0, 0.008556386552542745
1291.0, 0.008257335011091037
1292.0, 0.009438436313115467
1293.0, 0.002920528535067571
1294.0, 0.01008744444841175
1295.0, 0.011976428222452587
1296.0, 0.010061534561206328
1297.0, 0.0022489279501007333
1298.0, 0.003072482970646407
1299.0, 0.012158040073366157
1300.0, 0.00830129201642057
1301.0, 0.0008801569039245509
1302.0, 0.00036069049138142306
1303.0, 6.60322190464561e-06
1304, 0.0
1305, 0.0
1306, 0.0
1307, 0.0
1308, 0.0
1309, 0.0
1310, 0.0
1311, 0.0
1312, 0.0
1313, 0.0
1314, 0.0
1315, 0.0
1316, 0.0
1317, 0.0
1318, 0.0
1319, 0.0
1320, 0.0
1321, 0.0
1322, 0.0
1323, 0.0
1324, 0.0
1325, 0.0
1326, 0.0
1327, 0.0
1328, 0.0
1329, 0.0
1330, 0.0
1331, 0.0
1332, 0.0
1333, 0.0
1334, 0.0
1335, 0.0
1336, 0.0
1337, 0.0
1338, 0.0
1339, 0.0
1340, 0.0
1341, 0.0
1342, 0.0
1343, 0.0
1344, 0.0
1345, 0.0
1346, 0.0
1347, 0.0
1348, 0.0
1349, 0.0
1350, 0.0
1351, 0.0
1352, 0.0
1353, 0.0
1354, 0.0
1355, 0.0
1356, 0.0
1357, 0.0
1358, 0.0
1359, 0.0
1360, 0.0
1361, 0.0
1362, 0.0
1363, 0.0
1364, 0.0
1365, 0.0
1366, 0.0
1367, 0.0
1368, 0.0
1369, 0.0
1370, 0.0
1371, 0.0
1372, 0.0
1373, 0.0
1374, 0.0
1375, 0.0
1376, 0.0
1377, 0.0
1378, 0.0
1379, 0.0
1380, 0.0
1381, 0.0
1382, 0.0
1383, 0.0
1384, 0.0
1385, 0.0
1386, 0.0
1387, 0.0
1388, 0.0
1389, 0.0
1390, 0.0
1391, 0.0
1392, 0.0
1393, 0.0
1394, 0.0
1395, 0.0
1396, 0.0
1397, 0.0
1398, 0.0
1399, 0.0
1400, 0.0
1401, 0.0
1402, 0.0
1403, 0.0
1404, 0.0
1405, 0.0
1406, 0.0
1407, 0.0
1408, 0.0
1409, 0.0
1410, 0.0
1411, 0.0
1412, 0.0
1413, 0.0
1414, 0.0
1415, 0.0
1416, 0.0
1417, 0.0
1418, 0.0
1419, 0.0
1420, 0.0
1421, 0.0
1422, 0.0
1423, 0.0
1424, 0.0
1425, 0.0
1426, 0.0
1427, 0.0
1428, 0.0
1429, 0.0
1430, 0.0
1431, 0.0
1432, 0.0
1433, 0.0
1434, 0.0
1435, 0.0
1436, 0.0
1437, 0.0
1438, 0.0
1439, 0.0
1440, 0.0
1441, 0.0
1442, 0.0
1443, 0.0
1444, 0.0
1445, 0.0
1446, 0.0
1447, 0.0
1448, 0.0
1449, 0.0
1450, 0.0
1451, 0.0
1452, 0.0
1453, 0.0
1454, 0.0
1455, 0.0
1456, 0.0
1457, 0.0
1458, 0.0
1459, 0.0
1460, 0.0
1461, 0.0
1462, 0.0
1463, 0.0
1464, 0.0
1465, 0.0
1466, 0.0
1467, 0.0
1468, 0.0
1469, 0.0
1470, 0.0
1471, 0.0
1472, 0.0
1473, 0.0
1474, 0.0
1475, 0.0
1476, 0.0
1477, 0.0
1478, 0.0
1479, 0.0
1480, 0.0
1481, 0.0
1482, 0.0
1483, 0.0
1484, 0.0
1485, 0.0
1486, 0.0
1487, 0.0
1488, 0.0
1489, 0.0
1490, 0.0
1491, 0.0
1492, 0.0
1493, 0.0
1494, 0.0
1495, 0.0
1496, 0.0
1497, 0.0
1498, 0.0
1499, 0.0
1500, 0.0
1501, 0.0
1502, 0.0
1503, 0.0
1504, 0.0
1505, 0.0
1506, 0.0
1507, 0.0
1508, 0.0
1509, 0.0
1510, 0.0
1511, 0.0
1512, 0.0
1513, 0.0
1514, 0.0
1515, 0.0
1516, 0.0
1517, 0.0
1518, 0.0
1519, 0.0
1520, 0.0
1521, 0.0
1522, 0.0
1523, 0.0
1524, 0.0
1525, 0.0
1526, 0.0
1527, 0.0
1528, 0.0
1529, 0.0
1530, 0.0
1531, 0.0
1532, 0.0
1533, 0.0
1534, 0.0
1535, 0.0
1536, 0.0
1537, 0.0
1538, 0.0
1539, 0.0
1540, 0.0
1541, 0.0
1542, 0.0
1543, 0.0
1544, 0.0
1545, 0.0
1546, 0.0
1547, 0.0
1548, 0.0
1549, 0.0
1550, 0.0
1551, 0.0
1552, 0.0
1553, 0.0
1554, 0.0
1555, 0.0
1556, 0.0
1557, 0.0
1558, 0.0
1559, 0.0
1560, 0.0
1561, 0.0
1562, 0.0
1563, 0.0
1564, 0.0
1565, 0.0
1566, 0.0
1567, 0.0
1568, 0.0
1569, 0.0
1570, 0.0
1571, 0.0
1572, 0.0
1573, 0.0
1574, 0.0
1575, 0.0
1576, 0.0
1577, 0.0
1578, 0.0
1579, 0.0
1580, 0.0
1581, 0.0
1582, 0.0
1583, 0.0
1584, 0.0
1585, 0.0
1586, 0.0
1587, 0.0
1588, 0.0
1589, 0.0
1590, 0.0
1591, 0.0
1592, 0.0
1593, 0.0
1594, 0.0
1595, 0.0
1596, 0.0
1597, 0.0
1598, 0.0
1599, 0.0
