30, 0.0
31, 0.0
32, 0.0
33, 0.0
34, 0.0
35, 0.0
36, 0.0
37, 0.0
38, 0.0
39, 0.0
40, 0.0
41, 0.0
42, 0.0
43, 0.0
44, 0.0
45, 0.0
46, 0.0
47, 0.0
48, 0.0
49, 0.0
50, 0.0
51, 0.0
52, 0.0
53, 0.0
54, 0.0
55, 0.0
56, 0.0
57, 0.0
58, 0.0
59, 0.0
60, 0.0
61, 0.0
62, 0.0
63, 0.0
64, 0.0
65, 0.0
66, 0.0
67, 0.0
68, 0.0
69, 0.0
70, 0.0
71, 0.0
72, 0.0
73, 0.0
74, 0.0
75, 0.0
76, 0.0
77, 0.0
78, 0.0
79, 0.0
80, 0.0
81, 0.0
82, 0.0
83, 0.0
84, 0.0
85, 0.0
86, 0.0
87, 0.0
88, 0.0
89, 0.0
90, 0.0
91, 0.0
92, 0.0
93, 0.0
94, 0.0
95.0, 0.00014833318940770724
96.0, 0.0010639701610601865
97.0, 0.002098210952406951
98.0, 0.00617602847440422
99.0, 0.015331103009480887
100.0, 0.016592440465460073
101.0, 0.026811019010919788
102.0, 0.04124879734436514
103.0, 0.04554748889728984
104.0, 0.06021448167829691
105.0, 0.0822391982555637
106.0, 0.11126352159368956
107.0, 0.13996314791605188
108.0, 0.17215939180768902
109.0, 0.2032312812511448
110.0, 0.22242111570945508
111.0, 0.2639161619683454
112.0, 0.3014564485402878
113.0, 0.32717072750026654
114.0, 0.34023905612686617
115.0, 0.36959437979401144
116.0, 0.39714046382679685
117.0, 0.39382865804257605
118.0, 0.39999682277449156
119.0, 0.40029216669928347
120.0, 0.39473171924710665
121.0, 0.4158344788187831
122.0, 0.4109584447672572
123.0, 0.4013816833873471
124.0, 0.4081480795896771
125.0, 0.39554408536974506
126.0, 0.38806579273919456
127.0, 0.3870529289315021
128.0, 0.38514448068805057
129.0, 0.36622743057911705
130.0, 0.35087938406701213
131.0, 0.3536696055382387
132.0, 0.3343308920609285
133.0, 0.32143992976177793
134.0, 0.31450529567470137
135.0, 0.3090133055127938
136.0, 0.30044146927552356
137.0, 0.29379496805814365
138.0, 0.2911828857632082
139.0, 0.28367254340685577
140.0, 0.27659628454147356
141.0, 0.26994558250077677
142.0, 0.2638257753048703
143.0, 0.26023797177984564
144.0, 0.2561007693552819
145.0, 0.25100107704648483
146.0, 0.24857451982932763
147.0, 0.2481006370603369
148.0, 0.24411446484659263
149.0, 0.22979832098092137
150.0, 0.23148877277223884
151.0, 0.22786697015067184
152.0, 0.21885234643810123
153.0, 0.21470686809899192
154.0, 0.20970479040390674
155.0, 0.2048355012975829
156.0, 0.20067988326156716
157.0, 0.20153434307176357
158.0, 0.19166292061998105
159.0, 0.17840787156718035
160.0, 0.17992016555621068
161.0, 0.17253096054688158
162.0, 0.167018455633666
163.0, 0.1654528855142479
164.0, 0.15050678007997437
165.0, 0.1470210905123703
166.0, 0.14680772677186188
167.0, 0.1409454605675089
168.0, 0.1407352767383289
169.0, 0.13401738525519016
170.0, 0.12273084242985573
171.0, 0.12368673430983004
172.0, 0.11778869972644113
173.0, 0.1079677350467467
174.0, 0.09529921509092766
175.0, 0.10229618423173553
176.0, 0.101595100051934
177.0, 0.09504508383880322
178.0, 0.08606411308993968
179.0, 0.08401043606228757
180.0, 0.07991288656069888
181.0, 0.07259961149832395
182.0, 0.07367379208652529
183.0, 0.07545441228260834
184.0, 0.07536958023016137
185.0, 0.07058212731527103
186.0, 0.06332106045454435
187.0, 0.05566416846063109
188.0, 0.04939340684867448
189.0, 0.050558315992170304
190.0, 0.04251179197098715
191.0, 0.04088600007875143
192.0, 0.0512179222658894
193.0, 0.04438848667917171
194.0, 0.04264803710156367
195.0, 0.04162275798119556
196.0, 0.035358706032388346
197.0, 0.03484776413914623
198.0, 0.03560293568519611
199.0, 0.03659963573236253
200.0, 0.0356413603110094
201.0, 0.030797109571112712
202.0, 0.026460800809454118
203.0, 0.02494758325975454
204.0, 0.0211715002185456
205.0, 0.0223900450491889
206.0, 0.02449491929537101
207.0, 0.020165919765836527
208.0, 0.02874964359175099
209.0, 0.03251747903629678
210.0, 0.029547973504476417
211.0, 0.0280994589879917
212.0, 0.024970919215584166
213.0, 0.02559107455974813
214.0, 0.03386378680295127
215.0, 0.036515437619217
216.0, 0.038395551589136635
217.0, 0.039701777574015745
218.0, 0.04057708658842028
219.0, 0.04243902722373621
220.0, 0.0428113295586001
221.0, 0.04178672176906688
222.0, 0.043825795852554396
223.0, 0.04628812340754469
224.0, 0.048702632376606284
225.0, 0.05075491094773934
226.0, 0.04550242898822806
227.0, 0.04361337023877235
228.0, 0.04396097692280966
229.0, 0.044311732690413316
230.0, 0.043188354296813426
231.0, 0.04322441891185022
232.0, 0.04335750206206393
233.0, 0.03284976477852641
234.0, 0.03252024189701372
235.0, 0.03385491991969454
236.0, 0.03193794658553579
237.0, 0.03458190876947862
238.0, 0.030831998495170276
239.0, 0.023489834631636494
240.0, 0.017015379491605642
241.0, 0.023114323979471038
242.0, 0.019640837148199867
243.0, 0.009026082108903082
244.0, 0.02318039885088952
245.0, 0.017679026931188568
246.0, 0.008994750904291846
247.0, 0.004951763103234241
248.0, 0.005966109757945477
249.0, 0.010711977495235064
250.0, 0.015221523663913182
251.0, 0.013956664300064476
252.0, 0.012177906674951193
253.0, 0.011896227840338162
254.0, 0.013037857132387693
255.0, 0.014664817538110705
256.0, 0.008498377277581222
257.0, 0.005070506035081386
258.0, 0.0076457556012311835
259.0, 0.006991890937071598
260.0, 0.005587184900490926
261.0, 0.004536096494101542
262.0, 0.004926634823490878
263.0, 0.0022741562785750903
264.0, 0.0012041581262405697
265.0, 0.0013549743703906807
266.0, 0.001511224156343979
267.0, 0.0027798880937155803
268.0, 0.008107500263429959
269.0, 0.016244895972344485
270.0, 0.01418739513528836
271.0, 0.018555620432138334
272.0, 0.017416529319281948
273.0, 0.004102040752042452
274.0, 0.011162675188043307
275.0, 0.015609701090595812
276.0, 0.01668698866303003
277.0, 0.012790724381279648
278.0, 0.014668722384897652
279.0, 0.012656010434156272
280.0, 0.009109669448155925
281.0, 0.014953110441852475
282.0, 0.015610226653815664
283.0, 0.017450219434281742
284.0, 0.021872383554578805
285.0, 0.02366109101614535
286.0, 0.018377945547832026
287.0, 0.014904324555112059
288.0, 0.019558785266450746
289.0, 0.013346222484070153
290.0, 0.006329430794109142
291.0, 0.004681401732937874
292.0, 0.019114432816795444
293.0, 0.011744742650264156
294.0, 0.006938622331872202
295.0, 0.006290176849548393
296.0, 0.00516238858653207
297.0, 0.005433851739970306
298.0, 0.004806180105197077
299.0, 0.002890430947505956
300.0, 0.003329546788466778
301.0, 0.0018638219225586888
302.0, 0.0039974812490973545
303.0, 0.013794145285910636
304.0, 0.014950847222415572
305.0, 0.0179392957462357
306.0, 0.023727247371346738
307.0, 0.03410771425988974
308.0, 0.03552772237330481
309.0, 0.040254426400308935
310.0, 0.04678403799235732
311.0, 0.046784615606845895
312.0, 0.05158775052345856
313.0, 0.056818627846838846
314.0, 0.06156901921993259
315.0, 0.06734666590335284
316.0, 0.07312457285986183
317.0, 0.07551499264484189
318.0, 0.07287992920977547
319.0, 0.07808482824234189
320.0, 0.07824024595866332
321.0, 0.07556929170745866
322.0, 0.0721043494269166
323.0, 0.07911728231279386
324.0, 0.07975693939790653
325.0, 0.07789825734680342
326.0, 0.08310872454295293
327.0, 0.07155904656212411
328.0, 0.06971273613196201
329.0, 0.07672407011277509
330.0, 0.07210155491810952
331.0, 0.06654562967165548
332.0, 0.06593754981480363
333.0, 0.07089856506617186
334.0, 0.06743123680718459
335.0, 0.06184231379829318
336.0, 0.05874562102493896
337.0, 0.061034512551485995
338.0, 0.06162037721514561
339.0, 0.06105397764858769
340.0, 0.05830126613843137
341.0, 0.05193542627229511
342.0, 0.05273037713029171
343.0, 0.053894831243534974
344.0, 0.056588670296018447
345.0, 0.06412438567070232
346.0, 0.05218511911092139
347.0, 0.05025911525924373
348.0, 0.057908968369384195
349.0, 0.05789272349514126
350.0, 0.0483618099314976
351.0, 0.047796263443930176
352.0, 0.05820897737250239
353.0, 0.054688190967385905
354.0, 0.05950264965235513
355.0, 0.063481708434066
356.0, 0.062405820269054835
357.0, 0.06410926938565077
358.0, 0.0673868757834114
359.0, 0.06916965520593271
360.0, 0.0667721717096763
361.0, 0.06954837758301832
362.0, 0.06941140826120243
363.0, 0.07206283169409838
364.0, 0.0859309112459465
365.0, 0.08895801180495742
366.0, 0.09458304612014555
367.0, 0.10184492960918405
368.0, 0.10641962952302374
369.0, 0.11001744453375004
370.0, 0.1162078631637126
371.0, 0.12450979726473631
372.0, 0.13116998390429863
373.0, 0.14353333938082932
374.0, 0.15290074206326743
375.0, 0.15856337603469192
376.0, 0.17128792479097255
377.0, 0.18319542868027927
378.0, 0.19383902370392242
379.0, 0.20349428817712992
380.0, 0.2184636373617417
381.0, 0.22692304254662216
382.0, 0.2354676953138901
383.0, 0.24833397503140767
384.0, 0.2606222441426958
385.0, 0.2732572787385441
386.0, 0.286979019533959
387.0, 0.3026023190937449
388.0, 0.31322447160967354
389.0, 0.3297270664631043
390.0, 0.34988298351736724
391.0, 0.37033429690606134
392.0, 0.385460225317693
393.0, 0.4122220292025734
394.0, 0.4439872240492985
395.0, 0.4644747848896378
396.0, 0.4984941827915251
397.0, 0.5356926521025388
398.0, 0.5723285980735044
399.0, 0.6014557312981978
400.0, 0.6337748061799139
401.0, 0.6777990068130743
402.0, 0.7301873827365655
403.0, 0.7683749030179824
404.0, 0.8193260514370755
405.0, 0.8646258086420249
406.0, 0.8996147395946305
407.0, 0.9317429750114398
408.0, 0.9526855389577574
409.0, 0.9746508404786925
410.0, 0.9995204411958379
411.0, 0.9938114078129567
412.0, 0.9887861906822305
413.0, 0.9750794496000045
414.0, 0.9471818204532979
415.0, 0.9093289070280678
416.0, 0.8799931007728583
417.0, 0.8456074875944691
418.0, 0.79644640945811
419.0, 0.7666695230266984
420.0, 0.7314197663884543
421.0, 0.6929489587340577
422.0, 0.6532991605340125
423.0, 0.6220864928222423
424.0, 0.5862036542742772
425.0, 0.5551389554371577
426.0, 0.5411628540960736
427.0, 0.5022974885446247
428.0, 0.47728523212540386
429.0, 0.4607334472283585
430.0, 0.4423860386337639
431.0, 0.412688987519561
432.0, 0.3889216648770892
433.0, 0.37066645414555444
434.0, 0.35514156537954217
435.0, 0.34287340463180543
436.0, 0.329727701044006
437.0, 0.31497220020700867
438.0, 0.2978472030094246
439.0, 0.2939057128370826
440.0, 0.2831726691161734
441.0, 0.26899419062093527
442.0, 0.268009256188796
443.0, 0.2662613863045754
444.0, 0.2613031431116633
445.0, 0.2539876811341545
446.0, 0.24837221919509625
447.0, 0.2626418968233188
448.0, 0.26948447257095204
449.0, 0.2694392511386808
450.0, 0.2861711769723301
451.0, 0.29289203454920765
452.0, 0.3024507731171402
453.0, 0.3150416578346545
454.0, 0.3176337568146244
455.0, 0.3321798542189868
456.0, 0.34568362946226183
457.0, 0.3544014803778227
458.0, 0.35813251770688526
459.0, 0.36231160633146464
460.0, 0.3639637474881508
461.0, 0.36128858428182997
462.0, 0.3497678454047294
463.0, 0.3350777839050353
464.0, 0.31800605971461254
465.0, 0.29996082960541576
466.0, 0.2880951165278607
467.0, 0.2729846098714978
468.0, 0.26231434730341646
469.0, 0.2561596825732903
470.0, 0.23546887442634928
471.0, 0.2184409176319909
472.0, 0.20165197792537604
473.0, 0.18552053733973192
474.0, 0.1824951769660083
475.0, 0.17697060623941469
476.0, 0.17560489350344155
477.0, 0.17974204500793212
478.0, 0.17844284767468746
479.0, 0.17668624255307822
480.0, 0.17945062403545106
481.0, 0.18735168117955234
482.0, 0.18840128724224578
483.0, 0.18763028887027292
484.0, 0.2013259128247779
485.0, 0.23057227380778084
486.0, 0.22925951770331
487.0, 0.24481225877539348
488.0, 0.26764903383938715
489.0, 0.2925510652714966
490.0, 0.31010375311655736
491.0, 0.3436726724353552
492.0, 0.382649525422233
493.0, 0.42069324981414585
494.0, 0.4435477309564823
495.0, 0.46411221561558635
496.0, 0.4776698851439453
497.0, 0.4828642104659823
498.0, 0.48389216115753864
499.0, 0.457978373284588
500.0, 0.4309551434899415
501.0, 0.4077393380147773
502.0, 0.35977452251155906
503.0, 0.3174140837991823
504.0, 0.28308944524012497
505.0, 0.25395262309574324
506.0, 0.209470250563871
507.0, 0.18404384816957495
508.0, 0.1629149871537426
509.0, 0.1419886655036545
510.0, 0.12408455651665345
511.0, 0.10425008287781184
512.0, 0.09352342949838979
513.0, 0.08992573873133221
514.0, 0.07143152145389653
515.0, 0.06821208466224199
516.0, 0.060619817969403834
517.0, 0.047671956170352824
518.0, 0.044009066085134975
519.0, 0.03934017727508771
520.0, 0.035127658799311116
521.0, 0.03046755008576828
522.0, 0.021478472270308864
523.0, 0.028873288758698788
524.0, 0.03657189165517164
525.0, 0.041978806070605605
526.0, 0.045961265431167325
527.0, 0.033700923471593855
528.0, 0.019704179992117946
529.0, 0.01162155143596093
530.0, 0.022089170061685325
531.0, 0.014359899761076267
532.0, 0.01299162794327872
533.0, 0.014518685054571314
534.0, 0.007288371063479683
535.0, 0.012165167634193185
536.0, 0.010777549587514788
537.0, 0.009052395388635899
538.0, 0.018377741978110568
539.0, 0.00826969868942066
540.0, 0.0030641065657241178
541.0, 0.0025113536520229105
542.0, 0.0048422113446051004
543.0, 0.005269395740171852
544.0, 0.007376947145236216
545.0, 0.008472532494904445
546.0, 0.00588722108725463
547.0, 0.008095202204010481
548.0, 0.004240679609841013
549.0, 0.0017244253803287033
550.0, 0.006245121239646859
551.0, 0.010298600550040544
552.0, 0.006025036721336185
553.0, 0.002408958740040489
554.0, 0.004399821856787616
555.0, 0.0035500312267186976
556.0, 0.005537493695401455
557.0, 0.009315495564425513
558.0, 0.012538150115846799
559.0, 0.002190520178956782
560.0, 0.000774768020610441
561.0, 0.0010586557209869476
562.0, 0.0006052876777771024
563.0, 0.0003049806143756612
564.0, 0.0019545318644316988
565.0, 0.0053751663360642275
566.0, 0.008175107357970324
567.0, 0.002513571688835403
568.0, 0.0007086849724664823
569.0, 0.004546171305523109
570.0, 0.009870199338645568
571.0, 0.0060126979756428755
572.0, 0.00513932561223487
573.0, 0.0036567788375482563
574.0, 0.005065518160163485
575.0, 0.016066874148752134
576.0, 0.004984714063320522
577.0, 0.003673755674799055
578.0, 0.005905279337641601
579.0, 0.0019985839631236975
580.0, 0.002233524342867763
581.0, 0.004909457423907832
582.0, 0.006162453841369587
583.0, 0.0030337932260468404
584.0, 0.004484655561303763
585.0, 0.01283711259124553
586.0, 0.01603282953379252
587.0, 0.009749937271170139
588.0, 0.02193654862533381
589.0, 0.01793625179956186
590.0, 0.011120339147520251
591.0, 0.00918254579615773
592.0, 0.02313165127716848
593.0, 0.02378504887442734
594.0, 0.024374573152250657
595.0, 0.026923088647823223
596.0, 0.026544827148153746
597.0, 0.028450643818509556
598.0, 0.031107508039566713
599.0, 0.03400693446639762
600.0, 0.03661545730982266
601.0, 0.03253858067268843
602.0, 0.032777128611734985
603.0, 0.03308633611086672
604.0, 0.026728476289091425
605.0, 0.05229955940174848
606.0, 0.0524002468383899
607.0, 0.0441666877395624
608.0, 0.04393725615503506
609.0, 0.058509852524658
610.0, 0.05420457728332528
611.0, 0.054139958835179795
612.0, 0.06737797508810896
613.0, 0.06460669251151488
614.0, 0.06801788828633083
615.0, 0.07100509090487013
616.0, 0.07223027220164246
617.0, 0.07544224901306501
618.0, 0.07608524276282762
619.0, 0.07597497421279278
620.0, 0.07699259911876533
621.0, 0.08259543148162629
622.0, 0.07438874187027128
623.0, 0.07379885634740328
624.0, 0.07952032039490146
625.0, 0.0869176665720909
626.0, 0.07179314172769716
627.0, 0.07917629737471972
628.0, 0.08743904504629128
629.0, 0.07878625583488132
630.0, 0.07238685521556315
631.0, 0.07225722946944797
632.0, 0.06716988869796299
633.0, 0.05633794503744064
634.0, 0.06852089459021249
635.0, 0.05714603059586505
636.0, 0.054579843593684695
637.0, 0.06400606795920616
638.0, 0.06718879880612288
639.0, 0.06288323970418125
640.0, 0.05625956341099987
641.0, 0.05142515054412026
642.0, 0.05399972084794953
643.0, 0.05193694843608552
644.0, 0.05009890459820758
645.0, 0.046996216817940625
646.0, 0.042034836746224755
647.0, 0.05721257773062339
648.0, 0.055191652682151086
649.0, 0.046166833596372185
650.0, 0.03863124474978401
651.0, 0.04960522353658498
652.0, 0.04054253056842529
653.0, 0.03903885995933175
654.0, 0.04508300735311878
655.0, 0.033801862029416735
656.0, 0.04026372921039952
657.0, 0.04281508758342322
658.0, 0.03911615430986871
659.0, 0.030232818526953212
660.0, 0.030155098595334245
661.0, 0.03150379444383508
662.0, 0.029038385352407707
663.0, 0.020333593411263846
664.0, 0.03310522426982984
665.0, 0.029036918078821774
666.0, 0.027679678992406382
667.0, 0.03361607525742362
668.0, 0.024333867124378655
669.0, 0.022977823758607546
670.0, 0.02118157347035078
671.0, 0.017773327092788792
672.0, 0.014453149401399244
673.0, 0.014878962692991755
674.0, 0.013273262717777188
675.0, 0.011300257875462325
676.0, 0.01146842443177017
677.0, 0.014443648838155432
678.0, 0.009715786378120645
679.0, 0.007776902601468322
680.0, 0.013194682321913856
681.0, 0.012771737199926254
682.0, 0.015728676749677886
683.0, 0.01608196805917913
684.0, 0.012949535578749064
685.0, 0.008932453683118366
686.0, 0.020663024119455742
687.0, 0.01849666855274145
688.0, 0.01420614441768051
689.0, 0.02805872519560973
690.0, 0.014236570438792093
691.0, 0.012237012764721467
692.0, 0.01260473726587909
693.0, 0.009806149023083452
694.0, 0.01354194981669546
695.0, 0.015640776035736124
696.0, 0.0187403144154075
697.0, 0.01940019561454596
698.0, 0.00491658034664281
699.0, 0.01435888103898483
700.0, 0.010340147822491319
701.0, 0.005890441977911937
702.0, 0.024503772214163614
703.0, 0.02032695195657925
704.0, 0.013539473887926298
705.0, 0.007782025520495075
706.0, 0.00564358796054561
707.0, 0.007992387412792939
708.0, 0.012674822550331758
709.0, 0.014409377841119089
710.0, 0.014339165823354268
711.0, 0.01968942401220193
712.0, 0.015510318722556767
713.0, 0.014362554608820874
714.0, 0.015747626500341855
715.0, 0.017213671378255704
716.0, 0.008497697653791027
717.0, 0.012226189019102131
718.0, 0.018360537099719777
719.0, 0.020253991456540353
720.0, 0.013291640342549604
721.0, 0.013065861653283252
722.0, 0.01680740744493954
723.0, 0.018953668615064097
724.0, 0.00965913838958496
725.0, 0.010696862892514633
726.0, 0.013470732271169818
727.0, 0.01686390586331378
728.0, 0.02005325102669033
729.0, 0.021095478254990384
730.0, 0.01691888590616804
731.0, 0.012205621538269849
732.0, 0.009525518376025392
733.0, 0.011135421909767906
734.0, 0.012752372983056866
735.0, 0.013626557092657055
736.0, 0.013819473491101847
737.0, 0.013604604911646152
738.0, 0.014072475327737597
739.0, 0.011451295022680125
740.0, 0.010490097082294923
741.0, 0.013647003777120786
742.0, 0.01846441046497116
743.0, 0.011465570501879843
744.0, 0.015266095323425584
745.0, 0.023758463707883256
746.0, 0.014603821277694893
747.0, 0.017789197369977326
748.0, 0.02058979392905364
749.0, 0.017218708116901012
750.0, 0.007641656250309761
751.0, 0.030719408709858127
752.0, 0.024164692847012326
753.0, 0.01690252930853845
754.0, 0.017688373192072185
755.0, 0.023708492415670135
756.0, 0.020155037419982605
757.0, 0.017370901035644835
758.0, 0.016734919704496753
759.0, 0.018724998722984523
760.0, 0.0247413201907159
761.0, 0.02702928193233609
762.0, 0.026723912448219242
763.0, 0.023797552781020987
764.0, 0.01640491902042674
765.0, 0.028148302650294887
766.0, 0.03059777284031941
767.0, 0.02777669262392198
768.0, 0.029576973795773544
769.0, 0.03314543219135683
770.0, 0.028361178880850275
771.0, 0.027167047359809595
772.0, 0.033004066814075333
773.0, 0.03492562877252096
774.0, 0.03028975056624721
775.0, 0.026160313384557363
776.0, 0.02781952048054473
777.0, 0.04044982206557163
778.0, 0.04767125803686998
779.0, 0.0366476112350252
780.0, 0.033146791358153946
781.0, 0.04627433710489079
782.0, 0.05165841504854993
783.0, 0.05129399981706644
784.0, 0.05534415655628392
785.0, 0.05778904163636613
786.0, 0.04776684024694676
787.0, 0.06235910293517058
788.0, 0.054740062631336926
789.0, 0.049760223426274286
790.0, 0.05835099091894718
791.0, 0.064448370371324
792.0, 0.059812972440345384
793.0, 0.061801618678495714
794.0, 0.06354938620908429
795.0, 0.05154705870194405
796.0, 0.060585167462292144
797.0, 0.05932662705358387
798.0, 0.04935821278809754
799.0, 0.04016910131988289
800.0, 0.06572694815136156
801.0, 0.05623843770759386
802.0, 0.0562900543810648
803.0, 0.060748088177561006
804.0, 0.053679175436497
805.0, 0.04066536061049432
806.0, 0.03912285465748908
807.0, 0.041710007108651644
808.0, 0.04338372361242813
809.0, 0.03955582463756509
810.0, 0.04070063665730951
811.0, 0.03402648676330897
812.0, 0.029684435574847443
813.0, 0.03832532511662945
814.0, 0.019670247506382688
815.0, 0.02105148255873154
816.0, 0.030672312664137672
817.0, 0.03806873055129446
818.0, 0.02807776205150026
819.0, 0.022099835223147922
820.0, 0.02040502367144461
821.0, 0.015587513036297067
822.0, 0.003989699889342795
823.0, 0.013776557907690756
824.0, 0.0060229540874311635
825.0, 0.0003642071298881871
826.0, 0.0029344427812418557
827.0, 0.013765407218118161
828.0, 0.0066904982123616235
829.0, 0.013122190092196638
830.0, 0.016499091381251822
831.0, 0.008411257061692639
832.0, 0.010908144947032274
833.0, 0.0041316178111663986
834.0, 0.0005586353383737428
835.0, 0.001105450952371656
836.0, 0.0031000855606865955
837.0, 0.002873700454306821
838.0, 0.002011962319824105
839.0, 0.002103666503347061
840.0, 0.0036748259560459027
841.0, 0.005831136379578253
842.0, 0.008366754681849291
843.0, 0.009562020439611435
844.0, 0.01103465576652575
845.0, 0.013529594007834968
846.0, 0.005876336026292306
847.0, 0.0030678536379978656
848.0, 0.004712982081111364
849.0, 0.006805376642676915
850.0, 0.0015220062294199008
851.0, 0.0030089653591156827
852.0, 0.003809142065217144
853.0, 0.0034319881320339545
854.0, 0.003208773248763533
855.0, 0.010117042532120687
856.0, 0.012393952636924301
857.0, 0.0073422606420713325
858.0, 0.007467067525577192
859.0, 0.025469516797362507
860.0, 0.005996861091560437
861.0, 0.006199753666650994
862.0, 0.012391001010566017
863.0, 0.014326891315252877
864.0, 0.0007999180551692599
865.0, 0.009107985350803902
866.0, 0.006430263287147318
867.0, 0.0047166452237336325
868.0, 0.01156890952899015
869.0, 0.01256205434498484
870.0, 0.0048010561153558375
871.0, 0.0035771522799209797
872.0, 0.00564269154931032
873.0, 0.0036149409677264342
874.0, 0.015715339662542953
875.0, 0.01969349873772907
876.0, 0.012503390450076748
877.0, 0.0005092643998183241
878.0, 0.0017189707786706152
879.0, 0.014542911110828963
880.0, 0.012237594927099532
881.0, 0.007114094563307678
882.0, 0.0072420965698248956
883.0, 0.0026851936166950013
884.0, 0.011626097871158411
885.0, 0.012044148775473412
886.0, 0.006218233001010438
887.0, 0.0018677306863222017
888.0, 0.0010010215106590718
889.0, 0.0006268746902311342
890.0, 0.0026500760039989556
891.0, 0.004736081542877896
892.0, 0.000953528685080729
893.0, 0.001152580391229967
894.0, 0.004097658564756031
895.0, 0.006487762865987974
896.0, 0.005874661121986886
897.0, 0.0006487332123507406
898.0, 0.0006989656138867182
899.0, 0.0026500868517077857
900.0, 0.0037853224558744426
901.0, 0.0023626488598756422
902.0, 0.001893669626218132
903.0, 0.0012532826390399636
904.0, 0.00683022520602893
905.0, 0.010758650629908254
906.0, 0.000933019700492704
907.0, 0.017430123502872066
908.0, 0.014405705520122913
909.0, 0.007967323378602209
910.0, 0.0054591975437223985
911.0, 0.00769409422273078
912.0, 0.015338736733942537
913.0, 0.015321243910019358
914.0, 0.01251610962227868
915.0, 0.010848470252259547
916.0, 0.011318561689633256
917.0, 0.004876761272758428
918.0, 0.0061006670210618915
919.0, 0.008348948188386503
920.0, 0.005527682628128193
921.0, 0.012112316111679575
922.0, 0.01048774514307351
923.0, 0.019705335409828464
924.0, 0.025601703153576898
925.0, 0.005695992818103554
926.0, 0.002219660232281854
927.0, 0.007263488806335567
928.0, 0.007383620927186134
929.0, 0.003335186124467443
930.0, 0.006189288986153579
931.0, 0.01090361132574725
932.0, 0.005595510421793247
933.0, 0.007157555908351411
934.0, 0.015498838651799785
935.0, 0.004349172246949119
936.0, 0.007312682528614264
937.0, 0.007552725444945138
938.0, 0.005009957944382735
939.0, 0.00220239599620592
940.0, 0.006330893033961872
941.0, 0.013778924801869971
942.0, 0.010345729536720163
943.0, 0.005062390702312805
944.0, 0.006906210733112754
945.0, 0.0029083489302697426
946.0, 0.01479555414857521
947.0, 0.017377704654600756
948.0, 0.013349624661359721
949.0, 0.013173698519881007
950.0, 0.014159225184796885
951.0, 0.021685968855140517
952.0, 0.02429753925573347
953.0, 0.020469469386274242
954.0, 0.013906769195014157
955.0, 0.004910627696258768
956.0, 0.012207267410328383
957.0, 0.013313895842241266
958.0, 0.0078945845002574
959.0, 0.015121322610042717
960.0, 0.019263100746640536
961.0, 0.022458044508392862
962.0, 0.022660482423136327
963.0, 0.018293023421299102
964.0, 0.00804985123871707
965.0, 0.013013094172763228
966.0, 0.010401023628603496
967.0, 0.008475162607839072
968.0, 0.010357697709517133
969.0, 0.005097846509338956
970.0, 0.01717657613021923
971.0, 0.014380114562037026
972.0, 0.009399491413388372
973.0, 0.01132445357743404
974.0, 0.004676563339936214
975.0, 0.02218042054297011
976.0, 0.026432711579469557
977.0, 0.019556040439174797
978.0, 0.012287196437121506
979.0, 0.02578418174501957
980.0, 0.012499915852974348
981.0, 0.013482583442285138
982.0, 0.018088965543074025
983.0, 0.011806027181545895
984.0, 0.027178589278091022
985.0, 0.02548213054156758
986.0, 0.02487540606047785
987.0, 0.02598306088645533
988.0, 0.025833243652815613
989.0, 0.03368980300136467
990.0, 0.027899556285237857
991.0, 0.031039704083376144
992.0, 0.04052083052837033
993.0, 0.04442200589979268
994.0, 0.033516187422823224
995.0, 0.03284945368117257
996.0, 0.035187818161666516
997.0, 0.03514483898592166
998.0, 0.02979969089512762
999.0, 0.043819634583101244
1000.0, 0.0429718130878178
1001.0, 0.05187148047860452
1002.0, 0.06498628904375182
1003.0, 0.06200361836193396
1004.0, 0.04605890811552779
1005.0, 0.0455931277936554
1006.0, 0.03784640058223114
1007.0, 0.030387082525650613
1008.0, 0.046097875987598125
1009.0, 0.05274765840095633
1010.0, 0.04106704727218604
1011.0, 0.03939389274240002
1012.0, 0.04557224980234194
1013.0, 0.04032572985587762
1014.0, 0.05141941035874639
1015.0, 0.05950667192685801
1016.0, 0.052323098935557394
1017.0, 0.04430058453199852
1018.0, 0.06425219819696176
1019.0, 0.05272489094522997
1020.0, 0.05107798092871233
1021.0, 0.05917843518433045
1022.0, 0.06595758143738142
1023.0, 0.05543081833182797
1024.0, 0.07030998612732754
1025.0, 0.06758209431870166
1026.0, 0.054881429694336334
1027.0, 0.04907114402962729
1028.0, 0.06905560234378863
1029.0, 0.04994500853252369
1030.0, 0.050391046054395705
1031.0, 0.057407176401435944
1032.0, 0.05881344070824432
1033.0, 0.0453091949879674
1034.0, 0.05327789221263765
1035.0, 0.05821769326661976
1036.0, 0.04906650615853254
1037.0, 0.04441588220738979
1038.0, 0.06970889358116583
1039.0, 0.04429027644892915
1040.0, 0.057486554004260275
1041.0, 0.06926112613667221
1042.0, 0.06569351470350612
1043.0, 0.04890168237819949
1044.0, 0.06756033260668774
1045.0, 0.048484892813248484
1046.0, 0.04770858995728498
1047.0, 0.06301446348316114
1048.0, 0.0716729833894926
1049.0, 0.056925610491412086
1050.0, 0.0619460968724368
1051.0, 0.0659338958887655
1052.0, 0.060373165308860194
1053.0, 0.04850791572227591
1054.0, 0.07798867202505998
1055.0, 0.06673450799823591
1056.0, 0.060198689588916734
1057.0, 0.06121843990868993
1058.0, 0.06463521823410169
1059.0, 0.07076766768164268
1060.0, 0.06727878521288694
1061.0, 0.05730922205591506
1062.0, 0.051226356460218204
1063.0, 0.05431068982649212
1064.0, 0.05476344292920862
1065.0, 0.06047258978346613
1066.0, 0.051111606216131485
1067.0, 0.049480491443982866
1068.0, 0.059037818487274886
1069.0, 0.03611039883777674
1070.0, 0.06447823802004034
1071.0, 0.0614795067690086
1072.0, 0.050954311019917965
1073.0, 0.05300584097279208
1074.0, 0.0743533963668197
1075.0, 0.04235274371017255
1076.0, 0.04622519353760391
1077.0, 0.05288062617870923
1078.0, 0.04954002235519169
1079.0, 0.04479328494161819
1080.0, 0.05412392696456855
1081.0, 0.054024557718074136
1082.0, 0.05408368877659507
1083.0, 0.062233011725647186
1084.0, 0.08068721820305765
1085.0, 0.05633074340410671
1086.0, 0.07232232720461959
1087.0, 0.08711668376203911
1088.0, 0.0821076114616314
1089.0, 0.05777269233657051
1090.0, 0.07537078857885274
1091.0, 0.0693049592281641
1092.0, 0.07792494028645253
1093.0, 0.08844184546056828
1094.0, 0.08317409241428915
1095.0, 0.06715751264158615
1096.0, 0.07903118299004297
1097.0, 0.08231122432252831
1098.0, 0.07914887852446999
1099.0, 0.07801501508684128
1100.0, 0.09056390231240345
1101.0, 0.07311579513759627
1102.0, 0.07720610951699967
1103.0, 0.08884758845684163
1104.0, 0.09451313077435314
1105.0, 0.08607065964688955
1106.0, 0.11196580171525113
1107.0, 0.0972203884750496
1108.0, 0.09283983445735061
1109.0, 0.10418551050190869
1110.0, 0.10829093536007843
1111.0, 0.09351212005304765
1112.0, 0.10803506960297489
1113.0, 0.10646002865782186
1114.0, 0.09580153367532246
1115.0, 0.09647219222143387
1116.0, 0.11033321131310314
1117.0, 0.10138342084253164
1118.0, 0.11124017238206829
1119.0, 0.11318989277417292
1120.0, 0.09613982823500386
1121.0, 0.10592197019371187
1122.0, 0.11190342826738182
1123.0, 0.11468436821657552
1124.0, 0.10864532465177108
1125.0, 0.0998811413061893
1126.0, 0.10600997140308105
1127.0, 0.1041677987146108
1128.0, 0.10208315588327604
1129.0, 0.10625493339184451
1130.0, 0.10865805331837344
1131.0, 0.09973875038337204
1132.0, 0.11837566127844958
1133.0, 0.11649933632173308
1134.0, 0.11805241909971392
1135.0, 0.12468371659093047
1136.0, 0.130081677100795
1137.0, 0.12100643474509594
1138.0, 0.12276419063174557
1139.0, 0.1301822913434437
1140.0, 0.12438890315149205
1141.0, 0.10906066559425788
1142.0, 0.11862440586049797
1143.0, 0.12295555543137862
1144.0, 0.10258394904179922
1145.0, 0.11659873672705437
1146.0, 0.13822895205707747
1147.0, 0.10443593336777551
1148.0, 0.10713818112480732
1149.0, 0.12426687295385024
1150.0, 0.12234004212338745
1151.0, 0.1209181619714275
1152.0, 0.13461820577420683
1153.0, 0.12112959432124455
1154.0, 0.10699068170333373
1155.0, 0.12312257522212469
1156.0, 0.12327797443962707
1157.0, 0.10477577121768775
1158.0, 0.12257977304084902
1159.0, 0.11150394895420332
1160.0, 0.12180322763109516
1161.0, 0.12512319170277605
1162.0, 0.11872306793594192
1163.0, 0.1118093883330029
1164.0, 0.10151489530130103
1165.0, 0.12788992590184925
1166.0, 0.11306098987397599
1167.0, 0.09661988233520975
1168.0, 0.10959772152943399
1169.0, 0.11854075421974072
1170.0, 0.09744712563065787
1171.0, 0.1102623998864526
1172.0, 0.11798759703295847
1173.0, 0.11186005813989253
1174.0, 0.10994718591614068
1175.0, 0.1099278994343264
1176.0, 0.09632876659235119
1177.0, 0.10271809974240186
1178.0, 0.11217995693480999
1179.0, 0.10395057502821907
1180.0, 0.09226727757548901
1181.0, 0.11200912678496652
1182.0, 0.10340267134277412
1183.0, 0.09125255962504861
1184.0, 0.09289207898747678
1185.0, 0.10653342335740314
1186.0, 0.07944792475914263
1187.0, 0.09593296717318972
1188.0, 0.1038629209639376
1189.0, 0.09388043398364958
1190.0, 0.07967333727268759
1191.0, 0.09492602854404225
1192.0, 0.07951509034948698
1193.0, 0.07668940476430382
1194.0, 0.07581676169927955
1195.0, 0.06890411368499891
1196.0, 0.05941652981983317
1197.0, 0.06279197853816385
1198.0, 0.0668603294873494
1199.0, 0.06401173337782387
1200.0, 0.06202469889424241
1201.0, 0.06772204719588223
1202.0, 0.05793577165471444
1203.0, 0.05994755024300594
1204.0, 0.06034014806998785
1205.0, 0.05373156510130444
1206.0, 0.04645916807664336
1207.0, 0.0554065542971551
1208.0, 0.049761370713418115
1209.0, 0.03704617857786343
1210.0, 0.04521883685977175
1211.0, 0.04902693202010144
1212.0, 0.026706791495572625
1213.0, 0.04518917869664344
1214.0, 0.05111480051568819
1215.0, 0.04248966056089112
1216.0, 0.046623816724868025
1217.0, 0.056803366606374736
1218.0, 0.03416484222492804
1219.0, 0.035298774807020976
1220.0, 0.049293654609586984
1221.0, 0.03838619174263667
1222.0, 0.025683656301430016
1223.0, 0.03565776396868036
1224.0, 0.04190412400787596
1225.0, 0.010816436133968136
1226.0, 0.027820018767689927
1227.0, 0.042538170517369606
1228.0, 0.036454147036522305
1229.0, 0.02601600909828244
1230.0, 0.038710124532915564
1231.0, 0.038526984747448444
1232.0, 0.044868652883172266
1233.0, 0.04837633919401559
1234.0, 0.04171249377782867
1235.0, 0.03280164810351642
1236.0, 0.04873253690547002
1237.0, 0.052995212380604964
1238.0, 0.041630727665457834
1239.0, 0.03192618283541163
1240.0, 0.04241926589753248
1241.0, 0.05123687027363749
1242.0, 0.026176315091983454
1243.0, 0.03820785841827767
1244.0, 0.039567009764619104
1245.0, 0.024932474200137
1246.0, 0.04295764288274637
1247.0, 0.04272469390942978
1248.0, 0.020733205974905924
1249.0, 0.040215420826620545
1250.0, 0.05198933845765002
1251.0, 0.02251294599489318
1252.0, 0.023610070951166153
1253.0, 0.056566409441311846
1254.0, 0.02604459478807971
1255.0, 0.021788175995528958
1256.0, 0.04660258152362049
1257.0, 0.052555340207715434
1258.0, 0.018020978453778817
1259.0, 0.04224168087322401
1260.0, 0.05080397486155793
1261.0, 0.03944026203973717
1262.0, 0.025013020741357212
1263.0, 0.032232723301336405
1264.0, 0.03522554158413142
1265.0, 0.033240264245320984
1266.0, 0.04201739058500144
1267.0, 0.03300549567303796
1268.0, 0.010342560109498522
1269.0, 0.05475723815731523
1270.0, 0.040211235400039465
1271.0, 0.023082636747951704
1272.0, 0.027589612626683087
1273.0, 0.034295554889479614
1274.0, 0.019356350020419938
1275.0, 0.012632421321327605
1276.0, 0.04962726673770329
1277.0, 0.03157738529010036
1278.0, 0.022522837763084433
1279.0, 0.038481973017703404
1280.0, 0.04721582633083298
1281.0, 0.01320055018607974
1282.0, 0.02466058565175918
1283.0, 0.01933364124606581
1284.0, 0.01063058461613408
1285.0, 0.016344123972486246
1286.0, 0.03838260622720626
1287.0, 0.0055495615879288945
1288.0, 0.02096553154806975
1289.0, 0.018711340950444872
1290.0, 0.006444603680116201
1291.0, 0.007825481251117575
1292.0, 0.03542181306015189
1293.0, 0.0068113930857492695
1294.0, 0.004874505741226661
1295.0, 0.020967154778730745
1296.0, 0.02724885294846789
1297.0, 0.010614809806628088
1298.0, 0.010874231930736231
1299.0, 0.023261469921260883
1300.0, 0.022651026363406192
1301.0, 0.028698117742289697
1302.0, 0.03216546119001195
1303.0, 0.01752523985629747
1304.0, 0.007075071070660779
1305.0, 0.019916112614162672
1306.0, 0.01617355529491893
1307.0, 0.015342354635241808
1308.0, 0.016973985826088972
1309.0, 0.009323913338064826
1310.0, 0.015371389516643052
1311.0, 0.016632528947347926
1312.0, 0.01746352771289054
1313.0, 0.012661467805122319
1314.0, 0.010699611470864515
1315.0, 0.024235053897507443
1316.0, 0.004787265327349357
1317.0, 0.02156860954710698
1318.0, 0.02730957156580046
1319.0, 0.017930499275442192
1320.0, 0.008981380349001708
1321.0, 0.02252483453585735
1322.0, 0.02462325999822512
1323.0, 0.007439051100331518
1324.0, 0.01662438784116935
1325.0, 0.023403135348819923
1326.0, 0.015604004058684161
1327.0, 0.02057654150744085
1328.0, 0.029843680720170282
1329.0, 0.01049289491814651
1330.0, 0.014294580175321474
1331.0, 0.024687415614929775
1332.0, 0.021489550618666847
1333.0, 0.007110992577915381
1334.0, 0.0032818986740527478
1335.0, 0.026604508499307768
1336.0, 0.022526800698335618
1337.0, 0.017868837455910627
1338.0, 0.028121968362871376
1339.0, 0.01832516987006759
1340.0, 0.007244190435903186
1341.0, 0.0226224994256283
1342.0, 0.020166369327595933
1343.0, 0.015507786087735488
1344.0, 0.02017660549125433
1345.0, 0.012417773920524351
1346.0, 0.021623112054335872
1347.0, 0.03357487076430384
1348.0, 0.024680295848655977
1349.0, 0.01816988903034035
1350.0, 0.03361791915144419
1351.0, 0.05738863970949373
1352.0, 0.008761431251822303
1353.0, 0.021093586696118778
1354.0, 0.04139489686212107
1355.0, 0.033521862317094836
1356.0, 0.014034737429054422
1357.0, 0.05551179257557585
1358.0, 0.022103333643430402
1359.0, 0.005926768681140302
1360.0, 0.026984386959095198
1361.0, 0.036276684143373324
1362.0, 0.016775278248073424
1363.0, 0.019280797830537964
1364.0, 0.03042172194199228
1365.0, 0.011412025436116828
1366.0, 0.015745094525181833
1367.0, 0.027190146245661382
1368.0, 0.026334487331127435
1369.0, 0.014399464838659668
1370.0, 0.003392037800874735
1371.0, 0.0014900313540713583
1372.0, 0.009672596781840306
1373.0, 0.02531548805110562
1374.0, 0.03401133787223558
1375.0, 0.01776752460371863
1376.0, 0.009839914498247117
1377.0, 0.036719948206122094
1378.0, 0.019217674158762518
1379.0, 0.013241650971489924
1380.0, 0.034383356675437085
1381.0, 0.04232415775499837
1382.0, 0.014314330967196448
1383.0, 0.05366291510026447
1384.0, 0.04923093429402797
1385.0, 0.038030206378481424
1386.0, 0.044323414578836685
1387.0, 0.05895183915008256
1388.0, 0.03878582155493468
1389.0, 0.033580277178590696
1390.0, 0.03914902172167778
1391.0, 0.02853454035616475
1392.0, 0.029598540724754818
1393.0, 0.06635119038863634
1394.0, 0.0626194386334833
1395.0, 0.02809708627645957
1396.0, 0.05460643502293209
1397.0, 0.04973441553145853
1398.0, 0.026047934631228988
1399.0, 0.029344017232905778
1400.0, 0.06368486137960999
1401.0, 0.03421208985328528
1402.0, 0.036547916226489494
1403.0, 0.04839087242676725
1404.0, 0.04155848698921934
1405.0, 0.028222124283982054
1406.0, 0.06229888000529381
1407.0, 0.030430250398787734
1408.0, 0.025702454823624498
1409.0, 0.043564185701624215
1410.0, 0.04406689369103177
1411.0, 0.024513848851311387
1412.0, 0.024365856889923588
1413.0, 0.06521442345652385
1414.0, 0.03413357468262547
1415.0, 0.026328616799232433
1416.0, 0.045493118011474036
1417.0, 0.04978620279609667
1418.0, 0.016144385389015033
1419.0, 0.04863593392718332
1420.0, 0.036978028284038504
1421.0, 0.018515271126716856
1422.0, 0.03492874680540875
1423.0, 0.041736635610720045
1424.0, 0.015093409619455602
1425.0, 0.03810269975409797
1426.0, 0.05895675711151312
1427.0, 0.031059138380697404
1428.0, 0.02067252641040161
1429.0, 0.03606874057720923
1430.0, 0.045965366729557935
1431.0, 0.015193163262984883
1432.0, 0.05076421091179015
1433.0, 0.05246420481186651
1434.0, 0.0313158870990704
1435.0, 0.038664622963534685
1436.0, 0.05526603998969709
1437.0, 0.03514929059472768
1438.0, 0.03041211150677438
1439.0, 0.05520848531423923
1440.0, 0.04109549886164462
1441.0, 0.04865568431195689
1442.0, 0.06773472033382022
1443.0, 0.06207958237859086
1444.0, 0.021595986418444547
1445.0, 0.061107120102493334
1446.0, 0.06065001445153982
1447.0, 0.0383577184968922
1448.0, 0.0520942038374287
1449.0, 0.08399961167062411
1450.0, 0.06004114056650503
1451.0, 0.046491995100860904
1452.0, 0.0671388306375751
1453.0, 0.05680795160778864
1454.0, 0.055332068624596616
1455.0, 0.07240544475113261
1456.0, 0.0806276628008407
1457.0, 0.032623725601491446
1458.0, 0.08125247906654792
1459.0, 0.07629791535815876
1460.0, 0.05723214705643147
1461.0, 0.06104170210136298
1462.0, 0.07939957561558764
1463.0, 0.06699478619693337
1464.0, 0.06114814011825489
1465.0, 0.08548325202136339
1466.0, 0.06410280002488944
1467.0, 0.05027860256762593
1468.0, 0.06422911349204448
1469.0, 0.07888300853966315
1470.0, 0.03840143703901482
1471.0, 0.07428922679404383
1472.0, 0.06951154637584869
1473.0, 0.046455518111576784
1474.0, 0.04981221559610013
1475.0, 0.07330603879650752
1476.0, 0.05739086196707954
1477.0, 0.016257101533414118
1478.0, 0.08132543207773955
1479.0, 0.05471946781908147
1480.0, 0.048215695296993724
1481.0, 0.06915660592383367
1482.0, 0.06336223023514592
1483.0, 0.02846021423788212
1484.0, 0.05798331652625996
1485.0, 0.05621179546526692
1486.0, 0.0410289175489111
1487.0, 0.04282221429398706
1488.0, 0.058099345401659605
1489.0, 0.05151383021275472
1490.0, 0.011127805122624748
1491.0, 0.06107597407728603
1492.0, 0.05360820393875659
1493.0, 0.024379050898208996
1494.0, 0.02246788936294825
1495.0, 0.0420201812111705
1496.0, 0.008209757176461913
1497.0, 0.041914364772680235
1498.0, 0.04345650754630548
1499.0, 0.02493886061666007
1500.0, 0.025617922465384337
1501.0, 0.03916455801368299
1502.0, 0.0327925046564793
1503.0, 0.008773129660349488
1504.0, 0.06481117335145835
1505.0, 0.04289503638099441
1506.0, 0.033191961736164906
1507.0, 0.03664634181291979
1508.0, 0.029987494450167646
1509.0, 0.010152042568349928
1510.0, 0.03516286593812818
1511.0, 0.0519620382888462
1512.0, 0.020025751518828124
1513.0, 0.02295814552186994
1514.0, 0.040317822367149606
1515.0, 0.030966773343681423
1516.0, 0.013691245753872998
1517.0, 0.023416813469072397
1518.0, 0.020917033327020308
1519.0, 0.00751039303512627
1520, 0.0
1521, 0.0
1522, 0.0
1523, 0.0
1524, 0.0
1525, 0.0
1526, 0.0
1527, 0.0
1528, 0.0
1529, 0.0
1530, 0.0
1531, 0.0
1532, 0.0
1533, 0.0
1534, 0.0
1535, 0.0
1536, 0.0
1537, 0.0
1538, 0.0
1539, 0.0
1540, 0.0
1541, 0.0
1542, 0.0
1543, 0.0
1544, 0.0
1545, 0.0
1546, 0.0
1547, 0.0
1548, 0.0
1549, 0.0
1550, 0.0
1551, 0.0
1552, 0.0
1553, 0.0
1554, 0.0
1555, 0.0
1556, 0.0
1557, 0.0
1558, 0.0
1559, 0.0
1560, 0.0
1561, 0.0
1562, 0.0
1563, 0.0
1564, 0.0
1565, 0.0
1566, 0.0
1567, 0.0
1568, 0.0
1569, 0.0
1570, 0.0
1571, 0.0
1572, 0.0
1573, 0.0
1574, 0.0
1575, 0.0
1576, 0.0
1577, 0.0
1578, 0.0
1579, 0.0
1580, 0.0
1581, 0.0
1582, 0.0
1583, 0.0
1584, 0.0
1585, 0.0
1586, 0.0
1587, 0.0
1588, 0.0
1589, 0.0
1590, 0.0
1591, 0.0
1592, 0.0
1593, 0.0
1594, 0.0
1595, 0.0
1596, 0.0
1597, 0.0
1598, 0.0
1599, 0.0
