30, 0.0
31, 0.0
32, 0.0
33, 0.0
34, 0.0
35, 0.0
36, 0.0
37, 0.0
38, 0.0
39, 0.0
40, 0.0
41, 0.0
42, 0.0
43, 0.0
44, 0.0
45, 0.0
46, 0.0
47, 0.0
48, 0.0
49, 0.0
50, 0.0
51, 0.0
52, 0.0
53, 0.0
54, 0.0
55, 0.0
56, 0.0
57, 0.0
58, 0.0
59, 0.0
60, 0.0
61, 0.0
62, 0.0
63, 0.0
64, 0.0
65, 0.0
66, 0.0
67, 0.0
68, 0.0
69, 0.0
70, 0.0
71, 0.0
72, 0.0
73, 0.0
74, 0.0
75, 0.0
76, 0.0
77, 0.0
78, 0.0
79, 0.0
80, 0.0
81, 0.0
82, 0.0
83, 0.0
84.0, 2.5041324966353116e-05
85.0, 0.00010224769926368135
86.0, 0.0003808195815135605
87.0, 0.0020722743617806088
88.0, 0.003921864717891563
89.0, 0.004936350073998211
90.0, 0.010578063507356116
91.0, 0.017721145111254916
92.0, 0.025965544881981602
93.0, 0.03499596202732235
94.0, 0.04393627166847748
95.0, 0.051739143770748834
96.0, 0.05646197429501061
97.0, 0.06393817551323278
98.0, 0.06755095400388234
99.0, 0.06601168555573889
100.0, 0.07197346581796535
101.0, 0.07641508812843996
102.0, 0.08051999739778053
103.0, 0.08664917075300443
104.0, 0.08901588073455116
105.0, 0.0909045867476956
106.0, 0.09337322472072873
107.0, 0.10301942453806
108.0, 0.11025308653959956
109.0, 0.11680281374048834
110.0, 0.1278508757324538
111.0, 0.13225674851796887
112.0, 0.13970451373277754
113.0, 0.15554156098842736
114.0, 0.16853721592076412
115.0, 0.17929399180068595
116.0, 0.1877842978536074
117.0, 0.19306729523927796
118.0, 0.20395544554116873
119.0, 0.2204352435799577
120.0, 0.24398384610462176
121.0, 0.24182612984822677
122.0, 0.24283487833559303
123.0, 0.2464457503060686
124.0, 0.24016333400380965
125.0, 0.2360505469948233
126.0, 0.23200049949268564
127.0, 0.2264280187177029
128.0, 0.2176369597158969
129.0, 0.21610960260643147
130.0, 0.2193766997428427
131.0, 0.20689625114878335
132.0, 0.2031466051201761
133.0, 0.20041160330978705
134.0, 0.19238926096335118
135.0, 0.18752897807883773
136.0, 0.1823465233874977
137.0, 0.17632673982374772
138.0, 0.16833242113875718
139.0, 0.1643125086385547
140.0, 0.16061193417037267
141.0, 0.15405724490230752
142.0, 0.1550051063666652
143.0, 0.15197712001537278
144.0, 0.14500120230850658
145.0, 0.14230791490625413
146.0, 0.1424022078756041
147.0, 0.14266031621871855
148.0, 0.14082491391454163
149.0, 0.14440917211494633
150.0, 0.14475058694892765
151.0, 0.14253085230610743
152.0, 0.14704884844050276
153.0, 0.14477969276338054
154.0, 0.14291273632545154
155.0, 0.1473088134978022
156.0, 0.14801845235738456
157.0, 0.14559625827582132
158.0, 0.14167700754115622
159.0, 0.14432694630028875
160.0, 0.1374644469464346
161.0, 0.1312263295973292
162.0, 0.13268686309831806
163.0, 0.12741869983563692
164.0, 0.12299637950399125
165.0, 0.11950458362134005
166.0, 0.11562473051946255
167.0, 0.10846331358703304
168.0, 0.10330296429546097
169.0, 0.1033716383516035
170.0, 0.09481826095304152
171.0, 0.09063212298016754
172.0, 0.08906826352135597
173.0, 0.0842109368660255
174.0, 0.07926456747854418
175.0, 0.07592979621500226
176.0, 0.07502316663381989
177.0, 0.06664697196985964
178.0, 0.06281536883331498
179.0, 0.060797142069312804
180.0, 0.055057616873198996
181.0, 0.05469986864075019
182.0, 0.05262016491747284
183.0, 0.04700583067594605
184.0, 0.04375590673377167
185.0, 0.040307385735174554
186.0, 0.03691872689420281
187.0, 0.033988581316675974
188.0, 0.03348977318382099
189.0, 0.03133028405189978
190.0, 0.02743187710841897
191.0, 0.027602895988118232
192.0, 0.023422116924292226
193.0, 0.019062648155736175
194.0, 0.018310236252677158
195.0, 0.018561217365846816
196.0, 0.014994070322236375
197.0, 0.009174130094293582
198.0, 0.009818335930390167
199.0, 0.007285465789210122
200.0, 0.006052756517466056
201.0, 0.008708663795875834
202.0, 0.0031321056031430685
203.0, 0.0008426923611071529
204.0, 0.0011222974374857097
205.0, 0.002378853719618709
206.0, 0.0038381154356947346
207.0, 0.003599413265986697
208.0, 0.0014491349817421706
209.0, 0.00578291814106548
210.0, 0.006927301963627542
211.0, 0.005984069293272734
212.0, 0.003810570502324014
213.0, 0.006183307597881342
214.0, 0.00755864969485828
215.0, 0.007780341513350492
216.0, 0.010425601349535546
217.0, 0.00894913644277008
218.0, 0.007604560258145453
219.0, 0.009170920030746106
220.0, 0.006071710482737772
221.0, 0.005014446683601245
222.0, 0.005628786760263545
223.0, 0.006741969084803186
224.0, 0.004801652561591318
225.0, 0.004774089268498083
226.0, 0.0077726075722814834
227.0, 0.005485496878896391
228.0, 0.0056079891692471335
229.0, 0.006684645536872135
230.0, 0.007217903001052359
231.0, 0.004090467799412117
232.0, 0.0028955329319351325
233.0, 0.00326374511945927
234.0, 0.0006825122263555122
235.0, 0.001395295539355322
236.0, 0.0020307424846891776
237.0, 0.0009230195046916897
238.0, 0.0008427763676563434
239.0, 0.0005619742844910629
240.0, 0.0009255966749186968
241.0, 0.003660314212084244
242.0, 0.004555935413220426
243.0, 0.006297402649516203
244.0, 0.008869632112340157
245.0, 0.008375793759208187
246.0, 0.009014481236706152
247.0, 0.011276470648144517
248.0, 0.01576732940136172
249.0, 0.015709736597529132
250.0, 0.019012885375746868
251.0, 0.022978565536805176
252.0, 0.02072319452519898
253.0, 0.025299160467790495
254.0, 0.02932011630045684
255.0, 0.03119575184005934
256.0, 0.033364040363577284
257.0, 0.03598057396496784
258.0, 0.03711799246305936
259.0, 0.034924233544346886
260.0, 0.04140521577020919
261.0, 0.043546024668448514
262.0, 0.044068729545670524
263.0, 0.051406660417290966
264.0, 0.053671659241706464
265.0, 0.05605483333586272
266.0, 0.059976942978836975
267.0, 0.06590336020586937
268.0, 0.06672543754639121
269.0, 0.06854189793954114
270.0, 0.076491036381263
271.0, 0.07842350650805138
272.0, 0.08240872003729302
273.0, 0.08813653047767149
274.0, 0.09435065038548557
275.0, 0.09898038430844013
276.0, 0.10537085600443948
277.0, 0.11296091077573538
278.0, 0.1102314276751424
279.0, 0.11534303341384806
280.0, 0.11991766532605667
281.0, 0.11811207488513789
282.0, 0.12431040079681414
283.0, 0.12785968080812157
284.0, 0.12899722032549188
285.0, 0.12810491124150641
286.0, 0.1299325874233941
287.0, 0.1279264381841449
288.0, 0.12255560976672018
289.0, 0.1230444376257569
290.0, 0.1225706543936077
291.0, 0.11988810258981211
292.0, 0.1143741135715692
293.0, 0.11499239659753939
294.0, 0.10914324143388028
295.0, 0.1031233362853496
296.0, 0.1052970929828254
297.0, 0.09925336155762206
298.0, 0.0949630434323584
299.0, 0.09263727770511855
300.0, 0.0899183888799061
301.0, 0.08527732929356266
302.0, 0.08271640499811596
303.0, 0.08280637204357584
304.0, 0.07739324368156661
305.0, 0.07432721403315633
306.0, 0.07220276122346236
307.0, 0.07007230909177727
308.0, 0.0674693504626441
309.0, 0.06794546366087688
310.0, 0.06835252017936941
311.0, 0.06272040658181263
312.0, 0.06472803080110592
313.0, 0.06396938432698118
314.0, 0.060618428196990704
315.0, 0.062176757334653485
316.0, 0.06222748745291988
317.0, 0.061265994732106324
318.0, 0.059797368111882195
319.0, 0.06304006516102824
320.0, 0.060874761965741514
321.0, 0.059131006382511696
322.0, 0.0628223961741491
323.0, 0.06036597352842218
324.0, 0.061389767003763925
325.0, 0.06372828805602114
326.0, 0.06297572863111899
327.0, 0.06054013900982017
328.0, 0.06077963356411697
329.0, 0.06282723695574684
330.0, 0.06064012107273531
331.0, 0.06300436157377184
332.0, 0.06323341434529543
333.0, 0.05967999863880285
334.0, 0.06048865267431612
335.0, 0.06118275122280052
336.0, 0.06007838129015453
337.0, 0.05582911188127359
338.0, 0.05804643038861737
339.0, 0.058356852050308564
340.0, 0.057714664328674135
341.0, 0.057413605394502465
342.0, 0.056092625551154573
343.0, 0.0559272515510263
344.0, 0.05705283474468367
345.0, 0.0594395014148626
346.0, 0.05513967989664227
347.0, 0.0535432389534048
348.0, 0.056105907533702676
349.0, 0.058799588777165526
350.0, 0.057448173097848915
351.0, 0.058372420520231394
352.0, 0.06368491971228135
353.0, 0.06048926720486884
354.0, 0.0628331620828228
355.0, 0.06546227100114882
356.0, 0.06414697253052802
357.0, 0.06733937760669577
358.0, 0.07148047075369397
359.0, 0.07456269648746677
360.0, 0.07352139809714431
361.0, 0.07942730124042192
362.0, 0.08206035596462893
363.0, 0.0828745059998046
364.0, 0.087886215876159
365.0, 0.0915834070472996
366.0, 0.09433961725250808
367.0, 0.09733654278352892
368.0, 0.1057318690439214
369.0, 0.10722455675110233
370.0, 0.11075130864717968
371.0, 0.11854547613942659
372.0, 0.12113911743168622
373.0, 0.12809861749252155
374.0, 0.1360775798287637
375.0, 0.1431434863175684
376.0, 0.14866076325312177
377.0, 0.1593513756660716
378.0, 0.16886568197060034
379.0, 0.1710384623671787
380.0, 0.18252388723324864
381.0, 0.192659097073347
382.0, 0.2027171917233807
383.0, 0.21501737665836146
384.0, 0.22587910566025932
385.0, 0.23626401635351682
386.0, 0.24815679855799008
387.0, 0.2661603575880739
388.0, 0.2759886303165101
389.0, 0.29124105848368304
390.0, 0.31223524809491715
391.0, 0.3322995998584584
392.0, 0.3448062358787503
393.0, 0.3669851816948016
394.0, 0.3993194158547667
395.0, 0.41770193608036166
396.0, 0.448758661143868
397.0, 0.47962400917572795
398.0, 0.5062188270032677
399.0, 0.5389726301639216
400.0, 0.584291465293853
401.0, 0.6250918880359551
402.0, 0.6534942400642022
403.0, 0.7109198860097211
404.0, 0.7547354428516714
405.0, 0.7936019998586943
406.0, 0.8341803519311175
407.0, 0.8805401624079157
408.0, 0.9125053358074744
409.0, 0.9437478040005832
410.0, 0.989334406940908
411.0, 0.984688927282936
412.0, 0.9905925060486133
413.0, 0.9975156107534365
414.0, 0.9887057198081753
415.0, 0.9510945319982659
416.0, 0.9288226526171693
417.0, 0.908268116816537
418.0, 0.8572943847815543
419.0, 0.8292179133805859
420.0, 0.7873710368736566
421.0, 0.7371504932661116
422.0, 0.7016750935881041
423.0, 0.6713974172730548
424.0, 0.6283630548908734
425.0, 0.5815379133566831
426.0, 0.5678725762518881
427.0, 0.5272727987678365
428.0, 0.49337404235932397
429.0, 0.4702657537736855
430.0, 0.44605450924047874
431.0, 0.41508575181614965
432.0, 0.3938437548802775
433.0, 0.3817556821055511
434.0, 0.3542940239822136
435.0, 0.3409338983264226
436.0, 0.3273712550218125
437.0, 0.30976582805830133
438.0, 0.292706562586552
439.0, 0.286385721568928
440.0, 0.27685540739011144
441.0, 0.2611363318938757
442.0, 0.2564263059836205
443.0, 0.2501045346524099
444.0, 0.2430230159444274
445.0, 0.2362396911715979
446.0, 0.23585744100244094
447.0, 0.22940278668165445
448.0, 0.22662848546543862
449.0, 0.2307047297526072
450.0, 0.22340582901580897
451.0, 0.22471806619390725
452.0, 0.22945043713311264
453.0, 0.2341953598790743
454.0, 0.23042513829866787
455.0, 0.24060432768570633
456.0, 0.24913772345943616
457.0, 0.24836681945733546
458.0, 0.25875490476978835
459.0, 0.26504051929585537
460.0, 0.26637669449976525
461.0, 0.26351933499715263
462.0, 0.2782607795411776
463.0, 0.2759780878041585
464.0, 0.2725916012974852
465.0, 0.27687599868520085
466.0, 0.2676042272895579
467.0, 0.2582202708490998
468.0, 0.24922781905544103
469.0, 0.24042443647065717
470.0, 0.22308869211270219
471.0, 0.21285225581622777
472.0, 0.20346403312477762
473.0, 0.1912708373020107
474.0, 0.18166311531174206
475.0, 0.17532985223063902
476.0, 0.16675112558707336
477.0, 0.1534154895780148
478.0, 0.14977211879771796
479.0, 0.14282816876430246
480.0, 0.13949477398733842
481.0, 0.1432300389738848
482.0, 0.14410642386667083
483.0, 0.14987143482903328
484.0, 0.15710813822788672
485.0, 0.16331924984695675
486.0, 0.16193248062538523
487.0, 0.17553192196013373
488.0, 0.19121201344843095
489.0, 0.20321986701240013
490.0, 0.21994128946831862
491.0, 0.25179887420208696
492.0, 0.27976252371333415
493.0, 0.2994398138630465
494.0, 0.3462713819081271
495.0, 0.3863306483122555
496.0, 0.4247260645778179
497.0, 0.4630290552306989
498.0, 0.4979116737673631
499.0, 0.5150722591996777
500.0, 0.5226969592303858
501.0, 0.5230780393486297
502.0, 0.5134409665367188
503.0, 0.48773123125385104
504.0, 0.45397310520651685
505.0, 0.412941701176105
506.0, 0.3577518653618593
507.0, 0.32105586974326483
508.0, 0.28086278052686553
509.0, 0.23684798423545805
510.0, 0.20659241790695174
511.0, 0.17885472780208203
512.0, 0.15273483872404936
513.0, 0.1299138530069913
514.0, 0.11554880258711332
515.0, 0.09586427864590709
516.0, 0.08306232834438942
517.0, 0.07503438632432745
518.0, 0.06342936042151104
519.0, 0.05526601325534025
520.0, 0.049445891434227195
521.0, 0.044010762564418576
522.0, 0.03583211218447116
523.0, 0.032861301819358826
524.0, 0.02899607849653431
525.0, 0.025346809405619904
526.0, 0.023831050055822624
527.0, 0.02171003875636451
528.0, 0.018086066440242746
529.0, 0.015561427182244169
530.0, 0.016609521662704768
531.0, 0.013020071260184451
532.0, 0.011620070197413174
533.0, 0.010784071097012673
534.0, 0.009252207961294544
535.0, 0.006792805804279554
536.0, 0.007904732610444297
537.0, 0.007237849967852475
538.0, 0.0028605347300421123
539.0, 0.003621433401428161
540.0, 0.0024852414958206706
541.0, 0.0013788476125782116
542.0, 0.001126088581846026
543.0, 0.0020116918530186205
544.0, 0.0018759959293049697
545.0, 0.0016351689129208966
546.0, 0.001691166143921806
547.0, 0.0025443720791377775
548.0, 0.0029626708253533474
549.0, 0.0028704120627663994
550.0, 0.002609606555998734
551.0, 0.0029691196412916826
552.0, 0.001980512858209355
553.0, 0.0008702577710935802
554.0, 8.37492562949318e-05
555.0, 0.00010615323053976324
556.0, 0.0016638814745873302
557.0, 0.002091367891530852
558.0, 0.002454273206856384
559.0, 0.0038495289113963443
560.0, 0.0034980648486675437
561.0, 0.004302362917182438
562.0, 0.005125417242532483
563.0, 0.0049923897918790015
564.0, 0.0018566034407019318
565.0, 0.0022321483753272153
566.0, 0.002190149198395619
567.0, 0.0005826304205197969
568.0, 0.00032326673161109414
569.0, 0.00044428535094715945
570.0, 0.0013106079282426426
571.0, 0.0022813322413180476
572.0, 0.001164859625589428
573.0, 0.00034006079626524373
574.0, 0.000402281017144582
575.0, 0.0011836909695690807
576.0, 0.0022302898663449054
577.0, 0.0027473846826968277
578.0, 0.002218251338155752
579.0, 0.0017553150615501147
580.0, 0.002565101718134476
581.0, 0.002845760505007562
582.0, 0.0018015561152292913
583.0, 0.0017585337390551275
584.0, 0.003625202741726098
585.0, 0.0012191631967723856
586.0, 0.0013310754004786682
587.0, 0.0012031945563553568
588.0, 0.0002105196245881176
589.0, 0.0003490441647396765
590.0, 0.0007808965692564679
591.0, 0.002446662121808061
592.0, 0.003703184101122951
593.0, 0.0003488957674819533
594.0, 0.003433446285313395
595.0, 0.005086676256648399
596.0, 0.005022625310542293
597.0, 0.0038207100421672503
598.0, 0.006260371407404123
599.0, 0.0069743348589021694
600.0, 0.008399265114000427
601.0, 0.011964630029413696
602.0, 0.013564983169801922
603.0, 0.014018396032522884
604.0, 0.015990816911456266
605.0, 0.019201600160650496
606.0, 0.018004246568678692
607.0, 0.022456784836626605
608.0, 0.026209006882489855
609.0, 0.028023798120934036
610.0, 0.027978447810224794
611.0, 0.0346081294389467
612.0, 0.03628648893239937
613.0, 0.03728902572997926
614.0, 0.04284771935990045
615.0, 0.0431310218498594
616.0, 0.043653394199469626
617.0, 0.044892495146657864
618.0, 0.04695040965127045
619.0, 0.048717482020555446
620.0, 0.05317591678316327
621.0, 0.055025600542516984
622.0, 0.0542056618066326
623.0, 0.05481799777156432
624.0, 0.057380521024595454
625.0, 0.05452771335489871
626.0, 0.051515785249715014
627.0, 0.05638996796909556
628.0, 0.0517161198780052
629.0, 0.050752622149230285
630.0, 0.05096654110341952
631.0, 0.05035293144576591
632.0, 0.04766041437751436
633.0, 0.04694970381820664
634.0, 0.04442005596266068
635.0, 0.040369294000619727
636.0, 0.039491631306495266
637.0, 0.03682704143668821
638.0, 0.03426290759129495
639.0, 0.032595165869385635
640.0, 0.03253336838440841
641.0, 0.029004980211398853
642.0, 0.026643559490705414
643.0, 0.02517491342747418
644.0, 0.023973306860008387
645.0, 0.020109963891415766
646.0, 0.019605483403332836
647.0, 0.01898275017379432
648.0, 0.017683527941746623
649.0, 0.01703352361875397
650.0, 0.016428924958298074
651.0, 0.013610399882738126
652.0, 0.01148665608271799
653.0, 0.01344040486238929
654.0, 0.010516933886419427
655.0, 0.008893042519870525
656.0, 0.008178527600995182
657.0, 0.007679341138703265
658.0, 0.005101012836447227
659.0, 0.0070762541768604435
660.0, 0.006099913740684631
661.0, 0.0031352886920746463
662.0, 0.0032778934544235973
663.0, 0.003918331608203248
664.0, 0.002844285564510565
665.0, 0.0021280773503924047
666.0, 0.0031504512639952947
667.0, 0.0009123661268298001
668.0, 0.0003476311477321619
669.0, 0.0005899017073987449
670.0, 0.0010147042703576412
671.0, 0.0007225264879573573
672.0, 0.0011265174118872535
673.0, 0.0011865239202291586
674.0, 0.0008886074814497239
675.0, 0.0004015383358980721
676.0, 0.0005267663882484668
677.0, 0.0003720749353125087
678.0, 0.0004387756951132486
679.0, 0.0008251390847207122
680.0, 0.0008385554737300667
681.0, 0.00032915582364336144
682.0, 0.000468218763630455
683.0, 0.0010126067368259393
684.0, 0.0012381301533161515
685.0, 0.0011333921177826467
686.0, 0.0009923953612320181
687.0, 0.0012640124041595157
688.0, 0.0018773572532963985
689.0, 0.0007816412893693044
690.0, 0.00046923827250781506
691.0, 0.000675750825339523
692.0, 0.0010181926102631948
693.0, 0.0008974475000517688
694.0, 0.001960251299145451
695.0, 0.0017594063821450593
696.0, 0.0009037326620097751
697.0, 0.00018962668592895722
698.0, 0.0013599626525550353
699.0, 0.0005952834890596574
700.0, 0.0006342862613368005
701.0, 0.0017795761599949636
702.0, 0.003095880610738049
703.0, 0.0016517055965610855
704.0, 0.003252997917398741
705.0, 0.004253699334304098
706.0, 0.0024208495484911692
707.0, 0.004331295174605743
708.0, 0.004343097486287336
709.0, 0.0032628047834965786
710.0, 0.002612065135226883
711.0, 0.00501086486661579
712.0, 0.005071808227248641
713.0, 0.005860109274253422
714.0, 0.006185982911563303
715.0, 0.005581769983800179
716.0, 0.007725919271169248
717.0, 0.008516708635432134
718.0, 0.008469181574958348
719.0, 0.008460677082356592
720.0, 0.009864413809972196
721.0, 0.008626983906790583
722.0, 0.008403228029690778
723.0, 0.009676996318410664
724.0, 0.011802202721753065
725.0, 0.009981443097711429
726.0, 0.009871229033247098
727.0, 0.010804995717060463
728.0, 0.0113326877610212
729.0, 0.009481711199533545
730.0, 0.010380480022274624
731.0, 0.010275016517655777
732.0, 0.010594892198874693
733.0, 0.011436682255025846
734.0, 0.009863514619120621
735.0, 0.010488230426850554
736.0, 0.01011483054182422
737.0, 0.009745823417910996
738.0, 0.011016927168942892
739.0, 0.010224082940778966
740.0, 0.009586961733377326
741.0, 0.009710605327029337
742.0, 0.010448397367882879
743.0, 0.010690801915127205
744.0, 0.009216404034837098
745.0, 0.008927102951483214
746.0, 0.009502424630178589
747.0, 0.010206908916791288
748.0, 0.00949847759187795
749.0, 0.009976072452593533
750.0, 0.009989380372576559
751.0, 0.00957171231533811
752.0, 0.00963192337654432
753.0, 0.01003228491920291
754.0, 0.010086446525148153
755.0, 0.010570158062302938
756.0, 0.01136308136635768
757.0, 0.010011482860969045
758.0, 0.00975182895106795
759.0, 0.00979432180956768
760.0, 0.009440871558371398
761.0, 0.008266859880598946
762.0, 0.009524342687986659
763.0, 0.010303540406319077
764.0, 0.01047657795180411
765.0, 0.010563048162265432
766.0, 0.011805055071005169
767.0, 0.010726678717420321
768.0, 0.011726042707102773
769.0, 0.012527517296034713
770.0, 0.011900369610333458
771.0, 0.012234748665539003
772.0, 0.012365124119291098
773.0, 0.012685746405076297
774.0, 0.013320694921901084
775.0, 0.014265857145312836
776.0, 0.014657808521448488
777.0, 0.013832266999858574
778.0, 0.01360303493954085
779.0, 0.01429315584347034
780.0, 0.015114441241442443
781.0, 0.01611040534461657
782.0, 0.015641893693411808
783.0, 0.014791563644939804
784.0, 0.014717392460253952
785.0, 0.017002558231151207
786.0, 0.016186093865619155
787.0, 0.016099713988167157
788.0, 0.016702712230799208
789.0, 0.01721508456775502
790.0, 0.01646081743484568
791.0, 0.01642543587149792
792.0, 0.016306034744055196
793.0, 0.016192686048951216
794.0, 0.016634439123457016
795.0, 0.016220579318529396
796.0, 0.01531626930526001
797.0, 0.015769532176419885
798.0, 0.01719276505243564
799.0, 0.01576724791090415
800.0, 0.016267289920646855
801.0, 0.01609745101968501
802.0, 0.015356920560542
803.0, 0.014768304102436576
804.0, 0.016785773423777607
805.0, 0.01609094717154412
806.0, 0.01531611500544991
807.0, 0.015336680815851872
808.0, 0.01619387933407114
809.0, 0.01327869343404126
810.0, 0.012715520050969395
811.0, 0.012895015693877928
812.0, 0.012625804369189234
813.0, 0.010796982979204147
814.0, 0.009224235273124931
815.0, 0.008354184468840743
816.0, 0.008048492692757103
817.0, 0.007880026596739696
818.0, 0.006977993946171442
819.0, 0.004986140240915855
820.0, 0.004907960196211383
821.0, 0.004614614428403709
822.0, 0.003236554164840229
823.0, 0.0033311046776990007
824.0, 0.0029897997895780674
825.0, 0.0021426121826665697
826.0, 0.0017833535358401042
827.0, 0.0024729080582191905
828.0, 0.002219546202384987
829.0, 0.0015473928960976172
830.0, 0.0021563735564296594
831.0, 0.0027425564526726304
832.0, 0.0016503196323676265
833.0, 0.001745804022495447
834.0, 0.0015291474157222245
835.0, 0.0008339714042714408
836.0, 0.00013553932025935487
837.0, 0.00018654515009834904
838.0, 0.00022773198647773357
839.0, 0.0008534260870510521
840.0, 0.0011025782666793755
841.0, 0.0010000548260629136
842.0, 0.0013081843781062837
843.0, 0.0013399916102217594
844.0, 0.0014291944973030754
845.0, 0.0011503905103046076
846.0, 0.0008018435639004233
847.0, 0.0015933175089092016
848.0, 0.0007322317433795195
849.0, 0.000457367977371556
850.0, 0.0004564017401805442
851.0, 0.0006588311333159608
852.0, 0.0015872265767748793
853.0, 0.00048156324015564836
854.0, 8.672950397886732e-05
855.0, 0.0005658225813737616
856.0, 0.0013268999973447121
857.0, 0.0003287928348051683
858.0, 0.0005338488524056883
859.0, 0.0011592766065070476
860.0, 0.0011473452105410275
861.0, 0.0002215277186498993
862.0, 0.0006394690400303279
863.0, 0.0007987617859966435
864.0, 0.0014430678243718248
865.0, 0.0018896508560703024
866.0, 0.0015248561732403108
867.0, 0.0007956517682813948
868.0, 0.0017235184764989781
869.0, 0.0016225550143757126
870.0, 0.0015386509074814209
871.0, 0.0023307885242429553
872.0, 0.00037587670330476667
873.0, 0.0002741999243756908
874.0, 0.000422863346625828
875.0, 0.0008229152521118941
876.0, 0.0015651105396541248
877.0, 0.0013346817131376595
878.0, 0.0008161004231442865
879.0, 0.0005252536844220269
880.0, 0.0003969903975286899
881.0, 0.00024953328756869783
882.0, 0.00013171021722123123
883.0, 0.00022112088715923117
884.0, 0.00025863800198808217
885.0, 0.00019753877446563846
886.0, 0.00012162270765581537
887.0, 0.0005675561661541785
888.0, 0.0011016319024418865
889.0, 0.000783157277280295
890.0, 0.0004141701698889883
891.0, 0.0008987832135080229
892.0, 0.0008692587722277473
893.0, 0.0008381954812807421
894.0, 0.0014534922399995515
895.0, 0.0017735788550175338
896.0, 0.0010848762995063067
897.0, 0.002178965251927965
898.0, 0.0030787153925521393
899.0, 0.003175105614946929
900.0, 0.003137032211159646
901.0, 0.0035300174000148276
902.0, 0.0029267424619548892
903.0, 0.0029782367635874628
904.0, 0.0028584917419471135
905.0, 0.002683057526938578
906.0, 0.002663581393320489
907.0, 0.0026543543495168675
908.0, 0.0025613886235481297
909.0, 0.002468238576548212
910.0, 0.0022905027088586526
911.0, 0.0020443288101260958
912.0, 0.002142990763881076
913.0, 0.0020225082588010293
914.0, 0.001972736442907422
915.0, 0.0015945394362394982
916.0, 0.0010719628704223688
917.0, 0.002205898148931949
918.0, 0.003581510997426768
919.0, 0.0033228252159623606
920.0, 0.003050889385079833
921.0, 0.003325856777843783
922.0, 0.002296071069846542
923.0, 0.003429742317300084
924.0, 0.002603569789720337
925.0, 0.0031245379538805745
926.0, 0.004885660764358807
927.0, 0.0030902644779215696
928.0, 0.003529835922358558
929.0, 0.002628274542078079
930.0, 0.002589121335097618
931.0, 0.0033162900219314588
932.0, 0.0027849326174872522
933.0, 0.004152764344533521
934.0, 0.003568007401702706
935.0, 0.0022681827921509417
936.0, 0.0017160612828767423
937.0, 0.00305878437671814
938.0, 0.0023968376451181895
939.0, 0.0037574757027613
940.0, 0.003784552895997893
941.0, 0.002909430458339852
942.0, 0.0027197410740370876
943.0, 0.0031468432415456397
944.0, 0.0025303665716452503
945.0, 0.002187347940543571
946.0, 0.002325304797686799
947.0, 0.0030513877921809957
948.0, 0.005020647712658335
949.0, 0.004054057150908413
950.0, 0.0035610361463521353
951.0, 0.0038889770887630616
952.0, 0.0043693334954804566
953.0, 0.0031408865476900845
954.0, 0.003765941149776501
955.0, 0.0039246108407416545
956.0, 0.004074852492552849
957.0, 0.0042262309242630984
958.0, 0.003882164783997659
959.0, 0.00424898195731879
960.0, 0.005247856647282202
961.0, 0.005052738273488513
962.0, 0.00450035269658971
963.0, 0.005448657913260086
964.0, 0.005743055723582658
965.0, 0.005250349037370676
966.0, 0.004704324345032623
967.0, 0.005068133283477866
968.0, 0.006602268059518933
969.0, 0.00689700892897296
970.0, 0.005968034979588321
971.0, 0.006070028907507413
972.0, 0.005990515220125368
973.0, 0.005613715024822328
974.0, 0.007383280787972267
975.0, 0.006520614240187725
976.0, 0.008064371575506749
977.0, 0.008618646811287291
978.0, 0.008050693003607907
979.0, 0.008808742299938561
980.0, 0.008311550424211975
981.0, 0.01004680092581646
982.0, 0.010995694733535254
983.0, 0.010827246249855814
984.0, 0.010489512135775715
985.0, 0.011884690391452988
986.0, 0.011585159689607391
987.0, 0.012275005858424838
988.0, 0.013335536257871206
989.0, 0.013828536517624718
990.0, 0.013203923939042912
991.0, 0.01579837015224466
992.0, 0.01659775872780726
993.0, 0.016764317589526602
994.0, 0.01714237024119815
995.0, 0.017926667990883053
996.0, 0.016780635752333007
997.0, 0.018258743401100758
998.0, 0.017841897829431894
999.0, 0.0172452726305607
1000.0, 0.01860748835569713
1001.0, 0.01839236541213951
1002.0, 0.020502622447468925
1003.0, 0.021793315098152504
1004.0, 0.02226361105224293
1005.0, 0.022306816366959088
1006.0, 0.022377225555435545
1007.0, 0.02318005042031893
1008.0, 0.0239156155217744
1009.0, 0.024268604444202854
1010.0, 0.02410790931782847
1011.0, 0.023600921268276925
1012.0, 0.02392275584633299
1013.0, 0.024535566346442737
1014.0, 0.024977214637689853
1015.0, 0.02568205799446625
1016.0, 0.026439926687702838
1017.0, 0.02568043696635953
1018.0, 0.025601431372458707
1019.0, 0.02528267496377895
1020.0, 0.025645036443478077
1021.0, 0.026520002099294452
1022.0, 0.027059120789956127
1023.0, 0.026915155009077794
1024.0, 0.027337263814661755
1025.0, 0.028446464844265933
1026.0, 0.028552773113185378
1027.0, 0.028044632758695863
1028.0, 0.03200426263064518
1029.0, 0.029920844261495164
1030.0, 0.030109308251396228
1031.0, 0.03077282807938241
1032.0, 0.03130107078493789
1033.0, 0.03190701231367884
1034.0, 0.03144682669156846
1035.0, 0.031225021480896637
1036.0, 0.03010235901391405
1037.0, 0.03056843407699748
1038.0, 0.03259067600658754
1039.0, 0.030501436075114505
1040.0, 0.03237961067021465
1041.0, 0.033274837195580914
1042.0, 0.032402440491241594
1043.0, 0.03164132001226583
1044.0, 0.0330155770080673
1045.0, 0.031441905518573676
1046.0, 0.0333938825781972
1047.0, 0.033250946155711496
1048.0, 0.031976976603660424
1049.0, 0.03131218081663674
1050.0, 0.03239438983606
1051.0, 0.0331347101978877
1052.0, 0.0327304099117162
1053.0, 0.03232914246043168
1054.0, 0.03209518120216409
1055.0, 0.03190627514758799
1056.0, 0.03213355869853878
1057.0, 0.03211106595065163
1058.0, 0.03114935005507972
1059.0, 0.03154866042472681
1060.0, 0.032292464131913466
1061.0, 0.03025325264395846
1062.0, 0.03235284651984765
1063.0, 0.0336427477310942
1064.0, 0.03319283446538265
1065.0, 0.03231777260255093
1066.0, 0.03211893184032085
1067.0, 0.032211640664561995
1068.0, 0.03366614880945345
1069.0, 0.034782124852371483
1070.0, 0.035871752700361983
1071.0, 0.0369993425824723
1072.0, 0.03787415090443002
1073.0, 0.037390344248060245
1074.0, 0.03959562557685642
1075.0, 0.04054768686277379
1076.0, 0.0410386542243238
1077.0, 0.04262658220244823
1078.0, 0.04643728508118625
1079.0, 0.04844308058785059
1080.0, 0.04982042830174765
1081.0, 0.051055745565959175
1082.0, 0.053209254176424615
1083.0, 0.056123540494539235
1084.0, 0.05779885672609985
1085.0, 0.06156296641455862
1086.0, 0.06267241618028795
1087.0, 0.06673794258291517
1088.0, 0.07103704685521813
1089.0, 0.07200919835837415
1090.0, 0.07254835458970922
1091.0, 0.07689015258346323
1092.0, 0.07753417088340649
1093.0, 0.07966443248204139
1094.0, 0.08258880792000169
1095.0, 0.08326946131092196
1096.0, 0.08594504064703913
1097.0, 0.08845751861000065
1098.0, 0.09134073893099878
1099.0, 0.09385691019329426
1100.0, 0.09570751629493812
1101.0, 0.09722609818601269
1102.0, 0.09929997979029585
1103.0, 0.1000199865609527
1104.0, 0.10032434075181522
1105.0, 0.10152418923318064
1106.0, 0.10337945528414536
1107.0, 0.10405190393927295
1108.0, 0.1067348899941702
1109.0, 0.10755113743610017
1110.0, 0.10742366420317982
1111.0, 0.10787401633085424
1112.0, 0.10898903054410089
1113.0, 0.1084828382944629
1114.0, 0.10849589251293897
1115.0, 0.1099798193133466
1116.0, 0.11078583651789158
1117.0, 0.11061084001114115
1118.0, 0.1103597163994429
1119.0, 0.1118019449959944
1120.0, 0.11270843175891866
1121.0, 0.11132771930529119
1122.0, 0.11033940548914732
1123.0, 0.11027998177879791
1124.0, 0.11055067679289153
1125.0, 0.11038996085916808
1126.0, 0.11040890540392655
1127.0, 0.1090280545369676
1128.0, 0.10851404476688614
1129.0, 0.10781433440164585
1130.0, 0.1059673055385285
1131.0, 0.10708561905778632
1132.0, 0.10697137326282485
1133.0, 0.1048806919358838
1134.0, 0.10262946356395908
1135.0, 0.1024723427748896
1136.0, 0.10496479585798842
1137.0, 0.10552492036142723
1138.0, 0.10383272351440163
1139.0, 0.10303037520906355
1140.0, 0.10191585916262864
1141.0, 0.10074797733414093
1142.0, 0.10063495748093056
1143.0, 0.10228606941957968
1144.0, 0.09941699816086301
1145.0, 0.09993402846148791
1146.0, 0.1014535548704009
1147.0, 0.10166352305612224
1148.0, 0.09997044307788383
1149.0, 0.09948059299968913
1150.0, 0.1005415260789762
1151.0, 0.10019262666797413
1152.0, 0.09845035046043865
1153.0, 0.09702401862322893
1154.0, 0.09760728075437876
1155.0, 0.09965057953794225
1156.0, 0.09485060681739049
1157.0, 0.09457577828863994
1158.0, 0.09354659244960689
1159.0, 0.09174841500906386
1160.0, 0.09071243174902797
1161.0, 0.08885512036502438
1162.0, 0.08600906977978157
1163.0, 0.08394261455127086
1164.0, 0.08066133591473232
1165.0, 0.07778406262302677
1166.0, 0.07620406611468271
1167.0, 0.07269378151875545
1168.0, 0.06970227760969758
1169.0, 0.06758163765372796
1170.0, 0.06534921306063204
1171.0, 0.06214486355490518
1172.0, 0.059120708406803675
1173.0, 0.059535386180778596
1174.0, 0.056036786908473815
1175.0, 0.05203661206999263
1176.0, 0.05205277993937849
1177.0, 0.05064082815743118
1178.0, 0.04645667724236109
1179.0, 0.04517632505944088
1180.0, 0.04443938934867041
1181.0, 0.04092879330782388
1182.0, 0.039595842531127634
1183.0, 0.03783948398090574
1184.0, 0.03531771489737936
1185.0, 0.03443796441828055
1186.0, 0.03512689228882253
1187.0, 0.032557252750968727
1188.0, 0.032277211925623925
1189.0, 0.030937836618650977
1190.0, 0.028725239693512847
1191.0, 0.027421197160733084
1192.0, 0.024823962175069176
1193.0, 0.025909865356897818
1194.0, 0.023728842045110863
1195.0, 0.022181965990371894
1196.0, 0.02049984405677016
1197.0, 0.017923326664282
1198.0, 0.017726098864263642
1199.0, 0.016842371464120567
1200.0, 0.015403982771229022
1201.0, 0.014713770426017438
1202.0, 0.014216925811690003
1203.0, 0.013280288599597772
1204.0, 0.012015354031779574
1205.0, 0.011581689235330792
1206.0, 0.011662012295383852
1207.0, 0.011056816896749016
1208.0, 0.010369789100495573
1209.0, 0.009565355387938502
1210.0, 0.00841987342110707
1211.0, 0.008475271863001253
1212.0, 0.008760763514536595
1213.0, 0.007187678330646234
1214.0, 0.006258479185227478
1215.0, 0.0065858399102869695
1216.0, 0.00721718545520934
1217.0, 0.0065326358940592
1218.0, 0.0056269592638717005
1219.0, 0.004843398811499932
1220.0, 0.004121673520647258
1221.0, 0.00405534428594012
1222.0, 0.00432188256528062
1223.0, 0.0038125716803114724
1224.0, 0.003145924466119017
1225.0, 0.00418370186187611
1226.0, 0.003707078524777687
1227.0, 0.003890810401547031
1228.0, 0.004138903585963395
1229.0, 0.0032932513430830265
1230.0, 0.0033785991810010045
1231.0, 0.002266234394074631
1232.0, 0.0023601463148135117
1233.0, 0.0025360125257222997
1234.0, 0.002561672729125119
1235.0, 0.0024197310989268576
1236.0, 0.002113190893745118
1237.0, 0.002219437586515564
1238.0, 0.0021951775663282373
1239.0, 0.0016660287051563324
1240.0, 0.0020436808282513516
1241.0, 0.002245555803953901
1242.0, 0.0009933182969126908
1243.0, 0.0003073990235123562
1244.0, 0.001948852816294068
1245.0, 0.0009106131231642984
1246.0, 0.0011742009871221776
1247.0, 0.0012948125085139876
1248.0, 0.0006941694428713727
1249.0, 0.001175941948611162
1250.0, 0.003089293547886434
1251.0, 0.0014566256933370813
1252.0, 0.0014550731971330099
1253.0, 0.0018066102118828107
1254.0, 0.0019420313691668968
1255.0, 0.001886393288992024
1256.0, 0.001569137514422767
1257.0, 0.0008534650823470527
1258.0, 0.00032995319961351714
1259.0, 0.0007561699859714028
1260.0, 0.0008058948435387214
1261.0, 0.0006758016924484149
1262.0, 0.0013641699685758765
1263.0, 0.001378624233300647
1264.0, 0.0007353020645375909
1265.0, 0.0011826136423224538
1266.0, 0.0010223319802166288
1267.0, 0.00042693965559839836
1268.0, 0.00015253633387495702
1269.0, 0.0005090881952422278
1270.0, 0.0004677734378388992
1271.0, 0.0008979083452581698
1272.0, 0.0008518618097951563
1273.0, 0.000592945447837502
1274.0, 0.0003984912692084734
1275.0, 0.00038135134016748076
1276.0, 0.00046718123955185453
1277.0, 0.0006532039592598265
1278.0, 0.0007686463099015523
1279.0, 0.0005542782530722569
1280.0, 0.0004540386812760826
1281.0, 0.0004572601499683935
1282.0, 0.00044489047570674513
1283.0, 0.0009240228613792837
1284.0, 0.0004081092078242111
1285.0, 0.00034761901116955385
1286.0, 0.001527710667466935
1287.0, 0.0014473173237783494
1288.0, 0.0003155126570961321
1289.0, 0.0003746446796393824
1290.0, 0.0003902669931984408
1291.0, 0.001267043337196746
1292.0, 0.0017113700398096125
1293.0, 0.001071441466186398
1294.0, 0.0006459936751265755
1295.0, 0.0008228407033894618
1296.0, 0.0007942412111706185
1297.0, 0.0015167301062003911
1298.0, 0.0009815634284227955
1299.0, 0.0009549324339270755
1300.0, 0.0007132180948567512
1301.0, 0.000886435993462482
1302.0, 0.001124527702085419
1303.0, 0.00014804318665088704
1304.0, 0.0005487639770384734
1305.0, 0.0017815016388850447
1306.0, 0.0006688301738405828
1307.0, 0.00029263827945199926
1308.0, 0.0004488062917115271
1309.0, 0.00040072110822403936
1310.0, 0.0005100085526198999
1311.0, 6.263233851646187e-05
1312.0, 0.0001877191146807787
1313.0, 0.0004825968111627838
1314.0, 0.0007734506994401915
1315.0, 0.0006603225898709643
1316.0, 0.0006695205494572951
1317.0, 0.001672931923258765
1318.0, 7.859705785645391e-05
1319.0, 0.0014746997604386995
1320.0, 0.0012547038081750612
1321.0, 0.0008004628123838843
1322.0, 0.0012305367606633164
1323.0, 0.001876159604180651
1324.0, 0.0011458369403290925
1325.0, 0.0014283392871458022
1326.0, 0.001383093255642601
1327.0, 0.0012035058011460307
1328.0, 0.0014086754474766272
1329.0, 0.001658005516533767
1330.0, 0.0014410241455199203
1331.0, 0.0008650565026625895
1332.0, 0.0014892136045061694
1333.0, 0.0005542709449423999
1334.0, 0.0002272929074796301
1335.0, 0.0009261424121332765
1336.0, 0.001003302801234208
1337.0, 0.00041165310720835916
1338.0, 0.0007753255207674891
1339.0, 0.0019035424076983601
1340.0, 0.00030043485018802277
1341.0, 0.0014573120420565396
1342.0, 0.0015875107943541438
1343.0, 0.0011610182878143828
1344.0, 0.001365139187991413
1345.0, 0.001995362170445334
1346.0, 0.0008360735654228673
1347.0, 0.0001695095501698678
1348.0, 0.0015695079325226007
1349.0, 0.00150404972191733
1350.0, 0.0016743473654755587
1351.0, 0.002049749209307899
1352.0, 0.0018012748091078455
1353.0, 0.001687040343828552
1354.0, 0.0019426340627867337
1355.0, 0.0006580661438585322
1356.0, 0.0004823421051617408
1357.0, 0.0014853432914694316
1358.0, 0.002448163702927539
1359.0, 0.0022441987774143115
1360.0, 0.0012506427534734398
1361.0, 0.002709627430406236
1362.0, 0.0004195914820834852
1363.0, 0.0008042239214267465
1364.0, 0.0006271254631944831
1365.0, 0.0006270317071481319
1366.0, 0.0015278721387442934
1367.0, 0.0024334018949414226
1368.0, 0.0019113917925181443
1369.0, 0.0019882038364105723
1370.0, 0.0030890311055754753
1371.0, 0.0016471004736519409
1372.0, 0.000937264127418269
1373.0, 0.001540213014717532
1374.0, 0.0016972036049749078
1375.0, 0.000991819783237552
1376.0, 0.0050218036794694425
1377.0, 0.0025725491837619045
1378.0, 0.001312529187886127
1379.0, 0.0024344046949251867
1380.0, 0.0032190635569012867
1381.0, 0.002450132816074287
1382.0, 0.0019327599895410932
1383.0, 0.0032438927542803963
1384.0, 0.002936888870945694
1385.0, 0.002827089319739875
1386.0, 0.0037780870526528502
1387.0, 0.003659079945331707
1388.0, 0.0030296051721808524
1389.0, 0.0033694069826187213
1390.0, 0.0042018402286560265
1391.0, 0.00463428193894463
1392.0, 0.003328989530023364
1393.0, 0.003198632461241756
1394.0, 0.0032977934626240214
1395.0, 0.003708283257709234
1396.0, 0.004058346894592184
1397.0, 0.003936938850481177
1398.0, 0.0044449714714439315
1399.0, 0.003703452007713216
1400.0, 0.0018582161211024343
1401.0, 0.003970533184046768
1402.0, 0.0038786475573339163
1403.0, 0.0026910099981877853
1404.0, 0.003218139999117903
1405.0, 0.004241601488662622
1406.0, 0.0030574922116637076
1407.0, 0.003993362017886343
1408.0, 0.0033574473675119735
1409.0, 0.0029248645505366216
1410.0, 0.002879429364847938
1411.0, 0.002828616593670468
1412.0, 0.0027283201448237634
1413.0, 0.0030115277167755247
1414.0, 0.0027074893270076787
1415.0, 0.0026550661615181138
1416.0, 0.002826239250365654
1417.0, 0.002683371277523289
1418.0, 0.0023995441732286215
1419.0, 0.0018839677578720753
1420.0, 0.001621290701708754
1421.0, 0.003027393912697648
1422.0, 0.0016893802470907004
1423.0, 0.0020448643418279114
1424.0, 0.0031005772855981105
1425.0, 0.0023356589852060127
1426.0, 0.0019322093630599756
1427.0, 0.001757827900344447
1428.0, 0.0004559233682325917
1429.0, 0.001358540278006623
1430.0, 0.003513560319618989
1431.0, 0.0020611982271988316
1432.0, 0.001761056529102723
1433.0, 0.0018586696306035276
1434.0, 0.0019559838485006752
1435.0, 0.0021683545932445654
1436.0, 0.00257455845848414
1437.0, 0.002708654244521354
1438.0, 0.0014764940641166686
1439.0, 0.0027936455279136234
1440.0, 0.0022942050255648698
1441.0, 0.002008573599388757
1442.0, 0.002216080737061434
1443.0, 0.0024610347856492106
1444.0, 0.0021787061332894653
1445.0, 0.0007733897267056537
1446.0, 0.003109645898420401
1447.0, 0.0016191916988571894
1448.0, 0.00044863561670281714
1449.0, 0.0013838995753959525
1450.0, 0.002476886984371343
1451.0, 0.0028025494113872165
1452.0, 0.003137371311767157
1453.0, 0.00310406381701765
1454.0, 0.0002604466819056566
1455.0, 0.00445549657443365
1456.0, 0.003384636845910875
1457.0, 0.001231122434975009
1458.0, 0.001256957071817801
1459.0, 0.002358680522181786
1460.0, 0.0022017985870697366
1461.0, 0.0018379372854371156
1462.0, 0.004129045588534687
1463.0, 0.0009552204350166652
1464.0, 0.0005539670554563013
1465.0, 0.0021157592137714034
1466.0, 0.001851461486556181
1467.0, 0.0011126210188437049
1468.0, 0.0016791705697636965
1469.0, 0.0012978387358599886
1470.0, 0.0004891354422666494
1471.0, 0.001152681317797364
1472.0, 0.0018264289375960576
1473.0, 0.002007281643060925
1474.0, 0.002262453285320971
1475.0, 0.00252109644428979
1476.0, 0.002504731847196915
1477.0, 0.002356513017742205
1478.0, 0.002490025494595628
1479.0, 0.0015069033324962527
1480.0, 0.0011239175435556821
1481.0, 0.00031566275989539604
1482.0, 0.0006328723815391059
1483.0, 0.0015016475076675244
1484.0, 0.0013612279500921241
1485.0, 0.00040085168321736097
1486.0, 0.0010749363206617978
1487.0, 0.0017862605740137268
1488.0, 0.0014913386180496692
1489.0, 0.0007206892557741066
1490.0, 0.002287863473570045
1491.0, 0.001917740672724505
1492.0, 0.0008463337088687674
1493.0, 0.00133027605704969
1494.0, 0.002084203948492055
1495.0, 0.001560270313216018
1496.0, 0.000999891048785022
1497.0, 0.0015327453096410269
1498.0, 0.0005026742593808142
1499.0, 0.0010431452704708268
1500.0, 0.0010337505283771053
1501.0, 0.0010280486787287322
1502.0, 0.0018537361751594442
1503.0, 0.0007856291267286523
1504, 0.0
1505, 0.0
1506, 0.0
1507, 0.0
1508, 0.0
1509, 0.0
1510, 0.0
1511, 0.0
1512, 0.0
1513, 0.0
1514, 0.0
1515, 0.0
1516, 0.0
1517, 0.0
1518, 0.0
1519, 0.0
1520, 0.0
1521, 0.0
1522, 0.0
1523, 0.0
1524, 0.0
1525, 0.0
1526, 0.0
1527, 0.0
1528, 0.0
1529, 0.0
1530, 0.0
1531, 0.0
1532, 0.0
1533, 0.0
1534, 0.0
1535, 0.0
1536, 0.0
1537, 0.0
1538, 0.0
1539, 0.0
1540, 0.0
1541, 0.0
1542, 0.0
1543, 0.0
1544, 0.0
1545, 0.0
1546, 0.0
1547, 0.0
1548, 0.0
1549, 0.0
1550, 0.0
1551, 0.0
1552, 0.0
1553, 0.0
1554, 0.0
1555, 0.0
1556, 0.0
1557, 0.0
1558, 0.0
1559, 0.0
1560, 0.0
1561, 0.0
1562, 0.0
1563, 0.0
1564, 0.0
1565, 0.0
1566, 0.0
1567, 0.0
1568, 0.0
1569, 0.0
1570, 0.0
1571, 0.0
1572, 0.0
1573, 0.0
1574, 0.0
1575, 0.0
1576, 0.0
1577, 0.0
1578, 0.0
1579, 0.0
1580, 0.0
1581, 0.0
1582, 0.0
1583, 0.0
1584, 0.0
1585, 0.0
1586, 0.0
1587, 0.0
1588, 0.0
1589, 0.0
1590, 0.0
1591, 0.0
1592, 0.0
1593, 0.0
1594, 0.0
1595, 0.0
1596, 0.0
1597, 0.0
1598, 0.0
1599, 0.0
