30, 0.0
31, 0.0
32, 0.0
33, 0.0
34, 0.0
35, 0.0
36, 0.0
37, 0.0
38, 0.0
39, 0.0
40, 0.0
41, 0.0
42, 0.0
43, 0.0
44, 0.0
45, 0.0
46, 0.0
47, 0.0
48, 0.0
49, 0.0
50, 0.0
51, 0.0
52, 0.0
53, 0.0
54, 0.0
55, 0.0
56, 0.0
57, 0.0
58, 0.0
59, 0.0
60, 0.0
61, 0.0
62, 0.0
63, 0.0
64, 0.0
65, 0.0
66, 0.0
67, 0.0
68, 0.0
69, 0.0
70, 0.0
71, 0.0
72, 0.0
73, 0.0
74, 0.0
75, 0.0
76, 0.0
77, 0.0
78, 0.0
79, 0.0
80, 0.0
81, 0.0
82, 0.0
83, 0.0
84, 0.0
85, 0.0
86, 0.0
87, 0.0
88, 0.0
89, 0.0
90, 0.0
91, 0.0
92, 0.0
93, 0.0
94, 0.0
95, 0.0
96, 0.0
97, 0.0
98, 0.0
99, 0.0
100, 0.0
101, 0.0
102, 0.0
103, 0.0
104, 0.0
105, 0.0
106, 0.0
107, 0.0
108, 0.0
109, 0.0
110, 0.0
111, 0.0
112, 0.0
113, 0.0
114, 0.0
115, 0.0
116, 0.0
117.0, 0.006000355179663673
118.0, 0.014181034518805367
119.0, 0.015148769251293203
120.0, 0.007992196488208356
121.0, 0.017613800400695472
122.0, 0.01267001010283108
123.0, 0.004758506125137575
124.0, 0.012730667902338691
125.0, 0.007033560399996277
126.0, 0.013381572881928832
127.0, 0.016117821895077263
128.0, 0.02215636786171922
129.0, 0.03555397240546123
130.0, 0.039416256599842915
131.0, 0.0666214478041125
132.0, 0.07832322000253415
133.0, 0.09670510704095477
134.0, 0.12471231630669781
135.0, 0.12718473443870498
136.0, 0.17690854428638397
137.0, 0.18679392137340892
138.0, 0.1987607068170965
139.0, 0.22268624268569986
140.0, 0.23972037473487642
141.0, 0.2588252878876475
142.0, 0.27572634236172594
143.0, 0.2775455270165324
144.0, 0.2745328611342918
145.0, 0.28285042566302077
146.0, 0.28958424214122247
147.0, 0.2589347144077019
148.0, 0.22804035710785514
149.0, 0.21101445535277646
150.0, 0.20593151846566782
151.0, 0.18069384186305185
152.0, 0.1529631301255048
153.0, 0.1329776170832225
154.0, 0.10929804868710512
155.0, 0.07881153743233493
156.0, 0.05202256394585646
157.0, 0.053571937628576864
158.0, 0.03982159139784032
159.0, 0.022913221160296402
160.0, 0.009976162243768287
161.0, 0.003686407665324255
162.0, 0.0014505975791917368
163.0, 0.014532470640235228
164.0, 0.02243196797655264
165.0, 0.023629009963019476
166.0, 0.020236640053893827
167.0, 0.0057464364866215605
168.0, 0.008418711542738117
169.0, 0.009407588987353405
170.0, 0.013596002626038267
171.0, 0.017729382256725747
172.0, 0.00250414721629884
173.0, 0.008284973706435612
174.0, 0.008377060232362269
175.0, 0.004304168938429782
176.0, 0.004283020120261554
177.0, 0.017715107645519975
178.0, 0.02494259377683877
179.0, 0.01779510437584446
180.0, 0.020692650948255415
181.0, 0.02999667091054064
182.0, 0.03455178733886753
183.0, 0.02645371285899751
184.0, 0.014465706656016358
185.0, 0.03703699738978358
186.0, 0.04675032499577888
187.0, 0.031150604967932264
188.0, 0.033328974597102226
189.0, 0.02026574480100858
190.0, 0.026578910398749666
191.0, 0.02878668367849625
192.0, 0.021603776214978394
193.0, 0.0148344683396942
194.0, 0.047070491164838225
195.0, 0.026526530501084084
196.0, 0.01513561156606707
197.0, 0.012223509928815346
198.0, 0.012806046230630294
199.0, 0.03005561369989035
200.0, 0.00849331963420276
201.0, 0.0166761736995205
202.0, 0.02196374150871639
203.0, 0.014122997495906479
204.0, 0.00665859372155917
205.0, 0.02092383379486014
206.0, 0.026789895815009346
207.0, 0.023840178912112858
208.0, 0.016419239956605113
209.0, 0.00973669173126159
210.0, 0.006296254905610185
211.0, 0.005040282750693297
212.0, 0.010150872276718551
213.0, 0.014928985290285378
214.0, 0.019767157956090443
215.0, 0.03195876274879148
216.0, 0.021445028930885356
217.0, 0.015135066075344598
218.0, 0.024784179648799757
219.0, 0.03371970939714584
220.0, 0.026906841200220466
221.0, 0.03821090114726604
222.0, 0.03471172245002889
223.0, 0.04478884271353527
224.0, 0.04335467763459469
225.0, 0.03504695656446605
226.0, 0.06280626454007014
227.0, 0.03404600351180165
228.0, 0.03831701719642418
229.0, 0.03537616284860834
230.0, 0.02732894341546048
231.0, 0.03145475062879648
232.0, 0.050709594472673356
233.0, 0.05713442483959329
234.0, 0.04041337731564223
235.0, 0.01945577484808007
236.0, 0.012614298416926226
237.0, 0.02891882825582507
238.0, 0.01748903248920646
239.0, 0.006217160208011793
240.0, 0.009969763019754796
241.0, 0.015288302797894239
242.0, 0.009335346801454966
243.0, 0.022637551196584636
244.0, 0.018227854092033643
245.0, 0.007912270970573168
246.0, 0.008497254046075585
247.0, 0.018367768322792244
248.0, 0.01844499603673616
249.0, 0.02987345073912092
250.0, 0.013034454954619763
251.0, 0.012548375682088582
252.0, 0.014666608223650736
253.0, 0.003821389325833825
254.0, 0.012224350403419858
255.0, 0.020345869303617526
256.0, 0.01329019938423393
257.0, 0.009352861045294644
258.0, 0.013401428771981166
259.0, 0.018853161575979598
260.0, 0.03395456094820559
261.0, 0.021145328455118365
262.0, 0.029445910428095086
263.0, 0.03300761763572775
264.0, 0.023758632637800436
265.0, 0.05542279560294433
266.0, 0.04343105008843186
267.0, 0.044987849142981824
268.0, 0.043896723986959395
269.0, 0.040063566952775714
270.0, 0.04151994667978157
271.0, 0.05060295460852719
272.0, 0.05288220594014321
273.0, 0.05004833780890662
274.0, 0.05181496128617046
275.0, 0.05451466012945266
276.0, 0.04205345983158259
277.0, 0.05113535595479757
278.0, 0.054416244917713304
279.0, 0.051483190794507284
280.0, 0.04508875367010433
281.0, 0.04001907794095979
282.0, 0.042792478400108885
283.0, 0.028457272597567723
284.0, 0.009987383485469726
285.0, 0.0014351997733408985
286.0, 0.003593811014358644
287.0, 0.008928757446035562
288.0, 0.013740740313732371
289.0, 0.004926890101102136
290.0, 0.015370699431421928
291.0, 0.027089241943289124
292.0, 0.027772168771346726
293.0, 0.02124902120778118
294.0, 0.016308882489240208
295.0, 0.008099737337546811
296.0, 0.01959387782527601
297.0, 0.02504110748904907
298.0, 0.0115271849254486
299.0, 0.021945087441926664
300.0, 0.005756118312766026
301.0, 0.023268815449427327
302.0, 0.0338552185664036
303.0, 0.029014662020269717
304.0, 0.019251360443006068
305.0, 0.011977143560716177
306.0, 0.037366880782994494
307.0, 0.0490442163259235
308.0, 0.04866725423173827
309.0, 0.04501578430927923
310.0, 0.0475813330061555
311.0, 0.057110036775866915
312.0, 0.06886103099376303
313.0, 0.07633329846218226
314.0, 0.08566436864072997
315.0, 0.0945911010902811
316.0, 0.0888008013174735
317.0, 0.10143756326644687
318.0, 0.10613973580399307
319.0, 0.10385636885887202
320.0, 0.09219842916481708
321.0, 0.07713011085049007
322.0, 0.08241320116010573
323.0, 0.07280324193870412
324.0, 0.08088419647827577
325.0, 0.06816908309623684
326.0, 0.04473095657319547
327.0, 0.03949912749473358
328.0, 0.0592374941165005
329.0, 0.04588226989598743
330.0, 0.026261674805535002
331.0, 0.025438872903079637
332.0, 0.028170459421979124
333.0, 0.0059592266000476485
334.0, 0.004771965624608808
335.0, 0.00796858180243137
336.0, 0.008501462022326175
337.0, 0.016095347532608537
338.0, 0.02207052855271352
339.0, 0.008787367993409897
340.0, 0.034652273177888104
341.0, 0.027281875355975167
342.0, 0.011891380648575716
343.0, 0.003038206371374198
344.0, 0.004435229715308318
345.0, 0.010204135117276619
346.0, 0.03987824961271397
347.0, 0.02234673302200589
348.0, 0.015336906656151344
349.0, 0.028049056633678328
350.0, 0.0440706656612312
351.0, 0.03286515889928645
352.0, 0.0420140365516351
353.0, 0.064071472682572
354.0, 0.06184986432501375
355.0, 0.04292720617012718
356.0, 0.034715402206913125
357.0, 0.06727569468224186
358.0, 0.04224381107012576
359.0, 0.04982911283640586
360.0, 0.048773007793340734
361.0, 0.034764333901904816
362.0, 0.023144781171875878
363.0, 0.03576915884505831
364.0, 0.007525562390798109
365.0, 0.02434692114492671
366.0, 0.042193843106073874
367.0, 0.0467856256254303
368.0, 0.04286585420772306
369.0, 0.043260938621417375
370.0, 0.05425980312579048
371.0, 0.06561089383422701
372.0, 0.06948194437055966
373.0, 0.07243280626839184
374.0, 0.085339041591598
375.0, 0.11091928415517288
376.0, 0.0645225807451386
377.0, 0.07287027649411396
378.0, 0.09750781386502715
379.0, 0.09620962086810701
380.0, 0.059640550472045105
381.0, 0.0597933185759261
382.0, 0.06490856302088392
383.0, 0.051208784080765186
384.0, 0.04103162973742235
385.0, 0.037902369895666546
386.0, 0.03632946482741889
387.0, 0.03827984741038021
388.0, 0.030113730870534722
389.0, 0.026967318413226915
390.0, 0.025156034128826815
391.0, 0.02230107433745766
392.0, 0.018166240920870054
393.0, 0.01508832074122287
394.0, 0.019070201197780915
395.0, 0.011624466130151778
396.0, 0.0049990248804803634
397.0, 0.01118114648447369
398.0, 0.02516741815441096
399.0, 0.005639329879336652
400.0, 0.042327172783170386
401.0, 0.05145152514422758
402.0, 0.039456593182624525
403.0, 0.02749493427994223
404.0, 0.03273466935068764
405.0, 0.050335927543019604
406.0, 0.04195329316685137
407.0, 0.046726404784632976
408.0, 0.051968340010986554
409.0, 0.0541708979750885
410.0, 0.05712708159896219
411.0, 0.06909676024413672
412.0, 0.06265321245830924
413.0, 0.06077762515864605
414.0, 0.06338663672274478
415.0, 0.05668309408308777
416.0, 0.03989712856661255
417.0, 0.036946023369528895
418.0, 0.036412277856769995
419.0, 0.035686212455604494
420.0, 0.047579408928219755
421.0, 0.040187853090068844
422.0, 0.011262696846625047
423.0, 0.005368521446727249
424.0, 0.0064412188122712575
425.0, 0.013679508067590154
426.0, 0.024727140118007414
427.0, 0.02244409834897751
428.0, 0.01136639846486732
429.0, 0.014017038233716542
430.0, 0.009607326745767931
431.0, 0.020446012421575357
432.0, 0.010954569903121755
433.0, 0.007687608557538987
434.0, 0.010664893035681083
435.0, 0.003672264155922556
436.0, 0.018587936811568555
437.0, 0.014624906585262479
438.0, 0.015435746177849501
439.0, 0.017126706274978868
440.0, 0.013450096985463707
441.0, 0.006077032485930991
442.0, 0.01692515803125861
443.0, 0.019829112630517513
444.0, 0.014876290220716501
445.0, 0.01362551013173707
446.0, 0.01609566485087629
447.0, 0.017184713115016056
448.0, 0.01355760381911246
449.0, 0.019465587105128187
450.0, 0.021518519051042767
451.0, 0.01434597676792599
452.0, 0.010523236439223526
453.0, 0.016456767162240347
454.0, 0.023461189960258526
455.0, 0.020992042031076914
456.0, 0.010347383736361003
457.0, 0.014719176865468116
458.0, 0.03291297672703757
459.0, 0.0439916283766214
460.0, 0.02689238658361849
461.0, 0.010547657483597548
462.0, 0.03564163155610539
463.0, 0.035776197630269166
464.0, 0.03336877313265428
465.0, 0.032188009086410646
466.0, 0.02532248795711244
467.0, 0.01633734715480343
468.0, 0.010484988495990645
469.0, 0.012254141196975267
470.0, 0.01693185016643206
471.0, 0.024297672518573996
472.0, 0.03128203796754486
473.0, 0.02955426124934245
474.0, 0.019618487806235513
475.0, 0.02938882007647019
476.0, 0.030751066264166748
477.0, 0.03158315595441284
478.0, 0.03886078256695763
479.0, 0.04738975894871879
480.0, 0.032647441675140665
481.0, 0.05225121820090614
482.0, 0.055116310568840934
483.0, 0.04464336120353559
484.0, 0.03580821950988547
485.0, 0.031353810212226864
486.0, 0.0029109811570303037
487.0, 0.01156511236093145
488.0, 0.024974425419248502
489.0, 0.023212726579265864
490.0, 0.026646048998089655
491.0, 0.032340965393894916
492.0, 0.010959828565134723
493.0, 0.03877288152674793
494.0, 0.03860241321781146
495.0, 0.0337637497226188
496.0, 0.041362444377142295
497.0, 0.049412118090585405
498.0, 0.0443221939178396
499.0, 0.06075258983517019
500.0, 0.04233803850954229
501.0, 0.057764322747298334
502.0, 0.05332505511055263
503.0, 0.05288228313849284
504.0, 0.06496713892763063
505.0, 0.04707025538233772
506.0, 0.05475436490448565
507.0, 0.07290489140341853
508.0, 0.060748567836654624
509.0, 0.04195625462131318
510.0, 0.04638201978730068
511.0, 0.0740335874368671
512.0, 0.054169760427857434
513.0, 0.036633691505134194
514.0, 0.04946441458662225
515.0, 0.05200692076521578
516.0, 0.05103325417051138
517.0, 0.05064241996298599
518.0, 0.032088520176295085
519.0, 0.03179901133510303
520.0, 0.04178885855585223
521.0, 0.04267896041879547
522.0, 0.042101010256212185
523.0, 0.04336671200475504
524.0, 0.043025148939964696
525.0, 0.036253653247683926
526.0, 0.04571869274412827
527.0, 0.04008183381521698
528.0, 0.04483578557704912
529.0, 0.041206481268393026
530.0, 0.02622039608249782
531.0, 0.028754136690762717
532.0, 0.052914565761857636
533.0, 0.041483459710209704
534.0, 0.049227550978292
535.0, 0.05407620829944169
536.0, 0.04348547958812013
537.0, 0.02555765336394185
538.0, 0.02608233009354454
539.0, 0.046070732394157494
540.0, 0.026501742304661624
541.0, 0.013272556921541617
542.0, 0.018721856145083725
543.0, 0.0271178424687828
544.0, 0.019841981712306327
545.0, 0.02913505623701633
546.0, 0.029114820764293996
547.0, 0.037442712740188316
548.0, 0.0444150117816907
549.0, 0.045332479329828035
550.0, 0.03413432532676432
551.0, 0.009200610887972248
552.0, 0.029208217494658528
553.0, 0.028330834278591444
554.0, 0.021771531272775563
555.0, 0.03161192723192303
556.0, 0.03726234704350463
557.0, 0.021242376539914072
558.0, 0.01981051202027667
559.0, 0.01545787889265703
560.0, 0.01653592293358251
561.0, 0.014613683594355832
562.0, 0.008308047315870903
563.0, 0.005030518906589619
564.0, 0.01053928997360863
565.0, 0.009713938960146586
566.0, 0.006983574323414649
567.0, 0.0082092084549407
568.0, 0.013734771047626833
569.0, 0.012924091915660251
570.0, 0.009110530463062445
571.0, 0.01836891368660753
572.0, 0.030431246915753583
573.0, 0.0399408108623314
574.0, 0.01807913281231232
575.0, 0.022216292583469695
576.0, 0.025299032087756232
577.0, 0.009993086753984897
578.0, 0.01605469997002901
579.0, 0.00935406060601232
580.0, 0.021535983298378046
581.0, 0.008854453732019598
582.0, 0.0058863988754073275
583.0, 0.012257180322832701
584.0, 0.011653315871722183
585.0, 0.005343799644562148
586.0, 0.022061137849282673
587.0, 0.02064223768388085
588.0, 0.02302338422062813
589.0, 0.022017124458316054
590.0, 0.01770021232687776
591.0, 0.019674958793522962
592.0, 0.03600373219916046
593.0, 0.005871255671200585
594.0, 0.011962237899990758
595.0, 0.017911764510876317
596.0, 0.015800052399121
597.0, 0.013133935442327717
598.0, 0.015602076267704568
599.0, 0.00959174609917765
600.0, 0.027552085219954024
601.0, 0.022118186478579892
602.0, 0.025367798748776173
603.0, 0.034507840992733976
604.0, 0.035997123136075525
605.0, 0.02145821219067688
606.0, 0.0014835092127999227
607.0, 0.02424145869642771
608.0, 0.03137637617435134
609.0, 0.03962460051420045
610.0, 0.03505531790639956
611.0, 0.027967485828394555
612.0, 0.03419771740234692
613.0, 0.016718716978423625
614.0, 0.043829506290024675
615.0, 0.03761534399824617
616.0, 0.05039740625537129
617.0, 0.06431888205757681
618.0, 0.06945161955288663
619.0, 0.07084162768168682
620.0, 0.05466979525467555
621.0, 0.06118581908464513
622.0, 0.04906931045774758
623.0, 0.04763486127508359
624.0, 0.04984203908790246
625.0, 0.057769572768118206
626.0, 0.07745094637604448
627.0, 0.08870945888824405
628.0, 0.10484046914271253
629.0, 0.0827003877606593
630.0, 0.10073888287760605
631.0, 0.12432168218253685
632.0, 0.11725507881720296
633.0, 0.09359483697781945
634.0, 0.1258066134053343
635.0, 0.17708131138160052
636.0, 0.18630855833386123
637.0, 0.19115758782558376
638.0, 0.21918493883229448
639.0, 0.26005419271667296
640.0, 0.2942877320950097
641.0, 0.33657225046610784
642.0, 0.4190543352815692
643.0, 0.4567099433982104
644.0, 0.5552880734629659
645.0, 0.6461143555918631
646.0, 0.7252503778457241
647.0, 0.8126218664819609
648.0, 0.8822993524030716
649.0, 0.9685842179019396
650.0, 0.9891662553946114
651.0, 0.997567592352148
652.0, 0.9921300277309957
653.0, 0.963357965566764
654.0, 0.8928549668393733
655.0, 0.7623471886683818
656.0, 0.598880169864956
657.0, 0.5244517849784195
658.0, 0.4143857815923856
659.0, 0.33640082162540724
660.0, 0.28067212458961144
661.0, 0.23127718350332835
662.0, 0.19908886788068833
663.0, 0.17711256782372772
664.0, 0.14256918405802813
665.0, 0.15406059924830878
666.0, 0.11900550991155331
667.0, 0.09447819391480079
668.0, 0.09094998402026333
669.0, 0.08058885733471398
670.0, 0.11690726481522326
671.0, 0.07598914680852478
672.0, 0.06869240029622413
673.0, 0.07496258134456091
674.0, 0.0601844249811025
675.0, 0.05280190657660584
676.0, 0.07892128621459046
677.0, 0.09338443439562047
678.0, 0.0716331187209491
679.0, 0.08628158442949929
680.0, 0.08384705128312543
681.0, 0.0854648786005901
682.0, 0.09233457045741715
683.0, 0.10141198423062954
684.0, 0.11352015698883185
685.0, 0.11135210683318542
686.0, 0.12492546778221196
687.0, 0.1350357243958198
688.0, 0.13615083394080618
689.0, 0.12085696027875498
690.0, 0.11148688855809816
691.0, 0.12166620176700488
692.0, 0.1005758491755357
693.0, 0.08542986439961964
694.0, 0.10013770892723156
695.0, 0.0798959605100158
696.0, 0.069605036023518
697.0, 0.054072389022780075
698.0, 0.024848404200356163
699.0, 0.028256607934169994
700.0, 0.05359743016258062
701.0, 0.04444983365314439
702.0, 0.03094294444181008
703.0, 0.039028894423204626
704.0, 0.039651648602240575
705.0, 0.029296019545129906
706.0, 0.03287245192301843
707.0, 0.047209599381684356
708.0, 0.05232300462458406
709.0, 0.03245932771473528
710.0, 0.04893084213118995
711.0, 0.03725692450186101
712.0, 0.016074665016786407
713.0, 0.016209428898257352
714.0, 0.01485348149580174
715.0, 0.02872982964366754
716.0, 0.0370119223994321
717.0, 0.04178839034168931
718.0, 0.03495227633190409
719.0, 0.041932217366427355
720.0, 0.05015622579943569
721.0, 0.03793323362052297
722.0, 0.040637574781985326
723.0, 0.022573201926509894
724.0, 0.03131531313783753
725.0, 0.03492736102620075
726.0, 0.03170716228360525
727.0, 0.01845028806628326
728.0, 0.008533018704821425
729.0, 0.018755541803003963
730.0, 0.011508728557926359
731.0, 0.03360247407420095
732.0, 0.04904499321843436
733.0, 0.027646265867820853
734.0, 0.021565492082341705
735.0, 0.02559933271227692
736.0, 0.01898891688270179
737.0, 0.027034155091834464
738.0, 0.03962989774897796
739.0, 0.010187806701852061
740.0, 0.0279048679718912
741.0, 0.017266464766395283
742.0, 0.00790717430920779
743.0, 0.014737395058839661
744.0, 0.022295960998402833
745.0, 0.037211925481466394
746.0, 0.04007015259228353
747.0, 0.04993777785056237
748.0, 0.04378608012561215
749.0, 0.05032065115010863
750.0, 0.051841585121145395
751.0, 0.03541155595021395
752.0, 0.01781774078954833
753.0, 0.018636096564144184
754.0, 0.015322617308595007
755.0, 0.016222356751006754
756.0, 0.022231868536603472
757.0, 0.02326815797653481
758.0, 0.02186424207304304
759.0, 0.01791843337903014
760.0, 0.008505899955384703
761.0, 0.016387700015133157
762.0, 0.017718158826779636
763.0, 0.031530719465411805
764.0, 0.01444310741669742
765.0, 0.005361944742724034
766.0, 0.012388074225734912
767.0, 0.02639974986489743
768.0, 0.04756637272206599
769.0, 0.06361830304222432
770.0, 0.04170449605404221
771.0, 0.03533209725183721
772.0, 0.015317772846164236
773.0, 0.02729175189487109
774.0, 0.041174662302087925
775.0, 0.0318401455784096
776.0, 0.03794716346308596
777.0, 0.009646013996380995
778.0, 0.0014487371937805496
779.0, 0.014726601286179298
780.0, 0.03321669076693126
781.0, 0.03546949918664397
782.0, 0.03332084381949913
783.0, 0.031384908716538894
784.0, 0.010135990457362921
785.0, 0.015913522138000215
786.0, 0.02802677219855615
787.0, 0.031568206980336196
788.0, 0.013865495454836018
789.0, 0.02688335075650496
790.0, 0.04251296194229217
791.0, 0.032936095643418185
792.0, 0.039365459198210086
793.0, 0.05494308277534571
794.0, 0.032727474294583836
795.0, 0.014130941561199598
796.0, 0.039765910396798554
797.0, 0.06798180914398008
798.0, 0.06571909702764736
799.0, 0.039650088661209434
800.0, 0.021575532158932164
801.0, 0.019606479611556607
802.0, 0.0055688703117872645
803.0, 0.028619180223886605
804.0, 0.05457162084496771
805.0, 0.047725732219236795
806.0, 0.03945237924315581
807.0, 0.04801074984857686
808.0, 0.04344512112275792
809.0, 0.01649330993171077
810.0, 0.009822179835428883
811.0, 0.035195497911585695
812.0, 0.036514537203786904
813.0, 0.032655937995791084
814.0, 0.02273975186028906
815.0, 0.02307981296877009
816.0, 0.04416233629727125
817.0, 0.03311705228869791
818.0, 0.006312195248413397
819.0, 0.051128962360716915
820.0, 0.020533280621764908
821.0, 0.02901830360483603
822.0, 0.034435782546381036
823.0, 0.024026620077370574
824.0, 0.027941499219958737
825.0, 0.03393656037076465
826.0, 0.0314532893022594
827.0, 0.03248524513733491
828.0, 0.04917466013593626
829.0, 0.04328183368617177
830.0, 0.039596536469385574
831.0, 0.05365644313299103
832.0, 0.06771611637026606
833.0, 0.0584322099486443
834.0, 0.05423312537551569
835.0, 0.024450819522101586
836.0, 0.027253993076593774
837.0, 0.03481972213304597
838.0, 0.03054097379249666
839.0, 0.03831102985797453
840.0, 0.04345510988521205
841.0, 0.02112836648364802
842.0, 0.021522397665505233
843.0, 0.005689421828204845
844.0, 0.027224957033424667
845.0, 0.06134208201902
846.0, 0.05284024422945159
847.0, 0.03921792311804362
848.0, 0.026640350363249486
849.0, 0.010301497950770318
850.0, 0.013211531240452226
851.0, 0.018526815077996403
852.0, 0.03887028772810336
853.0, 0.03280674947836995
854.0, 0.030531244024582363
855.0, 0.04453797613246755
856.0, 0.052690462271066225
857.0, 0.04555184166440556
858.0, 0.04560933462531401
859.0, 0.07019661201765964
860.0, 0.03799335876030407
861.0, 0.05459450518972072
862.0, 0.02776650941230694
863.0, 0.031692853258001856
864.0, 0.0553782150624844
865.0, 0.05514117164985804
866.0, 0.03334950453991942
867.0, 0.034651293081450985
868.0, 0.03882041312619457
869.0, 0.02948490156184391
870.0, 0.051514363813103536
871.0, 0.05092322948954466
872.0, 0.04880745536281084
873.0, 0.0438847562608735
874.0, 0.038389249897063216
875.0, 0.03688649587502958
876.0, 0.031790325385746276
877.0, 0.020074727005046422
878.0, 0.010665105251212503
879.0, 0.02312560120140618
880.0, 0.018932776932026937
881.0, 0.007562522110624721
882.0, 0.0018224267374399718
883.0, 0.030227373333667745
884.0, 0.07299436790790338
885.0, 0.03475482421036946
886.0, 0.03611080083511692
887.0, 0.04363193654517928
888.0, 0.011092203022615559
889.0, 0.002618591544755979
890.0, 0.02129054561133253
891.0, 0.03949202226872855
892.0, 0.039013246414436945
893.0, 0.028086148605674054
894.0, 0.024604056261914614
895.0, 0.018315579307635183
896.0, 0.009367177608821225
897.0, 0.04353121645153476
898.0, 0.04754754376620571
899.0, 0.03885912890052038
900.0, 0.01989541886317942
901.0, 0.00944645312121921
902.0, 0.032286503709282086
903.0, 0.04650140218532961
904.0, 0.07685384066830919
905.0, 0.07362105370924539
906.0, 0.06883606201236225
907.0, 0.06603099329987663
908.0, 0.07098260340489695
909.0, 0.06395433608864318
910.0, 0.059936240766176735
911.0, 0.07296437975032084
912.0, 0.022375257323093176
913.0, 0.011360357073679168
914.0, 0.04259606101122111
915.0, 0.04368543732247403
916.0, 0.024490319872020983
917.0, 0.03645415349736986
918.0, 0.04781702962177909
919.0, 0.02757039683835941
920.0, 0.008499465821276097
921.0, 0.026523175806288924
922.0, 0.01850874555594178
923.0, 0.03407236519422774
924.0, 0.060759582216709455
925.0, 0.054003530028611996
926.0, 0.06086450299723149
927.0, 0.04720612772729813
928.0, 0.019682798560183318
929.0, 0.02403712990293936
930.0, 0.03020167279066124
931.0, 0.038175320293086214
932.0, 0.05234227013342875
933.0, 0.0179272143282446
934.0, 0.043500080220583215
935.0, 0.03722183685117793
936.0, 0.01299184355375322
937.0, 0.02652746208295719
938.0, 0.061221453825274344
939.0, 0.0421842267593343
940.0, 0.015528627979471184
941.0, 0.01943356356573878
942.0, 0.04670531079943497
943.0, 0.04993041295118228
944.0, 0.06559189379874977
945.0, 0.07378976391761662
946.0, 0.06857627843140847
947.0, 0.07524709384610086
948.0, 0.09404014693845904
949.0, 0.062182691612223506
950.0, 0.07627149717390151
951.0, 0.08186002069495527
952.0, 0.09499675109500522
953.0, 0.08142469000422457
954.0, 0.08787768088313302
955.0, 0.0955020172793971
956.0, 0.09625904917607386
957.0, 0.11275659855198068
958.0, 0.13773188195628197
959.0, 0.16539487383554013
960.0, 0.1733235433490518
961.0, 0.1902937939488386
962.0, 0.19830747449595787
963.0, 0.21731005569900597
964.0, 0.23658951448003024
965.0, 0.2614547473856073
966.0, 0.29523351104701284
967.0, 0.31383851131445817
968.0, 0.3065969520683809
969.0, 0.3692342976697841
970.0, 0.3661612995490588
971.0, 0.34860717655647566
972.0, 0.3539278933082943
973.0, 0.37178897921667753
974.0, 0.35050558454273173
975.0, 0.2978224860594397
976.0, 0.2818797081128146
977.0, 0.31828827438977886
978.0, 0.29146971232152796
979.0, 0.3090599089710124
980.0, 0.26936719405103976
981.0, 0.20418570424173205
982.0, 0.19047294975206502
983.0, 0.20246944277932155
984.0, 0.22322897969532116
985.0, 0.23544821440450503
986.0, 0.22254604640073172
987.0, 0.20147018368464187
988.0, 0.18001457038329502
989.0, 0.2197628257460513
990.0, 0.22253006545413084
991.0, 0.22014457727260991
992.0, 0.2021081223887071
993.0, 0.20995131049928062
994.0, 0.20087802359271786
995.0, 0.17546421963998513
996.0, 0.18735237661930534
997.0, 0.19267679562922593
998.0, 0.23306584883820233
999.0, 0.23843791433183084
1000.0, 0.2432695367562422
1001.0, 0.24265596077185736
1002.0, 0.24073437614784554
1003.0, 0.24142433899103052
1004.0, 0.23624679173874785
1005.0, 0.23251357623378147
1006.0, 0.240425371840127
1007.0, 0.2316418698873492
1008.0, 0.2106305608354876
1009.0, 0.19572997897604097
1010.0, 0.24070258892345017
1011.0, 0.2150260780673806
1012.0, 0.2440588415830829
1013.0, 0.23878122864427032
1014.0, 0.24405036447028328
1015.0, 0.2879683393899856
1016.0, 0.3164705057060299
1017.0, 0.3738264228642999
1018.0, 0.4029178179974055
1019.0, 0.4460678422649018
1020.0, 0.48995129338897897
1021.0, 0.5527965560661463
1022.0, 0.5882080280918819
1023.0, 0.6223216898853128
1024.0, 0.6347822420186687
1025.0, 0.6276483422927275
1026.0, 0.6198399590067075
1027.0, 0.5831840037333715
1028.0, 0.5409549545008829
1029.0, 0.4757004098851454
1030.0, 0.386429196776479
1031.0, 0.33707398541804745
1032.0, 0.26549909371960884
1033.0, 0.19143670458588363
1034.0, 0.17240798037807203
1035.0, 0.1681992797595228
1036.0, 0.13045678221299942
1037.0, 0.11563008160743453
1038.0, 0.15067629740587746
1039.0, 0.11554219188389936
1040.0, 0.10462654977404752
1041.0, 0.10300239684543101
1042.0, 0.10329594056389828
1043.0, 0.07572139227672336
1044.0, 0.0714975071210436
1045.0, 0.06721492190466691
1046.0, 0.04844711921018422
1047.0, 0.041955286663533035
1048.0, 0.02076251278910185
1049.0, 0.0107505115243264
1050.0, 0.032967107231929284
1051.0, 0.017646533157197258
1052.0, 0.024697495347995337
1053.0, 0.015819434709962055
1054.0, 0.026535858029583095
1055.0, 0.03414552016483379
1056.0, 0.02912226926746685
1057.0, 0.03420025120274253
1058.0, 0.04311408012633018
1059.0, 0.025178839736474973
1060.0, 0.08234995272051698
1061.0, 0.04508318728118256
1062.0, 0.020763517161606862
1063.0, 0.023773599042314797
1064.0, 0.05620688937974997
1065.0, 0.045360079568928506
1066.0, 0.019587456156740003
1067.0, 0.02285370014048818
1068.0, 0.029232143248069588
1069.0, 0.013045204564410152
1070.0, 0.032465705490035204
1071.0, 0.009341481385938502
1072.0, 0.009202117284705533
1073.0, 0.030027325498278558
1074.0, 0.024242021700578063
1075.0, 0.015642912426478424
1076.0, 0.01905381158349385
1077.0, 0.018186192435507974
1078.0, 0.013710354388039242
1079.0, 0.015649043258876956
1080.0, 0.009686332722011132
1081.0, 0.008713458227499573
1082.0, 0.022400757124120624
1083.0, 0.0586198230028276
1084.0, 0.013174557944009176
1085.0, 0.037885018114136124
1086.0, 0.03693906147271281
1087.0, 0.03262835409617402
1088.0, 0.04211334581446596
1089.0, 0.04504848993067515
1090.0, 0.038343511919253545
1091.0, 0.039900616403913146
1092.0, 0.031655194718253954
1093.0, 0.05813437155757771
1094.0, 0.005112189345786104
1095.0, 0.046145337246639245
1096.0, 0.02986947097158838
1097.0, 0.03379944067125587
1098.0, 0.03473497129783811
1099.0, 0.056831581471220034
1100.0, 0.08901171672711097
1101.0, 0.0679956494341234
1102.0, 0.007470925395036846
1103.0, 0.024043073460047908
1104.0, 0.09051860920671574
1105.0, 0.0370285494683365
1106.0, 0.06597056583739089
1107.0, 0.029902864696031782
1108.0, 0.042795760395758185
1109.0, 0.042256086982817465
1110.0, 0.04871423641809209
1111.0, 0.059347224586830206
1112.0, 0.05621981151892146
1113.0, 0.05308037552926496
1114.0, 0.04627725255108543
1115.0, 0.06872004510366211
1116.0, 0.08738368844138177
1117.0, 0.11086821270677194
1118.0, 0.10658070275835642
1119.0, 0.11254979997757508
1120.0, 0.14862831664940218
1121.0, 0.15075847632220338
1122.0, 0.14362318437110633
1123.0, 0.13490420436758696
1124.0, 0.09859940937280115
1125.0, 0.0676500250299962
1126.0, 0.07200558930326073
1127.0, 0.09720047930517735
1128.0, 0.03461025890930869
1129.0, 0.07427839774420195
1130.0, 0.06691568134522755
1131.0, 0.04412594729632658
1132.0, 0.054613442628849714
1133.0, 0.040876766447197115
1134.0, 0.0474779432014278
1135.0, 0.07875130223971709
1136.0, 0.08330775995573977
1137.0, 0.08402783333521047
1138.0, 0.009776644052120715
1139.0, 0.033438279898641704
1140.0, 0.026443639422795644
1141.0, 0.0669972016742599
1142.0, 0.07992847040446742
1143.0, 0.08125936515479429
1144.0, 0.08119521995436582
1145.0, 0.08208916168087581
1146.0, 0.0894440418128821
1147.0, 0.0898717383999625
1148.0, 0.0744598597361644
1149.0, 0.06790713269021328
1150.0, 0.06699715104474076
1151.0, 0.09397883984550245
1152.0, 0.048568371090413016
1153.0, 0.02045951851281212
1154.0, 0.045109641341355027
1155.0, 0.0670897624683635
1156.0, 0.03283551926674573
1157.0, 0.008379196659130176
1158.0, 0.0157606670470032
1159.0, 0.031704659690439445
1160.0, 0.03378472232259908
1161.0, 0.01671495985298467
1162.0, 0.03895637705644854
1163.0, 0.07953329693734593
1164.0, 0.05836031397298749
1165.0, 0.08358699075645716
1166.0, 0.08666732493477954
1167.0, 0.06785328245407388
1168.0, 0.04155635773332007
1169.0, 0.02974238027384524
1170.0, 0.05945630112981072
1171.0, 0.06686392799226448
1172.0, 0.02655170451204012
1173.0, 0.03214439325540937
1174.0, 0.0791302644401528
1175.0, 0.054639258018608694
1176.0, 0.0018740580473575463
1177.0, 0.09608289737541882
1178.0, 0.045804812145361404
1179.0, 0.07382562388905929
1180.0, 0.0969454145774752
1181.0, 0.07188244946534848
1182.0, 0.04883207642458252
1183.0, 0.029773488708830016
1184.0, 0.033804479805640796
1185.0, 0.051180491696637284
1186.0, 0.01868029281607644
1187.0, 0.04158824938553994
1188.0, 0.013611854900692544
1189.0, 0.06188378209599346
1190.0, 0.032798139722204966
1191.0, 0.06102354377405843
1192.0, 0.0174224170058819
1193.0, 0.046186081190563555
1194.0, 0.053101769808492114
1195.0, 0.029780673805704313
1196.0, 0.012834053265187407
1197.0, 0.004905899600086655
1198, 0.0
1199, 0.0
1200, 0.0
1201, 0.0
1202, 0.0
1203, 0.0
1204, 0.0
1205, 0.0
1206, 0.0
1207, 0.0
1208, 0.0
1209, 0.0
1210, 0.0
1211, 0.0
1212, 0.0
1213, 0.0
1214, 0.0
1215, 0.0
1216, 0.0
1217, 0.0
1218, 0.0
1219, 0.0
1220, 0.0
1221, 0.0
1222, 0.0
1223, 0.0
1224, 0.0
1225, 0.0
1226, 0.0
1227, 0.0
1228, 0.0
1229, 0.0
1230, 0.0
1231, 0.0
1232, 0.0
1233, 0.0
1234, 0.0
1235, 0.0
1236, 0.0
1237, 0.0
1238, 0.0
1239, 0.0
1240, 0.0
1241, 0.0
1242, 0.0
1243, 0.0
1244, 0.0
1245, 0.0
1246, 0.0
1247, 0.0
1248, 0.0
1249, 0.0
1250, 0.0
1251, 0.0
1252, 0.0
1253, 0.0
1254, 0.0
1255, 0.0
1256, 0.0
1257, 0.0
1258, 0.0
1259, 0.0
1260, 0.0
1261, 0.0
1262, 0.0
1263, 0.0
1264, 0.0
1265, 0.0
1266, 0.0
1267, 0.0
1268, 0.0
1269, 0.0
1270, 0.0
1271, 0.0
1272, 0.0
1273, 0.0
1274, 0.0
1275, 0.0
1276, 0.0
1277, 0.0
1278, 0.0
1279, 0.0
1280, 0.0
1281, 0.0
1282, 0.0
1283, 0.0
1284, 0.0
1285, 0.0
1286, 0.0
1287, 0.0
1288, 0.0
1289, 0.0
1290, 0.0
1291, 0.0
1292, 0.0
1293, 0.0
1294, 0.0
1295, 0.0
1296, 0.0
1297, 0.0
1298, 0.0
1299, 0.0
1300, 0.0
1301, 0.0
1302, 0.0
1303, 0.0
1304, 0.0
1305, 0.0
1306, 0.0
1307, 0.0
1308, 0.0
1309, 0.0
1310, 0.0
1311, 0.0
1312, 0.0
1313, 0.0
1314, 0.0
1315, 0.0
1316, 0.0
1317, 0.0
1318, 0.0
1319, 0.0
1320, 0.0
1321, 0.0
1322, 0.0
1323, 0.0
1324, 0.0
1325, 0.0
1326, 0.0
1327, 0.0
1328, 0.0
1329, 0.0
1330, 0.0
1331, 0.0
1332, 0.0
1333, 0.0
1334, 0.0
1335, 0.0
1336, 0.0
1337, 0.0
1338, 0.0
1339, 0.0
1340, 0.0
1341, 0.0
1342, 0.0
1343, 0.0
1344, 0.0
1345, 0.0
1346, 0.0
1347, 0.0
1348, 0.0
1349, 0.0
1350, 0.0
1351, 0.0
1352, 0.0
1353, 0.0
1354, 0.0
1355, 0.0
1356, 0.0
1357, 0.0
1358, 0.0
1359, 0.0
1360, 0.0
1361, 0.0
1362, 0.0
1363, 0.0
1364, 0.0
1365, 0.0
1366, 0.0
1367, 0.0
1368, 0.0
1369, 0.0
1370, 0.0
1371, 0.0
1372, 0.0
1373, 0.0
1374, 0.0
1375, 0.0
1376, 0.0
1377, 0.0
1378, 0.0
1379, 0.0
1380, 0.0
1381, 0.0
1382, 0.0
1383, 0.0
1384, 0.0
1385, 0.0
1386, 0.0
1387, 0.0
1388, 0.0
1389, 0.0
1390, 0.0
1391, 0.0
1392, 0.0
1393, 0.0
1394, 0.0
1395, 0.0
1396, 0.0
1397, 0.0
1398, 0.0
1399, 0.0
1400, 0.0
1401, 0.0
1402, 0.0
1403, 0.0
1404, 0.0
1405, 0.0
1406, 0.0
1407, 0.0
1408, 0.0
1409, 0.0
1410, 0.0
1411, 0.0
1412, 0.0
1413, 0.0
1414, 0.0
1415, 0.0
1416, 0.0
1417, 0.0
1418, 0.0
1419, 0.0
1420, 0.0
1421, 0.0
1422, 0.0
1423, 0.0
1424, 0.0
1425, 0.0
1426, 0.0
1427, 0.0
1428, 0.0
1429, 0.0
1430, 0.0
1431, 0.0
1432, 0.0
1433, 0.0
1434, 0.0
1435, 0.0
1436, 0.0
1437, 0.0
1438, 0.0
1439, 0.0
1440, 0.0
1441, 0.0
1442, 0.0
1443, 0.0
1444, 0.0
1445, 0.0
1446, 0.0
1447, 0.0
1448, 0.0
1449, 0.0
1450, 0.0
1451, 0.0
1452, 0.0
1453, 0.0
1454, 0.0
1455, 0.0
1456, 0.0
1457, 0.0
1458, 0.0
1459, 0.0
1460, 0.0
1461, 0.0
1462, 0.0
1463, 0.0
1464, 0.0
1465, 0.0
1466, 0.0
1467, 0.0
1468, 0.0
1469, 0.0
1470, 0.0
1471, 0.0
1472, 0.0
1473, 0.0
1474, 0.0
1475, 0.0
1476, 0.0
1477, 0.0
1478, 0.0
1479, 0.0
1480, 0.0
1481, 0.0
1482, 0.0
1483, 0.0
1484, 0.0
1485, 0.0
1486, 0.0
1487, 0.0
1488, 0.0
1489, 0.0
1490, 0.0
1491, 0.0
1492, 0.0
1493, 0.0
1494, 0.0
1495, 0.0
1496, 0.0
1497, 0.0
1498, 0.0
1499, 0.0
1500, 0.0
1501, 0.0
1502, 0.0
1503, 0.0
1504, 0.0
1505, 0.0
1506, 0.0
1507, 0.0
1508, 0.0
1509, 0.0
1510, 0.0
1511, 0.0
1512, 0.0
1513, 0.0
1514, 0.0
1515, 0.0
1516, 0.0
1517, 0.0
1518, 0.0
1519, 0.0
1520, 0.0
1521, 0.0
1522, 0.0
1523, 0.0
1524, 0.0
1525, 0.0
1526, 0.0
1527, 0.0
1528, 0.0
1529, 0.0
1530, 0.0
1531, 0.0
1532, 0.0
1533, 0.0
1534, 0.0
1535, 0.0
1536, 0.0
1537, 0.0
1538, 0.0
1539, 0.0
1540, 0.0
1541, 0.0
1542, 0.0
1543, 0.0
1544, 0.0
1545, 0.0
1546, 0.0
1547, 0.0
1548, 0.0
1549, 0.0
1550, 0.0
1551, 0.0
1552, 0.0
1553, 0.0
1554, 0.0
1555, 0.0
1556, 0.0
1557, 0.0
1558, 0.0
1559, 0.0
1560, 0.0
1561, 0.0
1562, 0.0
1563, 0.0
1564, 0.0
1565, 0.0
1566, 0.0
1567, 0.0
1568, 0.0
1569, 0.0
1570, 0.0
1571, 0.0
1572, 0.0
1573, 0.0
1574, 0.0
1575, 0.0
1576, 0.0
1577, 0.0
1578, 0.0
1579, 0.0
1580, 0.0
1581, 0.0
1582, 0.0
1583, 0.0
1584, 0.0
1585, 0.0
1586, 0.0
1587, 0.0
1588, 0.0
1589, 0.0
1590, 0.0
1591, 0.0
1592, 0.0
1593, 0.0
1594, 0.0
1595, 0.0
1596, 0.0
1597, 0.0
1598, 0.0
1599, 0.0
