30, 0.0
31, 0.0
32, 0.0
33, 0.0
34, 0.0
35, 0.0
36, 0.0
37, 0.0
38, 0.0
39, 0.0
40, 0.0
41, 0.0
42, 0.0
43, 0.0
44, 0.0
45, 0.0
46, 0.0
47, 0.0
48, 0.0
49, 0.0
50, 0.0
51, 0.0
52, 0.0
53, 0.0
54, 0.0
55, 0.0
56, 0.0
57, 0.0
58, 0.0
59, 0.0
60, 0.0
61, 0.0
62, 0.0
63, 0.0
64, 0.0
65, 0.0
66, 0.0
67, 0.0
68, 0.0
69, 0.0
70, 0.0
71, 0.0
72, 0.0
73, 0.0
74, 0.0
75, 0.0
76, 0.0
77, 0.0
78, 0.0
79, 0.0
80, 0.0
81, 0.0
82, 0.0
83, 0.0
84, 0.0
85, 0.0
86, 0.0
87, 0.0
88, 0.0
89, 0.0
90, 0.0
91, 0.0
92, 0.0
93, 0.0
94, 0.0
95, 0.0
96, 0.0
97, 0.0
98, 0.0
99, 0.0
100, 0.0
101, 0.0
102, 0.0
103, 0.0
104, 0.0
105, 0.0
106, 0.0
107, 0.0
108, 0.0
109, 0.0
110, 0.0
111, 0.0
112, 0.0
113, 0.0
114, 0.0
115, 0.0
116, 0.0
117, 0.0
118, 0.0
119, 0.0
120, 0.0
121, 0.0
122, 0.0
123, 0.0
124, 0.0
125, 0.0
126, 0.0
127, 0.0
128, 0.0
129, 0.0
130, 0.0
131, 0.0
132, 0.0
133, 0.0
134, 0.0
135, 0.0
136, 0.0
137, 0.0
138, 0.0
139, 0.0
140, 0.0
141, 0.0
142, 0.0
143, 0.0
144, 0.0
145, 0.0
146, 0.0
147, 0.0
148, 0.0
149, 0.0
150, 0.0
151, 0.0
152, 0.0
153, 0.0
154, 0.0
155, 0.0
156, 0.0
157, 0.0
158, 0.0
159, 0.0
160, 0.0
161, 0.0
162, 0.0
163, 0.0
164, 0.0
165.0, 0.017578768341966994
166.0, 0.024212718735131675
167.0, 0.028176858251701263
168.0, 0.016449509098579798
169.0, 0.0169236640283732
170.0, 0.01598154475467694
171.0, 0.016894315340752038
172.0, 0.027478706106953157
173.0, 0.016831470422655547
174.0, 0.03784641770845932
175.0, 0.05657938540355623
176.0, 0.042340240667131754
177.0, 0.03887086085320744
178.0, 0.03394666827473493
179.0, 0.037414745165908925
180.0, 0.04822306872546275
181.0, 0.05454943070864685
182.0, 0.05389669484527057
183.0, 0.06375185992118167
184.0, 0.08321288024229989
185.0, 0.10286487719140627
186.0, 0.11213696554930352
187.0, 0.1254423818328434
188.0, 0.12485960042342364
189.0, 0.11052516490536425
190.0, 0.14919241743233275
191.0, 0.1692825304667788
192.0, 0.17826755840704178
193.0, 0.1920341933725185
194.0, 0.2231384586676319
195.0, 0.26747116006631755
196.0, 0.3085386098398114
197.0, 0.3495206406093221
198.0, 0.39863187307244446
199.0, 0.44660323849243455
200.0, 0.4875355689690254
201.0, 0.5223348909767679
202.0, 0.5550280153596662
203.0, 0.5913609302919771
204.0, 0.6236241989682986
205.0, 0.6781423261301015
206.0, 0.7369230721206276
207.0, 0.7623763941880747
208.0, 0.7740671843451526
209.0, 0.793563790513223
210.0, 0.8206790240725421
211.0, 0.8439947503770465
212.0, 0.8557969078302672
213.0, 0.8791421147485231
214.0, 0.904578782931537
215.0, 0.9275936846887023
216.0, 0.9511901454013151
217.0, 0.9761724599801275
218.0, 0.9941763610288925
219.0, 0.9993170346963978
220.0, 0.977210746412173
221.0, 0.9127493189813091
222.0, 0.8295648820520035
223.0, 0.7299758058318326
224.0, 0.6367022202001447
225.0, 0.5722611491173245
226.0, 0.49500023290768763
227.0, 0.4245664714529761
228.0, 0.3636200671793506
229.0, 0.3124006747505443
230.0, 0.2822098095562931
231.0, 0.2410589550460679
232.0, 0.21209021669852193
233.0, 0.19872979618546452
234.0, 0.1848316775970212
235.0, 0.16559860240725435
236.0, 0.1434918931683146
237.0, 0.11597624498279888
238.0, 0.09125553601522066
239.0, 0.08918630137061724
240.0, 0.06610208663237448
241.0, 0.062135751575435536
242.0, 0.06830101401112768
243.0, 0.0518414547465814
244.0, 0.04152533556640861
245.0, 0.051936344059644625
246.0, 0.04409850087184339
247.0, 0.016450000212263206
248.0, 0.028002954142077423
249.0, 0.02416674146429526
250.0, 0.03330952971299604
251.0, 0.042514574210084796
252.0, 0.024018009333169967
253.0, 0.01977287449305178
254.0, 0.015425438025290554
255.0, 0.017954240725608802
256.0, 0.020789236681428215
257.0, 0.020563830086721788
258.0, 0.016523118241658863
259.0, 0.0155188569339906
260.0, 0.015575391305594485
261.0, 0.025489327467380165
262.0, 0.022640596485626188
263.0, 0.026003826795122385
264.0, 0.024339189239599872
265.0, 0.01706675312867341
266.0, 0.023605503028179757
267.0, 0.028815242972686807
268.0, 0.021534872074451768
269.0, 0.031156746707245667
270.0, 0.01529963971702292
271.0, 0.016649748451959063
272.0, 0.021239040501883633
273.0, 0.01602316577906182
274.0, 0.026441659263007372
275.0, 0.026715311505416527
276.0, 0.027104952322403293
277.0, 0.02188849905865634
278.0, 0.02650397372256525
279.0, 0.0380026873916924
280.0, 0.041609001640995014
281.0, 0.06659321371306176
282.0, 0.0800780874181879
283.0, 0.08075257366720916
284.0, 0.08968888892792759
285.0, 0.12058756579653726
286.0, 0.10339396381537959
287.0, 0.11108405231374578
288.0, 0.1415301767249081
289.0, 0.15306557635482998
290.0, 0.11916905965894971
291.0, 0.13839915087863416
292.0, 0.15105965845623928
293.0, 0.14579477316033468
294.0, 0.15704055118412963
295.0, 0.1744674793449385
296.0, 0.1871526936123925
297.0, 0.20969509582085685
298.0, 0.23733484937824775
299.0, 0.23687676600409194
300.0, 0.20554059203248493
301.0, 0.18862715442931174
302.0, 0.19551225292794416
303.0, 0.2035195382052784
304.0, 0.1760673667825401
305.0, 0.1398511976369251
306.0, 0.14962555333671698
307.0, 0.15551552855123654
308.0, 0.1125071330697332
309.0, 0.10261368502182486
310.0, 0.09097598272589658
311.0, 0.0723171111939617
312.0, 0.06998339902086248
313.0, 0.09432212176967036
314.0, 0.08582706040803946
315.0, 0.07917610222347309
316.0, 0.07895668476672923
317.0, 0.07947376639705979
318.0, 0.07560224626238289
319.0, 0.07709932781804305
320.0, 0.07934332146778084
321.0, 0.08920444756135149
322.0, 0.10229232111060767
323.0, 0.09714885589342513
324.0, 0.08044191144416882
325.0, 0.10412490588838225
326.0, 0.12499396088478844
327.0, 0.10298466601752183
328.0, 0.09806568946099248
329.0, 0.11967741461231896
330.0, 0.12187635193069773
331.0, 0.1080388235657327
332.0, 0.11378259962375956
333.0, 0.14817462403371276
334.0, 0.16143294489442622
335.0, 0.16864972440883413
336.0, 0.176026413269618
337.0, 0.1769278418836471
338.0, 0.18055494346237563
339.0, 0.17280239508084777
340.0, 0.16934516172131361
341.0, 0.1749252295898719
342.0, 0.17817608928988146
343.0, 0.15756030814745742
344.0, 0.14256363017334128
345.0, 0.14376567164621443
346.0, 0.1454319459585052
347.0, 0.12962270678881924
348.0, 0.1274507189709153
349.0, 0.10242585950663168
350.0, 0.08807217185610883
351.0, 0.09045366224125376
352.0, 0.07192412409821519
353.0, 0.06980384572073126
354.0, 0.07545243483690954
355.0, 0.07538042372663245
356.0, 0.06422966793055768
357.0, 0.04921911466552553
358.0, 0.028668115675439556
359.0, 0.03730265103453752
360.0, 0.04599638413501109
361.0, 0.03223746193671896
362.0, 0.0190447998843025
363.0, 0.019738373508161846
364.0, 0.018863426967299934
365.0, 0.02832044836749614
366.0, 0.021020009875790505
367.0, 0.027776683356985462
368.0, 0.017847482200290456
369.0, 0.023072566778763594
370.0, 0.021657393879428544
371.0, 0.03540844013352568
372.0, 0.026248680059053137
373.0, 0.01862626800168837
374.0, 0.023555718344805413
375.0, 0.016849204874325122
376.0, 0.020227743928440293
377.0, 0.01722491667601321
378.0, 0.02315378093526967
379.0, 0.01711118142892556
380.0, 0.028755992105679626
381.0, 0.019291938579749122
382.0, 0.02250300479705158
383.0, 0.029624552181857194
384.0, 0.025199881689021687
385.0, 0.020643316736209227
386.0, 0.026111893575428813
387.0, 0.03733628336673764
388.0, 0.04095848684078316
389.0, 0.025599800448539003
390.0, 0.04980915788200145
391.0, 0.043892775950994015
392.0, 0.0569528453497463
393.0, 0.07352321996646063
394.0, 0.08406466057747933
395.0, 0.08137656004366486
396.0, 0.08234923050844717
397.0, 0.12304258987067755
398.0, 0.10857924035359244
399.0, 0.12204628089516846
400.0, 0.1448264026425538
401.0, 0.15668599325012722
402.0, 0.1689970558896
403.0, 0.19206371284515636
404.0, 0.23258789952248082
405.0, 0.2545237586154798
406.0, 0.2795529478123432
407.0, 0.3317745788758742
408.0, 0.3616396427047543
409.0, 0.3685766202792743
410.0, 0.39178468639891695
411.0, 0.42907364860850894
412.0, 0.46363507616820204
413.0, 0.49322186209856983
414.0, 0.5069559318073233
415.0, 0.54214749374762
416.0, 0.578362437998979
417.0, 0.5963661484059013
418.0, 0.6124830407671606
419.0, 0.6405700785885913
420.0, 0.6686475850128306
421.0, 0.6892388564817133
422.0, 0.7077669096127815
423.0, 0.7318904654532056
424.0, 0.7124552473457997
425.0, 0.6858831639057885
426.0, 0.6611940992132646
427.0, 0.6372524982253386
428.0, 0.6109077653813939
429.0, 0.5633875705461059
430.0, 0.5266699218917368
431.0, 0.5008822015018564
432.0, 0.47629604010563553
433.0, 0.45312530466327655
434.0, 0.440334749292235
435.0, 0.4209574840722389
436.0, 0.4141486919872233
437.0, 0.4127179719210415
438.0, 0.4125341199411156
439.0, 0.4230137520311145
440.0, 0.37610636594773583
441.0, 0.3837137812004673
442.0, 0.3953188802556117
443.0, 0.3835932119097635
444.0, 0.4092373006060183
445.0, 0.4301140473429897
446.0, 0.43444218521056166
447.0, 0.4244222273028975
448.0, 0.4218496171958449
449.0, 0.43283152436541183
450.0, 0.42334575330398844
451.0, 0.4260650535679508
452.0, 0.41054203613969664
453.0, 0.3885100551282276
454.0, 0.37242822193588987
455.0, 0.344476183638731
456.0, 0.3089768466864218
457.0, 0.2835638834474849
458.0, 0.2603859865263732
459.0, 0.23315146637755338
460.0, 0.20358170536559506
461.0, 0.16818836617593805
462.0, 0.16216930112630487
463.0, 0.16546329723728034
464.0, 0.17237985154816643
465.0, 0.17577951828419605
466.0, 0.14425392448035945
467.0, 0.12040556906277822
468.0, 0.09843930691545709
469.0, 0.09234162857951603
470.0, 0.10159519271625046
471.0, 0.10025086593583135
472.0, 0.10646646407050278
473.0, 0.09757185764642107
474.0, 0.0836017649574276
475.0, 0.08199175832465719
476.0, 0.0934014331201223
477.0, 0.05951896986500776
478.0, 0.07264080514541967
479.0, 0.08693762308218653
480.0, 0.08643655534122247
481.0, 0.0837427723801151
482.0, 0.07633963014224895
483.0, 0.08185220355742792
484.0, 0.08549516961111356
485.0, 0.08929314479889604
486.0, 0.09031217588231205
487.0, 0.08296993246244898
488.0, 0.08251781411460608
489.0, 0.08800199537031674
490.0, 0.07411252563077023
491.0, 0.06927760034144916
492.0, 0.08614081927701553
493.0, 0.06898645801326629
494.0, 0.06598205790823652
495.0, 0.06304171671211924
496.0, 0.057631225822741994
497.0, 0.04400418609869515
498.0, 0.025952917363909096
499.0, 0.02754351050258429
500.0, 0.014335693250345349
501.0, 0.015306748285404766
502.0, 0.024422933498047094
503.0, 0.02413441215551988
504.0, 0.015593989592073204
505.0, 0.02188549110040893
506.0, 0.016964627326353003
507.0, 0.015429523524744764
508.0, 0.017068426758296604
509.0, 0.018006941254793563
510.0, 0.015305106993859074
511.0, 0.01851343161605621
512.0, 0.020719693889159563
513.0, 0.018080073121619952
514.0, 0.025242675819696466
515.0, 0.015068092785584741
516.0, 0.01736732845261132
517.0, 0.02016740131392924
518.0, 0.019684680211896025
519.0, 0.016505614830877542
520.0, 0.015967990109607453
521.0, 0.017703880663658335
522.0, 0.018633843218644305
523.0, 0.03499812580898031
524.0, 0.0232586865726029
525.0, 0.023442676440943853
526.0, 0.017361501862645574
527.0, 0.015439359735469785
528.0, 0.01539809967829986
529.0, 0.016494663377252805
530.0, 0.015794095926472653
531.0, 0.01454488454324673
532.0, 0.01575131034113002
533.0, 0.0188536001042116
534.0, 0.029475654036850783
535.0, 0.018415769786470495
536.0, 0.018475150466626202
537.0, 0.022531489507294705
538.0, 0.02613555837605893
539.0, 0.022370325464437037
540.0, 0.046620183606094455
541.0, 0.030691997118522975
542.0, 0.015334956079216018
543.0, 0.03015472625974925
544.0, 0.05293153781352017
545.0, 0.0451459796242029
546.0, 0.033038144957683216
547.0, 0.05140818646810303
548.0, 0.08157486830723679
549.0, 0.09109336670208842
550.0, 0.07337044789168266
551.0, 0.08181919014983904
552.0, 0.09185773559500747
553.0, 0.10733621106873865
554.0, 0.11759841402654328
555.0, 0.11336048506215879
556.0, 0.11590667821809668
557.0, 0.13079419342233953
558.0, 0.151536834143134
559.0, 0.1524856755983346
560.0, 0.15000123267668272
561.0, 0.16439075633368824
562.0, 0.1735826672596533
563.0, 0.16768393324779504
564.0, 0.17116219610852076
565.0, 0.17357154314426193
566.0, 0.17742570500364063
567.0, 0.18882542365590232
568.0, 0.17990200954940547
569.0, 0.15350895534052955
570.0, 0.16053890954968214
571.0, 0.17334700272102624
572.0, 0.15954794300230996
573.0, 0.13364864267045448
574.0, 0.13983733116808264
575.0, 0.1267708230722409
576.0, 0.13760771218791454
577.0, 0.14137549797660806
578.0, 0.12059255134056457
579.0, 0.09344357798340494
580.0, 0.09379326381253109
581.0, 0.06774614067531436
582.0, 0.061891321061644154
583.0, 0.0670429693189416
584.0, 0.06479400969671734
585.0, 0.06008111132812099
586.0, 0.07288670044895693
587.0, 0.06738581235008054
588.0, 0.05273997800933786
589.0, 0.04769974891565682
590.0, 0.052772462842452045
591.0, 0.0634351051812544
592.0, 0.08516115736905694
593.0, 0.08763443643123627
594.0, 0.07893492189660772
595.0, 0.07807757054109886
596.0, 0.0723868628011185
597.0, 0.05682019846487659
598.0, 0.060942535639727125
599.0, 0.07925693752951565
600.0, 0.05912901922655237
601.0, 0.05660142030597499
602.0, 0.07850442196500906
603.0, 0.10153869878210102
604.0, 0.12143334203772094
605.0, 0.13895671038094562
606.0, 0.1515893890464264
607.0, 0.17191125762006393
608.0, 0.20197905024697382
609.0, 0.2177570327974631
610.0, 0.19694267412268388
611.0, 0.2044510030833758
612.0, 0.22173820445780518
613.0, 0.24136159328600626
614.0, 0.2528061844423462
615.0, 0.26657817432075975
616.0, 0.28502494644515214
617.0, 0.26641386291136493
618.0, 0.31222019547325774
619.0, 0.32583905995930096
620.0, 0.3397439661208672
621.0, 0.3602693910943594
622.0, 0.370921387148242
623.0, 0.396034959658875
624.0, 0.38762263364938876
625.0, 0.3599679195304511
626.0, 0.32995469079508455
627.0, 0.2863900346993048
628.0, 0.23003628825769712
629.0, 0.18809916221255168
630.0, 0.17474791937661174
631.0, 0.15589337351070567
632.0, 0.12972185380436918
633.0, 0.10979235201284046
634.0, 0.10081056034652251
635.0, 0.09495611060169523
636.0, 0.0908593670492357
637.0, 0.09143420139534532
638.0, 0.07756162052096202
639.0, 0.06241521076030245
640.0, 0.06960167244750383
641.0, 0.08264578247665266
642.0, 0.05541489049361839
643.0, 0.03147788037150582
644.0, 0.04460098247057576
645.0, 0.04541465448465565
646.0, 0.0359097524768033
647.0, 0.02997682991957687
648.0, 0.024706444833068657
649.0, 0.029131030181176156
650.0, 0.025800214606109262
651.0, 0.027815688399474948
652.0, 0.024222692009590777
653.0, 0.016032527132982595
654.0, 0.019486410486297966
655.0, 0.040341316701262425
656.0, 0.03417627566081011
657.0, 0.03352933660361395
658.0, 0.03524237944106762
659.0, 0.02756963809236612
660.0, 0.01947005157203852
661.0, 0.023881557280293002
662.0, 0.03627885559555745
663.0, 0.033473670449050794
664.0, 0.029382131427404166
665.0, 0.03384627719125824
666.0, 0.04966148608506427
667.0, 0.055264144048677855
668.0, 0.025926279780755276
669.0, 0.02640731247855343
670.0, 0.042539015998988135
671.0, 0.04835901519022092
672.0, 0.04186395103129631
673.0, 0.03352182580790963
674.0, 0.03105527065560753
675.0, 0.035754961544816846
676.0, 0.036709565432208935
677.0, 0.02298653332833244
678.0, 0.015259077648591619
679.0, 0.014771809328838127
680.0, 0.0172815188337336
681.0, 0.017112000366706813
682.0, 0.01810557420004913
683.0, 0.018036114218322886
684.0, 0.01786679254340398
685.0, 0.016786682228005795
686.0, 0.02691908090335176
687.0, 0.028214822846074513
688.0, 0.014453377087877901
689.0, 0.015022950136174334
690.0, 0.015312960556494821
691.0, 0.021137497899428346
692.0, 0.018813966506734527
693.0, 0.017357673085725563
694.0, 0.020649842109059433
695.0, 0.042907808638006306
696.0, 0.04944887448605267
697.0, 0.03590540009796177
698.0, 0.027457414267653083
699.0, 0.027451660696845393
700.0, 0.030035862286693093
701.0, 0.028709742004959394
702.0, 0.020332151925720274
703.0, 0.018284571601379005
704.0, 0.05020832651532699
705.0, 0.036849139933917516
706.0, 0.017636319303271156
707.0, 0.019796656332632168
708.0, 0.042953914793073034
709.0, 0.046438402555698546
710.0, 0.04530854636276338
711.0, 0.03360933378921129
712.0, 0.016895583012929535
713.0, 0.025425989460371497
714.0, 0.02839527344472761
715.0, 0.01858573981587998
716.0, 0.033147187226778625
717.0, 0.04078131343673347
718.0, 0.027476587865487873
719.0, 0.03008239346003229
720.0, 0.045987014459752604
721.0, 0.04565591024019613
722.0, 0.02584478515061781
723.0, 0.02226630642570236
724.0, 0.028953508633872672
725.0, 0.031812605483725484
726.0, 0.021378373449477225
727.0, 0.016893843500906353
728.0, 0.03184299813885388
729.0, 0.05232603203779191
730.0, 0.053510956127434076
731.0, 0.023837088670734283
732.0, 0.03298146987181644
733.0, 0.021227373809806667
734.0, 0.01872072186028472
735.0, 0.03251023207671239
736.0, 0.03850792313951162
737.0, 0.02753128921372704
738.0, 0.05092242595315379
739.0, 0.028569595043923174
740.0, 0.019683587585635164
741.0, 0.030882278560837532
742.0, 0.027030696714486546
743.0, 0.018362340377729866
744.0, 0.022613138726987603
745.0, 0.03740446862919464
746.0, 0.016829850055746654
747.0, 0.017145448274323908
748.0, 0.02471807535663528
749.0, 0.021754807205080287
750.0, 0.01960192097634696
751.0, 0.022952161023007595
752.0, 0.01624852928576111
753.0, 0.01574601232158611
754.0, 0.016744595427592768
755.0, 0.03209814208860717
756.0, 0.024816362334647773
757.0, 0.019849029971995145
758.0, 0.022330031616862
759.0, 0.037665842062063484
760.0, 0.0290819633622134
761.0, 0.019328361497972835
762.0, 0.021126643053050717
763.0, 0.02750975300098695
764.0, 0.035780991902775464
765.0, 0.03802221584475489
766.0, 0.03272306050616702
767.0, 0.03808227182730372
768.0, 0.024842448474008263
769.0, 0.032469358673934794
770.0, 0.032328965767312645
771.0, 0.03948497258212829
772.0, 0.04633735326974801
773.0, 0.033988318639262216
774.0, 0.028119285447868524
775.0, 0.022212754468926958
776.0, 0.01639736865788543
777.0, 0.01752257784850366
778.0, 0.02175500752823099
779.0, 0.021756694955025063
780.0, 0.019514836315977387
781.0, 0.022541022154943666
782.0, 0.03382218572346095
783.0, 0.03004042436169099
784.0, 0.0437084592419985
785.0, 0.03166833676027838
786.0, 0.018174906282798425
787.0, 0.027507463556290718
788.0, 0.0393238811171324
789.0, 0.03404186837174007
790.0, 0.0388650379118959
791.0, 0.025673175268915337
792.0, 0.019128826618339666
793.0, 0.025035353722337013
794.0, 0.03566065513115293
795.0, 0.030233027409346847
796.0, 0.02750771467925444
797.0, 0.031587958113416394
798.0, 0.041639470403461394
799.0, 0.03645785733938236
800.0, 0.03685420196420858
801.0, 0.03197064401950609
802.0, 0.02524886567849595
803.0, 0.019986275661953302
804.0, 0.015046490603694965
805.0, 0.016710181554058453
806.0, 0.026688909375666335
807.0, 0.02516412713273599
808.0, 0.03332352463025784
809.0, 0.047166315511212566
810.0, 0.03992481284497932
811.0, 0.019103478360334755
812.0, 0.03744211383421041
813.0, 0.021161524213649724
814.0, 0.022919438464050534
815.0, 0.025125360067299197
816.0, 0.026619395864978544
817.0, 0.029387904925830963
818.0, 0.030062439253014366
819.0, 0.031586603688674504
820.0, 0.02239236058117351
821.0, 0.031007293075303952
822.0, 0.03215266646457021
823.0, 0.014668961197879098
824.0, 0.03146145412701716
825.0, 0.031059639140973566
826.0, 0.017764887804921588
827.0, 0.0224699438815176
828.0, 0.02576564737733253
829.0, 0.031692728409661364
830.0, 0.022732255145485436
831.0, 0.01494226680077856
832.0, 0.021927325225220222
833.0, 0.021358188313435673
834.0, 0.03761208776674187
835.0, 0.024378274087752783
836.0, 0.02759256225132851
837.0, 0.036194782955842844
838.0, 0.03230428714624665
839.0, 0.037910200016337096
840.0, 0.03397139905174209
841.0, 0.04212830280277643
842.0, 0.03742243823650689
843.0, 0.03629803986611852
844.0, 0.04015179047965485
845.0, 0.038801613350586225
846.0, 0.04403504399189481
847.0, 0.04499983558869751
848.0, 0.04493267625237655
849.0, 0.03189666495575386
850.0, 0.02238002159310815
851.0, 0.03432084403155481
852.0, 0.0378158850228421
853.0, 0.031475707994897746
854.0, 0.04537162904224205
855.0, 0.036205789342404655
856.0, 0.03217608456935289
857.0, 0.043406157807265346
858.0, 0.03718779522372225
859.0, 0.037988276451302073
860.0, 0.04872461487218416
861.0, 0.04598106421875534
862.0, 0.04356527363416184
863.0, 0.06433063274938684
864.0, 0.039338106583975845
865.0, 0.026087050124701194
866.0, 0.0384232134603539
867.0, 0.031951156311144084
868.0, 0.026322211648796758
869.0, 0.032576878436307605
870.0, 0.03813041009844659
871.0, 0.044617040076663256
872.0, 0.03867494696018559
873.0, 0.0171639867421915
874.0, 0.02021834712585188
875.0, 0.026832263378726073
876.0, 0.03724259710642091
877.0, 0.040608533752860915
878.0, 0.04201611282238286
879.0, 0.05035218636977258
880.0, 0.05096058162108718
881.0, 0.03046690358529199
882.0, 0.042167334584830865
883.0, 0.047344014802155644
884.0, 0.04171440793463517
885.0, 0.033419825553487895
886.0, 0.019969804965625428
887.0, 0.018602110877339883
888.0, 0.03625981269859043
889.0, 0.04406750319331947
890.0, 0.025566251258180683
891.0, 0.026782105437839453
892.0, 0.034356879099365106
893.0, 0.025990393584368655
894.0, 0.018775463675796192
895.0, 0.02901434185486226
896.0, 0.04738399680897588
897.0, 0.049392450885958894
898.0, 0.03821569725103502
899.0, 0.0530824019236757
900.0, 0.04667517096960369
901.0, 0.04178602840984192
902.0, 0.043360822433022375
903.0, 0.04504911886775363
904.0, 0.04640883929434335
905.0, 0.03747018998055448
906.0, 0.019677991143003
907.0, 0.016336927675541405
908.0, 0.032879117060623166
909.0, 0.035099454113484335
910.0, 0.019803862914976295
911.0, 0.030259287354600563
912.0, 0.03728066691744726
913.0, 0.033738975269796315
914.0, 0.028130593084589154
915.0, 0.028788605348202878
916.0, 0.03239072332275194
917.0, 0.02164072811186798
918.0, 0.022851162236558538
919.0, 0.03374124428204784
920.0, 0.0184718492498445
921.0, 0.030986423579510824
922.0, 0.03193872963824242
923.0, 0.018231703000201802
924.0, 0.023413957264333957
925.0, 0.03844684320272725
926.0, 0.03311453883884551
927.0, 0.04041730788992195
928.0, 0.019765767117389355
929.0, 0.014928880848215004
930.0, 0.02159662169517517
931.0, 0.017249454935750516
932.0, 0.019874835001899623
933.0, 0.01642657107546085
934.0, 0.02986970631322968
935.0, 0.04117661658655311
936.0, 0.028490620019107703
937.0, 0.017002262258023232
938.0, 0.017930284880050284
939.0, 0.016127421996708656
940.0, 0.0240010098887508
941.0, 0.02528085185870554
942.0, 0.025345754589851967
943.0, 0.03075827879570721
944.0, 0.028239461017296675
945.0, 0.02000860929845912
946.0, 0.0318702206287772
947.0, 0.026851761506321365
948.0, 0.016283366256204548
949.0, 0.01688382158997936
950.0, 0.02207810292020771
951.0, 0.01801818649751784
952.0, 0.02426198098530764
953.0, 0.017858869699506827
954.0, 0.021640361947854805
955.0, 0.017422253486360874
956.0, 0.03118902681296865
957.0, 0.045094858039760516
958.0, 0.0391735558790337
959.0, 0.014855864583778959
960.0, 0.01894115155408525
961.0, 0.02467288683267465
962.0, 0.02600916234558706
963.0, 0.03236569036342816
964.0, 0.02928612292913947
965.0, 0.02290931464197818
966.0, 0.022587775515477942
967.0, 0.017468438847815636
968.0, 0.02317512887531623
969.0, 0.02185904998672658
970.0, 0.029427178123059405
971.0, 0.023872442659931874
972.0, 0.03672613299345313
973.0, 0.03552004481180525
974.0, 0.0331007158138982
975.0, 0.042219131279434184
976.0, 0.047171202189592074
977.0, 0.04921929253350706
978.0, 0.07126724983349103
979.0, 0.07278749633300907
980.0, 0.07670324539881342
981.0, 0.08764106956933024
982.0, 0.10191131539382071
983.0, 0.1150750491255646
984.0, 0.11722239967409066
985.0, 0.12554941149200655
986.0, 0.13492312536899934
987.0, 0.11185990927598535
988.0, 0.12470416100579343
989.0, 0.15809190972389348
990.0, 0.19793766552236491
991.0, 0.2492717782539591
992.0, 0.28088178942142455
993.0, 0.3300834936247289
994.0, 0.37080389005111725
995.0, 0.4077132649160047
996.0, 0.4489420861923592
997.0, 0.4866244538185292
998.0, 0.533268492173388
999.0, 0.574551570156291
1000.0, 0.6099549737145208
1001.0, 0.6809711085790526
1002.0, 0.7429090132363636
1003.0, 0.7934487153652403
1004.0, 0.8521112247360019
1005.0, 0.9054784623361732
1006.0, 0.9170533034927572
1007.0, 0.8853157757269683
1008.0, 0.8240290650997021
1009.0, 0.7455001213041209
1010.0, 0.667847356406264
1011.0, 0.5772744790283159
1012.0, 0.5109590541627237
1013.0, 0.4642639561551726
1014.0, 0.44083299765583733
1015.0, 0.42643571485333975
1016.0, 0.3917146160715453
1017.0, 0.3432546337787805
1018.0, 0.3134119196088411
1019.0, 0.278913115518191
1020.0, 0.22386299023667547
1021.0, 0.19476395550758016
1022.0, 0.17769984143621914
1023.0, 0.15292559206540435
1024.0, 0.1457105558991293
1025.0, 0.14869467749550017
1026.0, 0.15503536706307539
1027.0, 0.15896616037743372
1028.0, 0.14692920352870367
1029.0, 0.1419351199381727
1030.0, 0.13604301063620736
1031.0, 0.14435324237826958
1032.0, 0.1389326110043701
1033.0, 0.1463090128045979
1034.0, 0.12785138899709572
1035.0, 0.1178099449369009
1036.0, 0.1259159602545548
1037.0, 0.13268515275984682
1038.0, 0.1328111589153302
1039.0, 0.13366463640707651
1040.0, 0.13482970910973396
1041.0, 0.12437912846448483
1042.0, 0.11809733996710298
1043.0, 0.12361210690939753
1044.0, 0.12514306783831483
1045.0, 0.13332980493852814
1046.0, 0.1390305743926574
1047.0, 0.12592850243513284
1048.0, 0.10206821381996438
1049.0, 0.0827666140210731
1050.0, 0.07730558219896626
1051.0, 0.07778227806873708
1052.0, 0.06737254664358833
1053.0, 0.06073989518220262
1054.0, 0.04055885640603721
1055.0, 0.03641294857189374
1056.0, 0.053186805254614146
1057.0, 0.034721988924513794
1058.0, 0.031256601413401544
1059.0, 0.03886413092411217
1060.0, 0.021315650211729358
1061.0, 0.03039967722489322
1062.0, 0.017769940636895753
1063.0, 0.021582852371451685
1064.0, 0.015818696144228934
1065.0, 0.01837970170355219
1066.0, 0.019783664545454556
1067.0, 0.029639223244221257
1068.0, 0.043339417521718514
1069.0, 0.03752319837250098
1070.0, 0.05998776905548707
1071.0, 0.07174850338100142
1072.0, 0.08051097085269196
1073.0, 0.09663063171103638
1074.0, 0.08852719555938583
1075.0, 0.12719496367661157
1076.0, 0.1649354375712486
1077.0, 0.16703758911347377
1078.0, 0.17500467402026257
1079.0, 0.2021495370408018
1080.0, 0.2243694957102009
1081.0, 0.24415517102048406
1082.0, 0.27385053913811014
1083.0, 0.30977220096920643
1084.0, 0.34560358616348136
1085.0, 0.3548058580052413
1086.0, 0.38049925382786093
1087.0, 0.39623897527149876
1088.0, 0.3959491146251503
1089.0, 0.4046353451925425
1090.0, 0.3937894190775526
1091.0, 0.39233035192248833
1092.0, 0.3783560347587341
1093.0, 0.3641310710659435
1094.0, 0.34676053062266804
1095.0, 0.3092006142579187
1096.0, 0.2704201027677389
1097.0, 0.24586939183043582
1098.0, 0.22160783886445676
1099.0, 0.20169412244577078
1100.0, 0.18346430864610436
1101.0, 0.16181145537237515
1102.0, 0.13452223678953978
1103.0, 0.13308464849081306
1104.0, 0.1275466880362759
1105.0, 0.10856906944096578
1106.0, 0.08140575525080743
1107.0, 0.07781526399910928
1108.0, 0.07587010703550527
1109.0, 0.07855708571026007
1110.0, 0.07633834529802126
1111.0, 0.046636562543311555
1112.0, 0.0500560516411264
1113.0, 0.045291004568153256
1114.0, 0.027537048506901692
1115.0, 0.02000569798854386
1116.0, 0.03097640789252895
1117.0, 0.034640349604761075
1118.0, 0.02147479061818475
1119.0, 0.021523898846985842
1120.0, 0.025920652415126973
1121.0, 0.020298835736763214
1122.0, 0.01692703692606279
1123.0, 0.02099486773362301
1124.0, 0.014373271297992167
1125.0, 0.017575883885674357
1126.0, 0.018410601325847608
1127.0, 0.01843290484277075
1128.0, 0.02314046799237998
1129.0, 0.01916073969234089
1130.0, 0.0206933775282807
1131.0, 0.014317806431363288
1132.0, 0.0317320981878938
1133.0, 0.028410713579053153
1134.0, 0.029753120762791622
1135.0, 0.031731562123100236
1136.0, 0.029636812166875526
1137.0, 0.02791842791268841
1138.0, 0.03241246634447546
1139.0, 0.028185195489439256
1140.0, 0.016700676230507357
1141.0, 0.022470117237257413
1142.0, 0.03884244426576239
1143.0, 0.04702290557602851
1144.0, 0.048775195643295854
1145.0, 0.060517150467274385
1146.0, 0.05657771872243989
1147.0, 0.05049349033863446
1148.0, 0.08027908836390826
1149.0, 0.07225853837577717
1150.0, 0.08227563489817655
1151.0, 0.09216220343385162
1152.0, 0.09711003681209901
1153.0, 0.1034359129837258
1154.0, 0.10482552257030542
1155.0, 0.10801810195872236
1156.0, 0.10901555278635984
1157.0, 0.10793718411694489
1158.0, 0.11279168251572219
1159.0, 0.121856962404894
1160.0, 0.11325120514447398
1161.0, 0.10730650387679118
1162.0, 0.10265233854278188
1163.0, 0.09961444430474198
1164.0, 0.08651910574764049
1165.0, 0.09889253346254731
1166.0, 0.09233244673391992
1167.0, 0.08197518504541577
1168.0, 0.07041564818106204
1169.0, 0.06414447670904987
1170.0, 0.050840517425711065
1171.0, 0.04463144681035929
1172.0, 0.047112285990022554
1173.0, 0.04545723534371946
1174.0, 0.03366425395781562
1175.0, 0.03723702229774501
1176.0, 0.05854204768501783
1177.0, 0.046867827879249147
1178.0, 0.037010137819788416
1179.0, 0.016879690577174564
1180.0, 0.0210855089230699
1181.0, 0.02614369271147532
1182.0, 0.027435398606327936
1183.0, 0.019418236620603303
1184.0, 0.02070218544973005
1185.0, 0.023975649137994305
1186.0, 0.01777212264370205
1187.0, 0.02037689095638919
1188.0, 0.018253400606483228
1189.0, 0.026017914159479072
1190.0, 0.03593272814638406
1191.0, 0.019890116702963062
1192.0, 0.019822875858130397
1193.0, 0.03271283228556018
1194.0, 0.027564509607562807
1195.0, 0.015217807259978584
1196.0, 0.015237292868572231
1197.0, 0.023480008747970432
1198.0, 0.03192955183868947
1199.0, 0.017113339723451224
1200.0, 0.020871696439437835
1201.0, 0.026319891591344284
1202.0, 0.022328888151923104
1203.0, 0.024409214974293804
1204.0, 0.039078037252188315
1205.0, 0.04583010806112424
1206.0, 0.030350863750841117
1207.0, 0.032486637710161394
1208.0, 0.04264837969567893
1209.0, 0.0456536435857104
1210.0, 0.038284522102166325
1211.0, 0.03421322844297936
1212.0, 0.032214597455637525
1213.0, 0.020238075421896675
1214.0, 0.02690595310458879
1215.0, 0.041535924162560696
1216.0, 0.022827857351637205
1217.0, 0.031146211205846746
1218.0, 0.02974138828820592
1219.0, 0.025933625448435298
1220.0, 0.031189772925858672
1221.0, 0.017858001971607085
1222.0, 0.018918596887792558
1223.0, 0.033169093615355055
1224.0, 0.028911576921413037
1225.0, 0.01877687041409559
1226.0, 0.03006189413088448
1227.0, 0.02395051228466235
1228.0, 0.027982542877001342
1229.0, 0.019859626026916676
1230.0, 0.028073661483103928
1231.0, 0.018597517714927382
1232.0, 0.019052242765687358
1233.0, 0.030932792846531824
1234.0, 0.03699269260488115
1235.0, 0.032823725200614856
1236.0, 0.02092777945401894
1237.0, 0.01851384655052384
1238.0, 0.031134672592248384
1239.0, 0.028185403396127434
1240.0, 0.023871428182123317
1241.0, 0.03954228387337351
1242.0, 0.028295864303468032
1243.0, 0.03074652415016454
1244.0, 0.03480150031282304
1245.0, 0.030114330098196886
1246.0, 0.03963780856262939
1247.0, 0.03782644061940011
1248.0, 0.02170369936111902
1249.0, 0.014340858924363657
1250.0, 0.02976109123509239
1251.0, 0.0214675771322981
1252.0, 0.04167847391827872
1253.0, 0.04640927267147683
1254.0, 0.028436061007485178
1255.0, 0.03655869996241456
1256.0, 0.04130852859654868
1257.0, 0.02633751167909662
1258.0, 0.022052927670548565
1259.0, 0.03152008885465012
1260.0, 0.019715443433995603
1261.0, 0.01716787905406159
1262.0, 0.018373256316810208
1263.0, 0.015916998850378183
1264.0, 0.018416511334906488
1265.0, 0.01750217540564022
1266.0, 0.026603409591284696
1267.0, 0.03723565571990217
1268.0, 0.029938633117165152
1269.0, 0.044687042139488625
1270.0, 0.02360378202661617
1271.0, 0.01642216902588771
1272.0, 0.008816979256007983
1273.0, 0.029376823929727063
1274.0, 0.02335752797445574
1275.0, 0.04108687593964719
1276.0, 0.03691438891125473
1277.0, 0.012555809594634655
1278.0, 0.02813418143467382
1279.0, 0.03862434644708694
1280.0, 0.029460576284452665
1281.0, 0.041658165776428516
1282.0, 0.04963736629381625
1283.0, 0.022905237597976955
1284.0, 0.020328159022684866
1285.0, 0.03362487152444442
1286.0, 0.027253448945113962
1287, 0.0
1288, 0.0
1289, 0.0
1290, 0.0
1291, 0.0
1292, 0.0
1293, 0.0
1294, 0.0
1295, 0.0
1296, 0.0
1297, 0.0
1298, 0.0
1299, 0.0
1300, 0.0
1301, 0.0
1302, 0.0
1303, 0.0
1304, 0.0
1305, 0.0
1306, 0.0
1307, 0.0
1308, 0.0
1309, 0.0
1310, 0.0
1311, 0.0
1312, 0.0
1313, 0.0
1314, 0.0
1315, 0.0
1316, 0.0
1317, 0.0
1318, 0.0
1319, 0.0
1320, 0.0
1321, 0.0
1322, 0.0
1323, 0.0
1324, 0.0
1325, 0.0
1326, 0.0
1327, 0.0
1328, 0.0
1329, 0.0
1330, 0.0
1331, 0.0
1332, 0.0
1333, 0.0
1334, 0.0
1335, 0.0
1336, 0.0
1337, 0.0
1338, 0.0
1339, 0.0
1340, 0.0
1341, 0.0
1342, 0.0
1343, 0.0
1344, 0.0
1345, 0.0
1346, 0.0
1347, 0.0
1348, 0.0
1349, 0.0
1350, 0.0
1351, 0.0
1352, 0.0
1353, 0.0
1354, 0.0
1355, 0.0
1356, 0.0
1357, 0.0
1358, 0.0
1359, 0.0
1360, 0.0
1361, 0.0
1362, 0.0
1363, 0.0
1364, 0.0
1365, 0.0
1366, 0.0
1367, 0.0
1368, 0.0
1369, 0.0
1370, 0.0
1371, 0.0
1372, 0.0
1373, 0.0
1374, 0.0
1375, 0.0
1376, 0.0
1377, 0.0
1378, 0.0
1379, 0.0
1380, 0.0
1381, 0.0
1382, 0.0
1383, 0.0
1384, 0.0
1385, 0.0
1386, 0.0
1387, 0.0
1388, 0.0
1389, 0.0
1390, 0.0
1391, 0.0
1392, 0.0
1393, 0.0
1394, 0.0
1395, 0.0
1396, 0.0
1397, 0.0
1398, 0.0
1399, 0.0
1400, 0.0
1401, 0.0
1402, 0.0
1403, 0.0
1404, 0.0
1405, 0.0
1406, 0.0
1407, 0.0
1408, 0.0
1409, 0.0
1410, 0.0
1411, 0.0
1412, 0.0
1413, 0.0
1414, 0.0
1415, 0.0
1416, 0.0
1417, 0.0
1418, 0.0
1419, 0.0
1420, 0.0
1421, 0.0
1422, 0.0
1423, 0.0
1424, 0.0
1425, 0.0
1426, 0.0
1427, 0.0
1428, 0.0
1429, 0.0
1430, 0.0
1431, 0.0
1432, 0.0
1433, 0.0
1434, 0.0
1435, 0.0
1436, 0.0
1437, 0.0
1438, 0.0
1439, 0.0
1440, 0.0
1441, 0.0
1442, 0.0
1443, 0.0
1444, 0.0
1445, 0.0
1446, 0.0
1447, 0.0
1448, 0.0
1449, 0.0
1450, 0.0
1451, 0.0
1452, 0.0
1453, 0.0
1454, 0.0
1455, 0.0
1456, 0.0
1457, 0.0
1458, 0.0
1459, 0.0
1460, 0.0
1461, 0.0
1462, 0.0
1463, 0.0
1464, 0.0
1465, 0.0
1466, 0.0
1467, 0.0
1468, 0.0
1469, 0.0
1470, 0.0
1471, 0.0
1472, 0.0
1473, 0.0
1474, 0.0
1475, 0.0
1476, 0.0
1477, 0.0
1478, 0.0
1479, 0.0
1480, 0.0
1481, 0.0
1482, 0.0
1483, 0.0
1484, 0.0
1485, 0.0
1486, 0.0
1487, 0.0
1488, 0.0
1489, 0.0
1490, 0.0
1491, 0.0
1492, 0.0
1493, 0.0
1494, 0.0
1495, 0.0
1496, 0.0
1497, 0.0
1498, 0.0
1499, 0.0
1500, 0.0
1501, 0.0
1502, 0.0
1503, 0.0
1504, 0.0
1505, 0.0
1506, 0.0
1507, 0.0
1508, 0.0
1509, 0.0
1510, 0.0
1511, 0.0
1512, 0.0
1513, 0.0
1514, 0.0
1515, 0.0
1516, 0.0
1517, 0.0
1518, 0.0
1519, 0.0
1520, 0.0
1521, 0.0
1522, 0.0
1523, 0.0
1524, 0.0
1525, 0.0
1526, 0.0
1527, 0.0
1528, 0.0
1529, 0.0
1530, 0.0
1531, 0.0
1532, 0.0
1533, 0.0
1534, 0.0
1535, 0.0
1536, 0.0
1537, 0.0
1538, 0.0
1539, 0.0
1540, 0.0
1541, 0.0
1542, 0.0
1543, 0.0
1544, 0.0
1545, 0.0
1546, 0.0
1547, 0.0
1548, 0.0
1549, 0.0
1550, 0.0
1551, 0.0
1552, 0.0
1553, 0.0
1554, 0.0
1555, 0.0
1556, 0.0
1557, 0.0
1558, 0.0
1559, 0.0
1560, 0.0
1561, 0.0
1562, 0.0
1563, 0.0
1564, 0.0
1565, 0.0
1566, 0.0
1567, 0.0
1568, 0.0
1569, 0.0
1570, 0.0
1571, 0.0
1572, 0.0
1573, 0.0
1574, 0.0
1575, 0.0
1576, 0.0
1577, 0.0
1578, 0.0
1579, 0.0
1580, 0.0
1581, 0.0
1582, 0.0
1583, 0.0
1584, 0.0
1585, 0.0
1586, 0.0
1587, 0.0
1588, 0.0
1589, 0.0
1590, 0.0
1591, 0.0
1592, 0.0
1593, 0.0
1594, 0.0
1595, 0.0
1596, 0.0
1597, 0.0
1598, 0.0
1599, 0.0
