30, 0.0
31, 0.0
32, 0.0
33, 0.0
34, 0.0
35, 0.0
36, 0.0
37, 0.0
38, 0.0
39, 0.0
40, 0.0
41, 0.0
42, 0.0
43, 0.0
44, 0.0
45, 0.0
46, 0.0
47, 0.0
48, 0.0
49, 0.0
50, 0.0
51, 0.0
52, 0.0
53, 0.0
54, 0.0
55, 0.0
56, 0.0
57, 0.0
58, 0.0
59, 0.0
60, 0.0
61, 0.0
62, 0.0
63, 0.0
64, 0.0
65, 0.0
66, 0.0
67, 0.0
68, 0.0
69, 0.0
70, 0.0
71, 0.0
72, 0.0
73, 0.0
74, 0.0
75, 0.0
76, 0.0
77, 0.0
78, 0.0
79, 0.0
80, 0.0
81, 0.0
82, 0.0
83, 0.0
84, 0.0
85, 0.0
86, 0.0
87, 0.0
88, 0.0
89, 0.0
90, 0.0
91, 0.0
92, 0.0
93, 0.0
94, 0.0
95, 0.0
96, 0.0
97, 0.0
98, 0.0
99.0, 8.419402908314355e-05
100.0, 0.0016727606155576304
101.0, 0.00125281892168538
102.0, 0.001272667861361517
103.0, 0.0053198188798062995
104.0, 0.004273497089683906
105.0, 0.0038003105321559746
106.0, 0.0049002089843360975
107.0, 0.007908818723787537
108.0, 0.0094966350221808
109.0, 0.010770378705768757
110.0, 0.01270345459717007
111.0, 0.015088409218125619
112.0, 0.015804546012251695
113.0, 0.01578555755404886
114.0, 0.02084207420001648
115.0, 0.0236373571535377
116.0, 0.025470331755088584
117.0, 0.02695526110702587
118.0, 0.026886554404518474
119.0, 0.024065371182042165
120.0, 0.02026902473987788
121.0, 0.020866846267186222
122.0, 0.016634521674712667
123.0, 0.013751344609838206
124.0, 0.014557445801533394
125.0, 0.012606630522498706
126.0, 0.01085979418790114
127.0, 0.010281260430654712
128.0, 0.012988495474242148
129.0, 0.010860107741444474
130.0, 0.011403952513753118
131.0, 0.01553301775269551
132.0, 0.014646820175471906
133.0, 0.01589191446692488
134.0, 0.017662658627639195
135.0, 0.018454842878411863
136.0, 0.022337097692114657
137.0, 0.025644311856052045
138.0, 0.028379501102993455
139.0, 0.03222905341278111
140.0, 0.03622015995852126
141.0, 0.038581983558193166
142.0, 0.03809225277251979
143.0, 0.03835355765939961
144.0, 0.03735108835064309
145.0, 0.0352896832591743
146.0, 0.03247184177091958
147.0, 0.030321058175120406
148.0, 0.02819439513986569
149.0, 0.0259956532397691
150.0, 0.024963359633221438
151.0, 0.024265343975427796
152.0, 0.024015917736248827
153.0, 0.02447052684118273
154.0, 0.023897608257385294
155.0, 0.023550762632724414
156.0, 0.023424665101267214
157.0, 0.022740081013864166
158.0, 0.02267503789066918
159.0, 0.02233397101445392
160.0, 0.021176890076877952
161.0, 0.02020450775221591
162.0, 0.019509675714954475
163.0, 0.0190146063668269
164.0, 0.018587876069206283
165.0, 0.01777653814688675
166.0, 0.01735849838331701
167.0, 0.01735568395082421
168.0, 0.015575703636536202
169.0, 0.014850427989878442
170.0, 0.01433833683838072
171.0, 0.013258539528077847
172.0, 0.014572544423409921
173.0, 0.015390169529322472
174.0, 0.015477552221868569
175.0, 0.014705971493363999
176.0, 0.015602947743176127
177.0, 0.01636772536987517
178.0, 0.016357958263878116
179.0, 0.01932908389491543
180.0, 0.01958717389866186
181.0, 0.018999492002852548
182.0, 0.020180413532820487
183.0, 0.022785259498859445
184.0, 0.023764116300821862
185.0, 0.023331977724915007
186.0, 0.025272287327183753
187.0, 0.02594567876139872
188.0, 0.025255333200769208
189.0, 0.022965850751881806
190.0, 0.0305568901305336
191.0, 0.03055365364080257
192.0, 0.026071466664374113
193.0, 0.022780019686565386
194.0, 0.0240370883632963
195.0, 0.022192412008124655
196.0, 0.01705491166091582
197.0, 0.01974953717565856
198.0, 0.01810661410640984
199.0, 0.016917244972303888
200.0, 0.01966016837189443
201.0, 0.01814348617034061
202.0, 0.01650345394858896
203.0, 0.014766280810829445
204.0, 0.012671203987940482
205.0, 0.01212786126642799
206.0, 0.011609783722157619
207.0, 0.010990518618955256
208.0, 0.012404325589654324
209.0, 0.011340157397029137
210.0, 0.010417623806221825
211.0, 0.0116873752702032
212.0, 0.010323317520633611
213.0, 0.009694242081446175
214.0, 0.009701821999158058
215.0, 0.009925444498571677
216.0, 0.009967526856036867
217.0, 0.009918491128395608
218.0, 0.00979479622033389
219.0, 0.009575170468260754
220.0, 0.009879716044679125
221.0, 0.010018433528980138
222.0, 0.009456492012878475
223.0, 0.010713305805376818
224.0, 0.012072402832047895
225.0, 0.01303931711592939
226.0, 0.012553108790333854
227.0, 0.01271685710968848
228.0, 0.013082719440857328
229.0, 0.013440427558660255
230.0, 0.012932083722428066
231.0, 0.012901929030033722
232.0, 0.012494768943180103
233.0, 0.011138950505657897
234.0, 0.01237919073567169
235.0, 0.01167959554015051
236.0, 0.010386378561118324
237.0, 0.010843618204631374
238.0, 0.008448373548025594
239.0, 0.008038167569375294
240.0, 0.009681563923321838
241.0, 0.009950324686250388
242.0, 0.011008514758683573
243.0, 0.010992118224293202
244.0, 0.009082617913895268
245.0, 0.009847087385219734
246.0, 0.00962785953529895
247.0, 0.008593327399801655
248.0, 0.006807033256945757
249.0, 0.007677351985239067
250.0, 0.007192685848810424
251.0, 0.005893970149939485
252.0, 0.006682218461917211
253.0, 0.005921351911833441
254.0, 0.005206873087210705
255.0, 0.004958055258141771
256.0, 0.004397343859744228
257.0, 0.003651981491103997
258.0, 0.0031916454161292165
259.0, 0.0034210278059042644
260.0, 0.001983856695567625
261.0, 0.0016583312396782255
262.0, 0.001967364605102755
263.0, 0.0019460446060531153
264.0, 0.0033155139450076316
265.0, 0.0038395049858165574
266.0, 0.0036008090042411395
267.0, 0.004864147516594218
268.0, 0.0038262067623741616
269.0, 0.002407495285128573
270.0, 0.0014500648753695234
271.0, 0.001650579030240927
272.0, 0.002602275885689944
273.0, 0.003140898403275138
274.0, 0.0019934100125208265
275.0, 0.0027643079649048905
276.0, 0.0025829207321322973
277.0, 0.0017705859395429353
278.0, 0.0013945750305897145
279.0, 0.000762278683144419
280.0, 0.0008297669970979346
281.0, 0.0014218763433271975
282.0, 0.00028451153298455155
283.0, 0.0020258637667437515
284.0, 0.002573791354191584
285.0, 0.00012287188547752375
286.0, 0.0015716920363021071
287.0, 0.003361320576718382
288.0, 0.0037470850309532016
289.0, 0.000639540935872739
290.0, 0.000598628471090446
291.0, 0.0011369348562028055
292.0, 0.0020456188106928925
293.0, 0.0032347987553345506
294.0, 0.002655650189503089
295.0, 0.0018014676820313595
296.0, 0.0012749645504212155
297.0, 0.0027311113530597148
298.0, 0.0024448439755741223
299.0, 0.0014724139796864798
300.0, 0.00041500514953364304
301.0, 0.0023992357937811385
302.0, 0.0021925206522426695
303.0, 0.0010646942451791354
304.0, 4.561818891552828e-05
305.0, 0.00041509658843312254
306.0, 0.0011215643473580744
307.0, 0.0018818665804518036
308.0, 0.0022413769020274543
309.0, 0.0032758792329390983
310.0, 0.002496533907700254
311.0, 0.0006015030940963047
312.0, 0.0013445008558256011
313.0, 0.001226060292317556
314.0, 0.0011040858723760187
315.0, 0.0012601208353796888
316.0, 0.001848731897294824
317.0, 0.002503087166466567
318.0, 0.0032979641224214623
319.0, 0.004215220041083813
320.0, 0.0020734665448020463
321.0, 0.0016696619440940044
322.0, 0.0018623396622143842
323.0, 0.001416279730404286
324.0, 0.00407169626252068
325.0, 0.003349186156292537
326.0, 0.0013288013557113283
327.0, 0.003035844747464777
328.0, 0.0013573216907095853
329.0, 0.000583892127777731
330.0, 0.0013566006293735926
331.0, 0.0035891833168746447
332.0, 0.002342184229499209
333.0, 0.0008505940417063312
334.0, 0.00033825731707242106
335.0, 0.002511801344169733
336.0, 0.002179813520204754
337.0, 0.002282229538197642
338.0, 0.004282309958067581
339.0, 0.0017546364754644347
340.0, 0.0013608859857324157
341.0, 0.001483647458114282
342.0, 0.0005648264249209737
343.0, 0.001101508123032707
344.0, 0.0008522259960117525
345.0, 0.0002857623291962751
346.0, 0.00029689217212703424
347.0, 0.0003404137899130752
348.0, 0.0004277141847207601
349.0, 0.0005386905927613323
350.0, 0.0006143105255795652
351.0, 0.0008674967312381567
352.0, 0.001423618969360274
353.0, 0.001999435268350098
354.0, 0.001024575034882373
355.0, 0.0008474967613847343
356.0, 0.0006125934092930353
357.0, 7.821147142133804e-05
358.0, 6.304828748186725e-05
359.0, 0.0009732478632740959
360.0, 0.0015279288236417449
361.0, 0.0010274496044157988
362.0, 0.0025684160588025644
363.0, 0.001568312594588364
364.0, 0.000536986541071857
365.0, 0.001902894500333326
366.0, 0.001893815592221394
367.0, 0.0013081231569104363
368.0, 0.0011418644281378698
369.0, 0.0029176795714976975
370.0, 0.0016222082708031026
371.0, 0.0013241398662622453
372.0, 0.001952469505200358
373.0, 0.0026417260746243207
374.0, 0.0012119626492520666
375.0, 0.0014685345898203545
376.0, 0.0027689756805844247
377.0, 0.0007682881139806585
378.0, 0.002595850244121392
379.0, 0.003243211152202099
380.0, 0.0019720571141739365
381.0, 0.001906400583371954
382.0, 0.004274603623779356
383.0, 0.004321558394961322
384.0, 0.0009014233354976689
385.0, 0.0013461729121116953
386.0, 0.0011072689698934555
387.0, 0.00187932487200684
388.0, 0.004303620023812607
389.0, 0.0015656143385864804
390.0, 0.0027466419211695575
391.0, 0.003721076759276424
392.0, 0.0012898372022209156
393.0, 0.0015568850549049678
394.0, 0.0019773671781915013
395.0, 0.0023566570206126577
396.0, 0.002475250054256418
397.0, 0.0025391724563234405
398.0, 0.0025591619557664815
399.0, 0.0024672461696227067
400.0, 0.0021507136240298654
401.0, 0.0023590321208910737
402.0, 0.0021196939419270895
403.0, 0.0018025384714714715
404.0, 0.00230236898014341
405.0, 0.0036764022272855754
406.0, 0.003334153701893474
407.0, 0.0020095419247726496
408.0, 0.0024846411262136776
409.0, 0.002314069744517077
410.0, 0.0034382235325372632
411.0, 0.005536155167279852
412.0, 0.006242975504820251
413.0, 0.003150357417597948
414.0, 0.003743601102762828
415.0, 0.007753415425446638
416.0, 0.005113095177120658
417.0, 0.00423728427731926
418.0, 0.00429256705057644
419.0, 0.004938530953823687
420.0, 0.005603097464885493
421.0, 0.005441418344247516
422.0, 0.0043598092063319716
423.0, 0.0030116839789180784
424.0, 0.007453219893087254
425.0, 0.0062094734311116855
426.0, 0.006272192733908654
427.0, 0.010606694489687225
428.0, 0.0125432324758474
429.0, 0.01011840983270932
430.0, 0.007423040454619796
431.0, 0.007048730057448296
432.0, 0.011426634279015337
433.0, 0.014190132066936484
434.0, 0.014408026245586663
435.0, 0.011609412199343036
436.0, 0.014650046078132025
437.0, 0.014757446875981786
438.0, 0.015018144795918096
439.0, 0.017917478894498844
440.0, 0.016394402069187634
441.0, 0.014298687854567371
442.0, 0.013783500626470345
443.0, 0.01695558945248545
444.0, 0.015700081448393924
445.0, 0.015479480573862309
446.0, 0.016429274125832238
447.0, 0.018708403446061443
448.0, 0.016516895524449536
449.0, 0.015822667119043947
450.0, 0.01563575633390278
451.0, 0.014631988625168785
452.0, 0.015761333099404556
453.0, 0.0163565082292145
454.0, 0.016438869114650142
455.0, 0.016129119402204736
456.0, 0.017548919138287874
457.0, 0.017623768054317895
458.0, 0.017010922015250483
459.0, 0.01682271968471763
460.0, 0.016788784993370425
461.0, 0.017431388900492183
462.0, 0.018565948189242048
463.0, 0.019890208440024575
464.0, 0.017346946522541186
465.0, 0.015524913592689552
466.0, 0.015387172508013022
467.0, 0.018094966946111915
468.0, 0.013859366074442289
469.0, 0.012982984369692963
470.0, 0.014217328478457057
471.0, 0.014432434834085866
472.0, 0.011160109576558823
473.0, 0.012742773174378089
474.0, 0.014916872613524233
475.0, 0.009547291934138042
476.0, 0.007257713404912308
477.0, 0.007305226225691251
478.0, 0.008594157688785596
479.0, 0.009442472933791784
480.0, 0.008858332228209151
481.0, 0.008621332836160333
482.0, 0.007947587550974224
483.0, 0.005310707224404826
484.0, 0.0058877735096811365
485.0, 0.006224340372798949
486.0, 0.00590155921555915
487.0, 0.004616860062015084
488.0, 0.0064146159036044
489.0, 0.005906385126392145
490.0, 0.0038566853944447584
491.0, 0.0019234356690509932
492.0, 0.00409347999880026
493.0, 0.004027518609801056
494.0, 0.0031251079972060853
495.0, 0.003908708925161329
496.0, 0.0021805047240842177
497.0, 0.0019745099286471155
498.0, 0.002823912447036879
499.0, 0.0038690664964601247
500.0, 0.0047889822703855636
501.0, 0.005036137056513217
502.0, 0.005651962335702426
503.0, 0.007940599599523094
504.0, 0.0025935550260504196
505.0, 0.004038968630884476
506.0, 0.00729859989831931
507.0, 0.0065349791263389105
508.0, 0.003289547526825324
509.0, 0.00416253608694719
510.0, 0.006437790987479626
511.0, 0.0073533519674121445
512.0, 0.006127195843756004
513.0, 0.00689075728358854
514.0, 0.00791976155086139
515.0, 0.007668508409206287
516.0, 0.005117733909495893
517.0, 0.005622787046168977
518.0, 0.007021099707112496
519.0, 0.007633716166480196
520.0, 0.0064674454263110364
521.0, 0.005079452022079887
522.0, 0.004931086760474272
523.0, 0.006752225801193179
524.0, 0.007482793454901893
525.0, 0.006281516404378476
526.0, 0.005841654426002486
527.0, 0.007550359202725841
528.0, 0.010591037521524082
529.0, 0.01036531594948168
530.0, 0.009143290949138048
531.0, 0.007938429002230834
532.0, 0.006796102730492521
533.0, 0.007642626788555209
534.0, 0.007661415267893779
535.0, 0.006513070694260725
536.0, 0.007682348753317173
537.0, 0.007433163308487705
538.0, 0.0081393961918946
539.0, 0.009609190785157267
540.0, 0.00846918185759192
541.0, 0.005899955931014483
542.0, 0.008291429698680054
543.0, 0.01212134319497926
544.0, 0.0028311272314902637
545.0, 0.005416479473972837
546.0, 0.006055959750130541
547.0, 0.004553693316578894
548.0, 0.00540048546158569
549.0, 0.004060170354009257
550.0, 0.0026798000056889176
551.0, 0.00282712921744263
552.0, 0.006822598708984711
553.0, 0.008697026333288374
554.0, 0.008978248711527605
555.0, 0.007787908666853835
556.0, 0.005253960589042582
557.0, 0.006614175464668325
558.0, 0.006073459135188641
559.0, 0.0044055127733289515
560.0, 0.002538690545582003
561.0, 0.0026729531371728664
562.0, 0.003760490511630514
563.0, 0.003729852059641228
564.0, 0.0013810995002047192
565.0, 0.0012342536514055571
566.0, 0.002325138329123717
567.0, 0.003535594955400496
568.0, 0.004215590181677357
569.0, 0.003946926086905807
570.0, 0.004570265804830163
571.0, 0.003309444480769589
572.0, 0.000731745216690616
573.0, 0.004498000638798547
574.0, 0.005909790561934504
575.0, 0.0047108400140837515
576.0, 0.002377928159845529
577.0, 0.003738792986588677
578.0, 0.00486214529690626
579.0, 0.004513523229681131
580.0, 0.004401915980498024
581.0, 0.008573299790909749
582.0, 0.0044491455899763445
583.0, 0.0052545889571155545
584.0, 0.007317704588864882
585.0, 0.003709187067043473
586.0, 0.00573658293035744
587.0, 0.00817297090454481
588.0, 0.00937612282038063
589.0, 0.008044609194765242
590.0, 0.010030056526322682
591.0, 0.007381276432854406
592.0, 0.005070761594417779
593.0, 0.006114479865508167
594.0, 0.007082670930487008
595.0, 0.01097589708917562
596.0, 0.012753348332478341
597.0, 0.011089132350431193
598.0, 0.010689612157585704
599.0, 0.010172357542392606
600.0, 0.010814450998047107
601.0, 0.012653764779723029
602.0, 0.01471784064144373
603.0, 0.01358363609171567
604.0, 0.014789255043616872
605.0, 0.017013706210325726
606.0, 0.01603882140625743
607.0, 0.014164706219841504
608.0, 0.014859303651881295
609.0, 0.017224141438124122
610.0, 0.01982601389046479
611.0, 0.017913074185492105
612.0, 0.01863363393680669
613.0, 0.01961808245044581
614.0, 0.019259602755336398
615.0, 0.02104951079872017
616.0, 0.02216820365091429
617.0, 0.022916372405488158
618.0, 0.02336921166803865
619.0, 0.02314265379438482
620.0, 0.022829984929633104
621.0, 0.01926655815754751
622.0, 0.016048351885952248
623.0, 0.026718678403900003
624.0, 0.02115178133696132
625.0, 0.0216452722719585
626.0, 0.02491305435267328
627.0, 0.019739159520098942
628.0, 0.022729458501472986
629.0, 0.02099722131103283
630.0, 0.0169844314499859
631.0, 0.014182591553113027
632.0, 0.021517439110035858
633.0, 0.022569479482772797
634.0, 0.02040197505446113
635.0, 0.01692976918533782
636.0, 0.011910207232161178
637.0, 0.013813380598008738
638.0, 0.015402694511462105
639.0, 0.015087432072676054
640.0, 0.016177734502362203
641.0, 0.016647210194157807
642.0, 0.015003799370559023
643.0, 0.011942013070448117
644.0, 0.00931696319205304
645.0, 0.011095424031456642
646.0, 0.011209285126676715
647.0, 0.011187029798695649
648.0, 0.0128563452408916
649.0, 0.009568498115168998
650.0, 0.010607959553234595
651.0, 0.00992042816899657
652.0, 0.005740146826871535
653.0, 0.011841483307118693
654.0, 0.009955153430794597
655.0, 0.00794988563189532
656.0, 0.0074433860553301595
657.0, 0.005497578663965458
658.0, 0.007291098845793459
659.0, 0.009263780724775511
660.0, 0.010056369990780726
661.0, 0.008338501286973382
662.0, 0.004139455778094445
663.0, 0.0050189643279326054
664.0, 0.006320923229252003
665.0, 0.003956672111229926
666.0, 0.0023055391382050287
667.0, 0.003936234721577163
668.0, 0.004568788051765046
669.0, 0.003035480091728352
670.0, 0.003320732587992216
671.0, 0.002203125440463005
672.0, 0.001955702287065444
673.0, 0.0031273258307050935
674.0, 0.005792855600672878
675.0, 0.0058992299975903365
676.0, 0.006092937403044533
677.0, 0.006367221851157202
678.0, 0.006481595215876446
679.0, 0.00578313762120439
680.0, 0.005762611928265861
681.0, 0.005848579863557914
682.0, 0.006026334561848782
683.0, 0.008189801412066617
684.0, 0.0060073697230323434
685.0, 0.003968081949196583
686.0, 0.0032861628022999826
687.0, 0.003962860580135526
688.0, 0.003261852245232135
689.0, 0.004386484871860001
690.0, 0.006715678841889932
691.0, 0.00899933950937334
692.0, 0.006896171827124256
693.0, 0.005052739122672425
694.0, 0.005796142864223204
695.0, 0.008664744426685748
696.0, 0.002499534712284094
697.0, 0.005124419305745879
698.0, 0.005282810757869599
699.0, 0.0027475258964082556
700.0, 0.004447320601531886
701.0, 0.006894368209282064
702.0, 0.007639552472785652
703.0, 0.007906760743692478
704.0, 0.00925200507714194
705.0, 0.00901925701355698
706.0, 0.009579786263265971
707.0, 0.007257584729712484
708.0, 0.001606061959242433
709.0, 0.0004788024011642693
710.0, 0.0041745177982054444
711.0, 0.004004316599986693
712.0, 0.002040596976253229
713.0, 0.006615334841465342
714.0, 0.0046262174772075835
715.0, 0.0062842911394664315
716.0, 0.008548397175924425
717.0, 0.007995053719247162
718.0, 0.004619595026501564
719.0, 0.0055132501151939186
720.0, 0.006270942157228227
721.0, 0.005144636238618922
722.0, 0.0026436212853938805
723.0, 0.0037693352121640207
724.0, 0.004263977578937118
725.0, 0.003925716626513268
726.0, 0.0034722512655831934
727.0, 0.005473054316119599
728.0, 0.0038793908012435775
729.0, 0.0025719834983416773
730.0, 0.003471180567000934
731.0, 0.0012586115119962344
732.0, 0.0025795451156283193
733.0, 0.0023234686157464646
734.0, 0.0005902611245785542
735.0, 0.0008909139953220486
736.0, 0.0019684018327688468
737.0, 0.00289501415632356
738.0, 0.0036498178086791016
739.0, 0.004217530696903301
740.0, 0.003715709565366837
741.0, 0.0021627513345926445
742.0, 0.0013686640393000228
743.0, 0.0018934634552700742
744.0, 0.0030628282142899543
745.0, 0.003622380131461378
746.0, 0.005396464244849043
747.0, 0.005518216866447418
748.0, 0.00029397984470493294
749.0, 0.004458323749547834
750.0, 0.0033722303378231895
751.0, 0.0033825279697533863
752.0, 0.005994454006729625
753.0, 0.0010075314122828002
754.0, 0.002000208627673419
755.0, 0.002133336544346221
756.0, 0.001100605447418161
757.0, 0.0007269571019033896
758.0, 0.00531510424901249
759.0, 0.0031897537228896718
760.0, 0.0007425359530183545
761.0, 0.0017702916951982187
762.0, 0.0003260457605078652
763.0, 0.001639983975415018
764.0, 0.0030254395072568706
765.0, 0.0032062714925555607
766.0, 0.0010540599959457852
767.0, 0.006741056337363152
768.0, 0.0043239957068377495
769.0, 0.001492890538030477
770.0, 0.00427793991490662
771.0, 0.00586266566244766
772.0, 0.005478581476934573
773.0, 0.006321735923244693
774.0, 0.006746358183250206
775.0, 0.0009014088841983472
776.0, 0.0033945792740731912
777.0, 0.00392201687477218
778.0, 0.0025036642440595127
779.0, 0.0003063400551272246
780.0, 0.0023740552338742333
781.0, 0.0029128646777405935
782.0, 0.0023801602768618443
783.0, 0.0012946148270141255
784.0, 0.0005314623434585055
785.0, 0.002970097251603611
786.0, 0.003076262111575527
787.0, 0.0017158255155153464
788.0, 0.0004183472997953909
789.0, 0.0027341477481614535
790.0, 0.0014996403468642754
791.0, 0.0011614116740536232
792.0, 0.002957414301182108
793.0, 0.00643525974366148
794.0, 0.0021386715716023817
795.0, 0.002421740625087772
796.0, 0.004724466177918111
797.0, 0.006225800677718633
798.0, 0.007029986178270315
799.0, 0.00286922525811381
800.0, 0.0013003012030285916
801.0, 0.0031129597435836987
802.0, 0.0053345036283441285
803.0, 0.001494332590501133
804.0, 0.0032049837936339014
805.0, 0.004726565290303237
806.0, 0.0026493604652698477
807.0, 0.005260774863594507
808.0, 0.0048351134367470875
809.0, 0.0027333659282259477
810.0, 0.0006193842516914184
811.0, 0.0007772772231243154
812.0, 0.005184575667380417
813.0, 0.0029661783701497653
814.0, 0.0016675042681016886
815.0, 0.004488488253134567
816.0, 0.0033802659912153567
817.0, 0.0029218058415346284
818.0, 0.002017777161301813
819.0, 0.0011529579490532483
820.0, 0.0012632307976890118
821.0, 0.0021661530536902884
822.0, 0.004021220123573783
823.0, 0.005283360603820166
824.0, 0.005600730875006724
825.0, 0.006352898489953474
826.0, 0.0048993376197318805
827.0, 0.004608376670595151
828.0, 0.004405848970975597
829.0, 0.0030512768847362763
830.0, 0.0043401481279872305
831.0, 0.004783824835319608
832.0, 0.0044641864215590405
833.0, 0.0031379346259450625
834.0, 0.0002100081573993258
835.0, 0.0023849909054799645
836.0, 0.0032421993865805712
837.0, 0.0037230726845199034
838.0, 0.004770501222637838
839.0, 0.006148940713894116
840.0, 0.006956875298747337
841.0, 0.007308138321941745
842.0, 0.00601679858081884
843.0, 0.001514021636136097
844.0, 0.0024249441146530254
845.0, 0.006470026982852978
846.0, 0.006632542729365783
847.0, 0.0027932358062322756
848.0, 0.006506717280825651
849.0, 0.004444068719525743
850.0, 0.004593767062443228
851.0, 0.0061548435804733735
852.0, 0.006909375709341562
853.0, 0.002232840398430168
854.0, 0.002069177786071448
855.0, 0.005502296972034449
856.0, 0.01023689360385975
857.0, 0.012418335367844289
858.0, 0.008236725632263787
859.0, 0.006002850076808808
860.0, 0.005529204171130186
861.0, 0.00602757998728195
862.0, 0.005342562368837704
863.0, 0.005099710401272958
864.0, 0.0051835086392456545
865.0, 0.0054901161413950525
866.0, 0.005811160407645097
867.0, 0.004956745284066165
868.0, 0.006415306773476558
869.0, 0.006669989797171588
870.0, 0.0053472290154381865
871.0, 0.004157443853379649
872.0, 0.0051334338359116565
873.0, 0.005538488690278593
874.0, 0.007259142731576272
875.0, 0.00960448794420244
876.0, 0.004786132985400279
877.0, 0.0022057190170037488
878.0, 0.004272725874699638
879.0, 0.007522183518193039
880.0, 0.007902854133744442
881.0, 0.007049734228466015
882.0, 0.008667323835812526
883.0, 0.008183067831358692
884.0, 0.006764254594017196
885.0, 0.009144533827016802
886.0, 0.008123858556127263
887.0, 0.006237513883264276
888.0, 0.008443181097304958
889.0, 0.013092217222073023
890.0, 0.005472594866922052
891.0, 0.007733494515853707
892.0, 0.01067270192183668
893.0, 0.01079326398787734
894.0, 0.007391326403616799
895.0, 0.011300800588370914
896.0, 0.008821078756348731
897.0, 0.006215574592145965
898.0, 0.007397184666019976
899.0, 0.014850449200002745
900.0, 0.00836857534382791
901.0, 0.007212001034681375
902.0, 0.007538017053489445
903.0, 0.008740380305940317
904.0, 0.013240967907690138
905.0, 0.008970154753207301
906.0, 0.009381961929901397
907.0, 0.012230539581719116
908.0, 0.0141403735781966
909.0, 0.009387160072001426
910.0, 0.008524716719626884
911.0, 0.007319205620519556
912.0, 0.008168127723768608
913.0, 0.012514470556882235
914.0, 0.00918252892468037
915.0, 0.01203414819688133
916.0, 0.01152171673195171
917.0, 0.008019860605731989
918.0, 0.005847563781950877
919.0, 0.007911865527086734
920.0, 0.010100032502188296
921.0, 0.010717549128802472
922.0, 0.009607545222001069
923.0, 0.007964492623089896
924.0, 0.009845112820812671
925.0, 0.010882725028630805
926.0, 0.010978082797215783
927.0, 0.010839795057602785
928.0, 0.012746960696639586
929.0, 0.012562936061179374
930.0, 0.013727827624352708
931.0, 0.013965572852598454
932.0, 0.011842646214239952
933.0, 0.011387033252126564
934.0, 0.009952722989373577
935.0, 0.013113927933559684
936.0, 0.013757947000050038
937.0, 0.00533544561536525
938.0, 0.01416574528513765
939.0, 0.009283489551985725
940.0, 0.006825033121433317
941.0, 0.009540104357688067
942.0, 0.014110544067585737
943.0, 0.013105649728874727
944.0, 0.015063574467112378
945.0, 0.01373201972127553
946.0, 0.011542581178082191
947.0, 0.018609594178618627
948.0, 0.015789284932300512
949.0, 0.013388122666588769
950.0, 0.012935306925069981
951.0, 0.014428388013806453
952.0, 0.015774222454132007
953.0, 0.014702486529041051
954.0, 0.012647280818821731
955.0, 0.013973535712315376
956.0, 0.019264444463622996
957.0, 0.019534055505457074
958.0, 0.01958913861316914
959.0, 0.01770061259075054
960.0, 0.01799883386291048
961.0, 0.022268317244577007
962.0, 0.020131796745855943
963.0, 0.02124212083919282
964.0, 0.025356918692475357
965.0, 0.028937549507856576
966.0, 0.029306995032504644
967.0, 0.03468940514993735
968.0, 0.038579109938800704
969.0, 0.04001984269790333
970.0, 0.0432575569964795
971.0, 0.052626927323478706
972.0, 0.053432206651146646
973.0, 0.0623153364492026
974.0, 0.07273138043532566
975.0, 0.08094918599514803
976.0, 0.08501460303901658
977.0, 0.09755488407619962
978.0, 0.1036622326552765
979.0, 0.11685173069753459
980.0, 0.13589845629410538
981.0, 0.15001245020061862
982.0, 0.16369560416087758
983.0, 0.19585580121895013
984.0, 0.2278868385273575
985.0, 0.268949311781508
986.0, 0.3526041764407162
987.0, 0.4714379808507557
988.0, 0.6229906242326513
989.0, 0.7976930604644172
990.0, 0.9517373235609131
991.0, 0.999193249263061
992.0, 0.8774015870043955
993.0, 0.6882897299063004
994.0, 0.4953030318539512
995.0, 0.3383333066039355
996.0, 0.23015598964089568
997.0, 0.16716467499882115
998.0, 0.12656694411772898
999.0, 0.09505784866493232
1000.0, 0.07029914554439806
1001.0, 0.06774815477415239
1002.0, 0.04685090117947527
1003.0, 0.04072839247393781
1004.0, 0.03886039070137449
1005.0, 0.033654121557602314
1006.0, 0.026310009157817303
1007.0, 0.0258698777614518
1008.0, 0.02157961457216374
1009.0, 0.01820809615783067
1010.0, 0.01801533094004439
1011.0, 0.01669045251980558
1012.0, 0.01547851412657073
1013.0, 0.0162698943805542
1014.0, 0.0166323532451861
1015.0, 0.014499058108608076
1016.0, 0.008867999974978126
1017.0, 0.014122295182836893
1018.0, 0.015561530705727574
1019.0, 0.010912601827824924
1020.0, 0.003998187528682692
1021.0, 0.009465354399218261
1022.0, 0.010414966555438231
1023.0, 0.007332338540741743
1024.0, 0.007425724723270471
1025.0, 0.011390335811896846
1026.0, 0.005939075402210187
1027.0, 0.008301990777117485
1028.0, 0.007682643116655358
1029.0, 0.005716778639818957
1030.0, 0.005538080466268238
1031.0, 0.011727947323681832
1032.0, 0.006957913016394144
1033.0, 0.005714138028819891
1034.0, 0.0094259873661938
1035.0, 0.01368170934145483
1036.0, 0.005211939961184987
1037.0, 0.007572961112562678
1038.0, 0.008537741779172688
1039.0, 0.00877972812154068
1040.0, 0.009240377044890719
1041.0, 0.010395497698375895
1042.0, 0.009789527383521254
1043.0, 0.00985479970679786
1044.0, 0.010432674491799314
1045.0, 0.01047578274842554
1046.0, 0.007914294313007459
1047.0, 0.007313540310154219
1048.0, 0.008732536609657265
1049.0, 0.010796811957308989
1050.0, 0.011237191169066976
1051.0, 0.007056878801571022
1052.0, 0.011947571974727678
1053.0, 0.015040945718211456
1054.0, 0.011959082691913911
1055.0, 0.0059409669979484355
1056.0, 0.006280745081877531
1057.0, 0.013670214885175936
1058.0, 0.011942635213184588
1059.0, 0.015462811615762274
1060.0, 0.018788174106249535
1061.0, 0.006873805909233064
1062.0, 0.00933380401164344
1063.0, 0.008635227548250694
1064.0, 0.008838986376764753
1065.0, 0.009133390465788998
1066.0, 0.007289626337215487
1067.0, 0.00874664811619334
1068.0, 0.012626602006300511
1069.0, 0.010095862179436577
1070.0, 0.006505911231167537
1071.0, 0.009651690494247037
1072.0, 0.014060592409148327
1073.0, 0.015014428155783481
1074.0, 0.014540762785875825
1075.0, 0.015496817550918026
1076.0, 0.017800170659605315
1077.0, 0.00965285631012882
1078.0, 0.010587453716121364
1079.0, 0.015520723696005875
1080.0, 0.016927904253176456
1081.0, 0.0127074372909135
1082.0, 0.014394276001216564
1083.0, 0.016319703408031013
1084.0, 0.018404693250724042
1085.0, 0.02018324090028993
1086.0, 0.021924821833911416
1087.0, 0.025053229108180194
1088.0, 0.02269135545955281
1089.0, 0.018933223198600118
1090.0, 0.01756032060719842
1091.0, 0.018112869652773235
1092.0, 0.016302089570839336
1093.0, 0.017615662117131992
1094.0, 0.018578618173247113
1095.0, 0.022251138273438453
1096.0, 0.023973758454422206
1097.0, 0.017116912059509767
1098.0, 0.021979838333209135
1099.0, 0.02117463446245483
1100.0, 0.019539460367429727
1101.0, 0.01620512093011594
1102.0, 0.010700423313671749
1103.0, 0.014198284634226201
1104.0, 0.012421552764196403
1105.0, 0.01176727439537273
1106.0, 0.010182522138460643
1107.0, 0.007319184805890125
1108.0, 0.01155500886302837
1109.0, 0.009484221084484455
1110.0, 0.011454446126228507
1111.0, 0.012700934664883173
1112.0, 0.01053869061735605
1113.0, 0.0071217127955615096
1114.0, 0.009917755249754792
1115.0, 0.009131552801120355
1116.0, 0.009114365554054843
1117.0, 0.010083619645283091
1118.0, 0.00928777726088466
1119.0, 0.01180358668137172
1120.0, 0.010394668848967073
1121.0, 0.009240501563483395
1122.0, 0.01052701148975724
1123.0, 0.01423003075941176
1124.0, 0.01303266288409836
1125.0, 0.013037607657427496
1126.0, 0.010473481991247525
1127.0, 0.0108331607151004
1128.0, 0.015156216689168833
1129.0, 0.008715130987308528
1130.0, 0.015016964003864963
1131.0, 0.01849294409916351
1132.0, 0.018358693652389492
1133.0, 0.015507293804042106
1134.0, 0.011651270648414501
1135.0, 0.014320428570992623
1136.0, 0.019990816169169534
1137.0, 0.016119815955814912
1138.0, 0.010899497422110146
1139.0, 0.018909951363332133
1140.0, 0.004751196234732209
1141.0, 0.005969662787770086
1142.0, 0.008326686818075153
1143.0, 0.008774278706780507
1144.0, 0.007860337381034675
1145.0, 0.008037406404498269
1146.0, 0.009905049834412807
1147.0, 0.007194033436543443
1148.0, 0.005070597088790683
1149.0, 0.005128333522173908
1150.0, 0.002667984302748658
1151.0, 0.0021067790373584484
1152.0, 0.004316100727785032
1153.0, 0.004387591117027533
1154.0, 0.0021135221428584838
1155.0, 0.000895100793167028
1156.0, 0.008949282019172049
1157.0, 0.006025167949251103
1158.0, 0.002166750603158892
1159.0, 0.0007883028776014228
1160.0, 0.0019398174180636038
1161.0, 0.0010967890009193565
1162.0, 0.0005707241447687249
1163.0, 0.002628341202317856
1164.0, 0.0025375576302968023
1165.0, 0.001252575151900366
1166.0, 0.0058028863718505835
1167.0, 0.0039181185079830115
1168.0, 0.004390842517892065
1169.0, 0.0030596365225454107
1170.0, 0.0010628997128744617
1171.0, 0.001105065297740951
1172.0, 0.0015366019793203929
1173.0, 0.0007392002236557343
1174.0, 0.0005771736670184482
1175.0, 0.0014599376220278994
1176.0, 0.0033877698709276005
1177.0, 0.006081586640896716
1178.0, 0.005425705061801792
1179.0, 0.0030237323958671987
1180.0, 0.0016528166607240433
1181.0, 0.0013144738588584926
1182.0, 0.0005920416538990518
1183.0, 0.0026825262549178466
1184.0, 0.0010807836025920566
1185.0, 0.001074298188859799
1186.0, 0.0016371955575092466
1187.0, 0.0016497045627234393
1188.0, 0.0033765640553794114
1189.0, 0.0034059465002549603
1190.0, 0.006405827294715482
1191.0, 0.008257567549338117
1192.0, 0.008553171139983412
1193.0, 0.009940986012357782
1194.0, 0.008996028023409059
1195.0, 0.002925158384758023
1196.0, 0.0019039444348160199
1197.0, 0.00401259302187241
1198.0, 0.004493161874470414
1199.0, 0.0009373332670175255
1200.0, 0.005601291289730128
1201.0, 0.003993761778263314
1202.0, 0.005219456538849229
1203.0, 0.008608703429824041
1204.0, 0.004959484830211345
1205.0, 0.007528164971028572
1206.0, 0.0031106545872119896
1207.0, 0.0016854334886827619
1208.0, 0.0017148368133849828
1209.0, 0.0009147747505464882
1210.0, 0.004619386233566964
1211.0, 0.006453702286331714
1212.0, 0.0038883341682406218
1213.0, 0.004244168430628664
1214.0, 0.007099086514239723
1215.0, 0.005942900411469693
1216.0, 0.006968374464118793
1217.0, 0.004136649852527812
1218.0, 0.006452513028111932
1219.0, 0.008143534447160358
1220.0, 0.00530380829459904
1221.0, 0.007259853437570263
1222.0, 0.006175664330169961
1223.0, 0.004338388697965524
1224.0, 0.0049656343525126
1225.0, 0.008005480702812392
1226.0, 0.010969318286877956
1227.0, 0.01159520762646596
1228.0, 0.012297593333972462
1229.0, 0.013248430971692171
1230.0, 0.012131792238258297
1231.0, 0.008877739519226845
1232.0, 0.007771089803167853
1233.0, 0.0023477893736528572
1234.0, 0.007561629821747811
1235.0, 0.01130104392927407
1236.0, 0.009600544803439102
1237.0, 0.005487015256035845
1238.0, 0.011340878770279526
1239.0, 0.00684101082214192
1240.0, 0.006769403665208549
1241.0, 0.008932093854400996
1242.0, 0.009884856209756192
1243.0, 0.007787931219468939
1244.0, 0.008522855568287826
1245.0, 0.004576342854102498
1246.0, 0.008403311833716681
1247.0, 0.013767732155544835
1248.0, 0.012432634222750835
1249.0, 0.005867842823531913
1250.0, 0.009863916585846686
1251.0, 0.010075445710876887
1252.0, 0.008931692266769518
1253.0, 0.007484976721974466
1254.0, 0.006253887644682449
1255.0, 0.010442058368040175
1256.0, 0.009826453670475572
1257.0, 0.004525601772033333
1258.0, 0.005401641557939117
1259.0, 0.013564574114096208
1260.0, 0.01623390333247415
1261.0, 0.005873243779141614
1262.0, 0.004141363492389638
1263.0, 0.006057795110730655
1264.0, 0.009209354214797542
1265.0, 0.010967797287956788
1266.0, 0.006511082674418019
1267.0, 0.007491631198942872
1268.0, 0.010520144921303917
1269.0, 0.010428848786328632
1270.0, 0.007634883939088967
1271.0, 0.005375743729336986
1272.0, 0.0030741705962887573
1273.0, 0.0049997502066120945
1274.0, 0.0028642006915099486
1275.0, 0.002123302582187282
1276.0, 0.004368942091586749
1277.0, 0.0054510482977840205
1278.0, 0.0020013084733591776
1279.0, 0.0067034600254131495
1280.0, 0.008175484703037743
1281.0, 0.006725693783686297
1282.0, 0.004603681528924652
1283.0, 0.002332713189495322
1284.0, 0.0019521964421597275
1285.0, 0.005743623813656589
1286.0, 0.007192312712754596
1287.0, 0.005597087878755197
1288.0, 0.004048457701703936
1289.0, 0.008527678474080978
1290.0, 0.0060995427252255275
1291.0, 0.007272379610140218
1292.0, 0.006308790019579475
1293.0, 0.004109412916896249
1294.0, 0.0044757480054122565
1295.0, 0.0033376743859444293
1296.0, 0.008570702765771912
1297.0, 0.005146853502375009
1298.0, 0.0012552247537954851
1299.0, 0.0024268147602219685
1300.0, 0.007810579370918305
1301.0, 0.007978283421769143
1302.0, 0.005854067870894561
1303.0, 0.0037144331504306923
1304.0, 0.0037781013101995157
1305.0, 0.005274346769388407
1306.0, 0.0044109995158847365
1307.0, 0.005160741174006601
1308.0, 0.007040279470831353
1309.0, 0.00758297745289462
1310.0, 0.008894730456222362
1311.0, 0.010250886649907734
1312.0, 0.00510874892411718
1313.0, 0.0050213026407846814
1314.0, 0.005515052307097104
1315.0, 0.007637084587256322
1316.0, 0.00836712029441306
1317.0, 0.006071230723639421
1318.0, 0.00503251950687041
1319.0, 0.0047211185089671695
1320.0, 0.006649966304533683
1321.0, 0.008066006211413124
1322.0, 0.008402250253408844
1323.0, 0.008200973703204145
1324.0, 0.0078851340441933
1325.0, 0.006774852457347761
1326.0, 0.008647285110021517
1327.0, 0.008578823033171493
1328.0, 0.007369983218112173
1329.0, 0.007504205871688958
1330.0, 0.005648364027232879
1331.0, 0.00515471191654705
1332.0, 0.005689699601837382
1333.0, 0.003642867431119701
1334.0, 0.0011413313712124416
1335.0, 0.002652494035574844
1336.0, 0.007106831178996792
1337.0, 0.0015881464037921906
1338.0, 0.004959483243064106
1339.0, 0.006688417097045284
1340.0, 0.006283365008101668
1341.0, 0.008352990293877987
1342.0, 0.001049434879008649
1343.0, 0.0036403839259710642
1344.0, 0.004507940965047696
1345.0, 0.00501926064278476
1346.0, 0.005434199985492609
1347.0, 0.004687937273206435
1348.0, 0.003426338497443511
1349.0, 0.004574603383389056
1350.0, 0.003860479861524631
1351.0, 0.0020325987655270303
1352.0, 0.0009289398873915289
1353.0, 0.0016089360355866127
1354.0, 0.0001038508760106792
1355, 0.0
1356, 0.0
1357, 0.0
1358, 0.0
1359, 0.0
1360, 0.0
1361, 0.0
1362, 0.0
1363, 0.0
1364, 0.0
1365, 0.0
1366, 0.0
1367, 0.0
1368, 0.0
1369, 0.0
1370, 0.0
1371, 0.0
1372, 0.0
1373, 0.0
1374, 0.0
1375, 0.0
1376, 0.0
1377, 0.0
1378, 0.0
1379, 0.0
1380, 0.0
1381, 0.0
1382, 0.0
1383, 0.0
1384, 0.0
1385, 0.0
1386, 0.0
1387, 0.0
1388, 0.0
1389, 0.0
1390, 0.0
1391, 0.0
1392, 0.0
1393, 0.0
1394, 0.0
1395, 0.0
1396, 0.0
1397, 0.0
1398, 0.0
1399, 0.0
1400, 0.0
1401, 0.0
1402, 0.0
1403, 0.0
1404, 0.0
1405, 0.0
1406, 0.0
1407, 0.0
1408, 0.0
1409, 0.0
1410, 0.0
1411, 0.0
1412, 0.0
1413, 0.0
1414, 0.0
1415, 0.0
1416, 0.0
1417, 0.0
1418, 0.0
1419, 0.0
1420, 0.0
1421, 0.0
1422, 0.0
1423, 0.0
1424, 0.0
1425, 0.0
1426, 0.0
1427, 0.0
1428, 0.0
1429, 0.0
1430, 0.0
1431, 0.0
1432, 0.0
1433, 0.0
1434, 0.0
1435, 0.0
1436, 0.0
1437, 0.0
1438, 0.0
1439, 0.0
1440, 0.0
1441, 0.0
1442, 0.0
1443, 0.0
1444, 0.0
1445, 0.0
1446, 0.0
1447, 0.0
1448, 0.0
1449, 0.0
1450, 0.0
1451, 0.0
1452, 0.0
1453, 0.0
1454, 0.0
1455, 0.0
1456, 0.0
1457, 0.0
1458, 0.0
1459, 0.0
1460, 0.0
1461, 0.0
1462, 0.0
1463, 0.0
1464, 0.0
1465, 0.0
1466, 0.0
1467, 0.0
1468, 0.0
1469, 0.0
1470, 0.0
1471, 0.0
1472, 0.0
1473, 0.0
1474, 0.0
1475, 0.0
1476, 0.0
1477, 0.0
1478, 0.0
1479, 0.0
1480, 0.0
1481, 0.0
1482, 0.0
1483, 0.0
1484, 0.0
1485, 0.0
1486, 0.0
1487, 0.0
1488, 0.0
1489, 0.0
1490, 0.0
1491, 0.0
1492, 0.0
1493, 0.0
1494, 0.0
1495, 0.0
1496, 0.0
1497, 0.0
1498, 0.0
1499, 0.0
1500, 0.0
1501, 0.0
1502, 0.0
1503, 0.0
1504, 0.0
1505, 0.0
1506, 0.0
1507, 0.0
1508, 0.0
1509, 0.0
1510, 0.0
1511, 0.0
1512, 0.0
1513, 0.0
1514, 0.0
1515, 0.0
1516, 0.0
1517, 0.0
1518, 0.0
1519, 0.0
1520, 0.0
1521, 0.0
1522, 0.0
1523, 0.0
1524, 0.0
1525, 0.0
1526, 0.0
1527, 0.0
1528, 0.0
1529, 0.0
1530, 0.0
1531, 0.0
1532, 0.0
1533, 0.0
1534, 0.0
1535, 0.0
1536, 0.0
1537, 0.0
1538, 0.0
1539, 0.0
1540, 0.0
1541, 0.0
1542, 0.0
1543, 0.0
1544, 0.0
1545, 0.0
1546, 0.0
1547, 0.0
1548, 0.0
1549, 0.0
1550, 0.0
1551, 0.0
1552, 0.0
1553, 0.0
1554, 0.0
1555, 0.0
1556, 0.0
1557, 0.0
1558, 0.0
1559, 0.0
1560, 0.0
1561, 0.0
1562, 0.0
1563, 0.0
1564, 0.0
1565, 0.0
1566, 0.0
1567, 0.0
1568, 0.0
1569, 0.0
1570, 0.0
1571, 0.0
1572, 0.0
1573, 0.0
1574, 0.0
1575, 0.0
1576, 0.0
1577, 0.0
1578, 0.0
1579, 0.0
1580, 0.0
1581, 0.0
1582, 0.0
1583, 0.0
1584, 0.0
1585, 0.0
1586, 0.0
1587, 0.0
1588, 0.0
1589, 0.0
1590, 0.0
1591, 0.0
1592, 0.0
1593, 0.0
1594, 0.0
1595, 0.0
1596, 0.0
1597, 0.0
1598, 0.0
1599, 0.0
