30, 0.0
31, 0.0
32, 0.0
33, 0.0
34, 0.0
35, 0.0
36, 0.0
37, 0.0
38, 0.0
39, 0.0
40, 0.0
41, 0.0
42, 0.0
43, 0.0
44, 0.0
45, 0.0
46, 0.0
47, 0.0
48, 0.0
49, 0.0
50, 0.0
51, 0.0
52, 0.0
53, 0.0
54, 0.0
55, 0.0
56, 0.0
57, 0.0
58, 0.0
59, 0.0
60, 0.0
61, 0.0
62, 0.0
63, 0.0
64, 0.0
65, 0.0
66, 0.0
67, 0.0
68, 0.0
69, 0.0
70, 0.0
71, 0.0
72, 0.0
73, 0.0
74, 0.0
75, 0.0
76, 0.0
77, 0.0
78, 0.0
79, 0.0
80, 0.0
81, 0.0
82, 0.0
83, 0.0
84, 0.0
85, 0.0
86, 0.0
87, 0.0
88, 0.0
89, 0.0
90, 0.0
91, 0.0
92, 0.0
93, 0.0
94, 0.0
95, 0.0
96, 0.0
97, 0.0
98, 0.0
99, 0.0
100, 0.0
101, 0.0
102, 0.0
103, 0.0
104, 0.0
105, 0.0
106, 0.0
107, 0.0
108, 0.0
109, 0.0
110, 0.0
111, 0.0
112, 0.0
113, 0.0
114, 0.0
115, 0.0
116, 0.0
117, 0.0
118, 0.0
119, 0.0
120, 0.0
121, 0.0
122, 0.0
123, 0.0
124, 0.0
125, 0.0
126, 0.0
127, 0.0
128, 0.0
129, 0.0
130, 0.0
131, 0.0
132, 0.0
133, 0.0
134, 0.0
135, 0.0
136, 0.0
137, 0.0
138, 0.0
139, 0.0
140, 0.0
141, 0.0
142, 0.0
143, 0.0
144, 0.0
145, 0.0
146, 0.0
147.0, 0.013465746854271555
148.0, 0.014619156627728724
149.0, 0.003620982942594958
150.0, 0.02201640610891275
151.0, 0.03932279814753554
152.0, 0.04324278956505201
153.0, 0.04866398564580286
154.0, 0.07743533136087162
155.0, 0.0790689754617323
156.0, 0.11763950032245059
157.0, 0.17513071149575954
158.0, 0.21381368306089077
159.0, 0.26651115239032097
160.0, 0.328051250460834
161.0, 0.392876807349109
162.0, 0.45246130446669924
163.0, 0.487803383971428
164.0, 0.5353607455852878
165.0, 0.5429344568732883
166.0, 0.523590273352706
167.0, 0.5530194660497197
168.0, 0.5741874804081335
169.0, 0.5565163174744215
170.0, 0.5280705971507343
171.0, 0.5238364550247401
172.0, 0.49644387731454703
173.0, 0.4428452890152929
174.0, 0.38444324530918006
175.0, 0.3413104016066408
176.0, 0.3219818498066467
177.0, 0.2811599847094357
178.0, 0.23740677715653405
179.0, 0.20325134654469665
180.0, 0.16175336326072384
181.0, 0.15081551662586326
182.0, 0.14258843498357746
183.0, 0.12976085908647653
184.0, 0.12287348281317005
185.0, 0.10760893507710675
186.0, 0.11145694402870526
187.0, 0.11260197101849297
188.0, 0.0935266626243517
189.0, 0.09874785507720338
190.0, 0.10483817517052053
191.0, 0.10256332473021879
192.0, 0.09084754629198773
193.0, 0.0734287975960022
194.0, 0.05962654999526054
195.0, 0.04428978661183563
196.0, 0.02651552195419095
197.0, 0.012886130582281332
198.0, 0.015706340758139762
199.0, 0.011391701376914627
200.0, 0.0032155643068670567
201.0, 0.006183106291465903
202.0, 0.02245277671386894
203.0, 0.0039044989403781098
204.0, 0.03299707607228638
205.0, 0.031702599587292914
206.0, 0.010401917591681714
207.0, 0.017234985109349645
208.0, 0.009769957489367938
209.0, 0.004530339229727706
210.0, 0.005497960080243028
211.0, 0.025980582108620778
212.0, 0.025929821735796506
213.0, 0.010933295035343394
214.0, 0.0017813339896611267
215.0, 0.014523745191303408
216.0, 0.020237288109880205
217.0, 0.03814920558572249
218.0, 0.0606982973831904
219.0, 0.06608686521815844
220.0, 0.056124504826298285
221.0, 0.055305969396471796
222.0, 0.051261164164696414
223.0, 0.03766148160971692
224.0, 0.0410897675341399
225.0, 0.04206816021316021
226.0, 0.02619895733150815
227.0, 0.010731091701055755
228.0, 0.025789155788114755
229.0, 0.03487495831507079
230.0, 0.024809979600094137
231.0, 0.027891753041891905
232.0, 0.0643348730291202
233.0, 0.08029027431209589
234.0, 0.1009934859514203
235.0, 0.13114983440404052
236.0, 0.15679578708651123
237.0, 0.15646856865415232
238.0, 0.1718350196092808
239.0, 0.196939481961844
240.0, 0.21047463464060562
241.0, 0.20822747870075808
242.0, 0.2319876945230368
243.0, 0.28252929525987697
244.0, 0.31646348236209265
245.0, 0.33018237748521667
246.0, 0.3593847494241709
247.0, 0.38030276813306846
248.0, 0.39908988391970274
249.0, 0.42897152996523547
250.0, 0.47918344268976293
251.0, 0.5452135485500421
252.0, 0.58963263993988
253.0, 0.6379303502477577
254.0, 0.7020753146640217
255.0, 0.7686046537327419
256.0, 0.8286863129946871
257.0, 0.8660690756961373
258.0, 0.9083622523366237
259.0, 0.9737892144336778
260.0, 0.9817709477548466
261.0, 0.9821200926192326
262.0, 0.9916853698325426
263.0, 0.9927216433265541
264.0, 0.9505125120379693
265.0, 0.9332749768787929
266.0, 0.8883481396914777
267.0, 0.845301925497368
268.0, 0.8304368603431463
269.0, 0.793062767254746
270.0, 0.7682019161137627
271.0, 0.7321215591697705
272.0, 0.6834956903999664
273.0, 0.6417628845168107
274.0, 0.5922959139790459
275.0, 0.5832856882071371
276.0, 0.587568119621678
277.0, 0.5751915710659232
278.0, 0.5603991100099596
279.0, 0.5344551202181921
280.0, 0.5142288871738353
281.0, 0.4976118543889883
282.0, 0.4795812279242187
283.0, 0.5084318036173125
284.0, 0.49144112290750164
285.0, 0.47582544107695446
286.0, 0.4900967695197072
287.0, 0.4919099853953247
288.0, 0.4817676583568619
289.0, 0.496971310668602
290.0, 0.5153416741343083
291.0, 0.5013848602828169
292.0, 0.4797450892983473
293.0, 0.4697407481518758
294.0, 0.46191193607320175
295.0, 0.4435776230222935
296.0, 0.4236860721240186
297.0, 0.49671273924653975
298.0, 0.45721208721593576
299.0, 0.38960545524543055
300.0, 0.38394574614935556
301.0, 0.39504620681552305
302.0, 0.415453000065775
303.0, 0.422011211029181
304.0, 0.427061955847979
305.0, 0.44498577889228186
306.0, 0.44386217191419103
307.0, 0.44134321235727103
308.0, 0.4495332742165429
309.0, 0.44879164758451134
310.0, 0.4098282287923118
311.0, 0.3638657690501193
312.0, 0.327545394278153
313.0, 0.3063256103872372
314.0, 0.28265208208505554
315.0, 0.21848683486077117
316.0, 0.18118165042527012
317.0, 0.14964194734991637
318.0, 0.11370438519983991
319.0, 0.0758371355486777
320.0, 0.02945491644768829
321.0, 0.0031280359971294015
322.0, 0.007914803454688275
323.0, 0.013323587765787325
324.0, 0.032712445656388374
325.0, 0.03892601942316145
326.0, 0.006463578986424768
327.0, 0.018769162488498067
328.0, 0.005578605110302561
329.0, 0.0176581850239218
330.0, 0.02023210778713188
331.0, 0.025251988564731254
332.0, 0.039029004486451475
333.0, 0.05401433157374349
334.0, 0.04703254814904817
335.0, 0.05157030850112634
336.0, 0.036126756918262545
337.0, 0.007903797926294573
338.0, 0.0027937069001575023
339.0, 0.011443825842153525
340.0, 0.008027550244332169
341.0, 0.008605546310767131
342.0, 0.015243011225446381
343.0, 0.01249852772738123
344.0, 0.02284391896465315
345.0, 0.01779126040152367
346.0, 0.003240091541498284
347.0, 0.01776249588800165
348.0, 0.059509666584788457
349.0, 0.05897715988960287
350.0, 0.09075964927365983
351.0, 0.13152967751976113
352.0, 0.14023366639562962
353.0, 0.1559585931462567
354.0, 0.16529366520393543
355.0, 0.182352198660819
356.0, 0.18773752226566234
357.0, 0.1695007573074573
358.0, 0.1896766023166771
359.0, 0.18409133293579102
360.0, 0.17348729425490406
361.0, 0.1734962912823595
362.0, 0.17460802609394613
363.0, 0.17025779082898967
364.0, 0.15802092833752515
365.0, 0.16467206501314477
366.0, 0.18490919602714723
367.0, 0.18133109633290387
368.0, 0.18288499842025221
369.0, 0.19581738151275746
370.0, 0.20953580914033573
371.0, 0.21729886058481812
372.0, 0.23180145363337207
373.0, 0.2914969487198776
374.0, 0.3232107772084442
375.0, 0.35302168845360216
376.0, 0.41026959145264
377.0, 0.4443085048391452
378.0, 0.5105025311368044
379.0, 0.586430602426665
380.0, 0.6626452572471788
381.0, 0.7394893127318655
382.0, 0.8041013061186784
383.0, 0.840131297620744
384.0, 0.8533979602238014
385.0, 0.8477046189174066
386.0, 0.8348143722400331
387.0, 0.8400933979461888
388.0, 0.808258269226367
389.0, 0.8039580317469877
390.0, 0.8241268889182332
391.0, 0.8248509067657794
392.0, 0.8313688035816726
393.0, 0.8147903676228297
394.0, 0.7945072804889758
395.0, 0.7703141601108556
396.0, 0.7220108765606889
397.0, 0.6275629184711919
398.0, 0.564041696648897
399.0, 0.48497342514541447
400.0, 0.3950665597131072
401.0, 0.35161856720177775
402.0, 0.292769001324249
403.0, 0.2516861188447717
404.0, 0.2081101145167835
405.0, 0.16675094949520766
406.0, 0.1633033614306994
407.0, 0.16801278656501403
408.0, 0.14344288174677727
409.0, 0.10532295432998759
410.0, 0.08064937398314387
411.0, 0.07899452082740492
412.0, 0.06548077417855201
413.0, 0.05932367837991337
414.0, 0.06257734283896359
415.0, 0.07050506466335142
416.0, 0.08106396377500541
417.0, 0.08964600562242087
418.0, 0.09695577109840953
419.0, 0.09934148236433431
420.0, 0.1027013650976002
421.0, 0.11735404369765072
422.0, 0.10051806771143641
423.0, 0.13635689627653516
424.0, 0.1832222991665729
425.0, 0.21128248687755674
426.0, 0.24084183921932362
427.0, 0.26125809525330335
428.0, 0.28356261325537546
429.0, 0.3190517568206412
430.0, 0.3730819100376948
431.0, 0.44231462251743586
432.0, 0.4885799731453823
433.0, 0.5344103223647698
434.0, 0.5904356956884838
435.0, 0.6422094632922586
436.0, 0.6718868350688346
437.0, 0.7320004761727399
438.0, 0.7696944083159521
439.0, 0.7729609595353947
440.0, 0.7555637954235735
441.0, 0.7271609036550483
442.0, 0.6750152829223846
443.0, 0.6315539594709011
444.0, 0.5713331136573759
445.0, 0.5071338016676582
446.0, 0.47301789962656193
447.0, 0.43176750372309014
448.0, 0.36946261328634106
449.0, 0.3244329913329675
450.0, 0.2980775909986554
451.0, 0.26377116554120184
452.0, 0.21446404888628365
453.0, 0.19600629835811656
454.0, 0.17185601614121446
455.0, 0.1259168576916558
456.0, 0.0855706080480978
457.0, 0.0932170589549039
458.0, 0.06781964319349226
459.0, 0.05518039904163296
460.0, 0.05691726628224133
461.0, 0.04999199598477842
462.0, 0.04115517291339581
463.0, 0.06441210823264173
464.0, 0.07610744897525543
465.0, 0.07972025724294589
466.0, 0.08755135012293216
467.0, 0.0832592982586272
468.0, 0.09977005972100281
469.0, 0.09598297740061087
470.0, 0.07608319811664045
471.0, 0.06793077475024498
472.0, 0.09106161402538857
473.0, 0.05683038013481505
474.0, 0.04502874014418594
475.0, 0.03346202741213236
476.0, 0.013166222555948407
477.0, 0.012868365829996125
478.0, 0.007179035280875776
479.0, 0.010149062040943272
480.0, 0.014234159624679481
481.0, 0.023085776907588677
482.0, 0.02167741745238079
483.0, 0.020451585961702816
484.0, 0.017247548547243058
485.0, 0.026930335140381283
486.0, 0.026207661215470194
487.0, 0.00795022465942035
488.0, 0.037966931137411675
489.0, 0.03640296338896919
490.0, 0.03618076151405997
491.0, 0.03676477730536564
492.0, 0.04296536141378885
493.0, 0.08327647490032176
494.0, 0.08514610861743414
495.0, 0.09425761681748947
496.0, 0.11839181780110673
497.0, 0.14350289608789724
498.0, 0.16425415078249886
499.0, 0.18414366129752668
500.0, 0.21113984494139637
501.0, 0.23074411478690046
502.0, 0.25388336175828385
503.0, 0.29937033790547324
504.0, 0.3172156525125086
505.0, 0.35907948999433703
506.0, 0.3961756898447731
507.0, 0.42300622408824606
508.0, 0.44769155079482637
509.0, 0.46052725139243994
510.0, 0.48270360341677143
511.0, 0.5213293341330838
512.0, 0.5423924974043602
513.0, 0.5365064836820331
514.0, 0.5392385104823264
515.0, 0.5485232368786706
516.0, 0.5598511789472097
517.0, 0.5749119263893849
518.0, 0.5701872679913443
519.0, 0.5302461201416543
520.0, 0.5420914910213509
521.0, 0.5494055528553534
522.0, 0.5299819525294592
523.0, 0.5130191500696786
524.0, 0.5184455308160041
525.0, 0.5033123223477561
526.0, 0.4675933426316937
527.0, 0.4586475584253064
528.0, 0.4556168619573784
529.0, 0.4411455361900896
530.0, 0.4329112296022129
531.0, 0.43335021853813416
532.0, 0.3728666505892967
533.0, 0.33293259402336706
534.0, 0.332523236983102
535.0, 0.3255452671248906
536.0, 0.3011496739172855
537.0, 0.2964605971028907
538.0, 0.2753668584451619
539.0, 0.2399067215695145
540.0, 0.2114278775716564
541.0, 0.19945068343831868
542.0, 0.20087422065049965
543.0, 0.18273918283188664
544.0, 0.17805487353667618
545.0, 0.16307584009080045
546.0, 0.15428896817334373
547.0, 0.15048175948064435
548.0, 0.1497692576474392
549.0, 0.11528596073815818
550.0, 0.07913410256849296
551.0, 0.07139541642964155
552.0, 0.06583376964397245
553.0, 0.04254478763679967
554.0, 0.04560474713420902
555.0, 0.051821867303856524
556.0, 0.043821300981783134
557.0, 0.031064503854060857
558.0, 0.01939677873514476
559.0, 0.007604213359688322
560.0, 0.004879448069759987
561.0, 0.008304341808582116
562.0, 0.017234605144387002
563.0, 0.03683321793553945
564.0, 0.013044131353997887
565.0, 0.0006212331723212468
566.0, 0.005343770489889183
567.0, 0.009439889545583467
568.0, 0.006052823008128247
569.0, 0.01261477203605114
570.0, 0.010877956149590761
571.0, 0.005655435823698787
572.0, 0.010684942033763968
573.0, 0.0015604584838993915
574.0, 0.005170324621875161
575.0, 0.011368391547227135
576.0, 0.005979764909980889
577.0, 0.008063896200432595
578.0, 0.0014236429077829516
579.0, 0.0008407925802610576
580.0, 0.012110426719520628
581.0, 0.0065213057810268186
582.0, 0.02468303197792647
583.0, 0.019650534847721307
584.0, 0.0023847203783571276
585.0, 0.009244997430221431
586.0, 0.001585290240054651
587.0, 0.005487265977101771
588.0, 0.014723216166267776
589.0, 0.021059785607472452
590.0, 0.026915480534957462
591.0, 0.04022983069366726
592.0, 0.03762685967772198
593.0, 0.01930395504947362
594.0, 0.029278025288457906
595.0, 0.050592168271573465
596.0, 0.034548467074823626
597.0, 0.006945941995348403
598.0, 0.043185024616137185
599.0, 0.060768671402650895
600.0, 0.06473015445898093
601.0, 0.08269474212189112
602.0, 0.10661032824005756
603.0, 0.12491276035835883
604.0, 0.12883911612233928
605.0, 0.14945139832682588
606.0, 0.17934884738677845
607.0, 0.1970592316991847
608.0, 0.20540305430796096
609.0, 0.22460713562679802
610.0, 0.26206017495497586
611.0, 0.29729561930968784
612.0, 0.3279100141688202
613.0, 0.3633324271997301
614.0, 0.3937304804848455
615.0, 0.39916022906826065
616.0, 0.40228989562765455
617.0, 0.415674712406782
618.0, 0.43255518905267537
619.0, 0.44612961299043785
620.0, 0.47362173234566246
621.0, 0.5194095903632859
622.0, 0.5423110018823475
623.0, 0.5572157968342413
624.0, 0.5663206609451295
625.0, 0.5429521197075405
626.0, 0.529246941716928
627.0, 0.5360370412473187
628.0, 0.5306982215133619
629.0, 0.5154386287368729
630.0, 0.5133117732480068
631.0, 0.5254129449523782
632.0, 0.5217409714244046
633.0, 0.5098603978619585
634.0, 0.5269666624111231
635.0, 0.5574738569392692
636.0, 0.5810573962098717
637.0, 0.6152869469616352
638.0, 0.6460159622078956
639.0, 0.6998738224186124
640.0, 0.7310397172744292
641.0, 0.7526650150154774
642.0, 0.8006724203530832
643.0, 0.8461990290895244
644.0, 0.8812793855373527
645.0, 0.8901094029734433
646.0, 0.9123728327090131
647.0, 0.91242942283932
648.0, 0.8577947574089283
649.0, 0.8474999600426016
650.0, 0.7955320407696279
651.0, 0.7692677208431659
652.0, 0.7337972569182163
653.0, 0.6787004166882128
654.0, 0.6288167801356003
655.0, 0.5739172355294612
656.0, 0.5852140631358329
657.0, 0.5964282645836605
658.0, 0.5845752410274131
659.0, 0.5762757901862394
660.0, 0.5903006288016336
661.0, 0.581583353246003
662.0, 0.5642298844727633
663.0, 0.6055713813878888
664.0, 0.6204331260072142
665.0, 0.6140968911661643
666.0, 0.6598254147573676
667.0, 0.728608526891948
668.0, 0.7868031388299829
669.0, 0.806254896098549
670.0, 0.8494172166297919
671.0, 0.8786372017745481
672.0, 0.8465451949591073
673.0, 0.871089666581251
674.0, 0.8592371754538846
675.0, 0.8107228125259929
676.0, 0.7627883671038923
677.0, 0.7135927837537915
678.0, 0.642884544374378
679.0, 0.5679371714113246
680.0, 0.5226865001020173
681.0, 0.4781543434668788
682.0, 0.5033681913611162
683.0, 0.4928618125776371
684.0, 0.3673483215222026
685.0, 0.31585627173791503
686.0, 0.2706641300841428
687.0, 0.23364017845008017
688.0, 0.2068436068547405
689.0, 0.18700814387823742
690.0, 0.17076963463962055
691.0, 0.1533308754267113
692.0, 0.11882543060264682
693.0, 0.11981544071839319
694.0, 0.1098811720218383
695.0, 0.0869434914020148
696.0, 0.07828388820388209
697.0, 0.07850479550645843
698.0, 0.056683594838301314
699.0, 0.055022735846211625
700.0, 0.046652162757568685
701.0, 0.03139774295726346
702.0, 0.030358722683324187
703.0, 0.043773227916456006
704.0, 0.015376474055319111
705.0, 0.029339217251164097
706.0, 0.03251324133219092
707.0, 0.023574654149468462
708.0, 0.018413283174417865
709.0, 0.016244919198504765
710.0, 0.008599547808463212
711.0, 0.01365642225253783
712.0, 0.022212451668349835
713.0, 0.030760064962699653
714.0, 0.013230381064157514
715.0, 0.03856754375815689
716.0, 0.019681896766071547
717.0, 0.006089451725919173
718.0, 0.0067534268862925375
719.0, 0.008686105763420295
720.0, 0.013752630960228777
721.0, 0.005011739871159415
722.0, 0.020539108155866733
723.0, 0.01991954610760928
724.0, 0.02097696172773351
725.0, 0.03856872865231633
726.0, 0.013472180057065714
727.0, 0.00688418426454321
728.0, 0.019486730543381667
729.0, 0.026406040489817095
730.0, 0.014964708541836349
731.0, 0.005373725315958065
732.0, 0.005252010821083146
733.0, 0.012056194694471199
734.0, 0.005797205487735001
735.0, 0.015570154277953439
736.0, 0.016951508676075956
737.0, 0.03643021360842668
738.0, 0.048835286830038696
739.0, 0.04452450962630674
740.0, 0.043462166155201175
741.0, 0.05849647310836227
742.0, 0.03968926830130125
743.0, 0.06922840765342887
744.0, 0.08877809237438052
745.0, 0.0932837253346409
746.0, 0.09466471808725746
747.0, 0.09539340653503642
748.0, 0.10257760296041113
749.0, 0.11740029021242102
750.0, 0.13057505119455562
751.0, 0.11901058728805947
752.0, 0.10930388635756527
753.0, 0.11711418071418778
754.0, 0.11616927081752289
755.0, 0.15173284060551007
756.0, 0.15622915814540397
757.0, 0.16264739197296244
758.0, 0.16835589247733532
759.0, 0.16780454508748388
760.0, 0.16803928456281894
761.0, 0.1669120777103678
762.0, 0.1730879424992472
763.0, 0.16667223964066077
764.0, 0.17681058958801416
765.0, 0.18970183998133316
766.0, 0.1872814758244236
767.0, 0.1935822144478639
768.0, 0.22963330837503612
769.0, 0.23776907817400095
770.0, 0.2360932809579193
771.0, 0.2369485533048351
772.0, 0.24085637937159066
773.0, 0.24695794991495482
774.0, 0.25536261296370266
775.0, 0.259366931885901
776.0, 0.26793296652708626
777.0, 0.27062669839685183
778.0, 0.27503715753664487
779.0, 0.2829370845843698
780.0, 0.28897520681167127
781.0, 0.3207552107224306
782.0, 0.3461713208319103
783.0, 0.3611791268133449
784.0, 0.38158525782454483
785.0, 0.39032132032938477
786.0, 0.3806289790904539
787.0, 0.39613039402869543
788.0, 0.4360937822298458
789.0, 0.44491264246832496
790.0, 0.44406144791553503
791.0, 0.4457315526860136
792.0, 0.4360465607777067
793.0, 0.4283792707364681
794.0, 0.46046001666802655
795.0, 0.43252467998968747
796.0, 0.3861751220995258
797.0, 0.3878749238981655
798.0, 0.3747257631453608
799.0, 0.33177888834188973
800.0, 0.3093109720621889
801.0, 0.2967625842980573
802.0, 0.2773551434940636
803.0, 0.26242546309242015
804.0, 0.23709430843166698
805.0, 0.21450629870969556
806.0, 0.20979234615713313
807.0, 0.2100736750524424
808.0, 0.1932606667206825
809.0, 0.1912150287486761
810.0, 0.17674491586055566
811.0, 0.16121527954072062
812.0, 0.13829033722912126
813.0, 0.11996372986428679
814.0, 0.13170847236244707
815.0, 0.10798621954163444
816.0, 0.08626186040653475
817.0, 0.09360812459242836
818.0, 0.10151377602833314
819.0, 0.09349456909203833
820.0, 0.07523635533854814
821.0, 0.05922302880523194
822.0, 0.07124710741389878
823.0, 0.055914123105194155
824.0, 0.05730023860494494
825.0, 0.04961362762039687
826.0, 0.03469545936214133
827.0, 0.03185313486727419
828.0, 0.03621514854338988
829.0, 0.0392010855452285
830.0, 0.035596883474190086
831.0, 0.0344719891716947
832.0, 0.0333224666220927
833.0, 0.016114009609250638
834.0, 0.0006523000707895886
835.0, 0.022028091544205864
836.0, 0.049632519422007436
837.0, 0.03608864834411536
838.0, 0.013957152336483118
839.0, 0.008671198359456527
840.0, 0.01736030295969477
841.0, 0.015039046997905455
842.0, 0.02342762429306974
843.0, 0.007112866329464217
844.0, 0.005111210671470494
845.0, 0.005913645515368856
846.0, 0.0032272221922730058
847.0, 0.00582861172584866
848.0, 0.0004164673460403471
849.0, 0.0027974903254151247
850.0, 0.010320044618324503
851.0, 0.008172701338259293
852.0, 0.0030950216939881203
853.0, 0.017878942112692572
854.0, 0.013302535844408386
855.0, 0.00635627646826339
856.0, 0.023984453034359577
857.0, 0.011411045847233282
858.0, 0.03477484404168396
859.0, 0.04461486035642765
860.0, 0.03176067747081891
861.0, 0.036382507050194475
862.0, 0.04402772523618856
863.0, 0.029779699122057416
864.0, 0.037884579019463724
865.0, 0.06457310127205193
866.0, 0.03392910423228197
867.0, 0.017960532762339707
868.0, 0.025380557079689992
869.0, 0.030212814367435486
870.0, 0.029489454203969954
871.0, 0.034922123335587224
872.0, 0.02195889184278978
873.0, 0.028880156912470804
874.0, 0.014777976359011348
875.0, 0.012711429515348241
876.0, 0.037970883178809346
877.0, 0.054338054569018024
878.0, 0.03387958945171787
879.0, 0.04214290976426686
880.0, 0.027275665376552852
881.0, 0.013942487197559285
882.0, 0.014198851747020515
883.0, 0.0065693146250728335
884.0, 0.0038843232035962933
885.0, 0.0046866490824324526
886.0, 0.002592121114360638
887.0, 0.01806744577516062
888.0, 0.022040590480851614
889.0, 0.013014085925120187
890.0, 0.0069709587212939475
891.0, 0.013829761856209766
892.0, 0.007538783676189629
893.0, 0.008208153326913704
894.0, 0.02727814655626104
895.0, 0.0053204782391459
896.0, 0.0028168522921354997
897.0, 0.009025271899037228
898.0, 0.012121848115289716
899.0, 0.004684857365919729
900.0, 0.010535518356724716
901.0, 0.017962935910248123
902.0, 0.011182556267988154
903.0, 0.03150097093653505
904.0, 0.02102246023675388
905.0, 0.010771922146875532
906.0, 0.026316915274750694
907.0, 0.03505688229423852
908.0, 0.012679917135807722
909.0, 0.031009581133459564
910.0, 0.035698181056633596
911.0, 0.04576208538193104
912.0, 0.058553568260913395
913.0, 0.07936227419444992
914.0, 0.07990842921667521
915.0, 0.06426602472799198
916.0, 0.0788371397767546
917.0, 0.09632103459736216
918.0, 0.1321001807229295
919.0, 0.12223054936403173
920.0, 0.1250021109067032
921.0, 0.13316237957493116
922.0, 0.14947359058553972
923.0, 0.18029875300312448
924.0, 0.1784060305601464
925.0, 0.16469379867670886
926.0, 0.2052941986767654
927.0, 0.2049306907373225
928.0, 0.17114166557915428
929.0, 0.1581934320981253
930.0, 0.16077238137218322
931.0, 0.14874908811997342
932.0, 0.1401146069608709
933.0, 0.1235572683732534
934.0, 0.13148099046539943
935.0, 0.11274513600622327
936.0, 0.09634482426800309
937.0, 0.10447758046454568
938.0, 0.10284907516855182
939.0, 0.08114812586322988
940.0, 0.09643522329073781
941.0, 0.09248661679296187
942.0, 0.08710549595328623
943.0, 0.09292465799994097
944.0, 0.10057193432655669
945.0, 0.099052395777416
946.0, 0.10232410309992807
947.0, 0.1226584054941234
948.0, 0.11878187820591866
949.0, 0.10695783267286552
950.0, 0.10371497566042064
951.0, 0.10121663589706494
952.0, 0.11676709092888975
953.0, 0.1408413354888052
954.0, 0.1285326742069941
955.0, 0.09098933096724543
956.0, 0.10679515877558919
957.0, 0.09649383508077436
958.0, 0.08259477209052003
959.0, 0.10348398153493811
960.0, 0.10538439128308084
961.0, 0.0884851860030064
962.0, 0.08309472378725184
963.0, 0.09178923286827313
964.0, 0.10358487090435968
965.0, 0.1182452873043871
966.0, 0.09845068346899283
967.0, 0.10861661483532946
968.0, 0.12473520821551373
969.0, 0.1162126299259196
970.0, 0.11351727430788415
971.0, 0.12494384996364048
972.0, 0.10534207064911183
973.0, 0.09153764258501991
974.0, 0.05936710330799683
975.0, 0.06381715598768965
976.0, 0.0478491267357769
977.0, 0.03309866389148088
978.0, 0.03904722057547456
979.0, 0.04551824620900737
980.0, 0.04294140643440088
981.0, 0.03674628363537528
982.0, 0.03252958196854314
983.0, 0.02650567648859019
984.0, 0.023285492999561147
985.0, 0.032911613579364764
986.0, 0.045983009317826715
987.0, 0.05947586730428383
988.0, 0.06501660997705722
989.0, 0.04636623919801753
990.0, 0.08265709193595581
991.0, 0.09732078943329052
992.0, 0.11664815304226916
993.0, 0.12644206551203482
994.0, 0.12939911674439597
995.0, 0.14429804501412988
996.0, 0.1772265633347403
997.0, 0.21483533048294293
998.0, 0.23554870719714216
999.0, 0.24176605952625113
1000.0, 0.23654873697381787
1001.0, 0.2472039635012753
1002.0, 0.2324795480755546
1003.0, 0.20472126072300462
1004.0, 0.19352762910393753
1005.0, 0.18420063335151937
1006.0, 0.15917867016790493
1007.0, 0.14211877112557733
1008.0, 0.10052543894738482
1009.0, 0.07232929249351071
1010.0, 0.0674254761060671
1011.0, 0.049588368562885655
1012.0, 0.03241127989315191
1013.0, 0.033341667701012156
1014.0, 0.031414475302811634
1015.0, 0.027133009089707536
1016.0, 0.015117819384204608
1017.0, 0.0018165952173185428
1018.0, 0.015075804664913707
1019.0, 0.006461264798709936
1020.0, 0.0042661447532529526
1021.0, 0.003992127011524596
1022.0, 0.00510286670209556
1023.0, 0.0011019992945795545
1024.0, 0.002147788998921054
1025.0, 0.009243774790712523
1026.0, 0.03220630797472308
1027.0, 0.0055925399927749895
1028.0, 0.005550571921040735
1029.0, 0.03159631595210029
1030.0, 0.03899210918888356
1031.0, 0.027874094439505524
1032.0, 0.009150283988840244
1033.0, 0.011401060030674873
1034.0, 0.02115465326109888
1035.0, 0.022280978208691654
1036.0, 0.01826815307122229
1037.0, 0.027804327562776118
1038.0, 0.03011564736412025
1039.0, 0.05185049516095138
1040.0, 0.0753610689541121
1041.0, 0.019765172349077643
1042.0, 0.0021001250882338647
1043.0, 0.026670429726241864
1044.0, 0.036205049492581465
1045.0, 0.029198246405854347
1046.0, 0.024819479842057773
1047.0, 0.020215399415831874
1048.0, 0.031526609967437794
1049.0, 0.053030113678325254
1050.0, 0.05097971067611382
1051.0, 0.04470685561691008
1052.0, 0.0651985868815119
1053.0, 0.04928212010125805
1054.0, 0.04396231390347461
1055.0, 0.01818121414953322
1056.0, 0.02624057746178072
1057.0, 0.043348438778827846
1058.0, 0.03236351404680004
1059.0, 0.024295575468480463
1060.0, 0.014339431774701991
1061.0, 0.018825513552204583
1062.0, 0.00560733812378817
1063.0, 0.008857354235594354
1064.0, 0.0020510328744515007
1065.0, 0.013438044798575313
1066.0, 0.01562191066139652
1067.0, 0.012016253933903534
1068.0, 0.0246590224496913
1069.0, 0.008378716929599976
1070.0, 0.004014590294672648
1071.0, 0.01786230135549432
1072.0, 0.01414613930631679
1073.0, 0.019083220656073048
1074.0, 0.033610494075387326
1075.0, 0.022275510780115436
1076.0, 0.01397134906860168
1077.0, 0.017127779900334792
1078.0, 0.004718723808028837
1079.0, 0.013512395664894677
1080.0, 0.00787406193250751
1081.0, 0.017706667177035885
1082.0, 0.013311289678506831
1083.0, 0.0086225810573087
1084.0, 0.005837496428036346
1085.0, 0.007114635293443333
1086.0, 0.013709310465478857
1087.0, 0.03677303056653963
1088.0, 0.02482681600137239
1089.0, 0.024031941852607354
1090.0, 0.07177867854009361
1091.0, 0.005239869959177556
1092.0, 0.014581209581925197
1093.0, 0.030935239254609777
1094.0, 0.023487743906039412
1095.0, 0.0207122061631577
1096.0, 0.035477784720876426
1097.0, 0.05523258402410991
1098.0, 0.06074771022676494
1099.0, 0.0481640325038864
1100.0, 0.055782494041792745
1101.0, 0.04628136236035761
1102.0, 0.03742562462416392
1103.0, 0.04985021672962481
1104.0, 0.03355800693908314
1105.0, 0.02656487327861755
1106.0, 0.05194816313478145
1107.0, 0.06326618364454922
1108.0, 0.05416377237296964
1109.0, 0.05582900914163838
1110.0, 0.06736571756682051
1111.0, 0.04441657360602126
1112.0, 0.02200381450400405
1113.0, 0.042185235724040496
1114.0, 0.03925599267301843
1115.0, 0.022737683016756365
1116.0, 0.030089999941029587
1117.0, 0.036698314452740737
1118.0, 0.0344828995187984
1119.0, 0.05502725367388963
1120.0, 0.03736843239285247
1121.0, 0.06511666960143064
1122.0, 0.03470790643836189
1123.0, 0.02334059142279123
1124.0, 0.02991739970997831
1125.0, 0.02921043681061194
1126.0, 0.02552236190722218
1127.0, 0.027626543385357857
1128.0, 0.03198946690403885
1129.0, 0.037433555101778794
1130.0, 0.0535031340749547
1131.0, 0.07626440893115828
1132.0, 0.06211359831322576
1133.0, 0.04722865768245331
1134.0, 0.03283452665627843
1135.0, 0.04372466079030949
1136.0, 0.05331105540798307
1137.0, 0.04936720145032207
1138.0, 0.05164706068528459
1139.0, 0.04033862128487595
1140.0, 0.03577921509462421
1141.0, 0.015758702374750976
1142.0, 0.021330173922595706
1143.0, 0.042030891239594984
1144.0, 0.019840149865500666
1145.0, 0.026731257506790534
1146.0, 0.007165987155679074
1147.0, 0.006340737092214614
1148.0, 0.026850513434003784
1149.0, 0.01916551217646754
1150.0, 0.016045732479849844
1151.0, 0.020088050903014756
1152.0, 0.012269755519421834
1153.0, 0.037369697074278584
1154.0, 0.03048375970826104
1155.0, 0.04456043423276747
1156.0, 0.05058346391286142
1157.0, 0.045207902864466375
1158.0, 0.04341680331432361
1159.0, 0.035414438783965066
1160.0, 0.03580277200228249
1161.0, 0.06605773661342468
1162.0, 0.038289414062369576
1163.0, 0.057910897535459575
1164.0, 0.04876560982813972
1165.0, 0.025892449824269238
1166.0, 0.03541425526463774
1167.0, 0.015990046398630168
1168.0, 0.008204460519906157
1169.0, 0.01588146061724327
1170.0, 0.006397480584107271
1171.0, 0.020410836538002637
1172.0, 0.04368147083067713
1173.0, 0.04015999093633075
1174.0, 0.06383762116309766
1175.0, 0.07937337574212983
1176.0, 0.06289314302425945
1177.0, 0.06330023014443951
1178.0, 0.06481277836545356
1179.0, 0.059012749726513346
1180.0, 0.038886422970894695
1181.0, 0.026632808568767093
1182.0, 0.045523993135478065
1183.0, 0.026756004605520394
1184.0, 0.03525674646530119
1185.0, 0.04871779450698458
1186.0, 0.05202136666617627
1187.0, 0.04000097645115881
1188.0, 0.031137911818270497
1189.0, 0.03927118166492156
1190.0, 0.029779612153684524
1191.0, 0.02740814326073287
1192.0, 0.03916297180620877
1193.0, 0.03034475011841419
1194.0, 0.016611643164927813
1195.0, 0.01767964447144673
1196.0, 0.011423802047268204
1197.0, 0.006609929605911345
1198.0, 0.013153285673720958
1199.0, 0.018214227697862018
1200.0, 0.02059701561836106
1201.0, 0.0009867635069768614
1202.0, 0.0019652036881051224
1203.0, 0.0129196962285809
1204.0, 0.010676283355732574
1205.0, 0.016300514461631
1206.0, 0.03813693374816247
1207.0, 0.03339689149081749
1208.0, 0.004170988454296737
1209.0, 0.010484179102385452
1210.0, 0.01900961140784899
1211.0, 0.03717440269717013
1212.0, 0.03515265077155967
1213.0, 0.007857539619158268
1214.0, 0.02104938002014285
1215.0, 0.030280985009866198
1216.0, 0.02360217452087542
1217.0, 0.025992681752322375
1218.0, 0.02164271007579757
1219.0, 0.043741333448521096
1220.0, 0.017545047050623555
1221.0, 0.01061185062420553
1222.0, 0.004621205859123137
1223.0, 0.004301370812551056
1224.0, 0.01713395516407319
1225.0, 0.03145692214500787
1226.0, 0.018849515562139332
1227.0, 0.015313836128167701
1228.0, 0.02227134176951731
1229.0, 0.022340976065478177
1230.0, 0.027017049793237907
1231.0, 0.025697725484054967
1232.0, 0.036027037115931304
1233.0, 0.030019935466022586
1234.0, 0.019016062184778942
1235.0, 0.039153700108343056
1236.0, 0.025315346907663547
1237.0, 0.022862038114396962
1238.0, 0.02192835852815287
1239.0, 0.03133966550890726
1240.0, 0.030542519687844966
1241.0, 0.029420253559631026
1242.0, 0.04144203536919542
1243.0, 0.04006499991772458
1244.0, 0.03294172957859386
1245.0, 0.04474450292284548
1246.0, 0.03441403991047007
1247.0, 0.055252820496023154
1248.0, 0.030451982503125034
1249.0, 0.0047799707904025305
1250.0, 0.0036156062280148747
1251.0, 0.008443793091355272
1252.0, 0.02044338770475098
1253.0, 0.008386008790068612
1254.0, 0.0017180867561237692
1255.0, 0.029540001196573122
1256.0, 0.052330142921506576
1257.0, 0.02676424322041976
1258.0, 0.01809324452571677
1259.0, 0.03270887375336838
1260.0, 0.048226973485124426
1261.0, 0.016718090627454683
1262.0, 0.01302737439007262
1263.0, 0.0037038999838218747
1264.0, 0.004580448242536241
1265.0, 0.010180116384977718
1266.0, 0.010090923462927656
1267.0, 0.018664591596124255
1268.0, 0.014076395884425396
1269.0, 0.002336423395030625
1270.0, 0.012664990584377232
1271.0, 0.03075938969397465
1272.0, 0.03943304687783883
1273.0, 0.03392255710892627
1274.0, 0.02871247676750906
1275.0, 0.011734696831342052
1276.0, 0.015471242734656642
1277.0, 0.0098354142894741
1278, 0.0
1279, 0.0
1280, 0.0
1281, 0.0
1282, 0.0
1283, 0.0
1284, 0.0
1285, 0.0
1286, 0.0
1287, 0.0
1288, 0.0
1289, 0.0
1290, 0.0
1291, 0.0
1292, 0.0
1293, 0.0
1294, 0.0
1295, 0.0
1296, 0.0
1297, 0.0
1298, 0.0
1299, 0.0
1300, 0.0
1301, 0.0
1302, 0.0
1303, 0.0
1304, 0.0
1305, 0.0
1306, 0.0
1307, 0.0
1308, 0.0
1309, 0.0
1310, 0.0
1311, 0.0
1312, 0.0
1313, 0.0
1314, 0.0
1315, 0.0
1316, 0.0
1317, 0.0
1318, 0.0
1319, 0.0
1320, 0.0
1321, 0.0
1322, 0.0
1323, 0.0
1324, 0.0
1325, 0.0
1326, 0.0
1327, 0.0
1328, 0.0
1329, 0.0
1330, 0.0
1331, 0.0
1332, 0.0
1333, 0.0
1334, 0.0
1335, 0.0
1336, 0.0
1337, 0.0
1338, 0.0
1339, 0.0
1340, 0.0
1341, 0.0
1342, 0.0
1343, 0.0
1344, 0.0
1345, 0.0
1346, 0.0
1347, 0.0
1348, 0.0
1349, 0.0
1350, 0.0
1351, 0.0
1352, 0.0
1353, 0.0
1354, 0.0
1355, 0.0
1356, 0.0
1357, 0.0
1358, 0.0
1359, 0.0
1360, 0.0
1361, 0.0
1362, 0.0
1363, 0.0
1364, 0.0
1365, 0.0
1366, 0.0
1367, 0.0
1368, 0.0
1369, 0.0
1370, 0.0
1371, 0.0
1372, 0.0
1373, 0.0
1374, 0.0
1375, 0.0
1376, 0.0
1377, 0.0
1378, 0.0
1379, 0.0
1380, 0.0
1381, 0.0
1382, 0.0
1383, 0.0
1384, 0.0
1385, 0.0
1386, 0.0
1387, 0.0
1388, 0.0
1389, 0.0
1390, 0.0
1391, 0.0
1392, 0.0
1393, 0.0
1394, 0.0
1395, 0.0
1396, 0.0
1397, 0.0
1398, 0.0
1399, 0.0
1400, 0.0
1401, 0.0
1402, 0.0
1403, 0.0
1404, 0.0
1405, 0.0
1406, 0.0
1407, 0.0
1408, 0.0
1409, 0.0
1410, 0.0
1411, 0.0
1412, 0.0
1413, 0.0
1414, 0.0
1415, 0.0
1416, 0.0
1417, 0.0
1418, 0.0
1419, 0.0
1420, 0.0
1421, 0.0
1422, 0.0
1423, 0.0
1424, 0.0
1425, 0.0
1426, 0.0
1427, 0.0
1428, 0.0
1429, 0.0
1430, 0.0
1431, 0.0
1432, 0.0
1433, 0.0
1434, 0.0
1435, 0.0
1436, 0.0
1437, 0.0
1438, 0.0
1439, 0.0
1440, 0.0
1441, 0.0
1442, 0.0
1443, 0.0
1444, 0.0
1445, 0.0
1446, 0.0
1447, 0.0
1448, 0.0
1449, 0.0
1450, 0.0
1451, 0.0
1452, 0.0
1453, 0.0
1454, 0.0
1455, 0.0
1456, 0.0
1457, 0.0
1458, 0.0
1459, 0.0
1460, 0.0
1461, 0.0
1462, 0.0
1463, 0.0
1464, 0.0
1465, 0.0
1466, 0.0
1467, 0.0
1468, 0.0
1469, 0.0
1470, 0.0
1471, 0.0
1472, 0.0
1473, 0.0
1474, 0.0
1475, 0.0
1476, 0.0
1477, 0.0
1478, 0.0
1479, 0.0
1480, 0.0
1481, 0.0
1482, 0.0
1483, 0.0
1484, 0.0
1485, 0.0
1486, 0.0
1487, 0.0
1488, 0.0
1489, 0.0
1490, 0.0
1491, 0.0
1492, 0.0
1493, 0.0
1494, 0.0
1495, 0.0
1496, 0.0
1497, 0.0
1498, 0.0
1499, 0.0
1500, 0.0
1501, 0.0
1502, 0.0
1503, 0.0
1504, 0.0
1505, 0.0
1506, 0.0
1507, 0.0
1508, 0.0
1509, 0.0
1510, 0.0
1511, 0.0
1512, 0.0
1513, 0.0
1514, 0.0
1515, 0.0
1516, 0.0
1517, 0.0
1518, 0.0
1519, 0.0
1520, 0.0
1521, 0.0
1522, 0.0
1523, 0.0
1524, 0.0
1525, 0.0
1526, 0.0
1527, 0.0
1528, 0.0
1529, 0.0
1530, 0.0
1531, 0.0
1532, 0.0
1533, 0.0
1534, 0.0
1535, 0.0
1536, 0.0
1537, 0.0
1538, 0.0
1539, 0.0
1540, 0.0
1541, 0.0
1542, 0.0
1543, 0.0
1544, 0.0
1545, 0.0
1546, 0.0
1547, 0.0
1548, 0.0
1549, 0.0
1550, 0.0
1551, 0.0
1552, 0.0
1553, 0.0
1554, 0.0
1555, 0.0
1556, 0.0
1557, 0.0
1558, 0.0
1559, 0.0
1560, 0.0
1561, 0.0
1562, 0.0
1563, 0.0
1564, 0.0
1565, 0.0
1566, 0.0
1567, 0.0
1568, 0.0
1569, 0.0
1570, 0.0
1571, 0.0
1572, 0.0
1573, 0.0
1574, 0.0
1575, 0.0
1576, 0.0
1577, 0.0
1578, 0.0
1579, 0.0
1580, 0.0
1581, 0.0
1582, 0.0
1583, 0.0
1584, 0.0
1585, 0.0
1586, 0.0
1587, 0.0
1588, 0.0
1589, 0.0
1590, 0.0
1591, 0.0
1592, 0.0
1593, 0.0
1594, 0.0
1595, 0.0
1596, 0.0
1597, 0.0
1598, 0.0
1599, 0.0
