30, 0.0
31, 0.0
32, 0.0
33, 0.0
34, 0.0
35, 0.0
36, 0.0
37, 0.0
38, 0.0
39, 0.0
40, 0.0
41, 0.0
42, 0.0
43, 0.0
44, 0.0
45, 0.0
46, 0.0
47, 0.0
48, 0.0
49, 0.0
50, 0.0
51, 0.0
52, 0.0
53, 0.0
54, 0.0
55.0, 0.0001553569203449779
56.0, 0.004724678106962123
57.0, 0.006910106443339279
58.0, 0.008392054446832754
59.0, 0.012044612752900844
60.0, 0.011497445037339802
61.0, 0.012218847771737266
62.0, 0.015513891824566518
63.0, 0.015717597182535754
64.0, 0.015214428270720089
65.0, 0.01372739618010081
66.0, 0.010404104697937764
67.0, 0.010375778643375091
68.0, 0.010416978931121793
69.0, 0.009782924904398927
70.0, 0.009161447048135712
71.0, 0.008915237003154611
72.0, 0.008297776770831527
73.0, 0.005990175517649516
74.0, 0.005659131881421409
75.0, 0.004893181030849133
76.0, 0.003240226961786924
77.0, 0.0017935915585372852
78.0, 0.0013782240476874104
79.0, 0.001413584009622115
80.0, 0.0012764227347245242
81.0, 0.0009451192785863273
82.0, 0.0013495935852750102
83.0, 0.0025484534787572027
84.0, 0.0033539395999153394
85.0, 0.001985455270689029
86.0, 0.0004342837732756171
87.0, 0.000800831665785529
88.0, 0.0006334668501379508
89.0, 0.0040044337173273745
90.0, 0.010254490501476128
91.0, 0.01114748217885026
92.0, 0.013249876566606941
93.0, 0.013894433918923763
94.0, 0.010459317341412241
95.0, 0.009263889418888548
96.0, 0.006898213955888157
97.0, 0.0034817997644268316
98.0, 0.0007612546241204745
99.0, 0.00043906505415889686
100.0, 0.0006881642954247239
101.0, 0.0005167957894904713
102.0, 0.0017399545248002381
103.0, 0.0013819855012717024
104.0, 7.977298915024445e-05
105.0, 4.3118463620543015e-05
106.0, 0.0017198687421055641
107.0, 0.002712394413231679
108.0, 0.001975863410027627
109.0, 0.004751557639491018
110.0, 0.0034190857127528477
111.0, 0.0004520257771784001
112.0, 0.0008263622805459421
113.0, 0.0005552906314111772
114.0, 0.000755917922561939
115.0, 0.0016739532975634111
116.0, 0.0017416318509682058
117.0, 0.0017614466607182645
118.0, 0.0014570380375458544
119.0, 0.00034648973689842375
120.0, 0.0002561771628612289
121.0, 0.00022635090289109433
122.0, 0.00017903260086556415
123.0, 0.000674645205056874
124.0, 0.0005438389972779673
125.0, 0.0004147457871236259
126.0, 0.0008103486806366359
127.0, 0.0006137568833535109
128.0, 0.0004499595739706789
129.0, 0.0003536458598467789
130.0, 0.0002971932954466208
131.0, 0.0010517521457002418
132.0, 0.0018616761109693173
133.0, 0.0023774281791395287
134.0, 0.0031053786919960635
135.0, 0.003826231410258679
136.0, 0.004515887673742524
137.0, 0.00511407991438012
138.0, 0.006618944351569401
139.0, 0.007586792386015883
140.0, 0.007763416010310173
141.0, 0.009167334297911578
142.0, 0.010118874447547223
143.0, 0.010572425355554346
144.0, 0.010338520539572607
145.0, 0.011661992888531592
146.0, 0.012577601700996706
147.0, 0.012910850380436541
148.0, 0.012880684144369499
149.0, 0.013008586279801742
150.0, 0.01330960144474024
151.0, 0.013820120632790476
152.0, 0.013931250391284733
153.0, 0.013514306273049054
154.0, 0.013243617272379743
155.0, 0.014822146451073586
156.0, 0.014816603232987708
157.0, 0.014116660308085328
158.0, 0.013004116042845675
159.0, 0.012598548290478686
160.0, 0.012173059551054223
161.0, 0.011960077175207022
162.0, 0.012277559176132076
163.0, 0.011070585065922484
164.0, 0.01071486687327683
165.0, 0.011264666562156956
166.0, 0.011931602103725524
167.0, 0.011032659275351188
168.0, 0.009618411105600374
169.0, 0.008152284724534211
170.0, 0.008358785296838925
171.0, 0.008697576457073215
172.0, 0.009312862838181293
173.0, 0.010550366677078513
174.0, 0.012745456277504693
175.0, 0.015329692907333528
176.0, 0.018304730514267623
177.0, 0.02257824206723674
178.0, 0.02585897297108756
179.0, 0.028969361320675402
180.0, 0.03252131352189514
181.0, 0.037184897468822135
182.0, 0.04147628587356765
183.0, 0.04523579927554942
184.0, 0.048097599031765095
185.0, 0.04827347070858069
186.0, 0.048212059010174224
187.0, 0.048476891308601874
188.0, 0.04652896053993768
189.0, 0.04250528020776507
190.0, 0.03780511789367459
191.0, 0.03378876181014207
192.0, 0.03186748727034655
193.0, 0.02962334936673743
194.0, 0.026965488738720008
195.0, 0.024297918760083807
196.0, 0.024404328249302016
197.0, 0.023936256963644625
198.0, 0.021743491720351095
199.0, 0.022827984694306837
200.0, 0.024432429280025616
201.0, 0.02586888376757928
202.0, 0.02620109755393742
203.0, 0.02822127125159509
204.0, 0.030448377346969986
205.0, 0.032668734764109024
206.0, 0.03468708526793947
207.0, 0.03740104311228099
208.0, 0.0393072116436087
209.0, 0.039630755133962615
210.0, 0.036703848648874625
211.0, 0.034994144048529685
212.0, 0.03298896222422005
213.0, 0.028536536787881903
214.0, 0.026478167913843123
215.0, 0.02358123633349169
216.0, 0.019735382777276166
217.0, 0.016057606580977695
218.0, 0.013492001942269443
219.0, 0.012089581476658626
220.0, 0.011916516807392287
221.0, 0.011347829921092057
222.0, 0.01028777913744339
223.0, 0.008967821574565046
224.0, 0.007633758280069578
225.0, 0.007651153153624154
226.0, 0.007261694876098085
227.0, 0.006473408917783849
228.0, 0.005969652514513164
229.0, 0.006257917098712318
230.0, 0.006451567781190757
231.0, 0.006234223053018265
232.0, 0.005924680136144513
233.0, 0.005885169223088491
234.0, 0.006078935673041882
235.0, 0.006511315133940246
236.0, 0.006400250446185182
237.0, 0.007641941371130555
238.0, 0.009538726801197838
239.0, 0.009742143322238389
240.0, 0.008492719603582536
241.0, 0.00849297016483636
242.0, 0.010101356157113321
243.0, 0.008897799543827384
244.0, 0.009660149327717475
245.0, 0.009943997105390963
246.0, 0.007824344381175487
247.0, 0.007868908299862224
248.0, 0.007766706146223038
249.0, 0.007113750448057391
250.0, 0.005111051149291151
251.0, 0.006284972613978696
252.0, 0.006714660749850694
253.0, 0.0059043692792225475
254.0, 0.0050426900113911335
255.0, 0.004867255186354033
256.0, 0.004869268510425211
257.0, 0.004847044486510428
258.0, 0.005922445459891048
259.0, 0.0069178540646238
260.0, 0.007650301255597919
261.0, 0.0078450728216227
262.0, 0.007797630564585605
263.0, 0.007474680161481422
264.0, 0.006874970960895796
265.0, 0.005963503991288224
266.0, 0.0064901872838118695
267.0, 0.007420051119664801
268.0, 0.008322141822489462
269.0, 0.007825499345661803
270.0, 0.009589461854432458
271.0, 0.011205959256454266
272.0, 0.011058820131260154
273.0, 0.013750885618201508
274.0, 0.01585115110780062
275.0, 0.01755301005611175
276.0, 0.01912886886688161
277.0, 0.019881988101301415
278.0, 0.020996211184454563
279.0, 0.022345649012416535
280.0, 0.022953393905181762
281.0, 0.02155634857055866
282.0, 0.02098988401735045
283.0, 0.02186218608063663
284.0, 0.020489345906004715
285.0, 0.020041029683007888
286.0, 0.01924842313559554
287.0, 0.017161626653531232
288.0, 0.017802185047641528
289.0, 0.017686803740059986
290.0, 0.016931169648589067
291.0, 0.01568492914455633
292.0, 0.01418904443241083
293.0, 0.013426752222388863
294.0, 0.013181838602600741
295.0, 0.01235087540901471
296.0, 0.01213252785143489
297.0, 0.011737988653086376
298.0, 0.010978362087894716
299.0, 0.010302634808573212
300.0, 0.009369395171321149
301.0, 0.009073452885455973
302.0, 0.00998969506539951
303.0, 0.009591809913668606
304.0, 0.009184751002087078
305.0, 0.008817508678059761
306.0, 0.008559206303070955
307.0, 0.00894329043058295
308.0, 0.009313032724501926
309.0, 0.009695937048228263
310.0, 0.010300066438329696
311.0, 0.011137349171281242
312.0, 0.011993419270206898
313.0, 0.012837863950325242
314.0, 0.013748783660286496
315.0, 0.014755463615196265
316.0, 0.015553957516883007
317.0, 0.01604994607395991
318.0, 0.016979778491444733
319.0, 0.017727833691673585
320.0, 0.018178151146694774
321.0, 0.01820667906810433
322.0, 0.016121142635526237
323.0, 0.016201132512463946
324.0, 0.016847606540436523
325.0, 0.015515961671577523
326.0, 0.01492945348130748
327.0, 0.014533725443835547
328.0, 0.014274337488376128
329.0, 0.01417642268602311
330.0, 0.013795448072484739
331.0, 0.013857726553777167
332.0, 0.01430252737183061
333.0, 0.013843672632487657
334.0, 0.014650054264684612
335.0, 0.015137284252828107
336.0, 0.014722370039306992
337.0, 0.014869519631797648
338.0, 0.014363840164746533
339.0, 0.013755873753028352
340.0, 0.013446031345939257
341.0, 0.012631976693892617
342.0, 0.011908510912545151
343.0, 0.01176505023912434
344.0, 0.012907539491279017
345.0, 0.011571449985038054
346.0, 0.011078572113006871
347.0, 0.011268006838368544
348.0, 0.011340821117714587
349.0, 0.01006603057352581
350.0, 0.00978040012963383
351.0, 0.01040220518154546
352.0, 0.010234743956956841
353.0, 0.011076032886377055
354.0, 0.011798015798101698
355.0, 0.012105407080967965
356.0, 0.012250435005369747
357.0, 0.01206860587946323
358.0, 0.011917007663243773
359.0, 0.01192265768443977
360.0, 0.011363640397749977
361.0, 0.010576739859657167
362.0, 0.010318808484970785
363.0, 0.011184029386995217
364.0, 0.00947159033540091
365.0, 0.009550617824395884
366.0, 0.01031657888391312
367.0, 0.010469963525434481
368.0, 0.011534096731176818
369.0, 0.012751637369483084
370.0, 0.014028179267512583
371.0, 0.01526891868905595
372.0, 0.017311999492688065
373.0, 0.019042604476209726
374.0, 0.020671379802388964
375.0, 0.02317380248857262
376.0, 0.02557123122724784
377.0, 0.027810686112050002
378.0, 0.029510884792064054
379.0, 0.029036133940665357
380.0, 0.02941028641166805
381.0, 0.028005673606315607
382.0, 0.024575781471033488
383.0, 0.02354569037797398
384.0, 0.0241210039998612
385.0, 0.02435717597801818
386.0, 0.02347147972748656
387.0, 0.02327678350090466
388.0, 0.025355413749491906
389.0, 0.02862019159673874
390.0, 0.03230028499224088
391.0, 0.032462136853857335
392.0, 0.03503426816524997
393.0, 0.03657726015218576
394.0, 0.03381680821519459
395.0, 0.03447956859054758
396.0, 0.03312886353551393
397.0, 0.030421055277370584
398.0, 0.027211065037517974
399.0, 0.023309747308223935
400.0, 0.018559491602405637
401.0, 0.013806096133982817
402.0, 0.01054878382872094
403.0, 0.006202540164021719
404.0, 0.0029763535711527706
405.0, 0.0015345902432429793
406.0, 0.0030651388715915717
407.0, 0.0015225039972257917
408.0, 0.000585947297199525
409.0, 0.001039898649503823
410.0, 0.0036416996609303417
411.0, 0.004229786466258571
412.0, 0.005177912964864318
413.0, 0.006725200700292591
414.0, 0.007780649635110461
415.0, 0.008340256857049354
416.0, 0.009421908287047063
417.0, 0.011087246132342582
418.0, 0.012083201463630235
419.0, 0.011849390521591268
420.0, 0.011091860660743736
421.0, 0.010192450157013916
422.0, 0.010150319253193695
423.0, 0.009858632160952436
424.0, 0.008442176878674223
425.0, 0.005963875629879692
426.0, 0.007382196870636855
427.0, 0.008016511003359173
428.0, 0.0078057315306451994
429.0, 0.006885271770711614
430.0, 0.00818217141340304
431.0, 0.007250366474002015
432.0, 0.006403314184913007
433.0, 0.0069155097857142335
434.0, 0.003226691655148071
435.0, 0.0011607453449856474
436.0, 0.0005311478466917339
437.0, 0.0011947134087180054
438.0, 0.0007902216561424893
439.0, 0.0016351575162708897
440.0, 0.002089929175122516
441.0, 0.0006929048932067976
442.0, 0.0021455232041198606
443.0, 0.002230942187483208
444.0, 0.002627772241748999
445.0, 0.00507666282729396
446.0, 0.0037565308522032916
447.0, 0.002668233663395018
448.0, 0.0018337354794172728
449.0, 0.001234176648733919
450.0, 0.0011360244446783395
451.0, 0.0013584310623987077
452.0, 0.0013379655029883658
453.0, 0.0003491068191984112
454.0, 0.001836605647534469
455.0, 0.003994045205920746
456.0, 0.0058910767658702035
457.0, 0.006320230150489441
458.0, 0.008088801212268296
459.0, 0.008579901069563564
460.0, 0.008581031480956871
461.0, 0.009431344797057966
462.0, 0.012290706033729067
463.0, 0.014364832381678056
464.0, 0.015620566647664034
465.0, 0.016222395917577185
466.0, 0.01589990130204248
467.0, 0.01715535740634135
468.0, 0.019164351175136107
469.0, 0.020343450028471637
470.0, 0.01924243014356031
471.0, 0.019813672168511917
472.0, 0.021557454228661954
473.0, 0.02322143041182712
474.0, 0.023762297202117883
475.0, 0.025859532303034723
476.0, 0.028025148600421292
477.0, 0.027426101936933796
478.0, 0.029537242779777925
479.0, 0.03172250026072942
480.0, 0.03407644626960563
481.0, 0.03709413600446499
482.0, 0.03894894288475061
483.0, 0.0418186590472591
484.0, 0.04548106139013041
485.0, 0.04934692936289452
486.0, 0.05054586919808376
487.0, 0.05333910919036053
488.0, 0.056566138136836405
489.0, 0.057968433059137375
490.0, 0.05963845684503935
491.0, 0.061211733166961164
492.0, 0.06253398252570634
493.0, 0.06340017440144519
494.0, 0.06329874679364492
495.0, 0.06433136136980104
496.0, 0.06580640589410465
497.0, 0.06662025112024951
498.0, 0.06574516474518058
499.0, 0.06675900839573136
500.0, 0.06871881304938018
501.0, 0.07023518595323652
502.0, 0.07180229349691976
503.0, 0.07122627272933588
504.0, 0.07035746250567065
505.0, 0.07142991939693917
506.0, 0.06988466261870382
507.0, 0.06959656735014395
508.0, 0.06925605544529512
509.0, 0.06743775246001191
510.0, 0.06678754233379418
511.0, 0.06666567222666653
512.0, 0.06611022648084901
513.0, 0.06427680978508685
514.0, 0.06422054989109241
515.0, 0.06404421873874937
516.0, 0.06435453732216989
517.0, 0.06554113665704984
518.0, 0.06478992699609136
519.0, 0.06763739188859308
520.0, 0.0715438431281931
521.0, 0.07457572726714855
522.0, 0.07421742237951355
523.0, 0.07805366516049739
524.0, 0.08298521683470851
525.0, 0.08730776385218088
526.0, 0.09237474098463405
527.0, 0.09556301787834282
528.0, 0.09962752118470417
529.0, 0.10571893134073047
530.0, 0.11209149467095206
531.0, 0.11913575088665666
532.0, 0.12567582083699813
533.0, 0.13135269142311515
534.0, 0.13687457517720644
535.0, 0.14037659800711522
536.0, 0.14310659901655853
537.0, 0.14528592761842593
538.0, 0.14612484895737474
539.0, 0.144002632419389
540.0, 0.1409649346923926
541.0, 0.13738250486644482
542.0, 0.13277477866247095
543.0, 0.12469009595337602
544.0, 0.11765044101569416
545.0, 0.11188464835714394
546.0, 0.10580660737784639
547.0, 0.10124993248145958
548.0, 0.09616748559323386
549.0, 0.09054816752434773
550.0, 0.0848928649037736
551.0, 0.08146037449038054
552.0, 0.07785142849758214
553.0, 0.07320224813125943
554.0, 0.06651592133572647
555.0, 0.06198822002373431
556.0, 0.05829942887208262
557.0, 0.0550410088601525
558.0, 0.05180529908325639
559.0, 0.04954216348835142
560.0, 0.04796681518114923
561.0, 0.046283689620642214
562.0, 0.04395002411452251
563.0, 0.04400266654440754
564.0, 0.0439179933493426
565.0, 0.04334161225909099
566.0, 0.04230101046111795
567.0, 0.04331389080331811
568.0, 0.0455922127757048
569.0, 0.04624537547535628
570.0, 0.04519183089952203
571.0, 0.04974089142052859
572.0, 0.04988692997061918
573.0, 0.04978146503044776
574.0, 0.05018766907569699
575.0, 0.04904812162845639
576.0, 0.04995649823586941
577.0, 0.05013318642585259
578.0, 0.04937063659287196
579.0, 0.04860694196583681
580.0, 0.048255488260076966
581.0, 0.049148839662058116
582.0, 0.05098503112657182
583.0, 0.05306389594397919
584.0, 0.05649592397194767
585.0, 0.061019092978307134
586.0, 0.06507394755703463
587.0, 0.06685274658847758
588.0, 0.07017934759228742
589.0, 0.0734311447174385
590.0, 0.07528944913251086
591.0, 0.07479081153311667
592.0, 0.07354221930593242
593.0, 0.06945014598493239
594.0, 0.06509848153491297
595.0, 0.0617943519276798
596.0, 0.05878374898370762
597.0, 0.05879129829469424
598.0, 0.05899549816946367
599.0, 0.05878705204932722
600.0, 0.059697054563576026
601.0, 0.06121785272987884
602.0, 0.06298063935411778
603.0, 0.06454371215236923
604.0, 0.06501066560611717
605.0, 0.06669924915513543
606.0, 0.06809080646924676
607.0, 0.06899501644034299
608.0, 0.0693787959901672
609.0, 0.06621924832237928
610.0, 0.06335549239231632
611.0, 0.06031503047766417
612.0, 0.05649032745702335
613.0, 0.050893214127099705
614.0, 0.04713097714494272
615.0, 0.04306708952522674
616.0, 0.0379198113980884
617.0, 0.036015659501551014
618.0, 0.03331005148974818
619.0, 0.030426285508899684
620.0, 0.0275992727723898
621.0, 0.024851029491677244
622.0, 0.023201760943083634
623.0, 0.021850183976077808
624.0, 0.020506193159225652
625.0, 0.01888158891353666
626.0, 0.018284068072201246
627.0, 0.015780061133790685
628.0, 0.012512062826365394
629.0, 0.01036054358587453
630.0, 0.011700098776063825
631.0, 0.009519726598459483
632.0, 0.0069484703563325095
633.0, 0.006402047547947127
634.0, 0.005454265936498033
635.0, 0.003336536418940915
636.0, 0.0016584390770371569
637.0, 0.001140667571048044
638.0, 0.0016125731667113688
639.0, 0.0008625241275220302
640.0, 0.0011141873503348926
641.0, 0.0021368144201984254
642.0, 0.0018713027965719723
643.0, 0.0031147521910460095
644.0, 0.002985669574968081
645.0, 0.0028991510913319303
646.0, 0.005318731281394633
647.0, 0.0048938019696762695
648.0, 0.004654508895961708
649.0, 0.005368061492265519
650.0, 0.007215162120627511
651.0, 0.0052381920713935656
652.0, 0.005623580455830034
653.0, 0.005812392938734589
654.0, 0.005033551682038026
655.0, 0.005029423297780024
656.0, 0.0051903471750008425
657.0, 0.0046773493187747
658.0, 0.004210050847432191
659.0, 0.005844293341746543
660.0, 0.004915962473501279
661.0, 0.00419556118157805
662.0, 0.00425960997528954
663.0, 0.005453673213986457
664.0, 0.005380110387911933
665.0, 0.0045590993130435326
666.0, 0.004082040127208697
667.0, 0.004422373429825058
668.0, 0.0037367608665823137
669.0, 0.002720420837174863
670.0, 0.0023710278759180746
671.0, 0.0026059286657144146
672.0, 0.002135583249233842
673.0, 0.0025793938350778325
674.0, 0.002674195380708712
675.0, 0.002045487753933801
676.0, 0.0004162457402838034
677.0, 0.0008640043716042518
678.0, 0.0010395177122678758
679.0, 0.0012283986052181895
680.0, 0.0016339217557471584
681.0, 0.0015967161032615404
682.0, 0.0022303221956127503
683.0, 0.00245449279917128
684.0, 0.002407930785235752
685.0, 0.004209031633223853
686.0, 0.004681124675762735
687.0, 0.004814641933120818
688.0, 0.005201059649587837
689.0, 0.006552629330544515
690.0, 0.005834610426745164
691.0, 0.006875268104265709
692.0, 0.008773998269361172
693.0, 0.010426527314745481
694.0, 0.009583508429159188
695.0, 0.010884264954162512
696.0, 0.012349126815143798
697.0, 0.013216437648499382
698.0, 0.013701644825313426
699.0, 0.01441112992908655
700.0, 0.014634260582200881
701.0, 0.014859054582586151
702.0, 0.016069692722601347
703.0, 0.01764751830473646
704.0, 0.018645648285183284
705.0, 0.019789183225593122
706.0, 0.021602241190674387
707.0, 0.0233844582965151
708.0, 0.027029082604268943
709.0, 0.030334574858436786
710.0, 0.03224978651613741
711.0, 0.031994121054419955
712.0, 0.035673023814218656
713.0, 0.03717481401963155
714.0, 0.03880453243939812
715.0, 0.04466395096848402
716.0, 0.046623793014798666
717.0, 0.04978433377176904
718.0, 0.052568980457378185
719.0, 0.054559876510544704
720.0, 0.05957105313449243
721.0, 0.06685304492314603
722.0, 0.07204366715116181
723.0, 0.0759044586600584
724.0, 0.08286411009924594
725.0, 0.09169733952067662
726.0, 0.09879715332336904
727.0, 0.10682202291977973
728.0, 0.11848230643466076
729.0, 0.1308040318356551
730.0, 0.14039197029897876
731.0, 0.15436584786992907
732.0, 0.1735839229967375
733.0, 0.1894446948828511
734.0, 0.20350061325125815
735.0, 0.21791862667957634
736.0, 0.2329606302863522
737.0, 0.24847467170822432
738.0, 0.26167493852233514
739.0, 0.27348260175610856
740.0, 0.28339518470904285
741.0, 0.29140780702184305
742.0, 0.2991239686355826
743.0, 0.30402504711403405
744.0, 0.3095670855527238
745.0, 0.31692444739312114
746.0, 0.32666244144654394
747.0, 0.3399651208527655
748.0, 0.3506310653627969
749.0, 0.36003857998857314
750.0, 0.3699550686458233
751.0, 0.3827894161825815
752.0, 0.3925038634016379
753.0, 0.40242006918690243
754.0, 0.4105356945460318
755.0, 0.408211649399779
756.0, 0.40966697042080025
757.0, 0.406485668908804
758.0, 0.3967273373402952
759.0, 0.3801847048467683
760.0, 0.3693097530919336
761.0, 0.34970473647566686
762.0, 0.32920256370491185
763.0, 0.3099193448023351
764.0, 0.28713536456400157
765.0, 0.26655170731122063
766.0, 0.25072436552244765
767.0, 0.23636041074806993
768.0, 0.21954243339044965
769.0, 0.22156799462338483
770.0, 0.2148339436514569
771.0, 0.2122152400124361
772.0, 0.21806173542509813
773.0, 0.22361622307472445
774.0, 0.2359114532135261
775.0, 0.24871392500885156
776.0, 0.26168282025252987
777.0, 0.2759219616152963
778.0, 0.30350845176800495
779.0, 0.32668519714257294
780.0, 0.352452636144003
781.0, 0.3818616730006458
782.0, 0.40319010321645843
783.0, 0.42811661073746915
784.0, 0.44377501992860907
785.0, 0.45215330180195046
786.0, 0.45930705799442384
787.0, 0.4566614841970392
788.0, 0.4465470743951124
789.0, 0.4325220637691614
790.0, 0.4181277682205565
791.0, 0.4093665376068969
792.0, 0.38588322430704153
793.0, 0.3666142554775491
794.0, 0.3507664118632602
795.0, 0.33287284715409055
796.0, 0.309852105011818
797.0, 0.29294443423116956
798.0, 0.2777083936745348
799.0, 0.2636007516487083
800.0, 0.2573451899359013
801.0, 0.2496076401247056
802.0, 0.24945692518821266
803.0, 0.2551846994122537
804.0, 0.2628215470274565
805.0, 0.27189012596849743
806.0, 0.2835210156675865
807.0, 0.29003714884390436
808.0, 0.29105662468264587
809.0, 0.2960456812771001
810.0, 0.29091626506233764
811.0, 0.28071942890952895
812.0, 0.2710727136429517
813.0, 0.2668232696891486
814.0, 0.26198147772596614
815.0, 0.2591224470565061
816.0, 0.2605778116735939
817.0, 0.265791578908399
818.0, 0.27132172170488666
819.0, 0.2795750785933462
820.0, 0.29112316342603
821.0, 0.3104613378135944
822.0, 0.33975475210707523
823.0, 0.36988986368424837
824.0, 0.41991988244862405
825.0, 0.48872874210562844
826.0, 0.5671469086803086
827.0, 0.6388812756852177
828.0, 0.715930023634589
829.0, 0.7763596367669744
830.0, 0.8142701663590628
831.0, 0.8257204367918368
832.0, 0.8050142203839896
833.0, 0.7592796002886194
834.0, 0.7014613203922893
835.0, 0.6438554755976017
836.0, 0.5994694937092756
837.0, 0.5669055312845913
838.0, 0.5614175311387691
839.0, 0.5704273610000855
840.0, 0.5897648563811526
841.0, 0.6236363610554805
842.0, 0.6705757130917162
843.0, 0.7295008914620104
844.0, 0.783974881735218
845.0, 0.8199549527404143
846.0, 0.8411516526539209
847.0, 0.8578897124943454
848.0, 0.8455322952574547
849.0, 0.8105155783122091
850.0, 0.7764994438938898
851.0, 0.7381601928728342
852.0, 0.7122971926818057
853.0, 0.7013035612712801
854.0, 0.7060869431575209
855.0, 0.7268724447075935
856.0, 0.7691563905075611
857.0, 0.8297345440314312
858.0, 0.9009967128718808
859.0, 0.9707001621926051
860.0, 0.9951370577784233
861.0, 0.9867763166190372
862.0, 0.9492335785629287
863.0, 0.8872459411244027
864.0, 0.8089097656511304
865.0, 0.710258254688202
866.0, 0.6332181500097203
867.0, 0.5647605473848868
868.0, 0.49804278029993
869.0, 0.4441000807589601
870.0, 0.40132601094895554
871.0, 0.3662927307375721
872.0, 0.33664856390310804
873.0, 0.31060242851823144
874.0, 0.29549296147857546
875.0, 0.27554058846895996
876.0, 0.25704000134883265
877.0, 0.24089580114696935
878.0, 0.22468261300210896
879.0, 0.20813232654227817
880.0, 0.1941859634672876
881.0, 0.17925386851618275
882.0, 0.16283197793275148
883.0, 0.15153032130790978
884.0, 0.13647099902181328
885.0, 0.1256822347130238
886.0, 0.11677216668380118
887.0, 0.10655728890883052
888.0, 0.0984688736999461
889.0, 0.09180187586974474
890.0, 0.08661804746535012
891.0, 0.08149429532825922
892.0, 0.07414809460064835
893.0, 0.07000372137146635
894.0, 0.06527186426696029
895.0, 0.060488879112054625
896.0, 0.05647665462101619
897.0, 0.0547802779315961
898.0, 0.05287102844171042
899.0, 0.04908910323776985
900.0, 0.046570434134197924
901.0, 0.046809864188811216
902.0, 0.043954435762239834
903.0, 0.04079230987386838
904.0, 0.039478572854280865
905.0, 0.03938080574364979
906.0, 0.03902554395440208
907.0, 0.036498210525772824
908.0, 0.03648764206669451
909.0, 0.03619258171313143
910.0, 0.03547904415361281
911.0, 0.03585337660229825
912.0, 0.034842281703507706
913.0, 0.03592920905556253
914.0, 0.03832307649302156
915.0, 0.04085156914704488
916.0, 0.0414552202621754
917.0, 0.04654222686491046
918.0, 0.04809697834834789
919.0, 0.048654544579595234
920.0, 0.05114506653484741
921.0, 0.05744525158493537
922.0, 0.060978123202898214
923.0, 0.06763533715950272
924.0, 0.07681920540934366
925.0, 0.08757848940301442
926.0, 0.10990491633974257
927.0, 0.13710429675323949
928.0, 0.17106196921397138
929.0, 0.210069378676793
930.0, 0.24995268711557297
931.0, 0.2779323665751959
932.0, 0.28307977190906725
933.0, 0.26696813417249604
934.0, 0.23166074992937083
935.0, 0.18028538876135455
936.0, 0.14330224602141947
937.0, 0.11192359438149764
938.0, 0.085834274944818
939.0, 0.06567529501036933
940.0, 0.05432080036746442
941.0, 0.04428323386929869
942.0, 0.036190734209227915
943.0, 0.031339423180640806
944.0, 0.029586585337608173
945.0, 0.025911357030076285
946.0, 0.0246347130740067
947.0, 0.02339754605157455
948.0, 0.022947999601569596
949.0, 0.024121038085324776
950.0, 0.024547354399743183
951.0, 0.02556060735557167
952.0, 0.027038204652810552
953.0, 0.029349445046310096
954.0, 0.032976362758826726
955.0, 0.03788740176278893
956.0, 0.04524060986641787
957.0, 0.05327234819772735
958.0, 0.062198890054110736
959.0, 0.07332361868924081
960.0, 0.08694805075693435
961.0, 0.10862411283657175
962.0, 0.13536598247570314
963.0, 0.16614192033241293
964.0, 0.2015104748682475
965.0, 0.24185702288864258
966.0, 0.27948883409345093
967.0, 0.3071399629548795
968.0, 0.3189388174673756
969.0, 0.3092842596812958
970.0, 0.27898313447030054
971.0, 0.24137689190573824
972.0, 0.2024418302661268
973.0, 0.16619298514570693
974.0, 0.1339723908190459
975.0, 0.11136920336252425
976.0, 0.0900379476630585
977.0, 0.07261497429191781
978.0, 0.06035384520400027
979.0, 0.04842069620327945
980.0, 0.04026921413753696
981.0, 0.03482974633064402
982.0, 0.02946683812472549
983.0, 0.022996456055222714
984.0, 0.02094916580787355
985.0, 0.02060823357725519
986.0, 0.016632522446022042
987.0, 0.013742797491410663
988.0, 0.01605031603947435
989.0, 0.014824936530167193
990.0, 0.01218199617076911
991.0, 0.012362848839392763
992.0, 0.013615147819102131
993.0, 0.013284791612444731
994.0, 0.012981596714957962
995.0, 0.013095670468137642
996.0, 0.01341705223553736
997.0, 0.013809284529790208
998.0, 0.014057806372809928
999.0, 0.013204481545073038
1000.0, 0.013162382274519817
1001.0, 0.012370925038134278
1002.0, 0.012116715123472765
1003.0, 0.013908745140819218
1004.0, 0.011379797456190324
1005.0, 0.013370017912987132
1006.0, 0.014594352756295935
1007.0, 0.014224810111685906
1008.0, 0.013240768856491766
1009.0, 0.013014957352052976
1010.0, 0.012738638387066367
1011.0, 0.013729021752926186
1012.0, 0.014377047820613428
1013.0, 0.012373909042898321
1014.0, 0.012925025565780335
1015.0, 0.01332409185856607
1016.0, 0.012179959200672122
1017.0, 0.010000469554072995
1018.0, 0.008287639382471918
1019.0, 0.009339993412586912
1020.0, 0.008885435092975867
1021.0, 0.00823662259778056
1022.0, 0.008042427770255593
1023.0, 0.008666521160955207
1024.0, 0.010430704613740694
1025.0, 0.010267026480404331
1026.0, 0.010024749590083367
1027.0, 0.009918870939502725
1028.0, 0.00951996450952147
1029.0, 0.008964103685779093
1030.0, 0.009387505680882978
1031.0, 0.009149532561360633
1032.0, 0.00833186158988466
1033.0, 0.007641721511654692
1034.0, 0.006883309434080271
1035.0, 0.005777979071177507
1036.0, 0.005121076419744678
1037.0, 0.004534695819511463
1038.0, 0.003490719615794767
1039.0, 0.0037872903606237535
1040.0, 0.003673617542337323
1041.0, 0.003228776341483668
1042.0, 0.0030007133140152378
1043.0, 0.0033714189672077507
1044.0, 0.0026575841610807175
1045.0, 0.0021062458140424073
1046.0, 0.002172933120580441
1047.0, 0.0024752055999268377
1048.0, 0.002553861722037405
1049.0, 0.0027790392437012064
1050.0, 0.001175970066227592
1051.0, 0.001135542537772704
1052.0, 0.001439632614273934
1053.0, 0.0008335922369032467
1054.0, 0.001811903042206949
1055.0, 0.0008313958040763287
1056.0, 0.0007981710251042071
1057.0, 0.0010765754286411783
1058.0, 0.0008077505449217359
1059.0, 0.00011860559157010278
1060.0, 0.0008348092487058143
1061.0, 0.0015300710810026452
1062.0, 0.0025561408105806167
1063.0, 0.003466853136626563
1064.0, 0.001604755263639111
1065.0, 0.002259082800219555
1066.0, 0.0021779920494329635
1067.0, 0.0013683867033288835
1068.0, 0.0007210965784036652
1069.0, 0.0021596328033535806
1070.0, 0.0006303873038737177
1071.0, 0.0013498385311187275
1072.0, 0.0019071181388010173
1073.0, 0.0012932435466367419
1074.0, 0.00031216942901860536
1075.0, 0.0007960322889063214
1076.0, 0.0014854972930039567
1077.0, 0.0013856734242949926
1078.0, 0.0006984991237655128
1079.0, 0.0005190763338790266
1080.0, 0.0013386489325406326
1081.0, 0.0010152620075613902
1082.0, 0.000911533767189189
1083.0, 0.0009533119460495318
1084.0, 0.000531767926203922
1085.0, 0.0007477973430471287
1086.0, 0.0009217099757477552
1087.0, 0.0008249331746205651
1088.0, 0.0006579303654939639
1089.0, 0.0007042262168776184
1090.0, 0.0009711206030699748
1091.0, 0.000451313702586191
1092.0, 0.00042481193852115753
1093.0, 0.0006864312079954519
1094.0, 0.0008013260128216209
1095.0, 0.0004777673053547127
1096.0, 0.0007884510767908068
1097.0, 0.0008476547365872825
1098.0, 0.0007150478610081548
1099.0, 0.0005836283258246438
1100.0, 0.0007108355611425506
1101.0, 0.0012633765894012573
1102.0, 0.0017212077228494537
1103.0, 0.0012473421005775715
1104.0, 0.00047893057339229417
1105.0, 0.0013049874234677544
1106.0, 0.000364320206117725
1107.0, 0.00035752528355258075
1108.0, 0.0014750567922994797
1109.0, 0.0024062424252222457
1110.0, 0.0014611851045906973
1111.0, 0.0008100226194572738
1112.0, 0.0007729449945298377
1113.0, 0.0013921585800480705
1114.0, 0.0015626662717911708
1115.0, 0.0007473287182944663
1116.0, 0.0020191857113328626
1117.0, 0.0008856356560480571
1118.0, 0.000895453243516275
1119.0, 0.0011075636928095693
1120.0, 0.0007076532743389045
1121.0, 0.00041471147024690425
1122.0, 0.001531083621799363
1123.0, 0.0016841092952660519
1124.0, 0.002054445077397891
1125.0, 0.002449038734635803
1126.0, 0.0012696096495227885
1127.0, 0.0011973396871358558
1128.0, 0.001437293394734661
1129.0, 0.0014075472044068119
1130.0, 0.0010775934782293935
1131.0, 0.0007812976790710466
1132.0, 0.0013256360550136011
1133.0, 0.0016819726589915331
1134.0, 0.0016477273744479636
1135.0, 0.001059355759414444
1136.0, 0.00037421880380078846
1137.0, 0.0018038845550760573
1138.0, 0.000868188479136668
1139.0, 0.0012252357147729336
1140.0, 0.0012895362034451466
1141.0, 0.0006549906398246652
1142.0, 0.001075118995498147
1143.0, 0.0011779031503062222
1144.0, 0.0008200762990266585
1145.0, 0.0006439195112736222
1146.0, 0.0005374007302206611
1147.0, 6.345201808304244e-05
1148.0, 0.00018937104252564243
1149.0, 0.00024358305828158983
1150.0, 0.0008224448301103049
1151.0, 0.0009848745326541835
1152.0, 0.0001724494211957554
1153.0, 0.00023425806061301013
1154.0, 0.0003321297993161602
1155.0, 0.0002937845531090502
1156.0, 0.00026663362390663274
1157.0, 0.0005486531833186938
1158.0, 0.001527783854761871
1159.0, 0.0014136192335957403
1160.0, 0.001591597112476836
1161.0, 0.0009338261184321405
1162.0, 0.000660983034803784
1163.0, 0.0023650748638350963
1164.0, 0.0016932605825323555
1165.0, 0.0010202313735003087
1166.0, 0.0009154320355796658
1167.0, 0.001398331909259129
1168.0, 0.0022414275488220935
1169.0, 0.002987862826888281
1170.0, 0.0027026771816494465
1171.0, 0.002252939187148883
1172.0, 0.0024582794670959507
1173.0, 0.0025864112447503878
1174.0, 0.000981160381749181
1175.0, 0.0021272293304865444
1176.0, 0.002864031064384855
1177.0, 0.003444375332060771
1178.0, 0.0035465622259155827
1179.0, 0.003159551018713916
1180.0, 0.00399574203973301
1181.0, 0.003759748930213148
1182.0, 0.0037121159391239086
1183.0, 0.004119904646727876
1184.0, 0.004546589137000576
1185.0, 0.003931702800890784
1186.0, 0.003911259403778928
1187.0, 0.0040530941252740075
1188.0, 0.004008783142754032
1189.0, 0.003995412938681152
1190.0, 0.004355320336540017
1191.0, 0.004788060789492484
1192.0, 0.005757644449085025
1193.0, 0.005371781665787059
1194.0, 0.0055800642407196595
1195.0, 0.006974736154734059
1196.0, 0.0073512881826990496
1197.0, 0.007743309663225003
1198.0, 0.006834857457229048
1199.0, 0.007234427891709611
1200.0, 0.008345909215535643
1201.0, 0.008400368388340176
1202.0, 0.00880377723244009
1203.0, 0.009355860467061902
1204.0, 0.009906864021442599
1205.0, 0.010180222353573586
1206.0, 0.01045480884162125
1207.0, 0.011808318336235928
1208.0, 0.01138727140453664
1209.0, 0.012849133450004517
1210.0, 0.013091661224001332
1211.0, 0.012451969559050168
1212.0, 0.012786655000202044
1213.0, 0.014056405362707776
1214.0, 0.014333907145179172
1215.0, 0.01431312769676786
1216.0, 0.015127245544574825
1217.0, 0.016698602007069074
1218.0, 0.017290343420074492
1219.0, 0.017945967606095493
1220.0, 0.01779145614927204
1221.0, 0.018068971808235537
1222.0, 0.018494891405608074
1223.0, 0.018667618377832464
1224.0, 0.02046674862600698
1225.0, 0.019734864415188277
1226.0, 0.02000300150911701
1227.0, 0.020490967601653604
1228.0, 0.020649475348486605
1229.0, 0.02070919614798055
1230.0, 0.020818597846606484
1231.0, 0.021082756716700173
1232.0, 0.023549592569044705
1233.0, 0.02481003819156375
1234.0, 0.02291180392737615
1235.0, 0.024378360958151657
1236.0, 0.026439820419526548
1237.0, 0.026241090355476678
1238.0, 0.02605156004843146
1239.0, 0.02702398367602421
1240.0, 0.0287609434860265
1241.0, 0.028151781895551495
1242.0, 0.029238118832631197
1243.0, 0.029803377821712416
1244.0, 0.029338677042859522
1245.0, 0.02841567951772874
1246.0, 0.02865423432386014
1247.0, 0.029029458552846842
1248.0, 0.029430647328630547
1249.0, 0.029740023523956324
1250.0, 0.029839091578212414
1251.0, 0.029795641043286088
1252.0, 0.03030363354090864
1253.0, 0.02929778224124429
1254.0, 0.0302399174138149
1255.0, 0.030897042131159864
1256.0, 0.03063660526903427
1257.0, 0.030569053781016674
1258.0, 0.02943182103355964
1259.0, 0.030508704309795284
1260.0, 0.031464027282379375
1261.0, 0.03186820492906411
1262.0, 0.03166712360227792
1263.0, 0.030749805238787536
1264.0, 0.03210713165346786
1265.0, 0.03184028026779581
1266.0, 0.032452095329411845
1267.0, 0.03295661494935479
1268.0, 0.0321749936837531
1269.0, 0.03359732898019861
1270.0, 0.033441849398809495
1271.0, 0.034161942539305865
1272.0, 0.034648934879102776
1273.0, 0.034636707742614126
1274.0, 0.03470993801605899
1275.0, 0.03503303491508075
1276.0, 0.035039893371510894
1277.0, 0.03517260309949503
1278.0, 0.03560452763217233
1279.0, 0.03602516496500957
1280.0, 0.03571654842980788
1281.0, 0.03616305280895914
1282.0, 0.03645958260070554
1283.0, 0.03714615812686764
1284.0, 0.03788721149911284
1285.0, 0.03792770082520442
1286.0, 0.036330432183244665
1287.0, 0.03750993155783272
1288.0, 0.037818461644108924
1289.0, 0.03696087567019111
1290.0, 0.03652408834010846
1291.0, 0.03767568271628804
1292.0, 0.037096811418387235
1293.0, 0.03749950369564699
1294.0, 0.03707403127172866
1295.0, 0.03651918559172581
1296.0, 0.03596909302004918
1297.0, 0.03503000565664455
1298.0, 0.03362241090774169
1299.0, 0.0321833248516884
1300.0, 0.03123642374682237
1301.0, 0.03130003142774554
1302.0, 0.03208931915900878
1303.0, 0.03232993968785939
1304.0, 0.028969444383792464
1305.0, 0.028945204109652328
1306.0, 0.027896612915352073
1307.0, 0.02675879617616591
1308.0, 0.026104510895180073
1309.0, 0.024527549257224782
1310.0, 0.025671756210704437
1311.0, 0.0234602860656826
1312.0, 0.02515343513861995
1313.0, 0.025736204301284333
1314.0, 0.022165926440413628
1315.0, 0.02215222183059066
1316.0, 0.020938002606178337
1317.0, 0.022628410108883966
1318.0, 0.022990474226732113
1319.0, 0.023205734529306722
1320.0, 0.024234322395925285
1321.0, 0.021101782862832978
1322.0, 0.021680754687512002
1323.0, 0.021874940889460483
1324.0, 0.021298497526792123
1325.0, 0.021339375601874766
1326.0, 0.022504678225288614
1327.0, 0.020301544369225412
1328.0, 0.021783834072694012
1329.0, 0.02110894954520685
1330.0, 0.019798606093697036
1331.0, 0.019376749671311425
1332.0, 0.020285905520903168
1333.0, 0.020289314498326622
1334.0, 0.020267287866577458
1335.0, 0.01958586495521599
1336.0, 0.01857325967994444
1337.0, 0.018150413938260432
1338.0, 0.018670362921557652
1339.0, 0.017035688597304328
1340.0, 0.01780835330986397
1341.0, 0.016824962352094366
1342.0, 0.016319371834278257
1343.0, 0.01638431991741411
1344.0, 0.015639688860854022
1345.0, 0.015064692272959495
1346.0, 0.013563636931947575
1347.0, 0.013863799237187465
1348.0, 0.01361763614846881
1349.0, 0.01308994780544391
1350.0, 0.014151123911966998
1351.0, 0.015058895145677754
1352.0, 0.012427833071653446
1353.0, 0.012347978989113639
1354.0, 0.012113416526263911
1355.0, 0.011080832663676788
1356.0, 0.010735817319434472
1357.0, 0.011563802490619998
1358.0, 0.010591456197602427
1359.0, 0.010838888842258516
1360.0, 0.0104870398521272
1361.0, 0.009742849056155179
1362.0, 0.009936255067084607
1363.0, 0.009154331768849826
1364.0, 0.008565344277005704
1365.0, 0.007613731874623992
1366.0, 0.007320839830438079
1367.0, 0.007921868412810087
1368.0, 0.008759126259092337
1369.0, 0.008451611220594032
1370.0, 0.008290399010723194
1371.0, 0.008462639212727729
1372.0, 0.0077059552207490115
1373.0, 0.006439786680793454
1374.0, 0.005858782503588193
1375.0, 0.00588817361983185
1376.0, 0.006402873895748174
1377.0, 0.006639407501584619
1378.0, 0.005449760434416167
1379.0, 0.0038929474114661983
1380.0, 0.003728886705025951
1381.0, 0.0051604213122398625
1382.0, 0.006351193625311295
1383.0, 0.005353373158738541
1384.0, 0.005333885348252925
1385.0, 0.005312620719464807
1386.0, 0.004131999768817968
1387.0, 0.0046951133495381474
1388.0, 0.0030123152490653133
1389.0, 0.0033450691935146245
1390.0, 0.004988793515200835
1391.0, 0.005387229697640542
1392.0, 0.004162929300214492
1393.0, 0.005329245265159661
1394.0, 0.0033249303672602116
1395.0, 0.0029526613038699735
1396.0, 0.002926529575805194
1397.0, 0.003306674136212046
1398.0, 0.004030209436899497
1399.0, 0.00432676469682043
1400.0, 0.0030812714617082563
1401.0, 0.003871113166910925
1402.0, 0.003782293749228752
1403.0, 0.0025744476390038113
1404.0, 0.001733705331829825
1405.0, 0.0028720403660259498
1406.0, 0.0016890018768189522
1407.0, 0.002121260085664957
1408.0, 0.00206875978424394
1409.0, 0.0014764652164015186
1410.0, 0.0010455372957333326
1411.0, 0.0014187377722028494
1412.0, 0.0017171184712516416
1413.0, 0.0015607748853704063
1414.0, 0.0007796208921645785
1415.0, 0.00019506323144835726
1416.0, 0.0007303808467647032
1417.0, 0.001917591033949245
1418.0, 0.0003050423149309696
1419.0, 0.0017009706699434369
1420.0, 0.0010265834541780196
1421.0, 0.0006847780714118628
1422.0, 0.0006554010637275842
1423.0, 0.0005169422694543189
1424.0, 0.0006617942205147343
1425.0, 0.00021866150240544023
1426.0, 0.0010521935498900657
1427.0, 0.0009012179351906223
1428.0, 0.0007235035590118601
1429.0, 0.001156142103191707
1430.0, 0.001507626850872148
1431.0, 0.0001657372835444477
1432.0, 0.00011879506750717549
1433.0, 0.0003479128588528533
1434.0, 0.0004928406995573221
1435.0, 0.00035485551955788717
1436.0, 0.00025420769336523036
1437.0, 0.0017163964672429035
1438.0, 0.0011921807640970974
1439.0, 0.0010478643070014595
1440.0, 0.001057312430907339
1441.0, 0.0007347769020174925
1442.0, 0.0003663929844593905
1443.0, 0.001342733682137808
1444.0, 0.0007026995351056014
1445.0, 0.001017639900735961
1446.0, 0.0005301137060000835
1447.0, 0.00039169844063448214
1448.0, 0.0013532983879524763
1449.0, 0.002657002178891046
1450.0, 0.001880843447930072
1451.0, 0.002758363925669586
1452.0, 0.001401963278349307
1453.0, 0.002178091178687996
1454.0, 0.0037113382754842147
1455.0, 0.0029259673524674734
1456.0, 0.0026131373526599192
1457.0, 0.004831975986357911
1458.0, 0.004149767537729967
1459.0, 0.004606436818174204
1460.0, 0.005501809417223664
1461.0, 0.0058522963696295794
1462.0, 0.006467391867947343
1463.0, 0.007325879401639463
1464.0, 0.005742414301433434
1465.0, 0.006234627066628829
1466.0, 0.007039178017294716
1467.0, 0.006678080063862916
1468.0, 0.005621847477660015
1469.0, 0.007016251828442973
1470.0, 0.005889950550194185
1471.0, 0.007513664150734254
1472.0, 0.007928930485852899
1473.0, 0.00774784414409517
1474.0, 0.007840614336910781
1475.0, 0.007097834189990231
1476.0, 0.008613672248450317
1477.0, 0.007377418049772105
1478.0, 0.007616667950391188
1479.0, 0.008060643060000762
1480.0, 0.0081104937830337
1481.0, 0.008335652294505577
1482.0, 0.009061418411275057
1483.0, 0.009044180521145263
1484.0, 0.00915263038207852
1485.0, 0.008448616938668232
1486.0, 0.007403988792843548
1487.0, 0.006771861813570295
1488.0, 0.006776493265373223
1489.0, 0.0069730928619557795
1490.0, 0.007274996734918918
1491.0, 0.008236877063322004
1492.0, 0.008910916837728053
1493.0, 0.009487250590658856
1494.0, 0.010610235546894728
1495.0, 0.011706761856403203
1496.0, 0.011462799129688193
1497.0, 0.011318755176964467
1498.0, 0.01180049789080734
1499.0, 0.012055725414607029
1500.0, 0.011949690855083196
1501.0, 0.012456269322921348
1502.0, 0.013632886196459389
1503.0, 0.012743530307442437
1504.0, 0.012934497429796774
1505.0, 0.012825447877087946
1506.0, 0.012759415852840609
1507.0, 0.013475863844756662
1508.0, 0.014217146065025502
1509.0, 0.011659046401342063
1510.0, 0.011822897324025139
1511.0, 0.012827555834873433
1512.0, 0.012589181195046767
1513.0, 0.011603962580198603
1514.0, 0.011334347809158788
1515.0, 0.009852518097746857
1516.0, 0.009291745457294033
1517.0, 0.007247255047750232
1518.0, 0.006829193701618427
1519.0, 0.006620510990497588
1520.0, 0.005120347532058404
1521.0, 0.003040470793328897
1522.0, 0.002914273917367016
1523.0, 0.0010540753250303445
1524.0, 0.00035211934547589656
1525.0, 0.000995081816672382
1526.0, 0.0013366725443649066
1527.0, 0.0004947935267639724
1528, 0.0
1529, 0.0
1530, 0.0
1531, 0.0
1532, 0.0
1533, 0.0
1534, 0.0
1535, 0.0
1536, 0.0
1537, 0.0
1538, 0.0
1539, 0.0
1540, 0.0
1541, 0.0
1542, 0.0
1543, 0.0
1544, 0.0
1545, 0.0
1546, 0.0
1547, 0.0
1548, 0.0
1549, 0.0
1550, 0.0
1551, 0.0
1552, 0.0
1553, 0.0
1554, 0.0
1555, 0.0
1556, 0.0
1557, 0.0
1558, 0.0
1559, 0.0
1560, 0.0
1561, 0.0
1562, 0.0
1563, 0.0
1564, 0.0
1565, 0.0
1566, 0.0
1567, 0.0
1568, 0.0
1569, 0.0
1570, 0.0
1571, 0.0
1572, 0.0
1573, 0.0
1574, 0.0
1575, 0.0
1576, 0.0
1577, 0.0
1578, 0.0
1579, 0.0
1580, 0.0
1581, 0.0
1582, 0.0
1583, 0.0
1584, 0.0
1585, 0.0
1586, 0.0
1587, 0.0
1588, 0.0
1589, 0.0
1590, 0.0
1591, 0.0
1592, 0.0
1593, 0.0
1594, 0.0
1595, 0.0
1596, 0.0
1597, 0.0
1598, 0.0
1599, 0.0
