30, 0.0
31, 0.0
32, 0.0
33, 0.0
34, 0.0
35, 0.0
36, 0.0
37, 0.0
38, 0.0
39, 0.0
40, 0.0
41, 0.0
42, 0.0
43, 0.0
44, 0.0
45, 0.0
46, 0.0
47, 0.0
48, 0.0
49, 0.0
50, 0.0
51, 0.0
52, 0.0
53, 0.0
54, 0.0
55, 0.0
56, 0.0
57, 0.0
58, 0.0
59, 0.0
60, 0.0
61, 0.0
62, 0.0
63, 0.0
64, 0.0
65, 0.0
66, 0.0
67, 0.0
68, 0.0
69, 0.0
70, 0.0
71, 0.0
72, 0.0
73, 0.0
74, 0.0
75, 0.0
76, 0.0
77, 0.0
78, 0.0
79, 0.0
80, 0.0
81, 0.0
82, 0.0
83, 0.0
84, 0.0
85, 0.0
86, 0.0
87, 0.0
88, 0.0
89, 0.0
90, 0.0
91, 0.0
92, 0.0
93, 0.0
94, 0.0
95, 0.0
96, 0.0
97, 0.0
98, 0.0
99, 0.0
100, 0.0
101, 0.0
102, 0.0
103, 0.0
104, 0.0
105, 0.0
106, 0.0
107, 0.0
108, 0.0
109, 0.0
110, 0.0
111, 0.0
112, 0.0
113, 0.0
114, 0.0
115, 0.0
116, 0.0
117, 0.0
118, 0.0
119, 0.0
120, 0.0
121, 0.0
122, 0.0
123.0, 0.00016254512854251983
124.0, 0.0039643896813060285
125.0, 0.010469008183303269
126.0, 0.015228661203752844
127.0, 0.016755679116137605
128.0, 0.019122608283006787
129.0, 0.02238795856856364
130.0, 0.024508015788488723
131.0, 0.02214036078365185
132.0, 0.021769853834023436
133.0, 0.0225263862050124
134.0, 0.02352445583621398
135.0, 0.0276905025439027
136.0, 0.03485857249808856
137.0, 0.04525171159561078
138.0, 0.05762959310306622
139.0, 0.06656712974954933
140.0, 0.061829286751041594
141.0, 0.046566085109496384
142.0, 0.029382304278012368
143.0, 0.01783541293618243
144.0, 0.010725919472628355
145.0, 0.0065022085359986975
146.0, 0.00405732130888999
147.0, 0.0026678418036465896
148.0, 0.0014315651062105567
149.0, 0.0002567713782916563
150.0, 0.00037875064285186166
151.0, 0.0001282608283359292
152.0, 0.0008155720524949949
153.0, 0.0009787651447245907
154.0, 0.0011859200117656983
155.0, 0.0011908075530019978
156.0, 0.00043634892246615455
157.0, 0.0007630943743278142
158.0, 0.0008362110299677714
159.0, 0.00035918613250525964
160.0, 0.0005458246712726632
161.0, 0.0017065697633010524
162.0, 0.002416231440570192
163.0, 0.0035465229497036537
164.0, 0.00526213127371084
165.0, 0.006588579337765209
166.0, 0.006349095338821955
167.0, 0.006547973978512698
168.0, 0.007979015179617311
169.0, 0.009909400605798573
170.0, 0.00984423000010481
171.0, 0.010919675396503986
172.0, 0.011973054403648917
173.0, 0.012237256039324768
174.0, 0.014816103549304531
175.0, 0.01776471602490219
176.0, 0.020735641618613267
177.0, 0.024639023740512026
178.0, 0.03076078707737547
179.0, 0.037286169421813474
180.0, 0.04538647863206725
181.0, 0.05274515446453409
182.0, 0.05505953037982633
183.0, 0.04822475334918552
184.0, 0.03751960864174555
185.0, 0.028068341505132512
186.0, 0.02248555139657362
187.0, 0.020439208547939864
188.0, 0.019420596326286062
189.0, 0.019325698520822724
190.0, 0.02065511119695144
191.0, 0.02353176516232023
192.0, 0.02595288598368112
193.0, 0.029048739505414048
194.0, 0.03301098156545785
195.0, 0.03740120734470366
196.0, 0.042025643158142535
197.0, 0.04676239641873829
198.0, 0.0510389178833425
199.0, 0.05497469361368798
200.0, 0.059634333100155805
201.0, 0.06488168881271479
202.0, 0.07118887000410626
203.0, 0.07787056807799882
204.0, 0.0841791869470057
205.0, 0.0921952699861293
206.0, 0.10052364638576707
207.0, 0.11080949599143405
208.0, 0.12377433435709749
209.0, 0.13717273520318565
210.0, 0.15052195079923167
211.0, 0.16354358228152596
212.0, 0.17385351227132334
213.0, 0.17829577000772515
214.0, 0.1748817480674439
215.0, 0.16460363799111055
216.0, 0.1491704061483954
217.0, 0.13073913753812152
218.0, 0.1121232729023227
219.0, 0.09645743168608456
220.0, 0.08223231872427356
221.0, 0.0694163266421305
222.0, 0.059743972155069464
223.0, 0.0519009323416242
224.0, 0.04544227695677468
225.0, 0.03985728902153684
226.0, 0.034881240545439944
227.0, 0.030940565074313853
228.0, 0.02685922476752503
229.0, 0.02339479062840189
230.0, 0.020775079979442997
231.0, 0.018449790176141175
232.0, 0.016712659817172282
233.0, 0.014791277083862556
234.0, 0.012827904502263756
235.0, 0.011368942892440033
236.0, 0.010761121145770831
237.0, 0.00952188684676034
238.0, 0.008207417573377413
239.0, 0.007285357960182913
240.0, 0.006787273433312388
241.0, 0.005516714579589717
242.0, 0.005274830454435612
243.0, 0.005211015002545518
244.0, 0.0043272130609929085
245.0, 0.003900788172149938
246.0, 0.0034010078759996202
247.0, 0.002769860802545138
248.0, 0.002483350976671461
249.0, 0.002914632300583234
250.0, 0.0019629175820809848
251.0, 0.001687613312143006
252.0, 0.001883771302164401
253.0, 0.0018511715231907843
254.0, 0.0016052173882005376
255.0, 0.0010930656220615592
256.0, 0.0008217290061928615
257.0, 0.0009371710887082518
258.0, 0.001231327471428841
259.0, 0.0009125192982984803
260.0, 0.001318898928401511
261.0, 0.001720004169508842
262.0, 0.00153542818316843
263.0, 0.0012647758782662485
264.0, 0.0010813924815570343
265.0, 0.0012212281023207306
266.0, 0.0012159483988980894
267.0, 0.00045531600258060434
268.0, 0.0003707756510756591
269.0, 0.0006197677370706145
270.0, 0.0009601693075942709
271.0, 0.0010881189035642231
272.0, 0.0007883695942500597
273.0, 0.0015317544635672835
274.0, 0.0020222708083565384
275.0, 0.0015398699322296027
276.0, 0.0007351591432329289
277.0, 0.0013243169929357207
278.0, 0.0015456033652195313
279.0, 0.0013536286561633146
280.0, 0.0011228155151648922
281.0, 0.001126859840022815
282.0, 0.0008802285520052642
283.0, 0.0013535526919377543
284.0, 0.0014482548233643814
285.0, 0.000809836292510918
286.0, 0.0010207362929618743
287.0, 0.0017353605777102063
288.0, 0.001582230093633837
289.0, 0.0010550885232138004
290.0, 0.001052901712752613
291.0, 0.0010782247343675575
292.0, 0.0011503394515338667
293.0, 0.0010499095574895692
294.0, 0.0008743115565089999
295.0, 0.001004888252543941
296.0, 0.0011826371154158792
297.0, 0.0015165857349564089
298.0, 0.0013168025589682792
299.0, 0.0005681653878391623
300.0, 0.0003712932779214787
301.0, 0.0007769841313720194
302.0, 0.0007176098048988611
303.0, 0.0004363465267509459
304.0, 0.0004552022441491537
305.0, 0.0002881128695452629
306.0, 0.0005443409428438525
307.0, 0.00041154050323965324
308.0, 8.797440515799469e-05
309.0, 0.00035037150016687285
310.0, 0.00025095146885612576
311.0, 9.962649559012793e-05
312.0, 0.000360175591653528
313.0, 0.00023258044137446917
314.0, 0.00021449827103066452
315.0, 0.00036042465052959724
316.0, 0.0006182902635475377
317.0, 0.00017467593560131274
318.0, 0.00033716763372545404
319.0, 0.00027551594713754563
320.0, 0.00016444527308899818
321.0, 0.00029090700207762217
322.0, 0.0003308213610434881
323.0, 0.00036276578432686336
324.0, 0.0005139656197593032
325.0, 0.0004343536638402833
326.0, 0.00043332899072960905
327.0, 0.0006277434621385186
328.0, 0.0008261481652074756
329.0, 0.00022226690361233238
330.0, 0.0002981402868510624
331.0, 0.00038597839166855147
332.0, 0.00029092947711882177
333.0, 0.0007445844920427857
334.0, 0.0001753267630917214
335.0, 0.0007315951934718562
336.0, 0.0005567779989392565
337.0, 4.273373668899482e-05
338.0, 0.00019613993152804086
339.0, 9.805019043564696e-05
340.0, 0.0003092754860410264
341.0, 0.00038142672935729106
342.0, 9.332839515550203e-05
343.0, 0.0012164852747354644
344.0, 0.0008687415610841285
345.0, 0.0003856431406235338
346.0, 0.0004553149597589695
347.0, 0.0004443426106903268
348.0, 9.037179627231036e-05
349.0, 7.814475184371672e-05
350.0, 0.00029917994741275226
351.0, 0.0002622317757046264
352.0, 0.0005637824855673982
353.0, 0.00043738998102860145
354.0, 0.00010006190242734133
355.0, 0.0002396407201917188
356.0, 0.0007764521724189215
357.0, 0.0004153912824403722
358.0, 0.0002322411713678598
359.0, 0.0001719966486530992
360.0, 0.0002600243248137503
361.0, 0.0005805812509249081
362.0, 0.0011653491520556354
363.0, 0.0013309030121293056
364.0, 0.0012954970327464983
365.0, 0.0012935666645849146
366.0, 0.0014235153806530481
367.0, 0.0016678235039511017
368.0, 0.0020721585398856724
369.0, 0.0021010530826868373
370.0, 0.0020002766636107163
371.0, 0.0022346182312981116
372.0, 0.002744007880808033
373.0, 0.003716573887923105
374.0, 0.003892217146668794
375.0, 0.003964312707708691
376.0, 0.00500400621372674
377.0, 0.005746878675749467
378.0, 0.006512977609516457
379.0, 0.007568418325199463
380.0, 0.008817174261130297
381.0, 0.01014210758957427
382.0, 0.01191534773895861
383.0, 0.01328957845992399
384.0, 0.014956889472146255
385.0, 0.017014400370869463
386.0, 0.019145035236725214
387.0, 0.02225665432490399
388.0, 0.02552114666627592
389.0, 0.028103613949429028
390.0, 0.03086859450973123
391.0, 0.03489129418930693
392.0, 0.03871463912190638
393.0, 0.04243080958947287
394.0, 0.0471930879680992
395.0, 0.05229031046295262
396.0, 0.05628330804296855
397.0, 0.06065759842745714
398.0, 0.06611499810965646
399.0, 0.0720006015175203
400.0, 0.07793907619996923
401.0, 0.08368336555055902
402.0, 0.08805228497486425
403.0, 0.09152865558344653
404.0, 0.09271239972220158
405.0, 0.09106863683619439
406.0, 0.08722048288568546
407.0, 0.08195279336178946
408.0, 0.07559323206310886
409.0, 0.06817773552479968
410.0, 0.06063435928246486
411.0, 0.05415290941977275
412.0, 0.04932809591184233
413.0, 0.04620024910577231
414.0, 0.0438443283450541
415.0, 0.042136469261395845
416.0, 0.041586999399744244
417.0, 0.04191762721517791
418.0, 0.04365782868432084
419.0, 0.045268963451097544
420.0, 0.04692328314827967
421.0, 0.04978142030562537
422.0, 0.052890181552261384
423.0, 0.058856732835462146
424.0, 0.06508949206142715
425.0, 0.07132638068574283
426.0, 0.07919676696264359
427.0, 0.08892654304271311
428.0, 0.09769354383668405
429.0, 0.1056580031950482
430.0, 0.11168441121741945
431.0, 0.11349428734743791
432.0, 0.10846330556945923
433.0, 0.09959701414138974
434.0, 0.08787093038886812
435.0, 0.07542710034244075
436.0, 0.0649462656085792
437.0, 0.0570437935638944
438.0, 0.05199320914971497
439.0, 0.0494908035425071
440.0, 0.049103156282400896
441.0, 0.05051600738567143
442.0, 0.05364657927749494
443.0, 0.05826429858006644
444.0, 0.062320659831616866
445.0, 0.06661361312334904
446.0, 0.07059085373910602
447.0, 0.06990663894784997
448.0, 0.06418148899869787
449.0, 0.05594105093283822
450.0, 0.04641443946156686
451.0, 0.037455161021708705
452.0, 0.03171980468279934
453.0, 0.02755471387774575
454.0, 0.025005156292195088
455.0, 0.024188464733440072
456.0, 0.024479925926229544
457.0, 0.024961055441270783
458.0, 0.026215709697824333
459.0, 0.028673506096330646
460.0, 0.032639708936010974
461.0, 0.03708986732313577
462.0, 0.04129036814273892
463.0, 0.047610032266658685
464.0, 0.05322108061976734
465.0, 0.05857793836728015
466.0, 0.0634441288896356
467.0, 0.06650089929499989
468.0, 0.06738967186456665
469.0, 0.0625243601629371
470.0, 0.05543378221942897
471.0, 0.047688250754188165
472.0, 0.0399055680164908
473.0, 0.033012284277568714
474.0, 0.02710537858229474
475.0, 0.022202633946282288
476.0, 0.018213841929330652
477.0, 0.01546652675133119
478.0, 0.014084777491067348
479.0, 0.011597247838996141
480.0, 0.009076717138555504
481.0, 0.00801778897653566
482.0, 0.007574057687858121
483.0, 0.006014174327905631
484.0, 0.005243524697270768
485.0, 0.004236713501919576
486.0, 0.0035907233540674608
487.0, 0.0032619231510560382
488.0, 0.002728645430542666
489.0, 0.001920202978255077
490.0, 0.00135196254108746
491.0, 0.001631598715617316
492.0, 0.0016802900672145966
493.0, 0.0010317380794938925
494.0, 0.0009778118318722277
495.0, 0.001062157337817449
496.0, 0.00021748211589130818
497.0, 0.0001653282836360334
498.0, 0.00028666675345854803
499.0, 6.114216403176435e-05
500.0, 5.3979536707176294e-05
501.0, 0.00025971090092126946
502.0, 0.0001704035928902506
503.0, 0.0004177081002564983
504.0, 0.0008133180003351159
505.0, 0.0001461583105627919
506.0, 0.0004854481566163319
507.0, 0.0007162078179190533
508.0, 0.0005364774309201862
509.0, 0.0003054420736818904
510.0, 0.000424275200534147
511.0, 0.0003268209676881284
512.0, 0.0006646460789883943
513.0, 0.0005152566918772442
514.0, 0.0003829497519570501
515.0, 0.0011835022392451308
516.0, 0.00045193655790966644
517.0, 0.00018128204768926842
518.0, 0.0004353670333636114
519.0, 0.0003048807761950908
520.0, 0.00022965038976403742
521.0, 0.0004812028053129533
522.0, 0.0002285994791357955
523.0, 0.00044406467546566017
524.0, 0.00046129741378299235
525.0, 3.40671666916556e-05
526.0, 7.78765096928229e-05
527.0, 0.000330515380274638
528.0, 0.00014137909414569768
529.0, 0.0005447238899662307
530.0, 0.000945774279289422
531.0, 0.0007825136014804694
532.0, 0.000672010226742213
533.0, 0.0008074192537047865
534.0, 0.0009839005300279614
535.0, 0.0009809869994885586
536.0, 0.0008909133933944738
537.0, 0.0010615722121170277
538.0, 0.001445847543685665
539.0, 0.0016645366563449047
540.0, 0.0013521571813046335
541.0, 0.0010629364668605526
542.0, 0.001566952564867993
543.0, 0.0022736361255464095
544.0, 0.001836835173969476
545.0, 0.001932740511239711
546.0, 0.002157150508537078
547.0, 0.002065332797149038
548.0, 0.0022934293724504585
549.0, 0.002852538576827781
550.0, 0.0027242165243940688
551.0, 0.002402547034814769
552.0, 0.0023425261045394168
553.0, 0.002595078625026494
554.0, 0.002690103781656473
555.0, 0.0030528762815027477
556.0, 0.0032646896556077056
557.0, 0.0031806194281178263
558.0, 0.0029495016016927895
559.0, 0.0028652132658926743
560.0, 0.0033100956798458765
561.0, 0.0025207007272719773
562.0, 0.002095173909256755
563.0, 0.0026127387386855323
564.0, 0.0032499651988130047
565.0, 0.003038935672808684
566.0, 0.0032538008986044793
567.0, 0.0033735614621662213
568.0, 0.002775855078674585
569.0, 0.002142582238106873
570.0, 0.0024686806107135895
571.0, 0.002870752096691521
572.0, 0.002497928138118279
573.0, 0.002048980727966484
574.0, 0.001765560941330022
575.0, 0.0016917090112526932
576.0, 0.002102057742967581
577.0, 0.0019528741222839398
578.0, 0.0018908512134609675
579.0, 0.0022568639083267016
580.0, 0.002875561914124355
581.0, 0.003097308797084824
582.0, 0.0026496592769782905
583.0, 0.0027077344746231735
584.0, 0.0031022465788234695
585.0, 0.003286694329304682
586.0, 0.0034198373045117372
587.0, 0.0039955246154164984
588.0, 0.005079969745366979
589.0, 0.006181302344902211
590.0, 0.007131224674758364
591.0, 0.008338844703687513
592.0, 0.010129221947757597
593.0, 0.012513952583493962
594.0, 0.015078064451972338
595.0, 0.017633369071114867
596.0, 0.02021530554337062
597.0, 0.022629128952445027
598.0, 0.02512274964451466
599.0, 0.028345991655432827
600.0, 0.03164147971399115
601.0, 0.035893689598295135
602.0, 0.04148478702210605
603.0, 0.04816921163156306
604.0, 0.055851164280389234
605.0, 0.06472106028467434
606.0, 0.07281394527771094
607.0, 0.07973522570813424
608.0, 0.08535234937612642
609.0, 0.08783713779824802
610.0, 0.08430527572505905
611.0, 0.07380994601217597
612.0, 0.06023548726753241
613.0, 0.04688523650469448
614.0, 0.03621078178001238
615.0, 0.029309638704320632
616.0, 0.02572383210783635
617.0, 0.02393195423585981
618.0, 0.023371559156595615
619.0, 0.023870530544664082
620.0, 0.024877307857551295
621.0, 0.026418410356032738
622.0, 0.029243224123764185
623.0, 0.03293913091825562
624.0, 0.03693392201220396
625.0, 0.0412507828658246
626.0, 0.046742221349967285
627.0, 0.05251116932542217
628.0, 0.056826083089252806
629.0, 0.06341139842848188
630.0, 0.07060720247265914
631.0, 0.0793259597180293
632.0, 0.08916305517317064
633.0, 0.09955368034949914
634.0, 0.11082072701740178
635.0, 0.12228628162416211
636.0, 0.1326810673318763
637.0, 0.139480678327721
638.0, 0.14115165477174216
639.0, 0.136941300386939
640.0, 0.12646359134626964
641.0, 0.10924405338348411
642.0, 0.08651243881897212
643.0, 0.06445121061546985
644.0, 0.047030628722827504
645.0, 0.03459096382461299
646.0, 0.02558034686371039
647.0, 0.019753052868856032
648.0, 0.01494308442173566
649.0, 0.01196298974145264
650.0, 0.009755037907524768
651.0, 0.007345603918668374
652.0, 0.0060944957465077785
653.0, 0.0051397177863534045
654.0, 0.004488912515300849
655.0, 0.0037326326976117275
656.0, 0.0030211435533817046
657.0, 0.0025744538939831423
658.0, 0.0022364933220483233
659.0, 0.0015906694125669598
660.0, 0.0013685954962422994
661.0, 0.001134562781430293
662.0, 0.0011816333985546913
663.0, 0.0013089762869648721
664.0, 0.0005475187746473297
665.0, 0.0002977866038271197
666.0, 0.0004984407425628172
667.0, 0.0003986681637239645
668.0, 6.0128893158087465e-05
669.0, 0.000338413222427037
670.0, 0.00037122872130240374
671.0, 0.0004670834207462212
672.0, 7.614087015847448e-05
673.0, 0.0005960631045518495
674.0, 0.0003459153110820874
675.0, 0.0001393523592635532
676.0, 9.445104153950825e-05
677.0, 0.0003174382030041271
678.0, 0.0001387867320533838
679.0, 0.000304481121295509
680.0, 0.00045666641110713943
681.0, 0.00045187990223018995
682.0, 0.00019097584722756512
683.0, 0.0006788463780800445
684.0, 0.00017864433565339168
685.0, 0.0005052148666711085
686.0, 0.0005914609613740434
687.0, 0.00018509930076681834
688.0, 0.0003414676305405489
689.0, 0.00028837944370272545
690.0, 0.00010491194448956094
691.0, 0.000249016872884339
692.0, 0.0002841425626599766
693.0, 0.000274866901205999
694.0, 0.0003832139995941565
695.0, 3.961905239744651e-05
696.0, 0.00016290140023729818
697.0, 0.0003073307778264839
698.0, 0.00023774472667179535
699.0, 0.000309912774231928
700.0, 0.0005718561618144335
701.0, 0.0005008171027934042
702.0, 0.00028315932119181637
703.0, 0.0003101731768439266
704.0, 0.000134979361854706
705.0, 0.00012753733746247598
706.0, 0.00062512112771809
707.0, 0.0011130805676323916
708.0, 0.00041533935415667195
709.0, 0.0007743146929686472
710.0, 0.00043047430132987926
711.0, 0.000165481938025638
712.0, 0.0002892910162098071
713.0, 0.0003883821059964838
714.0, 0.0007226439879401767
715.0, 0.0007423617765363956
716.0, 0.0004873566945081682
717.0, 0.0005590747811243326
718.0, 0.0007790774475439032
719.0, 0.0007966200829180864
720.0, 0.0008412963399809199
721.0, 0.001265986465454215
722.0, 0.0007637783215678082
723.0, 0.0007097255163361103
724.0, 0.0009294949250199523
725.0, 0.0008442397983471683
726.0, 0.0006215387478259022
727.0, 0.00124830601023328
728.0, 0.0007593922112299903
729.0, 0.0005219061679093472
730.0, 0.0004117850830523386
731.0, 0.0004926979849428504
732.0, 0.0007861932779573606
733.0, 0.0007472044585331737
734.0, 0.0010295369381306838
735.0, 0.0007130599291168055
736.0, 0.0007088453207257266
737.0, 0.000790374614977786
738.0, 0.0008447733960255941
739.0, 0.0010945965939925355
740.0, 0.0009632582852211549
741.0, 0.0003410810656118082
742.0, 0.0006477101555802556
743.0, 0.00037758359335404284
744.0, 0.00028831897374082444
745.0, 0.0010878725090239455
746.0, 0.0010623579452864803
747.0, 0.0006422447612464947
748.0, 0.0006586015375297393
749.0, 0.0008587802970943921
750.0, 0.0009156835546176733
751.0, 0.0007528240155432308
752.0, 0.0006224285526515315
753.0, 0.0010872022190516833
754.0, 0.0005706891962373873
755.0, 0.0008168345903883279
756.0, 0.0008670125891645871
757.0, 0.0009093013419763371
758.0, 0.001005350804629918
759.0, 0.0006003481452857395
760.0, 0.0013680640854315832
761.0, 0.0010997072021666802
762.0, 0.0005099484020096811
763.0, 0.00020988095739307364
764.0, 0.0005742995810192358
765.0, 0.0010054729975978807
766.0, 0.00028642545053794244
767.0, 0.0009275711468656815
768.0, 0.0013755219066586657
769.0, 0.0009405957832550331
770.0, 0.0006243403400627185
771.0, 0.0007815341661121052
772.0, 0.0007127986618364597
773.0, 0.0004628617637147795
774.0, 0.00033824565994287914
775.0, 0.00019661995644339249
776.0, 0.0002607160692419915
777.0, 0.00046892241257453425
778.0, 0.0006800131097565535
779.0, 0.0007562004974825722
780.0, 0.0003410891540213557
781.0, 0.0008126162549877688
782.0, 0.000350296871331033
783.0, 0.0005790260148845656
784.0, 0.0011800573203477507
785.0, 0.0009012094026536219
786.0, 0.0003310208230196214
787.0, 0.0004155067067331687
788.0, 0.00011886130663123478
789.0, 0.00045999529276379686
790.0, 0.0005059593349480568
791.0, 0.00013629184374979998
792.0, 2.95421746899868e-05
793.0, 5.081426688924933e-06
794.0, 0.00012045315409215182
795.0, 0.00043752195864140504
796.0, 0.0001348601671846469
797.0, 0.0002694405109123441
798.0, 5.854125569269356e-05
799.0, 8.342963822893681e-05
800.0, 0.00019204565925701569
801.0, 0.0004879243992123253
802.0, 7.649269528649887e-05
803.0, 0.00025531473348419144
804.0, 0.0006231631364860527
805.0, 0.000649933265994772
806.0, 0.0006232768305762024
807.0, 0.0009988632544912824
808.0, 0.000430219704459706
809.0, 0.0008315556681583697
810.0, 0.00039114861924874984
811.0, 0.00014332108741829587
812.0, 0.0005494467015829082
813.0, 0.0004880620876758561
814.0, 4.325316949962963e-05
815.0, 0.0005443726219201225
816.0, 0.0006643388568661789
817.0, 0.0005125307497876587
818.0, 0.0006975170548847229
819.0, 0.000763219598572726
820.0, 0.00041229282281213275
821.0, 0.0007871889744731282
822.0, 0.0008033541382696901
823.0, 0.0003320104424106156
824.0, 0.0006373751453132957
825.0, 0.0007748413364218821
826.0, 0.00036712819086973455
827.0, 0.00027830284463569653
828.0, 0.0007722794227827282
829.0, 0.0005515979577015505
830.0, 0.00010735493126213105
831.0, 8.154642810169256e-05
832.0, 0.0005714800632424678
833.0, 0.0005234598833962556
834.0, 0.00010042563571859745
835.0, 0.00019523130810724875
836.0, 0.0004798809296369937
837.0, 0.0008966698433671458
838.0, 0.000989722786878196
839.0, 0.0003149830932998274
840.0, 0.0003048183732471295
841.0, 0.001117603516963963
842.0, 0.0009560661931813265
843.0, 0.00023139187288984212
844.0, 0.00031037878028614076
845.0, 0.0005175325512985042
846.0, 0.0002557131501447317
847.0, 0.0001304016203246776
848.0, 0.00023456586850118205
849.0, 0.0001635308458570277
850.0, 0.0004398033603208677
851.0, 0.00028773740723068866
852.0, 0.00013237223438901396
853.0, 0.0002541743885114964
854.0, 0.0001279158175161748
855.0, 9.135690390807622e-05
856.0, 0.00038429062707553865
857.0, 0.0003067661956406967
858.0, 0.00019167103882901927
859.0, 0.0004924242980638838
860.0, 0.0005700647771388061
861.0, 0.0006645195327494299
862.0, 0.0007912234794668485
863.0, 0.0004395315915755644
864.0, 3.189874277249848e-05
865.0, 0.0003645652359258684
866.0, 0.0003609592316937811
867.0, 0.0004235243682498807
868.0, 0.0005837225388726581
869.0, 0.00038444925858130744
870.0, 0.0004573652453010776
871.0, 0.0010719517252352716
872.0, 0.00037437857933927786
873.0, 0.0002560684736346588
874.0, 6.638353592274628e-05
875.0, 0.00017766861246470598
876.0, 0.00013944744886622908
877.0, 1.9700427843774993e-05
878.0, 5.8384776350935e-05
879.0, 0.00010952938852747815
880.0, 0.00048617444030138
881.0, 0.00016176355353546737
882.0, 0.00015466114401370182
883.0, 8.460474267940317e-05
884.0, 0.00030069996991245604
885.0, 0.000589422284838812
886.0, 2.6094593665876344e-05
887.0, 4.47001922118926e-05
888.0, 0.00016573501022517688
889.0, 4.62902968780827e-05
890.0, 0.0006202768270499065
891.0, 0.0005703865884825077
892.0, 0.0004115161430969437
893.0, 0.0007343380502609419
894.0, 0.0010014100497271246
895.0, 0.0013625103414058994
896.0, 0.0014228590670491157
897.0, 0.0016261486514722121
898.0, 0.0017473265188387142
899.0, 0.0016029573520932208
900.0, 0.0016614928030783216
901.0, 0.0019180055958757194
902.0, 0.0015585915499944148
903.0, 0.0015262250706826617
904.0, 0.0010587899361017626
905.0, 0.00153863224135022
906.0, 0.0014481197683760465
907.0, 0.0013093892154762558
908.0, 0.0016475001628112904
909.0, 0.0017395743433144114
910.0, 0.0016495664922186756
911.0, 0.0017345397196928975
912.0, 0.0021410769343832856
913.0, 0.0023570118218264923
914.0, 0.0022953716255094394
915.0, 0.002375004572418685
916.0, 0.0026474816295351243
917.0, 0.0027909101997875773
918.0, 0.0027227487385437696
919.0, 0.0028614445800927324
920.0, 0.002606635035932697
921.0, 0.002651055057080785
922.0, 0.0028855267812262814
923.0, 0.0030966143375773707
924.0, 0.0030293019506120213
925.0, 0.0029543206543274354
926.0, 0.00384251280245164
927.0, 0.003698071023671293
928.0, 0.002857957730905881
929.0, 0.003335941596268002
930.0, 0.0038670902552598893
931.0, 0.0030605080931887124
932.0, 0.002389896103395604
933.0, 0.0031574575841146553
934.0, 0.0025029453491309654
935.0, 0.0016520137279235493
936.0, 0.0011245636482803815
937.0, 0.0009912143493431686
938.0, 0.0016235260091902702
939.0, 0.0013935448824953763
940.0, 0.00027269963268201295
941.0, 7.025782344030311e-05
942.0, 0.0007174385957134144
943.0, 0.0004164287210544787
944.0, 0.00012132174519671633
945.0, 4.9588394855561754e-05
946.0, 0.0005488282635353561
947.0, 0.0012306191580289249
948.0, 0.0012088718355672324
949.0, 0.0008886102913123165
950.0, 0.0010575815737160275
951.0, 0.0013192905574947976
952.0, 0.0008899883349436973
953.0, 0.0011193708777014525
954.0, 0.0008231323721487511
955.0, 0.0004245911399677655
956.0, 0.0002669770836039523
957.0, 0.0001744321265574997
958.0, 0.00030793039754648183
959.0, 0.00013160071448511536
960.0, 0.0006642760804728047
961.0, 0.000993689155474598
962.0, 0.001181727191855686
963.0, 0.001497092478477427
964.0, 0.002062677534513812
965.0, 0.0031376843773901317
966.0, 0.004245812130116948
967.0, 0.0038397013951360615
968.0, 0.005179676359081011
969.0, 0.006665788349319702
970.0, 0.006537042941671666
971.0, 0.007033638341996783
972.0, 0.008248160746649006
973.0, 0.00906263668042137
974.0, 0.00941635715923237
975.0, 0.009873116968969727
976.0, 0.010930353076015982
977.0, 0.012409039158065
978.0, 0.014546514148669282
979.0, 0.017163164579515285
980.0, 0.02037823402764241
981.0, 0.024478238804783257
982.0, 0.030174938633504234
983.0, 0.03898466039473017
984.0, 0.05474491321192582
985.0, 0.07846017770770944
986.0, 0.10629717563993497
987.0, 0.1357814048207901
988.0, 0.16109408177782777
989.0, 0.1824567287036143
990.0, 0.20491012239448164
991.0, 0.23385581381988024
992.0, 0.27323644906637556
993.0, 0.32182785258296487
994.0, 0.3975867915963496
995.0, 0.5055572259598144
996.0, 0.6440975917110876
997.0, 0.7992021442962616
998.0, 0.9417949344603489
999.0, 0.9897174589172331
1000.0, 0.8574442056544356
1001.0, 0.6001912217978235
1002.0, 0.3764946197612936
1003.0, 0.23298865174358982
1004.0, 0.15316229416724625
1005.0, 0.1077561223294327
1006.0, 0.08004722840918937
1007.0, 0.06245368296479639
1008.0, 0.05079428148023485
1009.0, 0.042289338962058526
1010.0, 0.03741323192829273
1011.0, 0.03403859490308628
1012.0, 0.03182433382516994
1013.0, 0.030441057373390864
1014.0, 0.030916608718979957
1015.0, 0.0313548521929356
1016.0, 0.03195260394460893
1017.0, 0.033676336192385574
1018.0, 0.0363312479211332
1019.0, 0.04086594270112678
1020.0, 0.042545643202338015
1021.0, 0.04607717826533543
1022.0, 0.05030420238316315
1023.0, 0.05479974580126531
1024.0, 0.059182188786555776
1025.0, 0.06345932749113302
1026.0, 0.06662335691152996
1027.0, 0.06812214335129058
1028.0, 0.07074629351571646
1029.0, 0.07310155190015155
1030.0, 0.07645814096505471
1031.0, 0.0818861808121314
1032.0, 0.08907610496913383
1033.0, 0.09732181729297282
1034.0, 0.10762205299463087
1035.0, 0.1209151499443475
1036.0, 0.13678132198588083
1037.0, 0.15509389753487413
1038.0, 0.17712626266512735
1039.0, 0.19983469843057758
1040.0, 0.22366083561858055
1041.0, 0.25313325790432917
1042.0, 0.28754867763724734
1043.0, 0.326171847179161
1044.0, 0.36950361052787056
1045.0, 0.41418269461495466
1046.0, 0.45109445823910826
1047.0, 0.47182493292988553
1048.0, 0.47867835831130257
1049.0, 0.46975111420032895
1050.0, 0.4471053767701949
1051.0, 0.3992397524084274
1052.0, 0.32881272004657375
1053.0, 0.25070414281067516
1054.0, 0.18158884139142664
1055.0, 0.13197041994322944
1056.0, 0.09624111421796844
1057.0, 0.07376560807416463
1058.0, 0.05870449681994233
1059.0, 0.046877165841005215
1060.0, 0.03799818241461678
1061.0, 0.03110533899143885
1062.0, 0.02609390996887157
1063.0, 0.022229884417999585
1064.0, 0.01846937437324072
1065.0, 0.01565943843492738
1066.0, 0.0130156630251115
1067.0, 0.011383907875981375
1068.0, 0.010202878261465887
1069.0, 0.008382566457645136
1070.0, 0.007285938212774744
1071.0, 0.006301148209668521
1072.0, 0.005752869592972029
1073.0, 0.0051896106808932896
1074.0, 0.00367826866074971
1075.0, 0.003192338257917347
1076.0, 0.0030703774614946654
1077.0, 0.003168446817389532
1078.0, 0.00212554435742414
1079.0, 0.001169186240939316
1080.0, 0.0009796185098955212
1081.0, 0.0013513249775174297
1082.0, 0.0014700215799677405
1083.0, 0.0010791163066785072
1084.0, 0.0006598774349713572
1085.0, 0.0004971203010277554
1086.0, 0.00032004189589288334
1087.0, 0.00012153388538345991
1088.0, 0.00040031565248544837
1089.0, 0.0002746627631917095
1090.0, 0.0002701917313557603
1091.0, 0.00026578501103352163
1092.0, 0.00017690733031939263
1093.0, 0.0004261833560442163
1094.0, 0.0007681972790450216
1095.0, 0.0002930975330809638
1096.0, 0.00026408374736879025
1097.0, 0.0003931056194923797
1098.0, 0.0005179806501711269
1099.0, 0.0005888420747809797
1100.0, 0.0003652147027911364
1101.0, 0.0001245162480111477
1102.0, 0.00039541975151706124
1103.0, 0.0006901507660555141
1104.0, 0.0005253004591279953
1105.0, 0.0005961967114133623
1106.0, 0.0003822790022802994
1107.0, 0.00021160894905965246
1108.0, 8.522273250605484e-05
1109.0, 0.0004541316881714986
1110.0, 0.0004048268448379145
1111.0, 0.00010977396385004304
1112.0, 0.00031082523031749173
1113.0, 0.00028146190177330164
1114.0, 0.0003975645120912287
1115.0, 0.0005421589332448576
1116.0, 0.00034568341991114476
1117.0, 0.00015895826544959574
1118.0, 0.00022610253761324637
1119.0, 0.00015029879493495157
1120.0, 7.851375486696662e-05
1121.0, 4.7085608532871385e-05
1122.0, 0.00012703479472633635
1123.0, 0.0003381040388386891
1124.0, 0.0005693338382541043
1125.0, 0.0007993894424335981
1126.0, 0.0007241921967241572
1127.0, 0.0004299010545973042
1128.0, 0.00045022866847265483
1129.0, 8.339037825429566e-05
1130.0, 0.00038257092212114836
1131.0, 0.0001996156880851242
1132.0, 0.00023028622030406154
1133.0, 0.00022456025928553576
1134.0, 0.0003330747000365199
1135.0, 0.0007455122001792849
1136.0, 0.0006117593949437974
1137.0, 0.0008497741689129224
1138.0, 0.0012898972830885337
1139.0, 0.0012392978907674746
1140.0, 0.00013847532343347888
1141.0, 0.0005616974259096463
1142.0, 0.0011033684695091926
1143.0, 0.0006200699731104936
1144.0, 0.00028199431887683405
1145.0, 0.0005833758937218653
1146.0, 0.000880448086293093
1147.0, 0.0009088282503621845
1148.0, 0.000858133146392631
1149.0, 0.0011624561760198342
1150.0, 0.0017473351339167078
1151.0, 0.0009915450800859406
1152.0, 0.0011759059299482108
1153.0, 0.0017296379326275813
1154.0, 0.001276233939500381
1155.0, 0.0015538495242663857
1156.0, 0.002703309250352401
1157.0, 0.002724435261063933
1158.0, 0.0019756594324734
1159.0, 0.0025093590622960868
1160.0, 0.0024379731277740166
1161.0, 0.002302887938261466
1162.0, 0.002178163398740206
1163.0, 0.0023670592763679415
1164.0, 0.0026765282952448534
1165.0, 0.0033999021151740996
1166.0, 0.0043476080282897145
1167.0, 0.004458731238304536
1168.0, 0.00402279028609788
1169.0, 0.003923586720804714
1170.0, 0.0038919130977222954
1171.0, 0.0046285946322027795
1172.0, 0.004877787763953037
1173.0, 0.005283760426236779
1174.0, 0.005958680317104886
1175.0, 0.006101868865225315
1176.0, 0.006412923889463406
1177.0, 0.006708616049426276
1178.0, 0.007027514790380498
1179.0, 0.007779208650655539
1180.0, 0.00822778937029539
1181.0, 0.008080563098972808
1182.0, 0.008899941476233526
1183.0, 0.009938236683546061
1184.0, 0.010953927765004843
1185.0, 0.012581577614255737
1186.0, 0.013475630335931322
1187.0, 0.014757476234436311
1188.0, 0.017119823547619997
1189.0, 0.019046909339687005
1190.0, 0.020933059451493874
1191.0, 0.023935375466865676
1192.0, 0.027635931967958095
1193.0, 0.032123666628414226
1194.0, 0.03822448668364182
1195.0, 0.044448027716160764
1196.0, 0.0527229361922795
1197.0, 0.06365887501211116
1198.0, 0.0756269918595675
1199.0, 0.08826778498637089
1200.0, 0.10249694118567435
1201.0, 0.11722149568730558
1202.0, 0.1339652882323727
1203.0, 0.15398107708833653
1204.0, 0.1771504000141632
1205.0, 0.2054929396038607
1206.0, 0.24020572723844621
1207.0, 0.2780651440883119
1208.0, 0.3119976396045693
1209.0, 0.33270798570001303
1210.0, 0.320690215794092
1211.0, 0.27941526600685224
1212.0, 0.22462167839471844
1213.0, 0.1706668042118285
1214.0, 0.12645832208687396
1215.0, 0.09477422550043957
1216.0, 0.07311248934524323
1217.0, 0.05742102166388248
1218.0, 0.045456160297269635
1219.0, 0.036577249780019146
1220.0, 0.030952353123591934
1221.0, 0.026141210580364147
1222.0, 0.02237478227364041
1223.0, 0.01847128180111072
1224.0, 0.016204853459792994
1225.0, 0.014532715775359872
1226.0, 0.013165034821501982
1227.0, 0.0115847400201193
1228.0, 0.009808128803212924
1229.0, 0.008755464878090985
1230.0, 0.008124154427809543
1231.0, 0.006901731560671985
1232.0, 0.006084431942904717
1233.0, 0.005593231113216255
1234.0, 0.0052706794125080185
1235.0, 0.004587957862907095
1236.0, 0.004598035012545472
1237.0, 0.0038953616485696216
1238.0, 0.003038704046925047
1239.0, 0.0025782619524184415
1240.0, 0.0024361321944766307
1241.0, 0.0021733182133990845
1242.0, 0.0018448648218082598
1243.0, 0.0015866675012360574
1244.0, 0.0012260915954291917
1245.0, 0.001253307289810658
1246.0, 0.001301784828209493
1247.0, 0.0006370550059867509
1248.0, 0.0012870003903388898
1249.0, 0.0005430145049354982
1250.0, 0.0010027371126944424
1251.0, 0.00022187392344179895
1252.0, 0.00026094395282450633
1253.0, 0.0007351464242547645
1254.0, 0.0009911726136391146
1255.0, 0.00048032505975816064
1256.0, 0.00017950221357729865
1257.0, 0.00017426261155019366
1258.0, 0.00016119369535603302
1259.0, 0.0005630383724941807
1260.0, 0.00013008060117005382
1261.0, 0.0001256198087351527
1262.0, 5.089486067095081e-05
1263.0, 0.0008486794709313912
1264.0, 0.0006913648115612494
1265.0, 0.00011617231473123884
1266.0, 0.00036603971408488207
1267.0, 0.00019945890620425553
1268.0, 0.0003303576751825821
1269.0, 0.00016490278770843098
1270.0, 0.00011471129242708968
1271.0, 0.0002516765660322836
1272.0, 0.000741692721141005
1273.0, 0.00040855511942184064
1274.0, 0.00036081385305253066
1275.0, 0.0003348447539754439
1276.0, 0.0001959646126720167
1277.0, 0.001225106023578843
1278.0, 0.00127446653367422
1279.0, 0.0012817639923007448
1280.0, 0.0007965830894257682
1281.0, 0.000466505563850358
1282.0, 0.0006768650500805298
1283.0, 0.0003966711228099937
1284.0, 0.00018099683535260664
1285.0, 0.000557876698183727
1286.0, 0.0007179404801127528
1287.0, 0.0007327048055004398
1288.0, 0.0003832096546977397
1289.0, 0.0005167075222101296
1290.0, 2.1011656153737646e-05
1291.0, 0.0005365648527925922
1292.0, 0.0002753807609751716
1293.0, 0.0004228447530579524
1294.0, 0.0008160461301664792
1295.0, 0.00092681806242779
1296.0, 0.0007536278924851668
1297.0, 0.00019078748458795257
1298, 0.0
1299, 0.0
1300, 0.0
1301, 0.0
1302, 0.0
1303, 0.0
1304, 0.0
1305, 0.0
1306, 0.0
1307, 0.0
1308, 0.0
1309, 0.0
1310, 0.0
1311, 0.0
1312, 0.0
1313, 0.0
1314, 0.0
1315, 0.0
1316, 0.0
1317, 0.0
1318, 0.0
1319, 0.0
1320, 0.0
1321, 0.0
1322, 0.0
1323, 0.0
1324, 0.0
1325, 0.0
1326, 0.0
1327, 0.0
1328, 0.0
1329, 0.0
1330, 0.0
1331, 0.0
1332, 0.0
1333, 0.0
1334, 0.0
1335, 0.0
1336, 0.0
1337, 0.0
1338, 0.0
1339, 0.0
1340, 0.0
1341, 0.0
1342, 0.0
1343, 0.0
1344, 0.0
1345, 0.0
1346, 0.0
1347, 0.0
1348, 0.0
1349, 0.0
1350, 0.0
1351, 0.0
1352, 0.0
1353, 0.0
1354, 0.0
1355, 0.0
1356, 0.0
1357, 0.0
1358, 0.0
1359, 0.0
1360, 0.0
1361, 0.0
1362, 0.0
1363, 0.0
1364, 0.0
1365, 0.0
1366, 0.0
1367, 0.0
1368, 0.0
1369, 0.0
1370, 0.0
1371, 0.0
1372, 0.0
1373, 0.0
1374, 0.0
1375, 0.0
1376, 0.0
1377, 0.0
1378, 0.0
1379, 0.0
1380, 0.0
1381, 0.0
1382, 0.0
1383, 0.0
1384, 0.0
1385, 0.0
1386, 0.0
1387, 0.0
1388, 0.0
1389, 0.0
1390, 0.0
1391, 0.0
1392, 0.0
1393, 0.0
1394, 0.0
1395, 0.0
1396, 0.0
1397, 0.0
1398, 0.0
1399, 0.0
1400, 0.0
1401, 0.0
1402, 0.0
1403, 0.0
1404, 0.0
1405, 0.0
1406, 0.0
1407, 0.0
1408, 0.0
1409, 0.0
1410, 0.0
1411, 0.0
1412, 0.0
1413, 0.0
1414, 0.0
1415, 0.0
1416, 0.0
1417, 0.0
1418, 0.0
1419, 0.0
1420, 0.0
1421, 0.0
1422, 0.0
1423, 0.0
1424, 0.0
1425, 0.0
1426, 0.0
1427, 0.0
1428, 0.0
1429, 0.0
1430, 0.0
1431, 0.0
1432, 0.0
1433, 0.0
1434, 0.0
1435, 0.0
1436, 0.0
1437, 0.0
1438, 0.0
1439, 0.0
1440, 0.0
1441, 0.0
1442, 0.0
1443, 0.0
1444, 0.0
1445, 0.0
1446, 0.0
1447, 0.0
1448, 0.0
1449, 0.0
1450, 0.0
1451, 0.0
1452, 0.0
1453, 0.0
1454, 0.0
1455, 0.0
1456, 0.0
1457, 0.0
1458, 0.0
1459, 0.0
1460, 0.0
1461, 0.0
1462, 0.0
1463, 0.0
1464, 0.0
1465, 0.0
1466, 0.0
1467, 0.0
1468, 0.0
1469, 0.0
1470, 0.0
1471, 0.0
1472, 0.0
1473, 0.0
1474, 0.0
1475, 0.0
1476, 0.0
1477, 0.0
1478, 0.0
1479, 0.0
1480, 0.0
1481, 0.0
1482, 0.0
1483, 0.0
1484, 0.0
1485, 0.0
1486, 0.0
1487, 0.0
1488, 0.0
1489, 0.0
1490, 0.0
1491, 0.0
1492, 0.0
1493, 0.0
1494, 0.0
1495, 0.0
1496, 0.0
1497, 0.0
1498, 0.0
1499, 0.0
1500, 0.0
1501, 0.0
1502, 0.0
1503, 0.0
1504, 0.0
1505, 0.0
1506, 0.0
1507, 0.0
1508, 0.0
1509, 0.0
1510, 0.0
1511, 0.0
1512, 0.0
1513, 0.0
1514, 0.0
1515, 0.0
1516, 0.0
1517, 0.0
1518, 0.0
1519, 0.0
1520, 0.0
1521, 0.0
1522, 0.0
1523, 0.0
1524, 0.0
1525, 0.0
1526, 0.0
1527, 0.0
1528, 0.0
1529, 0.0
1530, 0.0
1531, 0.0
1532, 0.0
1533, 0.0
1534, 0.0
1535, 0.0
1536, 0.0
1537, 0.0
1538, 0.0
1539, 0.0
1540, 0.0
1541, 0.0
1542, 0.0
1543, 0.0
1544, 0.0
1545, 0.0
1546, 0.0
1547, 0.0
1548, 0.0
1549, 0.0
1550, 0.0
1551, 0.0
1552, 0.0
1553, 0.0
1554, 0.0
1555, 0.0
1556, 0.0
1557, 0.0
1558, 0.0
1559, 0.0
1560, 0.0
1561, 0.0
1562, 0.0
1563, 0.0
1564, 0.0
1565, 0.0
1566, 0.0
1567, 0.0
1568, 0.0
1569, 0.0
1570, 0.0
1571, 0.0
1572, 0.0
1573, 0.0
1574, 0.0
1575, 0.0
1576, 0.0
1577, 0.0
1578, 0.0
1579, 0.0
1580, 0.0
1581, 0.0
1582, 0.0
1583, 0.0
1584, 0.0
1585, 0.0
1586, 0.0
1587, 0.0
1588, 0.0
1589, 0.0
1590, 0.0
1591, 0.0
1592, 0.0
1593, 0.0
1594, 0.0
1595, 0.0
1596, 0.0
1597, 0.0
1598, 0.0
1599, 0.0
