30, 0.0
31, 0.0
32, 0.0
33, 0.0
34, 0.0
35, 0.0
36, 0.0
37, 0.0
38, 0.0
39, 0.0
40, 0.0
41, 0.0
42, 0.0
43, 0.0
44, 0.0
45, 0.0
46, 0.0
47, 0.0
48, 0.0
49, 0.0
50, 0.0
51, 0.0
52, 0.0
53, 0.0
54, 0.0
55, 0.0
56, 0.0
57, 0.0
58, 0.0
59, 0.0
60, 0.0
61, 0.0
62, 0.0
63, 0.0
64, 0.0
65, 0.0
66, 0.0
67, 0.0
68, 0.0
69, 0.0
70, 0.0
71, 0.0
72, 0.0
73, 0.0
74, 0.0
75, 0.0
76, 0.0
77, 0.0
78, 0.0
79, 0.0
80, 0.0
81, 0.0
82, 0.0
83, 0.0
84, 0.0
85, 0.0
86, 0.0
87, 0.0
88, 0.0
89, 0.0
90, 0.0
91, 0.0
92, 0.0
93, 0.0
94, 0.0
95, 0.0
96, 0.0
97, 0.0
98, 0.0
99, 0.0
100, 0.0
101, 0.0
102, 0.0
103, 0.0
104, 0.0
105, 0.0
106, 0.0
107, 0.0
108, 0.0
109, 0.0
110, 0.0
111, 0.0
112, 0.0
113, 0.0
114, 0.0
115, 0.0
116, 0.0
117, 0.0
118, 0.0
119, 0.0
120, 0.0
121, 0.0
122, 0.0
123, 0.0
124, 0.0
125, 0.0
126, 0.0
127, 0.0
128, 0.0
129, 0.0
130, 0.0
131, 0.0
132, 0.0
133, 0.0
134, 0.0
135, 0.0
136, 0.0
137, 0.0
138, 0.0
139, 0.0
140, 0.0
141, 0.0
142, 0.0
143, 0.0
144, 0.0
145, 0.0
146, 0.0
147, 0.0
148, 0.0
149.0, 0.0012506044081784721
150.0, 0.00396895730830038
151.0, 0.005580246348595382
152.0, 0.006697412023910946
153.0, 0.005951631674209734
154.0, 0.0012246666923558702
155.0, 0.004747856709006493
156.0, 0.004560138787357248
157.0, 0.0010779138567268134
158.0, 0.0037783578384800133
159.0, 0.007935998252074016
160.0, 0.01131776493254067
161.0, 0.012490654852048356
162.0, 0.011409441367664036
163.0, 0.010207818853556495
164.0, 0.008693339350227591
165.0, 0.006198367443357732
166.0, 0.00563927098954876
167.0, 0.006288144371215418
168.0, 0.00792503107137485
169.0, 0.009237255633085965
170.0, 0.013730179399946644
171.0, 0.019400524184799317
172.0, 0.02427463351056982
173.0, 0.034998277685316125
174.0, 0.04556482654933035
175.0, 0.05576767371306916
176.0, 0.06757288681242557
177.0, 0.08263733921664507
178.0, 0.09945412882362607
179.0, 0.11749358071160017
180.0, 0.13992300096878654
181.0, 0.15570032831217098
182.0, 0.16560437292607905
183.0, 0.16976576003789232
184.0, 0.18295569107508314
185.0, 0.2036688620788276
186.0, 0.2329927462354567
187.0, 0.2810906031949195
188.0, 0.3616653109179612
189.0, 0.4681841923132025
190.0, 0.6005340821194932
191.0, 0.7454651769153381
192.0, 0.8682796277052626
193.0, 0.9601117134444722
194.0, 0.9939440175628164
195.0, 0.9541541715000365
196.0, 0.8776790750363305
197.0, 0.7722733125884332
198.0, 0.6240057287230107
199.0, 0.49596276699020386
200.0, 0.38571870232739697
201.0, 0.29465860088376006
202.0, 0.23969142049736084
203.0, 0.20036328960751779
204.0, 0.1725000172829656
205.0, 0.14923522527425365
206.0, 0.13492765983320484
207.0, 0.12665092624720445
208.0, 0.12384229230169295
209.0, 0.12749639437574567
210.0, 0.13760807420358212
211.0, 0.1530727645334941
212.0, 0.1737499869170735
213.0, 0.18581858091172643
214.0, 0.19334865549558344
215.0, 0.1947584060829167
216.0, 0.18118168785558156
217.0, 0.15973412935865403
218.0, 0.13466919375186223
219.0, 0.10772453388226955
220.0, 0.08709696341825782
221.0, 0.06663389803957255
222.0, 0.04905553441744487
223.0, 0.03840207424449547
224.0, 0.032060851339916305
225.0, 0.0277477651691991
226.0, 0.023834537583215017
227.0, 0.014986755853855248
228.0, 0.011277413761607905
229.0, 0.009319556129553243
230.0, 0.007959012593344172
231.0, 0.007190544383781448
232.0, 0.0062508802270930305
233.0, 0.005073340155420294
234.0, 0.0035365593071585134
235.0, 0.0019048302619119944
236.0, 0.0025172871333234126
237.0, 0.004527677754064186
238.0, 0.004763850766638536
239.0, 0.00263590116493475
240.0, 0.0023640733294430496
241.0, 0.0048594219927063954
242.0, 0.0035847362540023416
243.0, 0.001991603429466917
244.0, 0.0018842063767222088
245.0, 0.005118175298183678
246.0, 0.001751184664063982
247.0, 0.00034010769779132665
248.0, 0.0005711220193665943
249.0, 0.0009862624526935137
250.0, 0.001159752006705389
251.0, 0.0016045607544202633
252.0, 0.002253068338861612
253.0, 0.001716340904526276
254.0, 0.0021662676547978986
255.0, 0.0025432289107952494
256.0, 0.0021964364173700534
257.0, 0.0027361803430998983
258.0, 0.0018222216323065291
259.0, 0.0014822810224397955
260.0, 0.005133134124600886
261.0, 0.00519729651726502
262.0, 0.006424724717983596
263.0, 0.008752125500275503
264.0, 0.009377609025988122
265.0, 0.011688084886199948
266.0, 0.013998913663191762
267.0, 0.015705914247852126
268.0, 0.017360901260052845
269.0, 0.021388125911320423
270.0, 0.025753597220890777
271.0, 0.02860111206085974
272.0, 0.036930512560747336
273.0, 0.04365251039069828
274.0, 0.049341759984740205
275.0, 0.05587824826283898
276.0, 0.06146112724964812
277.0, 0.0651350392099411
278.0, 0.06677117432423424
279.0, 0.06677706850345941
280.0, 0.06439760671088023
281.0, 0.06115222350511623
282.0, 0.05762660734987929
283.0, 0.05173540129474331
284.0, 0.04471316418313012
285.0, 0.03885487144092635
286.0, 0.03689980562996076
287.0, 0.03350145696989709
288.0, 0.03275473991841782
289.0, 0.03286142037567303
290.0, 0.028808475946489442
291.0, 0.028418086719027763
292.0, 0.029232450959662683
293.0, 0.03085952135675881
294.0, 0.03400286340090518
295.0, 0.03493513971407308
296.0, 0.035992492847312645
297.0, 0.03812437475284429
298.0, 0.03699014737330257
299.0, 0.034889719480294984
300.0, 0.0338326279835318
301.0, 0.036031712795956634
302.0, 0.03591497355924984
303.0, 0.03544583673601737
304.0, 0.036992073553706734
305.0, 0.045756843538941
306.0, 0.04881050641883021
307.0, 0.05151819384611489
308.0, 0.054553933446744765
309.0, 0.05673798113395759
310.0, 0.060656359949587554
311.0, 0.0647524377537173
312.0, 0.06825320686866215
313.0, 0.0688788209887588
314.0, 0.07094857711169239
315.0, 0.07118434491630275
316.0, 0.06696329321621501
317.0, 0.07321527967421045
318.0, 0.07846290150320193
319.0, 0.08294615820702107
320.0, 0.0870570836699725
321.0, 0.09577003030543393
322.0, 0.10621091429810388
323.0, 0.11689721497466041
324.0, 0.12444652363059523
325.0, 0.13747380307371126
326.0, 0.1535558690506471
327.0, 0.17248074691509868
328.0, 0.19601638549071482
329.0, 0.22760089051318158
330.0, 0.2609812182144088
331.0, 0.29392145592753144
332.0, 0.3329118147448132
333.0, 0.3849696821303183
334.0, 0.44282787075489405
335.0, 0.5011645477757489
336.0, 0.5735308244013694
337.0, 0.6476674580308821
338.0, 0.7189420308298236
339.0, 0.7804011565249774
340.0, 0.8224329348274374
341.0, 0.8371502195874571
342.0, 0.8274344961060971
343.0, 0.799525094807074
344.0, 0.7399957568139434
345.0, 0.6649356650402308
346.0, 0.5804116925717795
347.0, 0.4999012477868566
348.0, 0.42886015219798984
349.0, 0.37169168897279525
350.0, 0.328824318745077
351.0, 0.2854448713572195
352.0, 0.25408350638207594
353.0, 0.229190493276207
354.0, 0.2081394105009516
355.0, 0.19788392985571107
356.0, 0.18805690529923033
357.0, 0.18034839252352358
358.0, 0.17660109234752797
359.0, 0.1736090332770986
360.0, 0.17121866521996235
361.0, 0.16926548570215225
362.0, 0.16753768420020249
363.0, 0.17054914414234476
364.0, 0.17645964132258413
365.0, 0.18262083176249833
366.0, 0.182877013293823
367.0, 0.18271755012961347
368.0, 0.17958206836207652
369.0, 0.17354886416981213
370.0, 0.16667261789830118
371.0, 0.15700038343093484
372.0, 0.14737625462353224
373.0, 0.13840368806959047
374.0, 0.12840995418804213
375.0, 0.12495909388435585
376.0, 0.12227391238779103
377.0, 0.11812313771673788
378.0, 0.1175129006825847
379.0, 0.12172121096285543
380.0, 0.12838061718149194
381.0, 0.13600929532183045
382.0, 0.1437398920959011
383.0, 0.15189661846762373
384.0, 0.16122323093717164
385.0, 0.1725424353732828
386.0, 0.17549371225268337
387.0, 0.17914999966372447
388.0, 0.17919696342987446
389.0, 0.16877602737567732
390.0, 0.15801821605004648
391.0, 0.14815475879244955
392.0, 0.137529905343811
393.0, 0.12253892764462297
394.0, 0.10686494946327216
395.0, 0.0917731339505377
396.0, 0.07883498437654633
397.0, 0.0721887003586484
398.0, 0.06201161995455458
399.0, 0.05453713006355739
400.0, 0.04937760843087647
401.0, 0.04025204322288797
402.0, 0.03571078857187694
403.0, 0.031817283782866086
404.0, 0.0279593955927781
405.0, 0.026741161984501407
406.0, 0.023073525029623905
407.0, 0.019971173367655887
408.0, 0.01817363852881924
409.0, 0.014443182178687564
410.0, 0.01294917599653492
411.0, 0.013598314372543505
412.0, 0.015924550520998976
413.0, 0.01361939062006809
414.0, 0.01128987207999081
415.0, 0.00847755982388562
416.0, 0.005158368209794402
417.0, 0.007755243584552949
418.0, 0.007268936087511135
419.0, 0.005646870406634098
420.0, 0.004369780219214867
421.0, 0.0029389921631288274
422.0, 0.002619018343815033
423.0, 0.0030064664989174817
424.0, 0.0037328510690270676
425.0, 0.0038031385057350855
426.0, 0.0027966971371433565
427.0, 0.0017123562399327657
428.0, 0.0017532920270502635
429.0, 0.0024054064428600417
430.0, 0.0024437559806932277
431.0, 0.0020024153858098823
432.0, 0.0013100789904180693
433.0, 0.001422381373421576
434.0, 0.0015892252900233847
435.0, 0.002297141873513573
436.0, 0.004475105714427649
437.0, 0.001580061492245259
438.0, 0.0011190813660482551
439.0, 0.0020323880755920847
440.0, 0.0011024862231598662
441.0, 0.0015628898306068561
442.0, 0.0023607042602257046
443.0, 0.0030438994310429115
444.0, 0.002857386282230489
445.0, 0.0019812480825337426
446.0, 0.0013107562263370842
447.0, 0.0014794264470294638
448.0, 0.0038152841304160863
449.0, 0.0023433260353384177
450.0, 0.001840597225543337
451.0, 0.002127056695416141
452.0, 0.0007179756340159791
453.0, 0.004840944592523149
454.0, 0.00750151158651643
455.0, 0.00768284715304918
456.0, 0.005854946679577715
457.0, 0.009039000296821805
458.0, 0.009317502991645146
459.0, 0.007221766120104217
460.0, 0.009222389571928433
461.0, 0.01184271803549279
462.0, 0.012724912528699804
463.0, 0.012347056525567474
464.0, 0.013913714360043957
465.0, 0.013443421011369708
466.0, 0.013908784958748435
467.0, 0.015651874370888063
468.0, 0.01765763217867012
469.0, 0.013191699855960273
470.0, 0.010908421384242804
471.0, 0.01139861839821941
472.0, 0.010015937137750964
473.0, 0.010996996303708746
474.0, 0.011154449862860261
475.0, 0.010130871934658519
476.0, 0.009186315519254635
477.0, 0.013122725857880279
478.0, 0.01577661488478294
479.0, 0.016326028030654638
480.0, 0.01667865847509768
481.0, 0.018239940431773075
482.0, 0.02239016973834424
483.0, 0.027856425645503675
484.0, 0.029349746355887975
485.0, 0.034589591474052675
486.0, 0.038711018487029604
487.0, 0.042800517909603174
488.0, 0.05359685914783158
489.0, 0.06755907475751015
490.0, 0.0842061285354274
491.0, 0.10261415016893286
492.0, 0.12033101931086797
493.0, 0.1540095718566905
494.0, 0.1904615216814944
495.0, 0.22824565057886248
496.0, 0.2699708102363192
497.0, 0.3004812170271054
498.0, 0.32081311605395435
499.0, 0.3271446461681986
500.0, 0.3089454073084835
501.0, 0.27360822962723735
502.0, 0.23472850150603675
503.0, 0.194751859744024
504.0, 0.1548740797397204
505.0, 0.12959941407757233
506.0, 0.10857905632290467
507.0, 0.09110188890399089
508.0, 0.0782940032784019
509.0, 0.06863826134757542
510.0, 0.060816603066824536
511.0, 0.05496117198541072
512.0, 0.0515821152250833
513.0, 0.04845340478452614
514.0, 0.04530560809279626
515.0, 0.041859378867522216
516.0, 0.037724061110706704
517.0, 0.03548941672848414
518.0, 0.03625806149924487
519.0, 0.03848959459356531
520.0, 0.04019913669039073
521.0, 0.03921997266314253
522.0, 0.04051307258087757
523.0, 0.04231587070797183
524.0, 0.04269137873440399
525.0, 0.045559244830672925
526.0, 0.04764936124507278
527.0, 0.05074301822882071
528.0, 0.056302576121527115
529.0, 0.06150009304357084
530.0, 0.06677269892295772
531.0, 0.0729821235771283
532.0, 0.08060292878628195
533.0, 0.08746341881048997
534.0, 0.10077429009708477
535.0, 0.11470294906766161
536.0, 0.12770760015173457
537.0, 0.15620358462748704
538.0, 0.1861594223165591
539.0, 0.21632517229826959
540.0, 0.2476148921055885
541.0, 0.28932353079650097
542.0, 0.3281093459324458
543.0, 0.3611565540993325
544.0, 0.3867677649450377
545.0, 0.4017590504755521
546.0, 0.38976452932510985
547.0, 0.37249116940596244
548.0, 0.3528313244211996
549.0, 0.3222320976844005
550.0, 0.2886418494352217
551.0, 0.26493686292527485
552.0, 0.24765711362142878
553.0, 0.22309697108244586
554.0, 0.22339766808239728
555.0, 0.21600438234823965
556.0, 0.20120846862956188
557.0, 0.1860133955054266
558.0, 0.17760498386747636
559.0, 0.17130339451896714
560.0, 0.16725612728883552
561.0, 0.16597874495267773
562.0, 0.1645948048330197
563.0, 0.16053741797532897
564.0, 0.1551360673666667
565.0, 0.14961429403923196
566.0, 0.14167821080395607
567.0, 0.1389336526893695
568.0, 0.13530472529348594
569.0, 0.1277610661894904
570.0, 0.127895247969094
571.0, 0.12291304645721506
572.0, 0.11874311522013102
573.0, 0.1166100263344712
574.0, 0.10727860802252039
575.0, 0.10347532938673897
576.0, 0.1010993388557412
577.0, 0.09805529027168115
578.0, 0.09130630356654161
579.0, 0.08552389233925835
580.0, 0.08171035062024402
581.0, 0.07897563106242309
582.0, 0.07470067947899965
583.0, 0.07298674453601264
584.0, 0.07059150328440487
585.0, 0.0673140964382628
586.0, 0.06340093401241512
587.0, 0.062143661504369174
588.0, 0.056668017802050885
589.0, 0.051243445099307505
590.0, 0.050477536190094714
591.0, 0.04588928016947992
592.0, 0.042108431715136896
593.0, 0.0388184020827949
594.0, 0.03572771377048203
595.0, 0.03215911836368124
596.0, 0.030115815502856105
597.0, 0.02757780229189046
598.0, 0.02399023357459361
599.0, 0.02119094516698148
600.0, 0.01857530210638108
601.0, 0.015303513423922825
602.0, 0.012235871890999827
603.0, 0.012656665860195159
604.0, 0.012282787488093836
605.0, 0.009714251114815798
606.0, 0.006759627483387524
607.0, 0.007059078234228358
608.0, 0.006774110306617195
609.0, 0.00636208819716481
610.0, 0.005017344039469164
611.0, 0.0019438153536747594
612.0, 0.0029151929437979873
613.0, 0.003198362382642209
614.0, 0.00243802209052117
615.0, 0.000894362344202472
616.0, 0.0033983598307195636
617.0, 0.0037351058518917276
618.0, 0.00269819750308021
619.0, 0.0010485961647701458
620.0, 0.0007470577120515584
621.0, 0.00134189644164729
622.0, 0.002263551224347094
623.0, 0.002646686578810552
624.0, 0.0007040634587320656
625.0, 0.00042517390089893904
626.0, 0.0014212597350996981
627.0, 0.0022054846452589077
628.0, 0.0008109414367993003
629.0, 0.001198474994432293
630.0, 0.0007592431796294913
631.0, 0.00022319832119217144
632.0, 0.00025059079766685593
633.0, 0.0012940350680506417
634.0, 0.0011382306671199824
635.0, 0.0020818950028179055
636.0, 0.003991296312439996
637.0, 0.001109101696524784
638.0, 0.0011408764376670951
639.0, 0.0019195451036405392
640.0, 0.0031422375581600954
641.0, 0.005320062770888762
642.0, 0.004172937874339111
643.0, 0.0047894329556012645
644.0, 0.006146772811781183
645.0, 0.00624906675984767
646.0, 0.008146050858672088
647.0, 0.008737619487463044
648.0, 0.008696630124061924
649.0, 0.008721231358550092
650.0, 0.010475469438206068
651.0, 0.010581613145097745
652.0, 0.010424313590510392
653.0, 0.010456811387330428
654.0, 0.010354216260199242
655.0, 0.012060208220413069
656.0, 0.012929603804998104
657.0, 0.013125950527311678
658.0, 0.013852536147152495
659.0, 0.015883209134333606
660.0, 0.01678264128311402
661.0, 0.017129177230399917
662.0, 0.017737360994797637
663.0, 0.020713864859125613
664.0, 0.022085175958613555
665.0, 0.025295666523718764
666.0, 0.03121157664376599
667.0, 0.03522281547393831
668.0, 0.037626529125220014
669.0, 0.042375823213272455
670.0, 0.05029438849602061
671.0, 0.06106008522069963
672.0, 0.06472699457979932
673.0, 0.0707543272608311
674.0, 0.0786699808350815
675.0, 0.08691433011999684
676.0, 0.09160108063878712
677.0, 0.09724809750427937
678.0, 0.09855253636822103
679.0, 0.09330501290796682
680.0, 0.0860531694832674
681.0, 0.08311392605600744
682.0, 0.07538512944571713
683.0, 0.0644299839060892
684.0, 0.05963648052193806
685.0, 0.04841939868160671
686.0, 0.041076078390393546
687.0, 0.035425294129010014
688.0, 0.028224952278547107
689.0, 0.026058982657238806
690.0, 0.02163649375214886
691.0, 0.01871574469582187
692.0, 0.018151903664978746
693.0, 0.013568251231509607
694.0, 0.013591585830313039
695.0, 0.013302235225360302
696.0, 0.011872803823354193
697.0, 0.010029403429883909
698.0, 0.009223600034956895
699.0, 0.008617795045948274
700.0, 0.008749008762632965
701.0, 0.009941733514241024
702.0, 0.008752420249953907
703.0, 0.009774726113757197
704.0, 0.010341017395307465
705.0, 0.00940329275095975
706.0, 0.007621379957165211
707.0, 0.007886052201978199
708.0, 0.007626265919743519
709.0, 0.006668645892718414
710.0, 0.0054727675380770915
711.0, 0.005468710535466212
712.0, 0.006050839773191093
713.0, 0.0064734901746035765
714.0, 0.006265144517150232
715.0, 0.006061387210253963
716.0, 0.0056255835637263165
717.0, 0.005334355416373295
718.0, 0.005256989624400858
719.0, 0.005264967941091542
720.0, 0.005628685644365257
721.0, 0.005255530472812478
722.0, 0.004789689122629259
723.0, 0.005057657870242606
724.0, 0.006218877619187112
725.0, 0.0061373658077204995
726.0, 0.004810842583657063
727.0, 0.0031348320824886476
728.0, 0.004625670117368591
729.0, 0.004573040913533441
730.0, 0.004909205981490119
731.0, 0.005393996227958558
732.0, 0.005174721303152167
733.0, 0.004129101742828645
734.0, 0.0026917373350538116
735.0, 0.00226221458844458
736.0, 0.003249881522309916
737.0, 0.0026618643880512004
738.0, 0.003697081954542217
739.0, 0.004137828255835232
740.0, 0.004267258308175921
741.0, 0.005757592852002241
742.0, 0.006875974400657874
743.0, 0.006680056617722098
744.0, 0.005937168726447037
745.0, 0.005474509684305255
746.0, 0.006414355433154377
747.0, 0.005711497679930451
748.0, 0.005210064763968523
749.0, 0.00522164649971277
750.0, 0.005040054355754779
751.0, 0.004670821927200207
752.0, 0.004357808138010898
753.0, 0.004082123871335293
754.0, 0.003797569287096669
755.0, 0.0033983982455378704
756.0, 0.0060072799179741
757.0, 0.006234134697920559
758.0, 0.004815512932872289
759.0, 0.009573217268569776
760.0, 0.00984699707973696
761.0, 0.00836151024669757
762.0, 0.006691839663820332
763.0, 0.0061074026523567785
764.0, 0.004377977126330743
765.0, 0.004272267635348268
766.0, 0.003720145918751733
767.0, 0.00245224334288456
768.0, 0.0022049271632817924
769.0, 0.003325204679642587
770.0, 0.0029653322879304193
771.0, 0.0030100773382478394
772.0, 0.005250263277069081
773.0, 0.0010692122956328077
774.0, 0.0005028477469354467
775.0, 0.0008752448082879683
776.0, 0.0012555239069051293
777.0, 0.002172301916047524
778.0, 0.0013508398742247624
779.0, 0.0022863119200264544
780.0, 0.0026930748720806787
781.0, 0.00028883714174519166
782.0, 0.0008081949614771019
783.0, 0.0005826659076860344
784.0, 0.00032031001277054317
785.0, 0.00038991092233701876
786.0, 0.0010463012982541038
787.0, 0.00035966152591857166
788.0, 0.0019522822277964775
789.0, 0.003298043327075766
790.0, 0.002109908911417766
791.0, 0.001979839129878578
792.0, 0.00410476904616144
793.0, 0.0041123391407698676
794.0, 0.0021552076844345335
795.0, 0.0017601665417837022
796.0, 0.0023147731516400516
797.0, 0.00224139302133299
798.0, 0.0026103341351903044
799.0, 0.0036641105669601316
800.0, 0.0008725300547746157
801.0, 0.0024750766301145553
802.0, 0.004131919630889921
803.0, 0.00397252196547805
804.0, 0.0007476414731526827
805.0, 0.0031152464893614076
806.0, 0.002077547171748254
807.0, 0.0016357119885101498
808.0, 0.0032362331304120477
809.0, 0.001555533230525917
810.0, 0.0004956158967680878
811.0, 0.0007256914153314824
812.0, 0.001741279929099098
813.0, 0.0026035680901996885
814.0, 0.001487104900804507
815.0, 0.0010551214367920426
816.0, 0.000792368299141664
817.0, 0.00046066062301095424
818.0, 7.368690477048873e-05
819.0, 0.0009255861397855804
820.0, 0.0008809738597128652
821.0, 0.0008692938525970713
822.0, 0.001656293197692696
823.0, 0.0003333066029538055
824.0, 0.0013574002197209662
825.0, 0.0028956216649849756
826.0, 0.004364674559881421
827.0, 0.0057086575860183925
828.0, 0.004149337955654713
829.0, 0.0038760045937775624
830.0, 0.004856098874040622
831.0, 0.006543586834012797
832.0, 0.007050688677369821
833.0, 0.007949527141112559
834.0, 0.008197148918733651
835.0, 0.00909206879149417
836.0, 0.012093497196445296
837.0, 0.011706618122612795
838.0, 0.012534525324065902
839.0, 0.01480557806551093
840.0, 0.01781800311251969
841.0, 0.019664278507879124
842.0, 0.0253464406736249
843.0, 0.027589778345579873
844.0, 0.028973511283284622
845.0, 0.03121021550925767
846.0, 0.030790674389376348
847.0, 0.03438047474348558
848.0, 0.03634333861244389
849.0, 0.03757125908284954
850.0, 0.04065034372451617
851.0, 0.040988108356076615
852.0, 0.045780582310217234
853.0, 0.050086308422106963
854.0, 0.053420427440771814
855.0, 0.060027212835867656
856.0, 0.06227610079967553
857.0, 0.06622475077461545
858.0, 0.07135917320701994
859.0, 0.07666879795672114
860.0, 0.08061295321918462
861.0, 0.08719073341012526
862.0, 0.09303133188624847
863.0, 0.09817748581972006
864.0, 0.10365510173690921
865.0, 0.11120836521285316
866.0, 0.11772104004106156
867.0, 0.11980045470429511
868.0, 0.11940206732945657
869.0, 0.12382412302959667
870.0, 0.119063397468663
871.0, 0.11675130530733299
872.0, 0.11294225133917558
873.0, 0.10511531862329761
874.0, 0.09484889713119653
875.0, 0.09106912807638065
876.0, 0.08567319989734164
877.0, 0.07897981607672197
878.0, 0.07299441414599676
879.0, 0.07147260695246636
880.0, 0.0665940471227123
881.0, 0.06167623430289445
882.0, 0.05827476893640873
883.0, 0.05721003156459646
884.0, 0.05270917169791811
885.0, 0.05143633113508892
886.0, 0.050372301967756
887.0, 0.04869595928697168
888.0, 0.04834293965126724
889.0, 0.04788918045089551
890.0, 0.045864508770738194
891.0, 0.04407266117385013
892.0, 0.04372271618938393
893.0, 0.043660627439889396
894.0, 0.04370348875465256
895.0, 0.04365994029434115
896.0, 0.04306273775273244
897.0, 0.04168295516722333
898.0, 0.04181933194779271
899.0, 0.040864410585960916
900.0, 0.040514193662636366
901.0, 0.041031036952200825
902.0, 0.04195958166511808
903.0, 0.041543030216000185
904.0, 0.04167436959201704
905.0, 0.040772991145615875
906.0, 0.03924048158197823
907.0, 0.03974772939531874
908.0, 0.03775042046810299
909.0, 0.0377283035294983
910.0, 0.03882598198495272
911.0, 0.04012943636264742
912.0, 0.04092762727052571
913.0, 0.039618006996317096
914.0, 0.03923933502394451
915.0, 0.03943050750419559
916.0, 0.03967775845656751
917.0, 0.0408095048496096
918.0, 0.040437100595985515
919.0, 0.038260593183220934
920.0, 0.037406975892245634
921.0, 0.04083865193455033
922.0, 0.04005246382116569
923.0, 0.0423894722929399
924.0, 0.04403846166564402
925.0, 0.0438889133737652
926.0, 0.042299176014165094
927.0, 0.046421632773402895
928.0, 0.048224577980348335
929.0, 0.049550628310520685
930.0, 0.05052624646116946
931.0, 0.04983939636510159
932.0, 0.054342112098051766
933.0, 0.055399365109110685
934.0, 0.05782652777635696
935.0, 0.06224748769342041
936.0, 0.06289212965092637
937.0, 0.06856565647647729
938.0, 0.07273709066106603
939.0, 0.07747062020286244
940.0, 0.08384685953814544
941.0, 0.08970722554660908
942.0, 0.09932883673472008
943.0, 0.11555760982081306
944.0, 0.13390970820322048
945.0, 0.1512619971455249
946.0, 0.17282857063335172
947.0, 0.206549605183948
948.0, 0.2377595212985689
949.0, 0.2691871369247143
950.0, 0.30296247865822024
951.0, 0.31943690934884916
952.0, 0.32091829778479913
953.0, 0.3111031193743778
954.0, 0.2905805855897699
955.0, 0.2614964226616526
956.0, 0.2402518456147931
957.0, 0.2287307641966159
958.0, 0.2222066438457866
959.0, 0.2218444694392604
960.0, 0.22913791723054922
961.0, 0.22489003353510614
962.0, 0.22316134714670482
963.0, 0.21501649657965194
964.0, 0.19930109949380528
965.0, 0.17933612054950743
966.0, 0.16352805094398096
967.0, 0.15079700158994985
968.0, 0.14027201108959178
969.0, 0.13300726054295703
970.0, 0.13090213868958012
971.0, 0.12388500376772073
972.0, 0.12232467785033875
973.0, 0.12084740806037296
974.0, 0.11695950028051802
975.0, 0.11038913972477497
976.0, 0.10865665404091837
977.0, 0.10476854345869505
978.0, 0.09530253860355865
979.0, 0.08283741188231906
980.0, 0.0755977220690681
981.0, 0.07102280664655362
982.0, 0.0666612478161085
983.0, 0.06418026476200393
984.0, 0.062233394166606115
985.0, 0.05629024813531517
986.0, 0.05583543801830078
987.0, 0.05587846215496145
988.0, 0.05421095941690592
989.0, 0.05142238928962735
990.0, 0.0512294503293784
991.0, 0.047262828177639736
992.0, 0.045822613197214396
993.0, 0.04592877246267241
994.0, 0.046705767530605014
995.0, 0.047483153228015405
996.0, 0.047285498129835735
997.0, 0.04744137992638207
998.0, 0.04757793316536399
999.0, 0.04743637457749852
1000.0, 0.046905199349473924
1001.0, 0.0471081900321553
1002.0, 0.04655859799330562
1003.0, 0.047006404935153054
1004.0, 0.04832643397603273
1005.0, 0.04830830629600356
1006.0, 0.05079216940406569
1007.0, 0.050559962353540856
1008.0, 0.05051412139338411
1009.0, 0.05146893604498116
1010.0, 0.05207508085485748
1011.0, 0.05080609634221796
1012.0, 0.052385628478960514
1013.0, 0.05299568188463124
1014.0, 0.052666455511648044
1015.0, 0.0548160955788838
1016.0, 0.056459966985011094
1017.0, 0.0547721892734485
1018.0, 0.057565149299285814
1019.0, 0.06240210534474819
1020.0, 0.05952825297494958
1021.0, 0.06014693520135239
1022.0, 0.060004469718801516
1023.0, 0.05759193377883056
1024.0, 0.05454932692985736
1025.0, 0.05421805724662583
1026.0, 0.053124099719141775
1027.0, 0.05381938650332863
1028.0, 0.05463834354708024
1029.0, 0.053791883899822826
1030.0, 0.05051023975536939
1031.0, 0.05634282616618515
1032.0, 0.05706653963730316
1033.0, 0.058436646562705946
1034.0, 0.06262198286970513
1035.0, 0.06914290502182353
1036.0, 0.0683478619155342
1037.0, 0.07706545927542889
1038.0, 0.08452743067523674
1039.0, 0.09295177348304684
1040.0, 0.10709115020597115
1041.0, 0.12576199909039634
1042.0, 0.14429847608358762
1043.0, 0.16036875273150805
1044.0, 0.16743393068187973
1045.0, 0.16037634230033807
1046.0, 0.14019790597777473
1047.0, 0.12355550708663021
1048.0, 0.10433173898328899
1049.0, 0.08833719947555055
1050.0, 0.07861924268236194
1051.0, 0.06833953528471647
1052.0, 0.06406639917639918
1053.0, 0.06430476005662905
1054.0, 0.06338727667950166
1055.0, 0.05943963629134161
1056.0, 0.05699286007722915
1057.0, 0.05863701430151667
1058.0, 0.055887011110740785
1059.0, 0.054395699229128666
1060.0, 0.054856550488894915
1061.0, 0.05264639026200057
1062.0, 0.049449011513349475
1063.0, 0.04910508110546916
1064.0, 0.04882690731938376
1065.0, 0.048347225394744224
1066.0, 0.048778522566168984
1067.0, 0.047812127368636395
1068.0, 0.046416685942615964
1069.0, 0.04536745834885622
1070.0, 0.04502918468498699
1071.0, 0.04512983359931358
1072.0, 0.04266694861492985
1073.0, 0.0448981570068675
1074.0, 0.045292509633563696
1075.0, 0.044674722544368994
1076.0, 0.044897059292542174
1077.0, 0.045890803083906716
1078.0, 0.046393716354745866
1079.0, 0.04855444010101616
1080.0, 0.050138062450397
1081.0, 0.050182367437516404
1082.0, 0.05077339323176293
1083.0, 0.05406104808105385
1084.0, 0.05627363273235062
1085.0, 0.05854454926066607
1086.0, 0.061043072294643654
1087.0, 0.06268511412445754
1088.0, 0.05756992741527501
1089.0, 0.05585110338224065
1090.0, 0.052230758529786835
1091.0, 0.04792139434944035
1092.0, 0.04635820105100621
1093.0, 0.0416590275430664
1094.0, 0.03902330518082076
1095.0, 0.03832538213585322
1096.0, 0.03632824955047977
1097.0, 0.03168058220143957
1098.0, 0.032106164243021075
1099.0, 0.03301049607830928
1100.0, 0.034626247577765674
1101.0, 0.03336239086270066
1102.0, 0.02943925299385128
1103.0, 0.029752981638799993
1104.0, 0.030459458818656804
1105.0, 0.028479446168300407
1106.0, 0.028176601160027973
1107.0, 0.028913786200833673
1108.0, 0.026613212510807747
1109.0, 0.02785689381111839
1110.0, 0.027767153189767274
1111.0, 0.02640012505756406
1112.0, 0.025952012735012377
1113.0, 0.027863397019019027
1114.0, 0.02646537468117588
1115.0, 0.02716600064635729
1116.0, 0.026807942729443018
1117.0, 0.02524465471488106
1118.0, 0.023555026887090207
1119.0, 0.024169737962618613
1120.0, 0.023258932525523374
1121.0, 0.02269828164787474
1122.0, 0.023255056951925052
1123.0, 0.0236397663278027
1124.0, 0.0214663090888531
1125.0, 0.023124738763680184
1126.0, 0.022683672283215838
1127.0, 0.020102652653337452
1128.0, 0.018448309413548795
1129.0, 0.019925931483957687
1130.0, 0.018457331138440756
1131.0, 0.02119319303679615
1132.0, 0.019556997553939446
1133.0, 0.01640959963049416
1134.0, 0.014921817642233137
1135.0, 0.01602036714937611
1136.0, 0.016983395246424025
1137.0, 0.017633709003837306
1138.0, 0.01633138543376466
1139.0, 0.014909224323307
1140.0, 0.016293520691324826
1141.0, 0.012787680309151553
1142.0, 0.010876862851421023
1143.0, 0.010328106016812314
1144.0, 0.009277848896504166
1145.0, 0.007620414005412924
1146.0, 0.011027491782186712
1147.0, 0.00765879296373511
1148.0, 0.0076250371527316575
1149.0, 0.006602113497312731
1150.0, 0.004001528945058746
1151.0, 0.0038072807218701883
1152.0, 0.007154184955403325
1153.0, 0.004627095471219817
1154.0, 0.0031817469128693258
1155.0, 0.003439804896644824
1156.0, 0.003504860049001103
1157.0, 0.0013881686351216854
1158.0, 0.0028736567511068235
1159.0, 0.0040058050805467605
1160.0, 0.004855479080345893
1161.0, 0.004462961335687451
1162.0, 0.0004150244978703019
1163.0, 0.00021574712581358274
1164.0, 0.00019830996174632042
1165.0, 0.0007037704821373442
1166.0, 0.0009567080749825633
1167.0, 0.0003095590299731447
1168.0, 0.0009302704938554511
1169.0, 0.0009690801550293359
1170.0, 0.0004748251123240305
1171.0, 0.0003956597206961068
1172.0, 0.0009056526016578677
1173.0, 0.0009688265139210591
1174.0, 0.0009545516353136448
1175.0, 0.001860660043348699
1176.0, 0.0013564596772091223
1177.0, 0.0009624926180777429
1178.0, 0.002906916527843056
1179.0, 0.004381074501909136
1180.0, 0.0019508566395244906
1181.0, 0.002532216058805059
1182.0, 0.002365844287213801
1183.0, 0.0002860048190946395
1184.0, 0.00020942577626179514
1185.0, 0.0016957538424751304
1186.0, 0.0008627974362210775
1187.0, 0.001852284170021653
1188.0, 0.003539857311624946
1189.0, 0.0032664990949488144
1190.0, 0.0012590789365705339
1191.0, 0.002018102274592439
1192.0, 0.0014646214769301834
1193.0, 0.0008763961512717148
1194.0, 0.0009616384835069115
1195.0, 0.0011823559084061137
1196.0, 0.0007527616143591818
1197.0, 0.0007942953626054845
1198.0, 0.0009783986956737548
1199.0, 0.0010817604039306036
1200.0, 0.0013386530809826882
1201.0, 0.003063824620562215
1202.0, 0.0016989888473963762
1203.0, 0.0012225265356576194
1204.0, 0.0012133039421437044
1205.0, 0.0013041912466697338
1206.0, 0.0013909106611493208
1207.0, 0.0016415426089097216
1208.0, 0.0017655617412059754
1209.0, 0.0019988300342717318
1210.0, 0.0017688043676621615
1211.0, 0.0012127146579367263
1212.0, 0.0017923792222566141
1213.0, 0.0007503239127370103
1214.0, 0.0011976064075846374
1215.0, 0.0013506326523400293
1216.0, 0.0009889982295264662
1217.0, 0.0006630636520439249
1218.0, 0.0007551664222790397
1219.0, 0.002229346584389297
1220.0, 0.0012431880044074916
1221.0, 0.00098496891825025
1222.0, 0.001665466349152411
1223.0, 0.0005524037279433673
1224.0, 0.00044372756961112995
1225.0, 0.0022492759619859213
1226.0, 0.0017344063868552668
1227.0, 0.0009191599568588282
1228.0, 0.0013149786364703053
1229.0, 0.0007362241587784247
1230.0, 0.0006921426265834918
1231.0, 0.0014249673596846732
1232.0, 0.0019526066949547836
1233.0, 0.0020776461383399556
1234.0, 0.002029347805515341
1235.0, 0.002032693540981535
1236.0, 0.000763340648405889
1237.0, 0.0012968851797692791
1238.0, 0.0013760398061343011
1239.0, 0.001397966873937619
1240.0, 0.003293047461209584
1241.0, 0.0007634921099398592
1242.0, 0.0004637092392581392
1243.0, 0.0018790524183800715
1244.0, 0.0028588504963217966
1245.0, 0.002099441574592715
1246.0, 0.00035485673995565943
1247.0, 0.004801889520603191
1248.0, 0.0038166280846987544
1249.0, 0.0015435529271570054
1250.0, 0.0012611354237764792
1251.0, 0.00296962639893023
1252.0, 0.0003314164787136301
1253.0, 0.0014331141188562212
1254.0, 0.0022792889188758478
1255.0, 0.0027041308971271346
1256.0, 0.003295696383953683
1257.0, 0.004573183668674589
1258.0, 0.005457907878637543
1259.0, 0.004395309521747447
1260.0, 0.0034686485126409765
1261.0, 0.0029436437876952403
1262.0, 0.003401465458335531
1263.0, 0.004894662025720949
1264.0, 0.0021720435999203376
1265.0, 0.0027835299181677773
1266.0, 0.0024321050847908574
1267.0, 0.0018178821319550784
1268.0, 0.0016499554895945305
1269.0, 0.0017114488191417683
1270.0, 0.001992412935261345
1271.0, 0.0021149647871964734
1272.0, 0.0037632707702657457
1273.0, 0.004488324929455306
1274.0, 0.0031697343994022756
1275.0, 0.002290113363220562
1276.0, 0.0036904311735980093
1277.0, 0.002743959205282392
1278.0, 0.003513854644068974
1279.0, 0.003455427747541383
1280.0, 0.0015501684146295314
1281.0, 0.004065895585569872
1282.0, 0.005698704290895099
1283.0, 0.002390340399735622
1284.0, 0.0023508654490866816
1285.0, 0.004393019192753186
1286.0, 0.004451157630406369
1287.0, 0.002535509958300811
1288.0, 0.002825784382055073
1289.0, 0.0023291727527765638
1290.0, 0.002001398540835852
1291.0, 0.0018215795860245564
1292.0, 0.0016239295519114468
1293.0, 0.0026666725105530882
1294.0, 0.0017694147828519493
1295.0, 0.0023224497638150987
1296.0, 0.004149820428081376
1297.0, 0.0053330371969798045
1298.0, 0.00460610586703164
1299.0, 0.006293471250433371
1300.0, 0.005451895249753185
1301.0, 0.006418824004918146
1302.0, 0.004769024993679276
1303.0, 0.0028798419735876005
1304.0, 0.005145072485653728
1305.0, 0.002921832440356862
1306.0, 0.002307326620525156
1307.0, 0.0039806808250697785
1308.0, 0.006025173964536039
1309.0, 0.006762504973120691
1310.0, 0.005568352575855439
1311.0, 0.004169517795259784
1312.0, 0.002881831142564438
1313.0, 0.0017745738709957128
1314.0, 0.001455047279025437
1315.0, 0.0012127019419382627
1316.0, 0.00012269536095936654
1317.0, 0.0009522300177080875
1318.0, 0.001802921219851335
1319.0, 0.003523437849694538
1320.0, 0.004141906353588737
1321.0, 0.003783655755500862
1322.0, 0.004063876116681355
1323.0, 0.0049146489684043105
1324.0, 0.003952588542930156
1325.0, 0.002935340804183005
1326.0, 0.0019450794878422568
1327.0, 0.0012935297025886013
1328.0, 0.0012815264487222437
1329.0, 0.0011507759337545458
1330.0, 0.0013323610008685821
1331.0, 0.001866146059531908
1332.0, 0.0023310462120831777
1333.0, 0.0028728105364070064
1334.0, 0.0037932651474192358
1335.0, 0.004468263514145287
1336.0, 0.002182270076515773
1337.0, 0.003640438331802546
1338.0, 0.0030865364133893266
1339.0, 0.0017022585772601072
1340.0, 0.002646603879840021
1341.0, 0.0005992436592980154
1342.0, 0.0031767307824106805
1343.0, 0.003228955851287937
1344.0, 0.002698710890095296
1345.0, 0.0020206743394597464
1346.0, 0.001528919744076783
1347.0, 0.0036674101149018253
1348.0, 0.0020742390784874117
1349.0, 0.003132358537166093
1350.0, 0.0025524495440342443
1351.0, 0.002804313902963013
1352.0, 0.005511720784528731
1353.0, 0.005060758224578292
1354.0, 0.005343827315515164
1355.0, 0.004805354489886765
1356.0, 0.005006287907874583
1357.0, 0.004887000016887847
1358.0, 0.004041910676526397
1359.0, 0.0041736883020995616
1360.0, 0.003090594994902452
1361.0, 0.0038393419697430957
1362.0, 0.0040701759622744195
1363.0, 0.004018408542467103
1364.0, 0.004144049829450973
1365.0, 0.004338785510132624
1366.0, 0.004130204135695412
1367.0, 0.004240075270648284
1368.0, 0.00404230416949531
1369.0, 0.00326419493602979
1370.0, 0.00228337076857881
1371.0, 0.0018242611229280488
1372.0, 0.001883932598604674
1373.0, 0.004296593043018383
1374.0, 0.0036405576697787663
1375.0, 0.0031302548425478447
1376.0, 0.003207574106560068
1377.0, 0.0024804074377817423
1378.0, 0.0011617502202903895
1379.0, 0.0013735225255369831
1380.0, 0.0024515200482181864
1381.0, 0.0025979097136880694
1382.0, 0.003132833195482316
1383.0, 0.00435987688080868
1384.0, 0.0025260003767457826
1385.0, 0.0029388263084394943
1386.0, 0.0037249012357908604
1387.0, 0.0032045855156468852
1388.0, 0.0024162390994888327
1389.0, 0.0026528756661833965
1390.0, 0.004048237650382723
1391.0, 0.0037537302197886923
1392.0, 0.005411453393400344
1393.0, 0.003593431875001816
1394.0, 0.0027368929725123782
1395.0, 0.0037150046502291713
1396.0, 0.004016594163456168
1397.0, 0.004316555435357439
1398.0, 0.0017197498262209792
1399.0, 0.0025513333059040853
1400.0, 0.0016896165605486174
1401.0, 0.0007395373943897162
1402.0, 0.0018567402508223526
1403.0, 0.0007599904538097462
1404.0, 0.0012733233643934575
1405.0, 0.0019700554325699565
1406.0, 0.001904545558380844
1407.0, 0.0018517636029933213
1408.0, 0.0019088668264204236
1409.0, 0.0012170929024292961
1410.0, 0.002326870119811049
1411.0, 0.0020110626445429157
1412.0, 0.002363023950789988
1413.0, 0.0025890475872764724
1414.0, 0.002480881998252223
1415.0, 0.0023695233025036967
1416.0, 0.0020328723734027395
1417.0, 0.00206471812210728
1418.0, 0.0020279367943305576
1419.0, 0.0017200670840309311
1420.0, 0.00203023923540428
1421.0, 0.0031051737321103902
1422.0, 0.0034283944053043326
1423.0, 0.0030303868435327236
1424.0, 0.0036540614802684146
1425.0, 0.004876513351448164
1426.0, 0.0053150955362091055
1427.0, 0.004730225387703664
1428.0, 0.004107929934625333
1429.0, 0.0044774095084520234
1430.0, 0.003588855644286358
1431.0, 0.004130565930089575
1432.0, 0.0036047515871586986
1433.0, 0.0037987260990225468
1434.0, 0.005617660869756544
1435.0, 0.005340459979932494
1436.0, 0.004769537987056407
1437.0, 0.006483445094992387
1438.0, 0.004185848095004187
1439.0, 0.0028712481266841565
1440.0, 0.003940223285665802
1441.0, 0.004136885297556479
1442.0, 0.0028528186383056614
1443.0, 0.003389311236872765
1444.0, 0.005026888908546688
1445.0, 0.006681656941660352
1446.0, 0.005823061706144735
1447.0, 0.003076944656806606
1448.0, 0.003630346028556797
1449.0, 0.0014380747575103965
1450.0, 0.005292504381282189
1451.0, 0.004737119814115048
1452.0, 0.004546389435602395
1453.0, 0.005944688515426077
1454.0, 0.006189470544069452
1455.0, 0.005391177504237971
1456.0, 0.003988944456578783
1457.0, 0.0073471149028906495
1458.0, 0.006895777105351736
1459.0, 0.005956404173656286
1460.0, 0.006797458949673435
1461.0, 0.005543275393033864
1462.0, 0.0030469981247899782
1463.0, 0.006218607180892408
1464.0, 0.005169153165943799
1465.0, 0.004563570817527894
1466.0, 0.006071998133499188
1467.0, 0.0073160969698950005
1468.0, 0.004328395543815595
1469.0, 0.006225114102575473
1470.0, 0.0069041342609261315
1471.0, 0.006836671659788852
1472.0, 0.007115340430556849
1473.0, 0.007474516788194738
1474.0, 0.006537558162909863
1475.0, 0.003684064725954772
1476.0, 0.006288166762597143
1477.0, 0.0059373154401308114
1478.0, 0.004632541287840553
1479.0, 0.00565590584362667
1480.0, 0.00812759778836537
1481.0, 0.007137481693590091
1482.0, 0.005986583241520396
1483.0, 0.003126682502376227
1484.0, 0.004850453126635995
1485.0, 0.005171461671943496
1486.0, 0.003588684233566068
1487.0, 0.0025821173653719485
1488.0, 0.003043857014205809
1489.0, 0.0023228776175886856
1490.0, 0.004764529519368776
1491.0, 0.004486724822164957
1492.0, 0.003776937378810197
1493.0, 0.0027242412876828663
1494.0, 0.0008514495350768784
1495.0, 0.001732554022314556
1496.0, 0.0015162822040258594
1497.0, 0.00453833889998515
1498.0, 0.004610977921191733
1499.0, 0.005410751348225455
1500.0, 0.0062163746925677
1501.0, 0.003046483443575044
1502.0, 0.00027809012754220807
1503.0, 0.0013027320026009767
1504.0, 0.0021662439570109323
1505.0, 0.004283782037965734
1506.0, 0.004687736031172528
1507.0, 0.0032092182113011626
1508.0, 0.0031373279860996196
1509.0, 0.0037438926280167965
1510.0, 0.0036872114222076535
1511.0, 0.003539828070531942
1512.0, 0.003453970123107614
1513.0, 0.00340516352305012
1514.0, 0.003031281529650686
1515.0, 0.002064835074769098
1516.0, 0.0021280559330686248
1517.0, 0.0008519526533191722
1518.0, 0.0023302037138852325
1519.0, 0.004178827412186877
1520.0, 0.003914494435755657
1521.0, 0.0019222993253773532
1522.0, 0.0014034821596467849
1523.0, 0.0014573085685237836
1524.0, 0.0002762805328518568
1525, 0.0
1526, 0.0
1527, 0.0
1528, 0.0
1529, 0.0
1530, 0.0
1531, 0.0
1532, 0.0
1533, 0.0
1534, 0.0
1535, 0.0
1536, 0.0
1537, 0.0
1538, 0.0
1539, 0.0
1540, 0.0
1541, 0.0
1542, 0.0
1543, 0.0
1544, 0.0
1545, 0.0
1546, 0.0
1547, 0.0
1548, 0.0
1549, 0.0
1550, 0.0
1551, 0.0
1552, 0.0
1553, 0.0
1554, 0.0
1555, 0.0
1556, 0.0
1557, 0.0
1558, 0.0
1559, 0.0
1560, 0.0
1561, 0.0
1562, 0.0
1563, 0.0
1564, 0.0
1565, 0.0
1566, 0.0
1567, 0.0
1568, 0.0
1569, 0.0
1570, 0.0
1571, 0.0
1572, 0.0
1573, 0.0
1574, 0.0
1575, 0.0
1576, 0.0
1577, 0.0
1578, 0.0
1579, 0.0
1580, 0.0
1581, 0.0
1582, 0.0
1583, 0.0
1584, 0.0
1585, 0.0
1586, 0.0
1587, 0.0
1588, 0.0
1589, 0.0
1590, 0.0
1591, 0.0
1592, 0.0
1593, 0.0
1594, 0.0
1595, 0.0
1596, 0.0
1597, 0.0
1598, 0.0
1599, 0.0
