30, 0.0
31, 0.0
32, 0.0
33, 0.0
34, 0.0
35, 0.0
36, 0.0
37, 0.0
38, 0.0
39, 0.0
40, 0.0
41, 0.0
42, 0.0
43, 0.0
44, 0.0
45, 0.0
46, 0.0
47, 0.0
48, 0.0
49, 0.0
50, 0.0
51, 0.0
52, 0.0
53, 0.0
54, 0.0
55, 0.0
56, 0.0
57, 0.0
58, 0.0
59, 0.0
60, 0.0
61, 0.0
62, 0.0
63, 0.0
64, 0.0
65, 0.0
66, 0.0
67, 0.0
68, 0.0
69, 0.0
70, 0.0
71, 0.0
72, 0.0
73, 0.0
74, 0.0
75, 0.0
76, 0.0
77, 0.0
78, 0.0
79, 0.0
80, 0.0
81, 0.0
82, 0.0
83, 0.0
84, 0.0
85, 0.0
86, 0.0
87, 0.0
88, 0.0
89, 0.0
90, 0.0
91, 0.0
92, 0.0
93, 0.0
94, 0.0
95, 0.0
96, 0.0
97, 0.0
98, 0.0
99, 0.0
100, 0.0
101, 0.0
102, 0.0
103.0, 2.274628735904395e-06
104.0, 1.7320547559373206e-05
105.0, 8.279325544187439e-05
106.0, 0.0008214228584150854
107.0, 0.0017315621039073307
108.0, 0.0026209385725093157
109.0, 0.0022903863472484485
110.0, 0.001649694384319913
111.0, 0.0010842724311611908
112.0, 0.001463333538597666
113.0, 0.0011396370613551018
114.0, 0.0010216366407146658
115.0, 0.001357890896028602
116.0, 0.0019480917489292722
117.0, 0.0026506515436319138
118.0, 0.0030567794399663727
119.0, 0.002510483020681313
120.0, 0.0018775549713740554
121.0, 0.0013366008469024595
122.0, 0.0009261126593150414
123.0, 0.0007195725448099903
124.0, 0.0006661841460718807
125.0, 0.0005867056704127727
126.0, 0.00032562818031331637
127.0, 0.0003509610933874988
128.0, 0.00022588012053328471
129.0, 9.692944768864201e-05
130.0, 0.0006823875393436867
131.0, 0.0005572475111486402
132.0, 0.0005507274636959072
133.0, 0.001068931401244945
134.0, 0.0006276729004516035
135.0, 0.0008400695146564203
136.0, 0.0013320212049914284
137.0, 0.0013354685039465776
138.0, 0.002270343038941849
139.0, 0.0025762700269989277
140.0, 0.0019368283691680963
141.0, 0.0019915056254580874
142.0, 0.0018362552811366493
143.0, 0.0015940265924623742
144.0, 0.0013839078978099975
145.0, 0.0012769114253566988
146.0, 0.0010967319799162587
147.0, 0.0008617675322611003
148.0, 0.000771896966378042
149.0, 0.00044112799599349464
150.0, 0.0002760072117431722
151.0, 0.0005387679630582615
152.0, 0.00032924909040435045
153.0, 0.00016760259172808858
154.0, 0.00025075412997838505
155.0, 0.0011007467490637588
156.0, 0.0016139918793651612
157.0, 0.0018814897538198907
158.0, 0.001968440426647051
159.0, 0.0026605758574283524
160.0, 0.0035880047198609756
161.0, 0.004799038314846396
162.0, 0.0064207826952612885
163.0, 0.009088695176509861
164.0, 0.01229627698400841
165.0, 0.015828306349715382
166.0, 0.018985428076239493
167.0, 0.0231942482295343
168.0, 0.02741895823649406
169.0, 0.031143550223377434
170.0, 0.03224339781322874
171.0, 0.029697077370462715
172.0, 0.02469054458523652
173.0, 0.01896611116735209
174.0, 0.012964280242099403
175.0, 0.008508532125590655
176.0, 0.005870773414088464
177.0, 0.00391545476513298
178.0, 0.002697712100265548
179.0, 0.001793186270749231
180.0, 0.0009294860928132249
181.0, 0.0007419414644853089
182.0, 0.000520704875452056
183.0, 0.00042539133185946483
184.0, 0.00103782627664793
185.0, 0.0005739535719128109
186.0, 0.000320742390162304
187.0, 0.0006061236703287569
188.0, 0.00024850732204461485
189.0, 0.00039852152675462374
190.0, 0.0006098128904896035
191.0, 0.0004131403524139963
192.0, 0.0005150725426393032
193.0, 0.0006891623045897002
194.0, 0.0009574430183454964
195.0, 0.0014942692549733839
196.0, 0.0015981571787935358
197.0, 0.0015721440469613982
198.0, 0.0015522637535864596
199.0, 0.00226335789099401
200.0, 0.0022433047276672275
201.0, 0.0021460840767613546
202.0, 0.002807627161270679
203.0, 0.0031639644903631776
204.0, 0.0031128038262681935
205.0, 0.0029218448211383113
206.0, 0.0037956155684534428
207.0, 0.004144875814922936
208.0, 0.004305134280588027
209.0, 0.004367094242350893
210.0, 0.0030839767629329043
211.0, 0.0018414882958763716
212.0, 0.0010987107712354814
213.0, 0.0015976718200517805
214.0, 0.0017250794604942675
215.0, 0.001924498692420469
216.0, 0.0020933306882005565
217.0, 0.0015444894198795168
218.0, 0.001413879342191059
219.0, 0.0015642088933372023
220.0, 0.0019238383691337427
221.0, 0.0014294534100981983
222.0, 0.0013869085714848348
223.0, 0.0015789433633475129
224.0, 0.0017729120756962845
225.0, 0.0017598273382928669
226.0, 0.0019897833501762705
227.0, 0.002439373793522297
228.0, 0.0028681272557871296
229.0, 0.0028049892630892235
230.0, 0.002830573598619383
231.0, 0.003122883731930221
232.0, 0.0029365430429260874
233.0, 0.003165017862411597
234.0, 0.0037350694705952656
235.0, 0.004633977206977293
236.0, 0.004890753316901617
237.0, 0.0053608614878523295
238.0, 0.006097572163744581
239.0, 0.007122916362380115
240.0, 0.007795178425753521
241.0, 0.008620348490382767
242.0, 0.009670851187404336
243.0, 0.010203031433632105
244.0, 0.011590983099923437
245.0, 0.013511142527251609
246.0, 0.015790924994743754
247.0, 0.019646719163179303
248.0, 0.02390698993740832
249.0, 0.029368155509338325
250.0, 0.03793344907615067
251.0, 0.04938895348944231
252.0, 0.06328865385473252
253.0, 0.07955387275993828
254.0, 0.09815950758640397
255.0, 0.11129755739096642
256.0, 0.11716041005051123
257.0, 0.11409112534346018
258.0, 0.09695524552207392
259.0, 0.07847156328593984
260.0, 0.060017885130749585
261.0, 0.04332045077081425
262.0, 0.03289654751492975
263.0, 0.02554639153676677
264.0, 0.02054651577444825
265.0, 0.01688674419825936
266.0, 0.015253293622758757
267.0, 0.014483379715476316
268.0, 0.014341431140640392
269.0, 0.015338325335269593
270.0, 0.016117231413866347
271.0, 0.01723135616292939
272.0, 0.01908374125369438
273.0, 0.020776327084873314
274.0, 0.02073978923120977
275.0, 0.019499047105932612
276.0, 0.017724603784868714
277.0, 0.015472761915943958
278.0, 0.012988387063386833
279.0, 0.010466952945985349
280.0, 0.008514542685968057
281.0, 0.007365230530422929
282.0, 0.006642474653148831
283.0, 0.0061791907378164115
284.0, 0.00531074924604456
285.0, 0.00510800976821434
286.0, 0.005070033973568537
287.0, 0.004853242104097194
288.0, 0.0046508668185048395
289.0, 0.005277537564288502
290.0, 0.006040715985685874
291.0, 0.005825671829348535
292.0, 0.0061094781692017765
293.0, 0.006984670446742773
294.0, 0.008252857619560468
295.0, 0.00923076047413406
296.0, 0.010869150081244335
297.0, 0.01329242884942869
298.0, 0.01663585254141865
299.0, 0.02150614278564117
300.0, 0.027116331581396945
301.0, 0.033655192231279
302.0, 0.04129150145210009
303.0, 0.04786682615794778
304.0, 0.05161406276039255
305.0, 0.052198303240938236
306.0, 0.0487538503152625
307.0, 0.04099681094163537
308.0, 0.03244853154666196
309.0, 0.023989966220687248
310.0, 0.01717654704066713
311.0, 0.013206297142480148
312.0, 0.010063785765168821
313.0, 0.0074048842126932055
314.0, 0.00561900010641247
315.0, 0.004282672685984728
316.0, 0.003479125831753065
317.0, 0.0032134782497940644
318.0, 0.002540428062908215
319.0, 0.002390256663013524
320.0, 0.002591825281156604
321.0, 0.0030399406897428385
322.0, 0.0022829311166208347
323.0, 0.0019112125367600464
324.0, 0.0019873350243546327
325.0, 0.0026249767501953657
326.0, 0.0024904399786080307
327.0, 0.002199503027969489
328.0, 0.001992992989823449
329.0, 0.0023906091607710104
330.0, 0.002340113259367666
331.0, 0.002299285417720422
332.0, 0.002322365835165612
333.0, 0.0021275577979453807
334.0, 0.001930940265568221
335.0, 0.0015477361304306824
336.0, 0.0009472111203210235
337.0, 0.0009015402383281143
338.0, 0.0008742780987170038
339.0, 0.0009401937191808818
340.0, 0.001161209417837786
341.0, 0.0008494307105524764
342.0, 0.0007761494487604978
343.0, 0.0007643162195922628
344.0, 0.0005845860907790665
345.0, 0.0005343710369489194
346.0, 0.0003419293548181725
347.0, 0.00013383885028613905
348.0, 0.00023122220317971183
349.0, 0.00027329311460441014
350.0, 0.0002944780335161916
351.0, 0.00029511667371326616
352.0, 0.00025396352019692564
353.0, 0.00033742861744166265
354.0, 0.0002833817804228853
355.0, 0.000118769499825024
356.0, 0.0005725875882686819
357.0, 0.0003404501545502128
358.0, 0.00024705509581148276
359.0, 0.0006190208526305085
360.0, 0.0002371251102521352
361.0, 0.00013863061667988263
362.0, 0.00012912975100132663
363.0, 6.719995053860328e-05
364.0, 8.086186493601736e-05
365.0, 4.4690798562127605e-05
366.0, 0.00010770678852595859
367.0, 0.0004611739417256077
368.0, 0.00022412122843810375
369.0, 0.0001408581585073987
370.0, 0.00019563424371144645
371.0, 0.00029992000235011616
372.0, 0.00012654289113745546
373.0, 0.00035057781678618017
374.0, 0.0006895168079867167
375.0, 0.00011713970803366137
376.0, 8.702658737734456e-05
377.0, 0.00036122793096226663
378.0, 0.0007833792080068635
379.0, 0.0008837895491839006
380.0, 0.0009841998903609374
381.0, 0.0011663077071893963
382.0, 0.0014627091679562125
383.0, 0.001906379578799952
384.0, 0.0020096968326552113
385.0, 0.0024520667065697404
386.0, 0.003467869179976047
387.0, 0.0037964743466218395
388.0, 0.0045101870329561575
389.0, 0.005777214025223831
390.0, 0.007685905784325099
391.0, 0.008331928886993648
392.0, 0.009999711700493703
393.0, 0.01236762991273604
394.0, 0.01517724918080923
395.0, 0.018363775176877244
396.0, 0.021105138734555877
397.0, 0.023456626326747276
398.0, 0.025477314238092373
399.0, 0.027485472758016764
400.0, 0.02783301578687508
401.0, 0.02751206118863853
402.0, 0.028360183471198275
403.0, 0.02653473524772178
404.0, 0.024500395537350093
405.0, 0.02309523801056996
406.0, 0.023751530851985433
407.0, 0.021944709951828453
408.0, 0.020000372691807967
409.0, 0.018327272366614255
410.0, 0.01709600125079852
411.0, 0.01546251772684088
412.0, 0.014068535737364699
413.0, 0.012844595834295319
414.0, 0.010948467629706433
415.0, 0.008769378247102623
416.0, 0.0076447599054824044
417.0, 0.007609744267823719
418.0, 0.006746221373981668
419.0, 0.005315486750178938
420.0, 0.004358651038632772
421.0, 0.004129679680992317
422.0, 0.0036616507833390904
423.0, 0.0035951093335127656
424.0, 0.003389793868665528
425.0, 0.0028478055556497603
426.0, 0.00248128226696638
427.0, 0.00230458063548675
428.0, 0.002121561550838898
429.0, 0.001902445516258366
430.0, 0.002775826073987425
431.0, 0.0022290500445811493
432.0, 0.0016150721964249633
433.0, 0.0017532797522039018
434.0, 0.0011554444297402196
435.0, 0.0017140062239566932
436.0, 0.002133046024134765
437.0, 0.0014548390930904046
438.0, 0.0017901230980900387
439.0, 0.0015144564816009247
440.0, 0.0013665172178761288
441.0, 0.002004230070724386
442.0, 0.0014813653128805378
443.0, 0.00096925369893212
444.0, 0.0004824103290704721
445.0, 3.647285885609189e-05
446.0, 0.0008003589549894099
447.0, 0.0011350972880478387
448.0, 0.0011063768613847852
449.0, 0.0008007063454636869
450.0, 0.0009194871367020177
451.0, 0.0008852794950164659
452.0, 0.000826740931514187
453.0, 0.0009261059602146672
454.0, 0.0009146339377837773
455.0, 0.0010525538939636168
456.0, 0.0011328725529673191
457.0, 0.000851268679140151
458.0, 0.0009365012168137141
459.0, 0.0009855335656033524
460.0, 0.000978665807301145
461.0, 0.0009135786640496966
462.0, 0.00044685702092569753
463.0, 0.000584600970620825
464.0, 0.0010144596543821673
465.0, 0.0011679410876681584
466.0, 0.0013221231490627102
467.0, 0.0008516594518009246
468.0, 0.0004647545016444206
469.0, 0.0013885443061046868
470.0, 0.001204140033580766
471.0, 0.0009841754246172848
472.0, 0.0010488385435231291
473.0, 0.0018172834629337693
474.0, 0.0014200954104292716
475.0, 0.0015297566720329048
476.0, 0.001630384656051852
477.0, 0.0006447577937332625
478.0, 0.0008367827554589594
479.0, 0.0009362263656265151
480.0, 0.0011081392773202871
481.0, 0.0017904029194414268
482.0, 0.0015559186464203945
483.0, 0.0016940365895087596
484.0, 0.0021022550440264907
485.0, 0.002471396368536139
486.0, 0.0017876607274134413
487.0, 0.0013346933032384923
488.0, 0.0013475546992249925
489.0, 0.0020769412170561124
490.0, 0.002063148127610615
491.0, 0.0019751472734121692
492.0, 0.0017648126895920696
493.0, 0.0012962248569514327
494.0, 0.002177886428618825
495.0, 0.002190440869229831
496.0, 0.001845278102732554
497.0, 0.0020056761749158575
498.0, 0.001744121141155311
499.0, 0.0014926114292593805
500.0, 0.0015133779224803538
501.0, 0.0021246894054913028
502.0, 0.002123767065965221
503.0, 0.0021813765897682378
504.0, 0.0024045750411830088
505.0, 0.0028970793081007453
506.0, 0.002937566221702406
507.0, 0.0027513644035084485
508.0, 0.0027638569619276533
509.0, 0.003414155939399929
510.0, 0.0031337592490784045
511.0, 0.003409452339120178
512.0, 0.0038756483473570175
513.0, 0.004190494751944618
514.0, 0.004502624480810907
515.0, 0.004991417875398134
516.0, 0.005638926175381061
517.0, 0.006418468245378272
518.0, 0.00700517760909106
519.0, 0.00829226171650229
520.0, 0.009875595856150485
521.0, 0.011475927945502824
522.0, 0.01312408884973302
523.0, 0.015911996238162425
524.0, 0.019807091047507632
525.0, 0.02495610061188026
526.0, 0.032931413764389975
527.0, 0.04144911531515525
528.0, 0.05060586808609864
529.0, 0.06044257611205427
530.0, 0.07083377202423516
531.0, 0.07626863081110939
532.0, 0.07675321433506709
533.0, 0.07204369099789672
534.0, 0.06109288945819212
535.0, 0.05081980285835504
536.0, 0.041365312737484394
537.0, 0.033073585735811595
538.0, 0.027243158572550417
539.0, 0.022115939350738672
540.0, 0.018454411812508863
541.0, 0.01601070385223472
542.0, 0.013304212049945675
543.0, 0.011459194760568754
544.0, 0.010191547716872716
545.0, 0.00919215773578409
546.0, 0.007806393558930423
547.0, 0.007149611302705041
548.0, 0.007115458952837411
549.0, 0.007136097749119142
550.0, 0.006125858059862033
551.0, 0.005886239278151241
552.0, 0.0059416049241489905
553.0, 0.006027343160477928
554.0, 0.005807304069528888
555.0, 0.005836346479207695
556.0, 0.00566856987026225
557.0, 0.0055869331620696785
558.0, 0.0059238610061631836
559.0, 0.00601472948707959
560.0, 0.00619405393553564
561.0, 0.006416131906889861
562.0, 0.006609421980085459
563.0, 0.006085425424893881
564.0, 0.00662420219173612
565.0, 0.006855035796811681
566.0, 0.0061043032914881185
567.0, 0.006246484699013145
568.0, 0.006477906085720171
569.0, 0.00666167773125858
570.0, 0.006848297064374011
571.0, 0.007705374480579604
572.0, 0.007931936131790452
573.0, 0.008167602331916475
574.0, 0.008451484745074138
575.0, 0.008163967551307372
576.0, 0.008575450525184741
577.0, 0.008563495498900436
578.0, 0.008106130934597236
579.0, 0.007739981257161603
580.0, 0.0076668357867237255
581.0, 0.007437481127834224
582.0, 0.007103651192764438
583.0, 0.006851440195250134
584.0, 0.006675873537357792
585.0, 0.006355840614305873
586.0, 0.005995363379049905
587.0, 0.005732308186333228
588.0, 0.005326031342477613
589.0, 0.004874826440902307
590.0, 0.004407627912642464
591.0, 0.00394134931211548
592.0, 0.003351983659936262
593.0, 0.0027799055933759916
594.0, 0.0023089152894150158
595.0, 0.001975362623690488
596.0, 0.0017105175496444265
597.0, 0.0017879522689844133
598.0, 0.001671492433348225
599.0, 0.0013061479687759444
600.0, 0.0012290415974031894
601.0, 0.0005982201831261818
602.0, 0.00041196901270370494
603.0, 0.0005354876585201173
604.0, 0.00012344013853977663
605.0, 0.00034060907324859303
606.0, 0.0004658757482623097
607.0, 0.0005462810089522684
608.0, 0.0007728033792921408
609.0, 0.0005435771502285598
610.0, 0.0003564673522845346
611.0, 0.0002421822330274939
612.0, 0.00021843561897415658
613.0, 0.0003956639735449892
614.0, 0.00044895880475535714
615.0, 0.0005559477012141855
616.0, 0.0007342640755385604
617.0, 0.00024213515471323524
618.0, 0.00019511797306110673
619.0, 0.00017749394841215315
620.0, 7.584730614943659e-05
621.0, 4.980749393905999e-05
622.0, 0.00022389814870175384
623.0, 0.0004138393883952165
624.0, 0.0005918223348676732
625.0, 0.0007802972107793424
626.0, 0.0003536657590077456
627.0, 0.00031735061300997594
628.0, 0.00042699911318012007
629.0, 0.00023622177470437135
630.0, 0.0005357566777277296
631.0, 0.0005115510271289931
632.0, 0.00044284961538179325
633.0, 0.0005163457978829768
634.0, 0.00012635630701388208
635.0, 0.0001909293655263673
636.0, 0.0004464850338096687
637.0, 0.0006937702944198555
638.0, 0.0005478251450052483
639.0, 0.0003446900412336266
640.0, 0.0005642281534356678
641.0, 0.000911487876021603
642.0, 0.00030229498959042164
643.0, 0.0006210861641388187
644.0, 0.0007783280927501295
645.0, 0.0007986145043367213
646.0, 0.0008918553699288975
647.0, 0.0005989979945881225
648.0, 0.00036418619395286886
649.0, 0.00035533191752685144
650.0, 0.0006669384790639553
651.0, 0.0008789414139116627
652.0, 0.00043106564878371025
653.0, 6.661021723640593e-05
654.0, 0.00011805482368693626
655.0, 0.0005812961956845697
656.0, 0.00027078087125986393
657.0, 7.571767234812304e-05
658.0, 0.00028775764811634263
659.0, 0.001111310253201411
660.0, 0.0007994657400246959
661.0, 0.0003820354738204602
662.0, 0.00010397067981585848
663.0, 0.0001548690302613103
664.0, 0.0007362348082821654
665.0, 0.0004753534471520715
666.0, 0.0001848713530250288
667.0, 0.00030455676090718626
668.0, 7.298824185647036e-05
669.0, 0.00025980590740260265
670.0, 0.0005196777743617372
671.0, 0.0006938244191509706
672.0, 0.0006426219159325004
673.0, 0.00025466440271513927
674.0, 0.00011802616221188764
675.0, 0.0001782475010154235
676.0, 0.00022117711070077835
677.0, 0.0002902244018268071
678.0, 0.00037066609725282365
679.0, 0.0005442063781756002
680.0, 0.000819913770725692
681.0, 0.0006131431835664401
682.0, 0.0005598073148170712
683.0, 0.0005840842875905269
684.0, 0.0005946876306729321
685.0, 0.00036657645338507793
686.0, 0.0006095738049080344
687.0, 0.00047067135645157554
688.0, 0.00014635373128687104
689.0, 0.0002209242327955867
690.0, 0.000449301922844843
691.0, 0.00026584198267985877
692.0, 4.092676031623228e-05
693.0, 0.0001281853056595162
694.0, 0.0007126845476468869
695.0, 0.0009065955897293994
696.0, 0.0012087356924427425
697.0, 0.0014688901947224405
698.0, 0.00036486420917186094
699.0, 0.0009135278802807735
700.0, 0.0008584798991901716
701.0, 0.00045451332769906984
702.0, 0.0007358003040015913
703.0, 0.0007585444144688636
704.0, 0.0009381026241336096
705.0, 0.0009345510652138103
706.0, 0.0005413198209239727
707.0, 0.00041359285493339194
708.0, 0.001171958869519879
709.0, 0.0014196947821339075
710.0, 0.0008694996604520504
711.0, 0.00021187381945722946
712.0, 0.0014076930378626202
713.0, 0.0013515798891286105
714.0, 0.0009172226441235196
715.0, 0.001825345750673521
716.0, 0.0017372376139052313
717.0, 0.0015455913219231943
718.0, 0.0012679641573584899
719.0, 0.0009188616421705272
720.0, 0.000500271957433853
721.0, 0.0018392042564831443
722.0, 0.0023235391863618876
723.0, 0.002033531879190584
724.0, 0.0027660571314906996
725.0, 0.002192440616324765
726.0, 0.001740176102400293
727.0, 0.0014378546725393629
728.0, 0.0012860133324866124
729.0, 0.002509289074968767
730.0, 0.002006874225509463
731.0, 0.001976199668890059
732.0, 0.002885744665475561
733.0, 0.002811247550210442
734.0, 0.0018843189883637724
735.0, 0.002066390574722702
736.0, 0.0026876615762274026
737.0, 0.002311809983948188
738.0, 0.0034821138205815396
739.0, 0.0031309812237882524
740.0, 0.002624132766870895
741.0, 0.0027391403357383687
742.0, 0.002598550609896568
743.0, 0.002656664213375108
744.0, 0.0029554874833175857
745.0, 0.003314211364584356
746.0, 0.003336446499791362
747.0, 0.0031362872463263007
748.0, 0.0035116008018568202
749.0, 0.003793388912924151
750.0, 0.003472942127406413
751.0, 0.003651433845611441
752.0, 0.00325100182665678
753.0, 0.003712994880030516
754.0, 0.00472139908750668
755.0, 0.004023498284564114
756.0, 0.004317808950375629
757.0, 0.004114720547394271
758.0, 0.004083237377103385
759.0, 0.005001096295310183
760.0, 0.005345563009937137
761.0, 0.005112819082942679
762.0, 0.004936768032124742
763.0, 0.004870249496488264
764.0, 0.004132612707808787
765.0, 0.004896054512525911
766.0, 0.005157087920891652
767.0, 0.00478696854673657
768.0, 0.004078362012490538
769.0, 0.005735058927948918
770.0, 0.0059978303012286245
771.0, 0.0059365944558207795
772.0, 0.00605001033653014
773.0, 0.00609403291820439
774.0, 0.006452010304296406
775.0, 0.006837738109057141
776.0, 0.007158227350657085
777.0, 0.007349797753472642
778.0, 0.007332260627016202
779.0, 0.007646294800614197
780.0, 0.007997757513398804
781.0, 0.008183712436016252
782.0, 0.008044519023828411
783.0, 0.00840799939864439
784.0, 0.008474118774781745
785.0, 0.008476754569824824
786.0, 0.008917054235709472
787.0, 0.008872896452945093
788.0, 0.009170979451126963
789.0, 0.009745815357942163
790.0, 0.010472941241606679
791.0, 0.011019798905294604
792.0, 0.011695760803956902
793.0, 0.012606505229768878
794.0, 0.013608202193964513
795.0, 0.014486652618359307
796.0, 0.015522572690469777
797.0, 0.017243490325542142
798.0, 0.018481542205418006
799.0, 0.019291793949589655
800.0, 0.02210792485047785
801.0, 0.02466204770257063
802.0, 0.027054381798727347
803.0, 0.02979438665500341
804.0, 0.03344207018630621
805.0, 0.03745086270249881
806.0, 0.043154931050100036
807.0, 0.04951892745829471
808.0, 0.056831887128185835
809.0, 0.06746633922071535
810.0, 0.08182411692286637
811.0, 0.1006884078408658
812.0, 0.12426855843217942
813.0, 0.15255077956172164
814.0, 0.18671433869321577
815.0, 0.220507768988026
816.0, 0.2510691319782402
817.0, 0.27459690808033477
818.0, 0.2845835945569354
819.0, 0.27299151545813205
820.0, 0.24895750907050737
821.0, 0.2194184772102121
822.0, 0.19034295169035628
823.0, 0.16376520512870762
824.0, 0.1399750208542706
825.0, 0.1228429685521939
826.0, 0.11078517597148133
827.0, 0.09890080030208137
828.0, 0.09183766459098161
829.0, 0.08742736212870168
830.0, 0.08375456781386048
831.0, 0.08055581207449158
832.0, 0.08234064844494159
833.0, 0.0827645135585739
834.0, 0.08353843207217979
835.0, 0.08604025382730718
836.0, 0.09151634563449722
837.0, 0.09863403874438575
838.0, 0.11049896303214117
839.0, 0.128812769639308
840.0, 0.1540686288376544
841.0, 0.1856545209905444
842.0, 0.23019955421829874
843.0, 0.29456684920016535
844.0, 0.3746998389119465
845.0, 0.46782261770515243
846.0, 0.5913075069380305
847.0, 0.7317885955393421
848.0, 0.8560900607699415
849.0, 0.948651072734103
850.0, 0.9999487023703649
851.0, 0.9382704453388785
852.0, 0.8209540772722576
853.0, 0.6829969456216071
854.0, 0.5493813765250541
855.0, 0.4327956407857201
856.0, 0.34753515020027376
857.0, 0.2818088856286836
858.0, 0.231449642375474
859.0, 0.19232172329248787
860.0, 0.15965178465447075
861.0, 0.1332637679112396
862.0, 0.11373305638221096
863.0, 0.09976558869634769
864.0, 0.08817517170528215
865.0, 0.07671868755747778
866.0, 0.0686837368284114
867.0, 0.06182029532686314
868.0, 0.05521346661809299
869.0, 0.05161122196678335
870.0, 0.04694180850162593
871.0, 0.04308402424281951
872.0, 0.03927852047948006
873.0, 0.0346894285029081
874.0, 0.03321371807236418
875.0, 0.03150100152185609
876.0, 0.029508599965439253
877.0, 0.027764023414868392
878.0, 0.027312376962897535
879.0, 0.025001489045155433
880.0, 0.023788805404331145
881.0, 0.02266306443362522
882.0, 0.021304229971288922
883.0, 0.02102828685821623
884.0, 0.019110800488977567
885.0, 0.017661136827044812
886.0, 0.017003478835297223
887.0, 0.01694124854105541
888.0, 0.01550430609137568
889.0, 0.01439010179398536
890.0, 0.014560524445799214
891.0, 0.015361460577258347
892.0, 0.015268383401882211
893.0, 0.01565522966859784
894.0, 0.01647480124032424
895.0, 0.01763583701584665
896.0, 0.01920495547768873
897.0, 0.021525295636796678
898.0, 0.02270105200690502
899.0, 0.02320186639304884
900.0, 0.0227465316870865
901.0, 0.021040861673407903
902.0, 0.01761773822595971
903.0, 0.014491090227946061
904.0, 0.012994230671351964
905.0, 0.012247166558217433
906.0, 0.01087501463849621
907.0, 0.009507086803965208
908.0, 0.008992313128813063
909.0, 0.008469602922353148
910.0, 0.007868202063062506
911.0, 0.007594838987634876
912.0, 0.0072540216443449015
913.0, 0.006691795384763314
914.0, 0.006480988526542153
915.0, 0.006681669018376164
916.0, 0.00655791217263974
917.0, 0.0064217157120312375
918.0, 0.006003322455533811
919.0, 0.005705292195054753
920.0, 0.005862818710441156
921.0, 0.006481943342688334
922.0, 0.007046178584304748
923.0, 0.006973147503249963
924.0, 0.006231071494591405
925.0, 0.005249804788419834
926.0, 0.007242517290607476
927.0, 0.007216643888156412
928.0, 0.007614827448921544
929.0, 0.008481469453325528
930.0, 0.008776002123318947
931.0, 0.008803593193453472
932.0, 0.009930186915220069
933.0, 0.01128011145047043
934.0, 0.012663872512759302
935.0, 0.014523734689357314
936.0, 0.016186360201623853
937.0, 0.019422492431710313
938.0, 0.023133261223649598
939.0, 0.02782763266245932
940.0, 0.03756580888617983
941.0, 0.04904331239273511
942.0, 0.06401193387704232
943.0, 0.08599400211644334
944.0, 0.11615855722627749
945.0, 0.1482255691622169
946.0, 0.17036394155915008
947.0, 0.18209020201477866
948.0, 0.17919838125028517
949.0, 0.1586841571803783
950.0, 0.12475533894536474
951.0, 0.09575442982930128
952.0, 0.07242412275153154
953.0, 0.05441099869559786
954.0, 0.04075107662822799
955.0, 0.03236127329106236
956.0, 0.024665779579217628
957.0, 0.019611618169760165
958.0, 0.016417215830808508
959.0, 0.012671478117672086
960.0, 0.011028021316389204
961.0, 0.009063266180090688
962.0, 0.007700198609864268
963.0, 0.006698228301701465
964.0, 0.004702543125589374
965.0, 0.004374384277599546
966.0, 0.003927231573916848
967.0, 0.003248457852292907
968.0, 0.0024393229660878233
969.0, 0.001886940350363072
970.0, 0.001482944114995263
971.0, 0.0014121698573139174
972.0, 0.0011093225672298753
973.0, 0.000534020630077721
974.0, 0.0008134447234643628
975.0, 0.0005227634016419249
976.0, 0.0002896048478764125
977.0, 0.00027060271770481295
978.0, 0.0004315426236009806
979.0, 0.0003258217734833689
980.0, 0.00023305646469022997
981.0, 0.00042332244766193054
982.0, 0.0005809543151389409
983.0, 0.0004999310409058685
984.0, 0.0007127246352461867
985.0, 0.0011547129485878582
986.0, 0.0008210190001419975
987.0, 0.00028152214273984076
988.0, 0.00027343534767883016
989.0, 0.0008240540219438439
990.0, 0.0003730915058405106
991.0, 0.00022216295030628218
992.0, 0.0004611412400693586
993.0, 0.0007743586161340092
994.0, 0.00019178793242666226
995.0, 0.00014183647744882047
996.0, 0.00039563752975559546
997.0, 0.0005940846473324315
998.0, 0.0004826066165563385
999.0, 0.001107275919302095
1000.0, 0.0008637876010061944
1001.0, 0.0006165428847017641
1002.0, 0.0010946032275695045
1003.0, 0.002573102379537754
1004.0, 0.0013508951853836684
1005.0, 0.001542064219603331
1006.0, 0.0014182352715904625
1007.0, 0.0009983619771916955
1008.0, 0.0009557996705026155
1009.0, 0.001486559873942068
1010.0, 0.0012656622418379605
1011.0, 0.0007853205315540573
1012.0, 0.0006378888434496933
1013.0, 0.0013588672898635383
1014.0, 0.0020543324779704226
1015.0, 0.0018452335386640352
1016.0, 0.0013224035358668181
1017.0, 0.001001173963128642
1018.0, 0.0012683871105285277
1019.0, 0.0010832319670046717
1020.0, 0.0015863013710838134
1021.0, 0.0018095158731824196
1022.0, 0.0017706900367510032
1023.0, 0.0019394003060751218
1024.0, 0.002787473737861816
1025.0, 0.0016738296811399864
1026.0, 0.0016410784935304696
1027.0, 0.002299048081230622
1028.0, 0.0020242038547223264
1029.0, 0.0024887192407603786
1030.0, 0.0018708551550403905
1031.0, 0.002194974689593004
1032.0, 0.002678403501989691
1033.0, 0.0017437565937483469
1034.0, 0.0012884279754775299
1035.0, 0.001164048030661759
1036.0, 0.0013156722605441858
1037.0, 0.0011577573819105142
1038.0, 0.00032348533762365384
1039.0, 0.001793224290995237
1040.0, 0.0011767188953260516
1041.0, 0.0005409051422178211
1042.0, 0.0006889187241352961
1043.0, 0.0016437277917142241
1044.0, 0.0009955368499454287
1045.0, 0.001302163583889383
1046.0, 0.0017431346164645898
1047.0, 0.0015255271125008672
1048.0, 0.00033968861461905497
1049.0, 0.0002174675928534689
1050.0, 0.00022964149177148724
1051.0, 0.00036155471253755846
1052.0, 0.0004802061054481926
1053.0, 0.0005356676622920271
1054.0, 0.0009149946920018637
1055.0, 0.00048252107289796145
1056.0, 0.00015601286326164164
1057.0, 3.268232034546227e-05
1058.0, 8.732105300923756e-05
1059.0, 0.0003427326161414858
1060.0, 0.0007669575289175918
1061.0, 0.0004618029340459367
1062.0, 0.00013974599837262387
1063.0, 0.00045161594687528894
1064.0, 0.0015624884600503016
1065.0, 0.0008532454019102708
1066.0, 0.0006285045939602592
1067.0, 0.0004451093763555476
1068.0, 0.00015810963144106664
1069.0, 0.00038381051715549253
1070.0, 0.0002723675139475451
1071.0, 0.00010796927657248176
1072.0, 0.00014990901874352872
1073.0, 0.00040892202778068285
1074.0, 0.000622724634593999
1075.0, 0.0002252444510192275
1076.0, 0.00024236282038590963
1077.0, 0.0007096657984288951
1078.0, 0.0009765272794792434
1079.0, 7.472842880126509e-05
1080.0, 0.0008345573090656948
1081.0, 0.0012723388364379287
1082.0, 0.0010281449346817492
1083.0, 0.0006208431924238185
1084.0, 0.0008386906789550437
1085.0, 0.0007952108087810604
1086.0, 0.0005539243701535763
1087.0, 0.0002620803490022616
1088.0, 0.00010947360470664234
1089.0, 0.00019219303175834726
1090.0, 9.377950317163416e-05
1091.0, 0.00012512255912184298
1092.0, 0.0003764395894964178
1093.0, 0.00040151300516786564
1094.0, 0.00013066913568050224
1095.0, 0.0008500073540746788
1096.0, 0.0009444062369376211
1097.0, 0.00048015845458019955
1098.0, 0.0003664825284177764
1099.0, 0.0008156416503826838
1100.0, 0.0007669834670700917
1101.0, 0.0005719133604883712
1102.0, 0.0002297942577959078
1103.0, 0.00019308463742528562
1104.0, 0.00037916582349866714
1105.0, 0.0002145474291319924
1106.0, 0.0004153463053506962
1107.0, 0.0005873234583021839
1108.0, 0.0005274023664154121
1109.0, 0.0005929211515167069
1110.0, 0.0012283015618192214
1111.0, 0.0009467228034813236
1112.0, 0.001782094867344436
1113.0, 0.0018039516193242824
1114.0, 0.0013801374233427433
1115.0, 0.0013216318035298596
1116.0, 0.0014420390291259946
1117.0, 0.0017004734977000705
1118.0, 0.0018940713679645538
1119.0, 0.0017597910542820117
1120.0, 0.0015447387687168431
1121.0, 0.0025118293996020343
1122.0, 0.0027720206900183884
1123.0, 0.0028228313289067027
1124.0, 0.0023702861931263215
1125.0, 0.0016997366960895418
1126.0, 0.0016614333595465767
1127.0, 0.0018690988724930687
1128.0, 0.0015234900776790238
1129.0, 0.0012291212794958368
1130.0, 0.0008981395861882879
1131.0, 0.000292526758211798
1132.0, 0.0007063738418535128
1133.0, 0.0010260004885296163
1134.0, 0.0016529919249305793
1135.0, 0.0015625734185444268
1136.0, 0.00034987703655573187
1137.0, 0.0003890766231123462
1138.0, 0.0010524152262218305
1139.0, 0.0008330991036088398
1140.0, 0.0010864483406553634
1141.0, 0.001947070765634905
1142.0, 0.0016198160822959086
1143.0, 0.0005425805926279275
1144.0, 0.000709232589862897
1145.0, 0.0007638847704684631
1146.0, 0.0007407914911533836
1147.0, 0.0013351820920286662
1148.0, 0.0011357862600897377
1149.0, 0.0019451441409201417
1150.0, 0.002112873849869579
1151.0, 0.0020891392112699467
1152.0, 0.0023496638475105514
1153.0, 0.0016746077328126901
1154.0, 0.00243208974609145
1155.0, 0.002142725611512195
1156.0, 0.0018851777028341381
1157.0, 0.0021755535955451846
1158.0, 0.0023869482204301284
1159.0, 0.002255173795029689
1160.0, 0.0021684337664731653
1161.0, 0.0021239421129292976
1162.0, 0.0020529053399592333
1163.0, 0.0019168639309165194
1164.0, 0.0021068992289003325
1165.0, 0.001465943592795818
1166.0, 0.0014085175899354835
1167.0, 0.0017772807925627854
1168.0, 0.0019091830950552805
1169.0, 0.0007983646412366184
1170.0, 0.001276252425046599
1171.0, 0.0014325282301998305
1172.0, 0.0018588455783634299
1173.0, 0.0022718765905821855
1174.0, 0.0016478979820519443
1175.0, 0.0007740595323315737
1176.0, 0.0007464943140641303
1177.0, 0.0005993147995361817
1178.0, 0.000832694556225488
1179.0, 0.0016646291554345213
1180.0, 0.0005790815984652951
1181.0, 0.0010621781819830389
1182.0, 0.0013944877884423358
1183.0, 0.0013966449216197556
1184.0, 0.0014380304936485256
1185.0, 0.002281767998926393
1186.0, 0.0025675679994589576
1187.0, 0.0014516702634523133
1188.0, 0.0006986417176952908
1189.0, 0.0006881830691195172
1190.0, 0.0010371611294357464
1191.0, 0.0010599833234022679
1192.0, 0.0012941683803199772
1193.0, 0.0017033247131341472
1194.0, 0.0020776309029414673
1195.0, 0.0021710411146347594
1196.0, 0.0017623568463021584
1197.0, 0.0019001446531764896
1198.0, 0.001623916687799494
1199.0, 0.001741378768311094
1200.0, 0.0019520255917990425
1201.0, 0.0017994778875926225
1202.0, 0.003218511533351076
1203.0, 0.0021784528465429577
1204.0, 0.0021353549728215155
1205.0, 0.0022684535163601588
1206.0, 0.0023057954773032874
1207.0, 0.003794551839798704
1208.0, 0.0019325366226058305
1209.0, 0.002002295122989801
1210.0, 0.0016122860294892738
1211.0, 0.0011064354498800252
1212.0, 0.001727548587361614
1213.0, 0.0017584104001026376
1214.0, 0.001270094242825884
1215.0, 0.0009940201196419888
1216.0, 0.0009774601372939133
1217.0, 0.0010272542884972515
1218.0, 0.0007911262186148098
1219.0, 0.00041265110678888675
1220.0, 0.0003498677706599098
1221.0, 0.00034952455598296305
1222.0, 0.0003085043665634978
1223.0, 0.00026363606531348437
1224.0, 0.0005045613032975467
1225.0, 0.00031557905175393954
1226.0, 0.0005368574882047075
1227.0, 0.0007588119268228277
1228.0, 0.0008167086897795223
1229.0, 0.000946226925035003
1230.0, 0.000964490197980041
1231.0, 0.0009845349983266236
1232.0, 0.0010015189275948268
1233.0, 0.00078152756130626
1234.0, 0.0003494501399055949
1235.0, 0.0005761229651324873
1236.0, 0.000363111404877453
1237.0, 0.00037788554969639176
1238.0, 0.00039040445333093796
1239.0, 0.0005324528088195752
1240.0, 0.0010196161197808889
1241.0, 0.000422476214916143
1242.0, 0.0002251173751613969
1243.0, 0.0005151160435479306
1244.0, 0.0007481088945361053
1245.0, 0.0005469578933088698
1246.0, 5.856889685251807e-05
1247.0, 0.0002257314272183919
1248.0, 9.873112972205193e-05
1249.0, 8.601569901505036e-05
1250.0, 0.00012633975288916467
1251.0, 8.375714196067881e-05
1252.0, 0.00036735347160007513
1253.0, 0.0003830507586416124
1254.0, 0.000695058466783382
1255.0, 0.0007917986150496152
1256.0, 0.0008131676521731998
1257.0, 0.0013215058508710305
1258.0, 0.000533018782690971
1259.0, 0.0003879846506517348
1260.0, 0.0007290123165704278
1261.0, 0.0011774298076884658
1262.0, 0.0014380629795490228
1263.0, 0.0014842987418594868
1264.0, 0.0011449931011233109
1265.0, 0.0011639739428708472
1266.0, 0.0010660491425244988
1267.0, 0.0007534053156857283
1268.0, 0.00041191798032257906
1269.0, 0.0005197311608879421
1270.0, 0.0009639122433632285
1271.0, 0.0009055892656682807
1272.0, 0.0006280529263300435
1273.0, 0.00040352084023353394
1274.0, 0.00036159150888519866
1275.0, 0.00032786767285145996
1276.0, 0.001225011425555718
1277.0, 0.0007397009008519602
1278.0, 0.0001725269049781978
1279.0, 0.00039620617811656275
1280.0, 0.0007900685649034212
1281.0, 0.0003590921387949974
1282.0, 0.00021508425468825485
1283.0, 0.0002645399842848572
1284.0, 0.000268755477321384
1285.0, 0.00016449852797563878
1286.0, 0.000341979404625041
1287.0, 0.00088587599981471
1288.0, 0.0007200524936170175
1289.0, 0.0004076231556346882
1290.0, 0.00036454727466961025
1291.0, 0.0006368285453952885
1292.0, 0.00042971674429265525
1293.0, 0.0005477631849403434
1294.0, 0.0008817300341559844
1295.0, 0.0009617521473780137
1296.0, 0.0007053527709796556
1297.0, 0.0005418779715998713
1298.0, 0.0019243385140963925
1299.0, 0.0008052252207353919
1300.0, 0.0013010407441923942
1301.0, 0.0016835088853299068
1302.0, 0.0011919384762557976
1303.0, 0.0009363843757715287
1304.0, 0.0009562339459425636
1305.0, 0.0006551704746738951
1306.0, 0.0008320045875113347
1307.0, 0.0009286308184549637
1308.0, 0.0006671483245978388
1309.0, 0.0006425448869172637
1310.0, 0.0018838732941977975
1311.0, 0.00161638030907924
1312.0, 0.0015899590586768363
1313.0, 0.001752377460747476
1314.0, 0.001683907810144104
1315.0, 0.0014073577656772691
1316.0, 0.0013833991639569706
1317.0, 0.002334887138599584
1318.0, 0.0032712936305125877
1319.0, 0.0032017331501502963
1320.0, 0.002081559400448764
1321.0, 0.0019144637818549195
1322.0, 0.003575619383848391
1323.0, 0.0024119575998052057
1324.0, 0.00147846933298369
1325.0, 0.0015863340279243972
1326.0, 0.001954568612247128
1327.0, 0.001131576897061062
1328.0, 0.0023897087528125167
1329.0, 0.0027269716018020014
1330.0, 0.0018553886442608236
1331.0, 0.0008329348557484743
1332.0, 0.0008028618458363477
1333.0, 0.0007485570143761118
1334.0, 0.00229313970546684
1335.0, 0.0011865972818072164
1336.0, 0.001246039558079486
1337.0, 0.0020585855375070726
1338.0, 0.0010505053410537887
1339.0, 0.00022585942308506884
1340.0, 0.0012917244519756227
1341.0, 0.0014133360572607845
1342.0, 0.0015494992280614783
1343.0, 0.0016678275561750303
1344.0, 0.001182715115439364
1345.0, 0.0013273220427523985
1346.0, 0.0017518430168867675
1347.0, 0.0014430656328543294
1348.0, 0.0015126921988261079
1349.0, 0.0019582311629633845
1350.0, 0.0019449039571387571
1351.0, 0.001547496193128657
1352.0, 0.001309081497042972
1353.0, 0.0014162488336831108
1354.0, 0.0018132959895134615
1355.0, 0.0019071427646810916
1356.0, 0.0013204426896350607
1357.0, 0.0022222774424508736
1358.0, 0.0010570222541052689
1359.0, 0.0009917457409316349
1360.0, 0.0013726231671731897
1361.0, 0.0015598255303645144
1362.0, 0.0013494069290407782
1363.0, 0.0009787534888311882
1364.0, 0.0011427223988823357
1365.0, 0.0009497775651430776
1366.0, 0.0008118518039926627
1367.0, 0.0007118734374936221
1368.0, 0.0005049346334741682
1369.0, 0.0010327827594146266
1370.0, 0.0012162566664312962
1371.0, 0.0016667584587414421
1372.0, 0.001661572494935908
1373.0, 0.0014544317540806067
1374.0, 0.0015607012037683753
1375.0, 0.0011025948488297323
1376.0, 0.0012453851343045552
1377.0, 0.0016136798133383106
1378.0, 0.0012440133630607772
1379.0, 0.0006578921201154935
1380.0, 0.0008691476141898108
1381.0, 0.0018539175339361454
1382.0, 0.000987906567770229
1383.0, 0.0015620987202361342
1384.0, 0.002012322646309786
1385.0, 0.0017475344048983417
1386.0, 0.0011054623884096796
1387.0, 0.0011130136020266242
1388.0, 0.0005560974710299944
1389.0, 0.0007137341865804816
1390.0, 0.0010577543485211255
1391.0, 0.0009717412995251839
1392.0, 0.0005824520295382384
1393.0, 0.0011342357652326283
1394.0, 0.0006931064033592121
1395.0, 0.0006116431557694884
1396.0, 0.0009455594581087404
1397.0, 0.0008039706996886091
1398.0, 0.0004697489368131777
1399.0, 0.001616816632194758
1400.0, 0.0004203129146255273
1401.0, 0.00011289793753196808
1402.0, 0.0012311026188926752
1403.0, 0.0016337042970048558
1404.0, 0.0013815661749932537
1405.0, 0.0025401530382306047
1406.0, 0.0019188558076933294
1407.0, 0.0007501405372783535
1408.0, 0.001010610540533423
1409.0, 0.0015562698264278997
1410.0, 0.001576220753346126
1411.0, 0.001278030003740493
1412.0, 0.0022592646451363675
1413.0, 0.0009332096434690328
1414.0, 0.001738476934898824
1415.0, 0.0019517611885238304
1416.0, 0.00145720866507558
1417.0, 0.0013289925056684468
1418.0, 0.0012745480429576896
1419.0, 0.00229491493391246
1420.0, 0.0017400950309973831
1421.0, 0.001624745644512019
1422.0, 0.0014752154706164393
1423.0, 0.0009982708899994586
1424.0, 0.0014965765753065159
1425.0, 0.0014378992305230235
1426.0, 0.0008411649610904858
1427.0, 0.0009748295022129164
1428.0, 0.0013654057980428901
1429.0, 0.0016279779812554118
1430.0, 0.0018984549693080485
1431.0, 0.002153831883099373
1432.0, 0.0022631352362158016
1433.0, 0.0013365611609994794
1434.0, 0.0010809424448114658
1435.0, 0.001518086628682563
1436.0, 0.0016344994769696955
1437.0, 0.0015598850184622244
1438.0, 0.0026382161181196847
1439.0, 0.00291377287193391
1440.0, 0.0029743376358084806
1441.0, 0.002881911646322071
1442.0, 0.0025145223536217434
1443.0, 0.0020058050449880817
1444.0, 0.0033730743059647433
1445.0, 0.0021421449290215354
1446.0, 0.0027419775903614173
1447.0, 0.003458132207465356
1448.0, 0.0035335386222860943
1449.0, 0.00413059338840795
1450.0, 0.003157363018703022
1451.0, 0.0032398901477627934
1452.0, 0.003600659220132657
1453.0, 0.004119839767693285
1454.0, 0.00462905871417198
1455.0, 0.004685608369918171
1456.0, 0.003438649460206474
1457.0, 0.005141292816410545
1458.0, 0.0034975886359613706
1459.0, 0.0032273894799806687
1460.0, 0.0035135683053516263
1461.0, 0.0030274033815771415
1462.0, 0.002625492289720235
1463.0, 0.004661496963752002
1464.0, 0.003313330570122439
1465.0, 0.002827954356656111
1466.0, 0.0037777920267135236
1467.0, 0.004117745919248998
1468.0, 0.002626510813574963
1469.0, 0.004734412482122467
1470.0, 0.002867593027059397
1471.0, 0.0031221437248739477
1472.0, 0.0030331058898070053
1473.0, 0.0028936350598175666
1474.0, 0.0031592413831059564
1475.0, 0.002968023280586263
1476.0, 0.0029367782464497943
1477.0, 0.0033746829384353272
1478.0, 0.0033756356138291517
1479.0, 0.003518371060221987
1480.0, 0.0035390400643677245
1481.0, 0.002853905794716201
1482.0, 0.0023727166406967517
1483.0, 0.0035641195266050306
1484.0, 0.002701889840593544
1485.0, 0.0020890061476035423
1486.0, 0.0021933555984758684
1487.0, 0.0027467470832320657
1488.0, 0.003304222614620219
1489.0, 0.0015014001919846866
1490.0, 0.002308087500949751
1491.0, 0.0023777869291303506
1492.0, 0.001394382855644999
1493.0, 0.00047760031841478044
1494.0, 0.000808670378463205
1495.0, 0.0019487583231145992
1496.0, 0.0017303877732413953
1497.0, 0.002377799431786744
1498.0, 0.002207205646849566
1499.0, 0.001463222643073513
1500.0, 0.0010422979289903323
1501.0, 0.0013387821984443596
1502.0, 0.00031651716100828634
1503.0, 0.0008637266099140822
1504.0, 0.0007353251720638709
1505.0, 0.0003675170543525065
1506.0, 0.0001510038307522521
1507.0, 0.0003363553947219365
1508.0, 0.0010327903668720182
1509.0, 0.0006761613098902148
1510.0, 0.001066105312940349
1511.0, 0.001127730652157856
1512.0, 0.0011555997971653994
1513.0, 0.0014352336616377632
1514.0, 0.001820978790197756
1515.0, 0.0016450900828443942
1516.0, 0.0025664100121153026
1517.0, 0.0008371267475255499
1518.0, 0.0006147570275949482
1519.0, 0.0007831818122572616
1520.0, 0.000520875634228138
1521.0, 0.000983647540444087
1522.0, 0.0004460067217893219
1523.0, 0.000533913460543592
1524.0, 0.0009135322260668165
1525.0, 0.0008806845817817758
1526.0, 0.0004311084178767636
1527.0, 1.5898890452710804e-06
1528, 0.0
1529, 0.0
1530, 0.0
1531, 0.0
1532, 0.0
1533, 0.0
1534, 0.0
1535, 0.0
1536, 0.0
1537, 0.0
1538, 0.0
1539, 0.0
1540, 0.0
1541, 0.0
1542, 0.0
1543, 0.0
1544, 0.0
1545, 0.0
1546, 0.0
1547, 0.0
1548, 0.0
1549, 0.0
1550, 0.0
1551, 0.0
1552, 0.0
1553, 0.0
1554, 0.0
1555, 0.0
1556, 0.0
1557, 0.0
1558, 0.0
1559, 0.0
1560, 0.0
1561, 0.0
1562, 0.0
1563, 0.0
1564, 0.0
1565, 0.0
1566, 0.0
1567, 0.0
1568, 0.0
1569, 0.0
1570, 0.0
1571, 0.0
1572, 0.0
1573, 0.0
1574, 0.0
1575, 0.0
1576, 0.0
1577, 0.0
1578, 0.0
1579, 0.0
1580, 0.0
1581, 0.0
1582, 0.0
1583, 0.0
1584, 0.0
1585, 0.0
1586, 0.0
1587, 0.0
1588, 0.0
1589, 0.0
1590, 0.0
1591, 0.0
1592, 0.0
1593, 0.0
1594, 0.0
1595, 0.0
1596, 0.0
1597, 0.0
1598, 0.0
1599, 0.0
