30, 0.0
31, 0.0
32, 0.0
33, 0.0
34, 0.0
35, 0.0
36, 0.0
37, 0.0
38, 0.0
39, 0.0
40, 0.0
41, 0.0
42, 0.0
43, 0.0
44, 0.0
45, 0.0
46, 0.0
47, 0.0
48, 0.0
49, 0.0
50, 0.0
51, 0.0
52, 0.0
53, 0.0
54, 0.0
55, 0.0
56, 0.0
57, 0.0
58, 0.0
59, 0.0
60, 0.0
61, 0.0
62, 0.0
63, 0.0
64, 0.0
65, 0.0
66, 0.0
67, 0.0
68, 0.0
69, 0.0
70, 0.0
71, 0.0
72, 0.0
73, 0.0
74, 0.0
75, 0.0
76, 0.0
77, 0.0
78, 0.0
79, 0.0
80, 0.0
81, 0.0
82, 0.0
83, 0.0
84, 0.0
85, 0.0
86, 0.0
87, 0.0
88, 0.0
89, 0.0
90, 0.0
91, 0.0
92, 0.0
93, 0.0
94, 0.0
95, 0.0
96, 0.0
97, 0.0
98, 0.0
99, 0.0
100, 0.0
101, 0.0
102, 0.0
103, 0.0
104, 0.0
105, 0.0
106, 0.0
107, 0.0
108, 0.0
109, 0.0
110, 0.0
111.0, 0.0001731911057317104
112.0, 0.0009498328354703256
113.0, 0.0004403078439846892
114.0, 0.00021497350025602224
115.0, 0.0006751648330696391
116.0, 0.0010627046736494284
117.0, 0.0015349821892697171
118.0, 0.001893743930234737
119.0, 0.001830239066380975
120.0, 0.0020215690602412464
121.0, 0.0017595147703315663
122.0, 0.0011221554884424212
123.0, 0.0016026881364990966
124.0, 0.0016254534634591075
125.0, 0.0014873691198710316
126.0, 0.0013960440204848997
127.0, 0.001410190494734996
128.0, 0.0018099693674051517
129.0, 0.0022901674037311155
130.0, 0.001553373314375672
131.0, 0.001486367196497151
132.0, 0.0018193044738115997
133.0, 0.00247512532494081
134.0, 0.0023355795080697637
135.0, 0.002703708587743533
136.0, 0.0031965413299901513
137.0, 0.0029876158972658947
138.0, 0.0031971247998241587
139.0, 0.0033033335864781216
140.0, 0.0031919924758172106
141.0, 0.0032149868389672784
142.0, 0.0031493408919916034
143.0, 0.0027606439521821
144.0, 0.0016878953608966422
145.0, 0.0021542614776260717
146.0, 0.0020231814722191667
147.0, 0.0012196884162772165
148.0, 0.0005858598534131769
149.0, 0.0013145826019464746
150.0, 0.0016773878616877162
151.0, 0.0006134416155968898
152.0, 0.0018825993202191745
153.0, 0.002747393059373844
154.0, 0.0031921966963709756
155.0, 0.003203882780517678
156.0, 0.0044881871881864805
157.0, 0.0056443485882415765
158.0, 0.00630428814781447
159.0, 0.006825570972787007
160.0, 0.00838835586499007
161.0, 0.010045875235503123
162.0, 0.010747696135966565
163.0, 0.01185885757502572
164.0, 0.012574992800177843
165.0, 0.012995861769007138
166.0, 0.013939360555260877
167.0, 0.014723890938660254
168.0, 0.015208837259590581
169.0, 0.015291626774779389
170.0, 0.016269597604526335
171.0, 0.0167600505658833
172.0, 0.016552313631262507
173.0, 0.015072883218849791
174.0, 0.013581170290310363
175.0, 0.011432874459646695
176.0, 0.008615529458186055
177.0, 0.006256052880884808
178.0, 0.004976937890359015
179.0, 0.0038050415189228256
180.0, 0.0019981858754657576
181.0, 0.002318904933145374
182.0, 0.0019109310259261567
183.0, 0.0009563620326664675
184.0, 0.0002540461651019331
185.0, 7.492267202415585e-05
186.0, 6.010738620475635e-05
187.0, 0.00013702486534495863
188.0, 0.0007039191705984647
189.0, 0.0005579727833274165
190.0, 0.00019538467681854768
191.0, 0.00010384563498778474
192.0, 0.0006341002627196961
193.0, 0.0006527781138037833
194.0, 0.0002813507278350822
195.0, 0.0002924658623472992
196.0, 0.0007902142526953647
197.0, 0.0010447698665458863
198.0, 0.0007941486790459217
199.0, 0.0010914362090362036
200.0, 0.000934204370496185
201.0, 0.001009333277339887
202.0, 0.0022663900329405046
203.0, 0.0014858865347413476
204.0, 0.0009093357135793215
205.0, 0.0007682652918920565
206.0, 0.0010081443920759415
207.0, 0.002555126173267641
208.0, 0.0033557658235381753
209.0, 0.0025085894830612
210.0, 0.0019092065739204785
211.0, 0.0016037116493171463
212.0, 0.0013043842112813193
213.0, 0.0006154814204407241
214.0, 0.0007398981340282663
215.0, 0.0010946873816714874
216.0, 0.0014040358031614832
217.0, 0.0007614721026893775
218.0, 0.0007047414156569435
219.0, 0.0011252424604998403
220.0, 0.0019491850732454273
221.0, 0.0012192868416150112
222.0, 0.0016070870824473635
223.0, 0.0020365020243287035
224.0, 0.001125945834602329
225.0, 0.0019978461018996673
226.0, 0.0022474603942936482
227.0, 0.0019079515879679278
228.0, 0.0019926638125670765
229.0, 0.0023907037727474685
230.0, 0.0026455770339271663
231.0, 0.0026455201626902807
232.0, 0.003555057197788711
233.0, 0.004268762047352101
234.0, 0.004909479582604697
235.0, 0.005593265149478714
236.0, 0.0053167086363026085
237.0, 0.005781584815920552
238.0, 0.0069158995657366
239.0, 0.008262439883310787
240.0, 0.008461959967812889
241.0, 0.00957644717702026
242.0, 0.011946631431593139
243.0, 0.012880804309922729
244.0, 0.014840256339611644
245.0, 0.017151032374899938
246.0, 0.019349106564186994
247.0, 0.02444819076326696
248.0, 0.030251137150365485
249.0, 0.03743756449422051
250.0, 0.04776039453502213
251.0, 0.0629451933047968
252.0, 0.07773961199700315
253.0, 0.09178464501496922
254.0, 0.10838294745595002
255.0, 0.12154317560693054
256.0, 0.13166515255971553
257.0, 0.1385605375035179
258.0, 0.13793339793276063
259.0, 0.1294592379618755
260.0, 0.11531945130670615
261.0, 0.09724390662790734
262.0, 0.07771732751283793
263.0, 0.06081853064439924
264.0, 0.04669288789635739
265.0, 0.035085746435949326
266.0, 0.02850121296705806
267.0, 0.02313431304185673
268.0, 0.018168938155273175
269.0, 0.01536960689666804
270.0, 0.013949425278333519
271.0, 0.011978189873827838
272.0, 0.00811483070024303
273.0, 0.008065262303748813
274.0, 0.007423102064406307
275.0, 0.00667291347498652
276.0, 0.006605587517369662
277.0, 0.0057978946423769915
278.0, 0.005689019360694791
279.0, 0.0058184509905825615
280.0, 0.003856934560670442
281.0, 0.0027872059249876525
282.0, 0.002278327729552659
283.0, 0.002237402997139497
284.0, 0.0025481032580757495
285.0, 0.0026839737403258133
286.0, 0.002436074205210158
287.0, 0.0016137735885965632
288.0, 0.0013505522558138377
289.0, 0.001728295981882357
290.0, 0.002179701732576101
291.0, 0.0017949813811846832
292.0, 0.0029042486697488604
293.0, 0.0038943027383250683
294.0, 0.004383605192235904
295.0, 0.0036645760653390203
296.0, 0.004164481043077401
297.0, 0.005082031555809696
298.0, 0.006170867773901734
299.0, 0.007247901635403641
300.0, 0.008254349526716711
301.0, 0.009837747040487043
302.0, 0.012413883845366196
303.0, 0.013335751022898464
304.0, 0.01364216213920776
305.0, 0.013536821868225845
306.0, 0.013228633446153663
307.0, 0.011726843282242239
308.0, 0.010245030895207214
309.0, 0.008665035568174228
310.0, 0.00641849812807768
311.0, 0.004359840489360772
312.0, 0.003240907433626501
313.0, 0.0029889392234035573
314.0, 0.002313131929521804
315.0, 0.0011562629421265536
316.0, 0.000660619911387551
317.0, 0.0012591492241419105
318.0, 0.0014682402701727295
319.0, 0.0010760784005460473
320.0, 0.0007664444055007831
321.0, 0.0011061148894550162
322.0, 0.0008433942588244909
323.0, 0.0011329090038736593
324.0, 0.0013880147743701803
325.0, 0.0006559758392405918
326.0, 0.0016468674059764397
327.0, 0.0012979711445739236
328.0, 0.0003954053715367322
329.0, 0.0020562041091812
330.0, 0.001112838804968218
331.0, 0.000989953836721361
332.0, 0.0019077165248213733
333.0, 0.0006870762003859338
334.0, 0.0006639487616607222
335.0, 0.0006641675763266299
336.0, 0.00031945989757861855
337.0, 0.00138976132947091
338.0, 0.0010031441285527974
339.0, 0.000281493780796906
340.0, 3.3057893146580964e-05
341.0, 0.0005198669678959233
342.0, 0.0006261039560513484
343.0, 0.0004926678681532438
344.0, 0.00028376604675683524
345.0, 0.00032186878894137247
346.0, 0.0005855124608656068
347.0, 0.0008851712486017973
348.0, 0.0008086048715299702
349.0, 0.0010214935939145493
350.0, 0.0008514071229055072
351.0, 0.00034903263828884587
352.0, 0.00010109357596082647
353.0, 0.00043735121378425136
354.0, 0.000673641473445912
355.0, 0.0006290598000828158
356.0, 0.00044813305133904296
357.0, 0.0004725970587734123
358.0, 0.0006000179684174906
359.0, 0.0007714799817744647
360.0, 0.0007558208067399245
361.0, 0.0005374220479525721
362.0, 0.00038949162061670907
363.0, 0.0005236120749319862
364.0, 0.00081246075780168
365.0, 0.0005793163221710978
366.0, 0.00033946958127020353
367.0, 0.0007252376529565418
368.0, 0.0002921153479517803
369.0, 0.00014110893065798238
370.0, 0.0003135845024308259
371.0, 0.0008115876739427822
372.0, 0.0006378103887931106
373.0, 0.0009981117618405551
374.0, 0.0014819763025332746
375.0, 0.0005166043467148233
376.0, 0.0005427823954835219
377.0, 0.0009621100796140953
378.0, 0.0014098138596464558
379.0, 0.0008250807479709393
380.0, 0.002068805446153894
381.0, 0.002790290834903411
382.0, 0.002485388767764136
383.0, 0.0029551478317813335
384.0, 0.003973503547284586
385.0, 0.004537758582348602
386.0, 0.004386846389040618
387.0, 0.006431870812834787
388.0, 0.007086370162215387
389.0, 0.007792109336619748
390.0, 0.009445000583113957
391.0, 0.009683385729717223
392.0, 0.012057854853862588
393.0, 0.014645696845830222
394.0, 0.015663792099312537
395.0, 0.01907217756105131
396.0, 0.022853487477617732
397.0, 0.02628292344015834
398.0, 0.02841937872321633
399.0, 0.03218796281392392
400.0, 0.035444615477997495
401.0, 0.03885709966708038
402.0, 0.04381603310582703
403.0, 0.04527541555047095
404.0, 0.046903698453531775
405.0, 0.04886220143952116
406.0, 0.05069128794474236
407.0, 0.048475063201817936
408.0, 0.04637758931958419
409.0, 0.044730732471162556
410.0, 0.04260146104356246
411.0, 0.03767844950857587
412.0, 0.03304826448309633
413.0, 0.028958120016552194
414.0, 0.023725616205888974
415.0, 0.019248947414877052
416.0, 0.01627960674735534
417.0, 0.01459162411089029
418.0, 0.011719818436154225
419.0, 0.010151125988279618
420.0, 0.008721530084902087
421.0, 0.007330114590118643
422.0, 0.00825145863148195
423.0, 0.006710099605223337
424.0, 0.004197615361894395
425.0, 0.0018121004205574457
426.0, 0.004101229131012582
427.0, 0.004265648771389296
428.0, 0.0038185954159772406
429.0, 0.00356078442954618
430.0, 0.003389144723807676
431.0, 0.0029510334287918567
432.0, 0.002122462340910946
433.0, 0.0008592029832651575
434.0, 0.0003480221871480102
435.0, 0.0003557128828417148
436.0, 0.00046071496821255357
437.0, 0.000377058419400692
438.0, 0.0016643792884956353
439.0, 0.0014506607099296566
440.0, 0.0011969845992365119
441.0, 0.002203943378856014
442.0, 0.002351943337983618
443.0, 0.0013307336372122794
444.0, 0.00024031449453301037
445.0, 0.00021424579467418196
446.0, 0.0016881315979239008
447.0, 0.0017818654292105053
448.0, 0.0011843868172127783
449.0, 0.0007133961688016363
450.0, 0.0008589279773833875
451.0, 0.0007067155662290941
452.0, 0.00038897448901895537
453.0, 9.734790951693097e-05
454.0, 0.0009986929355796622
455.0, 0.0019341808170669562
456.0, 0.002158319982076358
457.0, 0.0006643316582076212
458.0, 0.0007924834007285971
459.0, 0.0007500189393644893
460.0, 0.0007889975565570535
461.0, 0.001419579348399319
462.0, 0.0007082820418959164
463.0, 0.0002996339143342896
464.0, 0.0006719554082170998
465.0, 0.0024646852937187692
466.0, 0.0008875225103195139
467.0, 0.0006036450198317052
468.0, 0.001277784103773676
469.0, 0.0018978437827690212
470.0, 0.0006916118419808366
471.0, 9.41392598531808e-05
472.0, 0.0003120816627340486
473.0, 0.001437061427288213
474.0, 0.0007456765969574806
475.0, 0.001295237838885144
476.0, 0.0019297704644866084
477.0, 0.00032750646141391183
478.0, 0.0003922620089617215
479.0, 0.0002677678264367694
480.0, 0.00012856392944761837
481.0, 0.000497599499682301
482.0, 0.0007151379000340179
483.0, 0.0009302401031530799
484.0, 0.0011539004519626665
485.0, 0.0013868672139145505
486.0, 0.0012427514489728986
487.0, 0.0008808435816430346
488.0, 0.00043676722848913556
489.0, 0.00010286010549943178
490.0, 0.00046148053736704594
491.0, 0.000988212247856273
492.0, 0.0014485192392974316
493.0, 0.001538427437681176
494.0, 0.0005036750033671909
495.0, 0.000902238311426895
496.0, 0.001822305902694246
497.0, 0.001822429900349416
498.0, 0.0008121440011335983
499.0, 0.0012991643297025931
500.0, 0.0019321726145845094
501.0, 0.0008420007300346307
502.0, 0.0018206889006822892
503.0, 0.0014802377915882426
504.0, 0.0010388835636586196
505.0, 0.0020328676377258104
506.0, 0.0016951802511150325
507.0, 0.0017076541535616101
508.0, 0.001472045102740367
509.0, 0.00034139897818168466
510.0, 0.0013725486091297015
511.0, 0.0020558231696920113
512.0, 0.002775569320289478
513.0, 0.003871295818288708
514.0, 0.00419402002422017
515.0, 0.0030696466300279518
516.0, 0.0030454467088346458
517.0, 0.005967823495878358
518.0, 0.005545138546239036
519.0, 0.00633045261366113
520.0, 0.007783368354333916
521.0, 0.00928316354163291
522.0, 0.00690792825813618
523.0, 0.009053636647547453
524.0, 0.012562675263446545
525.0, 0.015784377916059102
526.0, 0.020967226716918103
527.0, 0.025967473672969605
528.0, 0.03030151644903625
529.0, 0.034265447158967115
530.0, 0.042062841776015554
531.0, 0.04699101442009287
532.0, 0.050021596046227614
533.0, 0.05092267357234837
534.0, 0.046241476778086106
535.0, 0.04105664522846959
536.0, 0.03690040848930612
537.0, 0.033434161425099085
538.0, 0.02695261946903027
539.0, 0.02274234832870709
540.0, 0.019781109128230973
541.0, 0.017539303835036314
542.0, 0.015095374018675152
543.0, 0.01238083635482108
544.0, 0.011936964064441119
545.0, 0.012520031746493472
546.0, 0.00969714000712382
547.0, 0.010972774969368295
548.0, 0.010506821002055173
549.0, 0.009241449464780808
550.0, 0.010532622650458795
551.0, 0.010363497940427442
552.0, 0.010270429871098472
553.0, 0.010142524189292637
554.0, 0.009624318769168944
555.0, 0.011426467887175887
556.0, 0.010788843668882726
557.0, 0.0100714307813796
558.0, 0.012108375934440333
559.0, 0.012774836911025478
560.0, 0.012791466279771666
561.0, 0.012974072839245026
562.0, 0.013956964677437067
563.0, 0.014340974260407207
564.0, 0.015548325144534091
565.0, 0.01644283577501053
566.0, 0.01658714286316966
567.0, 0.018751786334018576
568.0, 0.020856380867672487
569.0, 0.022072856203251008
570.0, 0.022663952426135604
571.0, 0.026439882710419475
572.0, 0.030061607841679553
573.0, 0.032913555497799514
574.0, 0.03504210066388714
575.0, 0.03737772974004967
576.0, 0.041516971407216684
577.0, 0.04592308981459534
578.0, 0.05018258676022659
579.0, 0.054052592415624164
580.0, 0.05927611350748348
581.0, 0.0646663824556815
582.0, 0.07044968884139566
583.0, 0.0772767562354976
584.0, 0.07895549810471172
585.0, 0.08315350171497349
586.0, 0.08674386924540246
587.0, 0.08555321842338381
588.0, 0.08304761907623316
589.0, 0.08173236652729388
590.0, 0.07882543695760803
591.0, 0.07227567970229112
592.0, 0.06571471553618603
593.0, 0.059250636228498174
594.0, 0.052298060561289036
595.0, 0.04485034892134352
596.0, 0.03915983862931759
597.0, 0.03476940046567985
598.0, 0.03087930241145655
599.0, 0.02709112917116928
600.0, 0.022927636830895277
601.0, 0.019218740886315557
602.0, 0.017057607444506392
603.0, 0.01566773595400622
604.0, 0.01258020744359925
605.0, 0.011554421254258925
606.0, 0.011422886758832459
607.0, 0.011661778297439739
608.0, 0.011661527091222867
609.0, 0.008824037882008697
610.0, 0.007604316881759054
611.0, 0.00725124485974382
612.0, 0.0068637956184134
613.0, 0.0061904740561398
614.0, 0.005871846800855235
615.0, 0.005598496567178447
616.0, 0.0051501141890548
617.0, 0.004290621746641096
618.0, 0.004439267961207557
619.0, 0.004651577674126128
620.0, 0.004639783569764581
621.0, 0.004645444332283222
622.0, 0.0034890191864703187
623.0, 0.001863172071865571
624.0, 0.0011493550010679605
625.0, 0.004168372528936753
626.0, 0.0027220388901906516
627.0, 0.0023114126934510935
628.0, 0.0022123161536840054
629.0, 0.0008071236117575263
630.0, 0.002555886898545337
631.0, 0.0021718903342239425
632.0, 0.0013566609602751096
633.0, 0.0015257996476716429
634.0, 0.0025006707045705
635.0, 0.0015358443015212747
636.0, 0.0008515371270993478
637.0, 0.001135066157054737
638.0, 0.0005878648839861807
639.0, 0.0015702949354246991
640.0, 0.0014713617490346362
641.0, 0.0006894566466419592
642.0, 0.001974596996159042
643.0, 0.0009202131248470602
644.0, 0.0010189705122842262
645.0, 0.0016257872718146108
646.0, 0.0012592509858250416
647.0, 0.0008943244223211852
648.0, 0.001496957913766835
649.0, 0.0016186950216170088
650.0, 0.0003177516912625761
651.0, 0.0007805070713652567
652.0, 0.0005263187153459919
653.0, 0.0002986710227570933
654.0, 0.00050773456535315
655.0, 0.0015071801142613442
656.0, 0.0013604792064698258
657.0, 0.0019500731699593741
658.0, 0.0028841645186213232
659.0, 0.0023149169384220495
660.0, 0.0015577437284997944
661.0, 0.0014436801347266744
662.0, 0.001239494428865453
663.0, 3.4788103190336084e-05
664.0, 0.0003228077218441968
665.0, 0.0002982754504494511
666.0, 0.00036821588868610005
667.0, 0.0007044159475254085
668.0, 0.0005781198427213198
669.0, 0.0008418571719991916
670.0, 0.0006571867161713134
671.0, 0.00013076266485526492
672.0, 0.0004627322467740532
673.0, 0.001227199261144951
674.0, 0.0016626645118901886
675.0, 0.0017889098137369031
676.0, 0.0018080689026995706
677.0, 0.0007074199874934719
678.0, 0.0006763771395222903
679.0, 0.0008304352800836878
680.0, 0.0005768024608401294
681.0, 0.0016973696039407104
682.0, 0.0010477738792017144
683.0, 0.0011945828616506705
684.0, 0.0024350575216316853
685.0, 0.0020617445195920347
686.0, 0.0019180154011003122
687.0, 0.0016527867888511529
688.0, 0.0015924804896799245
689.0, 0.0023846772999504147
690.0, 0.0021680592298345134
691.0, 0.0011645033443676868
692.0, 0.00025413272462671585
693.0, 0.0002818216855090044
694.0, 0.0022938552104787313
695.0, 0.0024255182702420607
696.0, 0.0027100145541266545
697.0, 0.0032287286907310133
698.0, 0.0011633002735695857
699.0, 0.0011968444180242132
700.0, 0.000846348337157643
701.0, 0.000854082342947932
702.0, 0.003078016323156677
703.0, 0.0008854384820007498
704.0, 0.0012891762257298532
705.0, 0.0021884976225873777
706.0, 0.0018003382912480477
707.0, 0.0006454754304845834
708.0, 0.0022664096437175706
709.0, 0.0030734089139490767
710.0, 0.0021309451753647856
711.0, 0.0005998216274046418
712.0, 0.001780358937267549
713.0, 0.0020458639808802314
714.0, 0.0018679064369939327
715.0, 0.0025134981890579814
716.0, 0.001155510743974066
717.0, 0.001813315319523497
718.0, 0.0021810118592497114
719.0, 0.0012262858384409214
720.0, 0.0019388101151825443
721.0, 0.0039722185685788294
722.0, 0.004836284809118879
723.0, 0.00407819907540421
724.0, 0.0022239825445540653
725.0, 0.0020605368618434564
726.0, 0.001974086788537007
727.0, 0.001831486766162672
728.0, 0.0017137635636430887
729.0, 0.0032349911607984106
730.0, 0.002571048827869426
731.0, 0.002611879526830069
732.0, 0.003883764661374227
733.0, 0.003524793246376648
734.0, 0.0014799595177620072
735.0, 0.001297904609271507
736.0, 0.0023736418499438012
737.0, 0.002954453915831319
738.0, 0.0033919683259948648
739.0, 0.0035468209729323692
740.0, 0.004017076924794232
741.0, 0.004887202643418726
742.0, 0.004303627281930485
743.0, 0.0032022588649925077
744.0, 0.0035127027679423095
745.0, 0.004497390723561612
746.0, 0.003609732954805331
747.0, 0.006420077809811077
748.0, 0.005973319854790564
749.0, 0.004914208700202383
750.0, 0.005609724174514333
751.0, 0.005280800584325229
752.0, 0.004825263894772474
753.0, 0.005339219606749365
754.0, 0.006275183442005054
755.0, 0.005083003781023903
756.0, 0.006174527158551538
757.0, 0.007216839178873288
758.0, 0.00744002676164065
759.0, 0.006509616767980801
760.0, 0.00827385985139541
761.0, 0.007989112608419759
762.0, 0.008288369130917236
763.0, 0.009613560474423438
764.0, 0.009491983851826119
765.0, 0.01010170751219381
766.0, 0.010738044292585982
767.0, 0.010456455293025736
768.0, 0.008469772512533315
769.0, 0.011661451939606587
770.0, 0.010546804633915914
771.0, 0.010549151979374225
772.0, 0.013225523285319054
773.0, 0.01374502107219564
774.0, 0.01296647459987115
775.0, 0.01416298248564493
776.0, 0.01491643652450596
777.0, 0.011507949604872619
778.0, 0.01574261019449689
779.0, 0.016876390073841358
780.0, 0.017591578419168655
781.0, 0.01867720258895511
782.0, 0.01710994719508134
783.0, 0.020551907821570074
784.0, 0.021192065846720964
785.0, 0.02029933855388283
786.0, 0.021531829305626308
787.0, 0.02305804841327477
788.0, 0.02494929509160682
789.0, 0.026594489729379882
790.0, 0.02825751391942702
791.0, 0.03241013061798432
792.0, 0.033004034041275686
793.0, 0.03494429954969051
794.0, 0.03762620349840157
795.0, 0.03923973340804637
796.0, 0.04390451143412887
797.0, 0.049961693767617145
798.0, 0.05442547484704713
799.0, 0.05790575609203848
800.0, 0.06834002661031778
801.0, 0.07381416104917307
802.0, 0.0839315134605032
803.0, 0.09607639795610347
804.0, 0.10562800556101853
805.0, 0.11908360542939701
806.0, 0.14088915880238623
807.0, 0.16335489255307598
808.0, 0.18858614375651084
809.0, 0.2339516429862678
810.0, 0.2867371499205784
811.0, 0.35196754160098453
812.0, 0.4315303354903091
813.0, 0.5264425399725131
814.0, 0.6406310497893904
815.0, 0.7563787452604168
816.0, 0.8616926333664785
817.0, 0.9456485836349823
818.0, 0.9928704759838826
819.0, 0.9782505806620314
820.0, 0.909097204502964
821.0, 0.8114261309394221
822.0, 0.7083247975909435
823.0, 0.5998236460845852
824.0, 0.5029636282677035
825.0, 0.4255151150444694
826.0, 0.3635329139296571
827.0, 0.30554930213970455
828.0, 0.26861546744778075
829.0, 0.2380612999025735
830.0, 0.2124178480555705
831.0, 0.19149923624248436
832.0, 0.1792639973247023
833.0, 0.16833654008192556
834.0, 0.1575036839143127
835.0, 0.15015206538981832
836.0, 0.15041379040696068
837.0, 0.151814792891692
838.0, 0.1577472332582852
839.0, 0.16983082495619017
840.0, 0.1889104468304731
841.0, 0.21544931176259052
842.0, 0.25397852396661164
843.0, 0.3125359471667287
844.0, 0.3849796804866816
845.0, 0.4668144026706188
846.0, 0.5765404958509037
847.0, 0.7078979192731404
848.0, 0.8252793157945459
849.0, 0.9189030135522452
850.0, 0.9897543130993939
851.0, 0.9977911994815877
852.0, 0.897388392733963
853.0, 0.761606795377463
854.0, 0.6338364738893613
855.0, 0.5081791232338275
856.0, 0.4100850398478021
857.0, 0.33299865516952437
858.0, 0.27324908559733796
859.0, 0.22612019804215025
860.0, 0.18361758054207167
861.0, 0.15921877181728833
862.0, 0.13546189742207276
863.0, 0.11147203879688246
864.0, 0.09696194219778846
865.0, 0.08107428120610667
866.0, 0.07273917391580016
867.0, 0.06612610695265556
868.0, 0.058104943932964455
869.0, 0.05239370909816447
870.0, 0.04839098368215331
871.0, 0.044184762027238166
872.0, 0.03919895117686462
873.0, 0.033755524115076964
874.0, 0.03515569696132271
875.0, 0.030980706829773292
876.0, 0.028364213510488394
877.0, 0.02762712830657705
878.0, 0.024681996316905958
879.0, 0.02307909700378249
880.0, 0.0222958321257807
881.0, 0.021552581276590366
882.0, 0.020596624655116445
883.0, 0.02031215926671863
884.0, 0.01765807076102596
885.0, 0.01604602792501032
886.0, 0.01521157535293477
887.0, 0.014301913550628759
888.0, 0.012328710356169576
889.0, 0.011784651708357616
890.0, 0.011546683179388525
891.0, 0.011640320089739734
892.0, 0.012559664329940554
893.0, 0.01185454394449681
894.0, 0.013761812952398847
895.0, 0.015159715323419668
896.0, 0.015798237915731976
897.0, 0.01946656552614326
898.0, 0.020340940159331817
899.0, 0.01982526533574427
900.0, 0.01877294816482408
901.0, 0.017599452176684346
902.0, 0.015090858964240998
903.0, 0.011694500149693051
904.0, 0.009495620901937752
905.0, 0.008465139525861547
906.0, 0.007830511755438222
907.0, 0.004914187097309784
908.0, 0.006713056844225364
909.0, 0.008457918180734103
910.0, 0.008449608645719057
911.0, 0.00662272430634833
912.0, 0.004844868642035829
913.0, 0.004153383540424842
914.0, 0.0045040838479852565
915.0, 0.004718293666334378
916.0, 0.0014568830796358593
917.0, 0.004340319707602378
918.0, 0.0042623023841048616
919.0, 0.0031979262243198594
920.0, 0.0035127373364145973
921.0, 0.006170016038284078
922.0, 0.004757190062429301
923.0, 0.004384189972828407
924.0, 0.004682266970640806
925.0, 0.004427484959772857
926.0, 0.005520091916945707
927.0, 0.005297324199745172
928.0, 0.005991437916720993
929.0, 0.00674323088432648
930.0, 0.005375521916753595
931.0, 0.007578137562945482
932.0, 0.00851041132289157
933.0, 0.010016306112541931
934.0, 0.011758449268956294
935.0, 0.011189172646960385
936.0, 0.015306872859560356
937.0, 0.02041168327919489
938.0, 0.02437968162033865
939.0, 0.028224440575741014
940.0, 0.039302604670190436
941.0, 0.05105596546841046
942.0, 0.06837210646199457
943.0, 0.09371507638031423
944.0, 0.12734707375805263
945.0, 0.16411755500021583
946.0, 0.19451180499685244
947.0, 0.2179847828059675
948.0, 0.22774728296124855
949.0, 0.21705838234900993
950.0, 0.18241902021599415
951.0, 0.14846025141012528
952.0, 0.11974760497127718
953.0, 0.09548475089748447
954.0, 0.07320589096647104
955.0, 0.05758737881683078
956.0, 0.045929024740591705
957.0, 0.038590542650670474
958.0, 0.03288150605991097
959.0, 0.02424889338457947
960.0, 0.021654713478595856
961.0, 0.017596347714198716
962.0, 0.015407830730678957
963.0, 0.014586289363605677
964.0, 0.010993043281899977
965.0, 0.00857908428939048
966.0, 0.009602195087773872
967.0, 0.009549749182439553
968.0, 0.007762289927386566
969.0, 0.009165246882776258
970.0, 0.0057513423168357655
971.0, 0.0058065458484987086
972.0, 0.0062758082737341256
973.0, 0.005204786812947388
974.0, 0.0038059288942158954
975.0, 0.0034890268748464554
976.0, 0.0022831302158176276
977.0, 0.002486439963421512
978.0, 0.004550746566382032
979.0, 0.0025764418213464124
980.0, 0.0008388864984439446
981.0, 0.0009182185266969497
982.0, 0.0012901415763667862
983.0, 0.0006942465875901708
984.0, 0.0005806280548729687
985.0, 0.004757320827806872
986.0, 0.0038429036331851067
987.0, 0.001392314713256672
988.0, 0.0019179616965744515
989.0, 0.0018685129346944407
990.0, 0.001198945135799575
991.0, 0.0012763007207114822
992.0, 0.001580722488557591
993.0, 0.001370882722139816
994.0, 0.0016165483795649754
995.0, 0.0014341957926223743
996.0, 0.0011940747944142326
997.0, 0.0010734418749971592
998.0, 0.001331103640754542
999.0, 0.003374500139229742
1000.0, 0.0027384136134293814
1001.0, 0.001446349528434343
1002.0, 0.0017196288597879407
1003.0, 0.004784122944433946
1004.0, 0.0011037234842917213
1005.0, 0.002787107446685021
1006.0, 0.0029673234972244895
1007.0, 0.0021318750261282533
1008.0, 0.0033431798260809865
1009.0, 0.005493361116000987
1010.0, 0.005157773833675561
1011.0, 0.004666267477676312
1012.0, 0.003794974533206153
1013.0, 0.0017249698723837696
1014.0, 0.003395082866426732
1015.0, 0.004448118911668198
1016.0, 0.0034417078709775544
1017.0, 0.0015082578108499857
1018.0, 0.0009975012412573637
1019.0, 0.0037249955755894407
1020.0, 0.004893473239195386
1021.0, 0.0034051758898975236
1022.0, 0.0017967302713285292
1023.0, 0.0036158054630194545
1024.0, 0.003309128063814568
1025.0, 0.0020455098642823124
1026.0, 0.002302681820973981
1027.0, 0.0032916934842038424
1028.0, 0.003247602726322153
1029.0, 0.006030542063315409
1030.0, 0.0043545827631575
1031.0, 0.003999247918234284
1032.0, 0.004637711962692388
1033.0, 0.003761098063692762
1034.0, 0.0018038002930780889
1035.0, 0.0021807075274575356
1036.0, 0.004335711330642826
1037.0, 0.005241832496074985
1038.0, 0.0021819578310773666
1039.0, 0.0023728663276867895
1040.0, 0.0053648392558137935
1041.0, 0.005360016570612744
1042.0, 0.004400041891499745
1043.0, 0.005676439338235001
1044.0, 0.003303360196960407
1045.0, 0.002022143959128541
1046.0, 0.003320361482256219
1047.0, 0.004690725628886209
1048.0, 0.003399104325737617
1049.0, 0.0010576488844282054
1050.0, 0.0012947653309966585
1051.0, 0.003902187914316909
1052.0, 0.004361625891077323
1053.0, 0.0007600935445147739
1054.0, 0.004876624221875582
1055.0, 0.003508613047778066
1056.0, 0.0026515309010883715
1057.0, 0.002433576836831697
1058.0, 0.002455859374449937
1059.0, 0.003560066717058176
1060.0, 0.002029770511726628
1061.0, 0.003143343173315017
1062.0, 0.004137531827379651
1063.0, 0.0030603561163076365
1064.0, 0.0015785918681725047
1065.0, 0.001460390048453631
1066.0, 0.001468192254776362
1067.0, 0.0009590990004870335
1068.0, 0.0002045798726870205
1069.0, 0.0008378401157580382
1070.0, 0.00040613167159302127
1071.0, 0.0007216455169670902
1072.0, 0.0006818756848790315
1073.0, 0.0006871326096479497
1074.0, 0.0028024475984464157
1075.0, 0.00226567039208081
1076.0, 0.0015125682506210137
1077.0, 0.002411326632874911
1078.0, 0.0033184605767560063
1079.0, 0.00046118208535022773
1080.0, 0.0005669461650967714
1081.0, 0.002543438250382999
1082.0, 0.00255459265862253
1083.0, 0.0010346881147632785
1084.0, 0.0003572830970533598
1085.0, 0.0005846921716852194
1086.0, 0.0012041196287215087
1087.0, 0.0014146268512672108
1088.0, 0.001308626201936721
1089.0, 0.0012266058924266156
1090.0, 0.0012798644615636123
1091.0, 0.0006149273159338883
1092.0, 0.0005147197624399384
1093.0, 0.0005537447668392816
1094.0, 0.00031324632824323786
1095.0, 0.00030921665484934664
1096.0, 0.0006294386308136551
1097.0, 0.0008130557610753279
1098.0, 0.0011871418984009808
1099.0, 0.0014678182249227623
1100.0, 0.00024952473653159374
1101.0, 0.0003634153626832198
1102.0, 0.0016414537875815067
1103.0, 0.0017743477093656482
1104.0, 0.001029458685478629
1105.0, 0.002047805939455653
1106.0, 0.0013959439459569171
1107.0, 0.0019114345003797325
1108.0, 0.0012758522835130109
1109.0, 0.0013368203233632852
1110.0, 0.004727691418677742
1111.0, 0.0008179371290968358
1112.0, 0.0017925485853365116
1113.0, 0.001790625935195029
1114.0, 0.0012102173290728952
1115.0, 0.0014650611313104572
1116.0, 0.0006126570077884692
1117.0, 0.0004103662480152362
1118.0, 0.0007540541972431657
1119.0, 0.0007746408194895338
1120.0, 0.00018528837268437696
1121.0, 7.26508103839747e-05
1122.0, 0.0003344764268874676
1123.0, 0.0011849219624635737
1124.0, 0.001383616701177274
1125.0, 0.0009149434219770259
1126.0, 0.0010074916284857436
1127.0, 0.0005239002709001548
1128.0, 0.0006537261540995157
1129.0, 0.0010041847925318082
1130.0, 0.0016132044611997926
1131.0, 0.002404848560124402
1132.0, 0.0008852692382040685
1133.0, 0.0007647259154690392
1134.0, 0.0018485500437512433
1135.0, 0.0022766874865886542
1136.0, 0.0011452546407606848
1137.0, 0.0015450642961592539
1138.0, 0.0025832580968108017
1139.0, 0.0020308768669803903
1140.0, 0.0019209979828885503
1141.0, 0.002585336170143332
1142.0, 0.0016255255137736738
1143.0, 0.0008865813314406128
1144.0, 0.0008565964682758425
1145.0, 0.0010208734761716176
1146.0, 0.0012616484053179667
1147.0, 0.0016645857935582273
1148.0, 0.0018033908353833796
1149.0, 0.0008199625274822404
1150.0, 0.00048365740284047237
1151.0, 0.0005137243313316159
1152.0, 0.0003270722262222233
1153.0, 0.0001558368830288423
1154.0, 0.0006011776702589725
1155.0, 0.001572312954845015
1156.0, 0.0015152813488962659
1157.0, 0.0012966691110053764
1158.0, 0.004686773388587736
1159.0, 0.001821376121637811
1160.0, 0.0028514367838882756
1161.0, 0.002571925445667597
1162.0, 0.001989143789621698
1163.0, 0.004159089830768727
1164.0, 0.0026506812012820086
1165.0, 0.0013475626635794159
1166.0, 0.0018532505311243252
1167.0, 0.003910135023316422
1168.0, 0.006108827649195247
1169.0, 0.005523940588136065
1170.0, 0.0038353613439532906
1171.0, 0.004768519912065189
1172.0, 0.004895373352229328
1173.0, 0.003134275394933422
1174.0, 0.0009607313568535105
1175.0, 0.00035726258523989643
1176.0, 0.0015954173779429578
1177.0, 0.003322386335819436
1178.0, 0.004531396768515679
1179.0, 0.004238492267774115
1180.0, 0.0009932141225909394
1181.0, 0.003094961113817568
1182.0, 0.004097354515927928
1183.0, 0.003970548848829328
1184.0, 0.003787638273575783
1185.0, 0.0049641684313526235
1186.0, 0.004185777579509204
1187.0, 0.0032888899213709888
1188.0, 0.0029656152446287556
1189.0, 0.003297427216280526
1190.0, 0.003891972784044641
1191.0, 0.0036052713878364125
1192.0, 0.00421834706489699
1193.0, 0.004868740544191197
1194.0, 0.005175867143353789
1195.0, 0.004762035546247552
1196.0, 0.0032351373286936967
1197.0, 0.004161142920698681
1198.0, 0.0043839712482129055
1199.0, 0.005062843567051065
1200.0, 0.0062301716602863174
1201.0, 0.00720520885526648
1202.0, 0.006917042562951333
1203.0, 0.005026355233374551
1204.0, 0.006030852452793946
1205.0, 0.005978833187850989
1206.0, 0.004337357573093842
1207.0, 0.0076480967254891116
1208.0, 0.003934497850828677
1209.0, 0.004775929538209651
1210.0, 0.004193509228514306
1211.0, 0.0024884552364600777
1212.0, 0.0029364755870457462
1213.0, 0.00632996146857313
1214.0, 0.0019064187029351144
1215.0, 0.002684204785084523
1216.0, 0.004533140120815512
1217.0, 0.004656824148945141
1218.0, 0.0055697955894290045
1219.0, 0.0030653908090674405
1220.0, 0.0025249404805090182
1221.0, 0.003434852953812241
1222.0, 0.004434237958349815
1223.0, 0.004248524588103744
1224.0, 0.0032904271809687208
1225.0, 0.0036689446370945797
1226.0, 0.0027223013939609276
1227.0, 0.002253430659516813
1228.0, 0.002330369687441938
1229.0, 0.000889022885660366
1230.0, 0.00042776675181880545
1231.0, 0.002206945192726235
1232.0, 0.0026453172475303026
1233.0, 0.001633364708417157
1234.0, 0.00042534724311839577
1235.0, 0.0006059874191170035
1236.0, 0.004127139153525276
1237.0, 0.003237150110640706
1238.0, 0.0016506682768058477
1239.0, 0.0016955649667287872
1240.0, 0.0032848220720174603
1241.0, 0.0013120411747219406
1242.0, 0.0022304078853422828
1243.0, 0.0027507560908189106
1244.0, 0.0028325850605062934
1245.0, 0.0028427169747242097
1246.0, 0.0027213035634638906
1247.0, 0.0014085801061753532
1248.0, 0.0021663848019565987
1249.0, 0.0026865960191679627
1250.0, 0.002292929359523829
1251.0, 0.0016560735713991453
1252.0, 0.003213689762538975
1253.0, 0.00270437144571256
1254.0, 0.0014266439716096682
1255.0, 0.0014063802934051496
1256.0, 0.002119530777870953
1257.0, 0.001202458430010714
1258.0, 0.001365931949060434
1259.0, 0.0011147891117084226
1260.0, 0.0006854218300579772
1261.0, 0.0004666665092557962
1262.0, 0.00047360418381269946
1263.0, 7.387706962129514e-05
1264.0, 0.000978727596736406
1265.0, 0.00166724082505543
1266.0, 0.0028284864244194404
1267.0, 0.002722207033801387
1268.0, 0.0006683517826814903
1269.0, 0.002830999435471647
1270.0, 0.001673571817791607
1271.0, 0.0016233423811095385
1272.0, 0.001206766420853861
1273.0, 0.001125475035656884
1274.0, 0.003148445361199006
1275.0, 0.0025428316567551327
1276.0, 0.0015553544635418595
1277.0, 0.0005749622455138161
1278.0, 0.0004333509384516499
1279.0, 0.0009355702337165082
1280.0, 0.0007158632083878584
1281.0, 0.002679754083067983
1282.0, 0.001289952711783935
1283.0, 0.0004316311610914164
1284.0, 0.0008096614053941886
1285.0, 0.0017882023313459342
1286.0, 0.002255711023685834
1287.0, 0.0022578042323779923
1288.0, 0.0010639190087674728
1289.0, 0.0007909791991607073
1290.0, 0.0016603937503436856
1291.0, 0.0023908851818063913
1292.0, 0.00032812829167025914
1293.0, 0.002031526250203103
1294.0, 0.002416657405848844
1295.0, 0.0025503506156300203
1296.0, 0.003208556597439783
1297.0, 0.004074904327372297
1298.0, 0.0021253219395446334
1299.0, 0.0012211476627618362
1300.0, 0.0005380625720316096
1301.0, 0.0013555338627814389
1302.0, 0.00286500631007457
1303.0, 0.0023978776722882247
1304.0, 0.002943712242701291
1305.0, 0.0016045742540397125
1306.0, 0.0013379852954924919
1307.0, 0.0014298776103104933
1308.0, 0.0013290866504782563
1309.0, 0.0019297086335047615
1310.0, 0.00416776130716748
1311.0, 0.004090752576276122
1312.0, 0.004937959723017795
1313.0, 0.005514734772858832
1314.0, 0.004609315464253312
1315.0, 0.003644428506034774
1316.0, 0.0022753346405864436
1317.0, 0.005516364829804434
1318.0, 0.00576098566358344
1319.0, 0.004599882132987113
1320.0, 0.004651065746669361
1321.0, 0.0014881515665448734
1322.0, 0.006049351670561904
1323.0, 0.00457182422872914
1324.0, 0.0017997358204833284
1325.0, 0.0019470408219692012
1326.0, 0.005321667682059906
1327.0, 0.003074469541284456
1328.0, 0.0033980449494773754
1329.0, 0.004081754812120885
1330.0, 0.002490759605734416
1331.0, 0.0006845319669414682
1332.0, 0.001473142765233299
1333.0, 0.0004595825304397875
1334.0, 0.0008979051431515332
1335.0, 0.0009472982762625303
1336.0, 0.0005887811639247413
1337.0, 0.001088380758021357
1338.0, 0.0030906782556388264
1339.0, 0.001870437395620901
1340.0, 0.003246874257359423
1341.0, 0.0021392972232462237
1342.0, 0.0024914866257940644
1343.0, 0.004228508284084947
1344.0, 0.0042248683363364245
1345.0, 0.001664863312097679
1346.0, 0.004311970275381171
1347.0, 0.0031541076533584044
1348.0, 0.0023460548936582236
1349.0, 0.003782087731589132
1350.0, 0.006069775490747109
1351.0, 0.005998878410597061
1352.0, 0.0032891175198040126
1353.0, 0.004038143453705065
1354.0, 0.004580917086500544
1355.0, 0.004387097233034974
1356.0, 0.005615221797134686
1357.0, 0.007814331328966553
1358.0, 0.006767482516287338
1359.0, 0.005671748038236971
1360.0, 0.005286425470226421
1361.0, 0.005020126000031811
1362.0, 0.004041687575455549
1363.0, 0.0040514532957038624
1364.0, 0.0052796102718399105
1365.0, 0.004942258801269917
1366.0, 0.005525211309205409
1367.0, 0.005941183918911615
1368.0, 0.004209174492576421
1369.0, 0.005689950505720008
1370.0, 0.0055198043406486505
1371.0, 0.005485027596619766
1372.0, 0.004689266238019244
1373.0, 0.004290410162163905
1374.0, 0.005324245262057901
1375.0, 0.00395277953018551
1376.0, 0.005605338783876691
1377.0, 0.005630746549458177
1378.0, 0.004870391786730024
1379.0, 0.004032588812636603
1380.0, 0.0039050805024951458
1381.0, 0.006099416126570013
1382.0, 0.004891495201024101
1383.0, 0.0023079464091362886
1384.0, 0.0021257514138075958
1385.0, 0.0036532788296724794
1386.0, 0.0047208602569288535
1387.0, 0.005022361716512578
1388.0, 0.006248188619540874
1389.0, 0.006038382015778235
1390.0, 0.0057919392647368985
1391.0, 0.00565641118626173
1392.0, 0.005266375855739442
1393.0, 0.0044054076978137175
1394.0, 0.005457391627791423
1395.0, 0.004912976416769011
1396.0, 0.004933534055505955
1397.0, 0.004539746652787759
1398.0, 0.004104317564725508
1399.0, 0.006180361820261197
1400.0, 0.0046060829649929216
1401.0, 0.0052502298144345635
1402.0, 0.005335661063400962
1403.0, 0.005022107363255203
1404.0, 0.0047909601292942285
1405.0, 0.0047312052920598785
1406.0, 0.004492874803149596
1407.0, 0.004069516427932642
1408.0, 0.0037721198379246632
1409.0, 0.0035830676089905803
1410.0, 0.0035994438838327586
1411.0, 0.004135139020902995
1412.0, 0.005880734361340968
1413.0, 0.004771699766605018
1414.0, 0.006199616729273254
1415.0, 0.0054641651888205
1416.0, 0.004505757207186138
1417.0, 0.005837242959836388
1418.0, 0.0038558323543265477
1419.0, 0.006816332899858724
1420.0, 0.0047586624763839595
1421.0, 0.006796353808668445
1422.0, 0.007808678144979439
1423.0, 0.005103291639351832
1424.0, 0.007230136583080132
1425.0, 0.006170746738384717
1426.0, 0.006089629200935062
1427.0, 0.007003124300124884
1428.0, 0.006277657082879311
1429.0, 0.005058899281816516
1430.0, 0.00738910489581936
1431.0, 0.008027463716534351
1432.0, 0.006211634108664437
1433.0, 0.0057166117785492
1434.0, 0.006565658543826282
1435.0, 0.007227645022100187
1436.0, 0.006320492204915158
1437.0, 0.0050680721437881965
1438.0, 0.008422001001267592
1439.0, 0.010661800174659312
1440.0, 0.00891673761287361
1441.0, 0.007534874037996476
1442.0, 0.009125880821881831
1443.0, 0.008468604729403882
1444.0, 0.00660680646687503
1445.0, 0.0068800235759389405
1446.0, 0.009469054756946616
1447.0, 0.009327742612351695
1448.0, 0.007725160679636163
1449.0, 0.01095540456211825
1450.0, 0.01140515098977901
1451.0, 0.011838159386492826
1452.0, 0.007560354004158127
1453.0, 0.008513908631165945
1454.0, 0.011431567299294084
1455.0, 0.00940368852943672
1456.0, 0.00903910863758162
1457.0, 0.012201946519430762
1458.0, 0.009671854364888226
1459.0, 0.009441730128628128
1460.0, 0.010174469831018053
1461.0, 0.009250940448962876
1462.0, 0.007511676039181561
1463.0, 0.01056035557716224
1464.0, 0.008427221385611212
1465.0, 0.007500487725252952
1466.0, 0.008378642934480996
1467.0, 0.009804763704991242
1468.0, 0.010625567151893034
1469.0, 0.012184418531572936
1470.0, 0.008405777638515438
1471.0, 0.007739532325760352
1472.0, 0.008879932557352808
1473.0, 0.010667520284536955
1474.0, 0.010962398105603044
1475.0, 0.007445846351705847
1476.0, 0.00904581566014401
1477.0, 0.010128974982405108
1478.0, 0.007738506258924882
1479.0, 0.005862476749790742
1480.0, 0.006373700754080802
1481.0, 0.00752760521670703
1482.0, 0.005048964535562769
1483.0, 0.009248063785405667
1484.0, 0.006552721799141246
1485.0, 0.006664542045745036
1486.0, 0.0074775899577345485
1487.0, 0.006939919275946774
1488.0, 0.008364841521698736
1489.0, 0.005175062527737553
1490.0, 0.005288631280256923
1491.0, 0.005319698454591462
1492.0, 0.004810831540882211
1493.0, 0.005011782411142905
1494.0, 0.0065477669612874516
1495.0, 0.006494375016032868
1496.0, 0.006391931418918323
1497.0, 0.007741745783958361
1498.0, 0.008280670905299607
1499.0, 0.005986948705153702
1500.0, 0.003912646885771153
1501.0, 0.006743283107661956
1502.0, 0.000547402773463527
1503.0, 0.002251253503177173
1504.0, 0.001079722329422434
1505.0, 0.001909716241205276
1506.0, 0.004571145503381511
1507.0, 0.005972095389886786
1508.0, 0.004448411228661976
1509.0, 0.0028969034737926017
1510.0, 0.0037942234588655005
1511.0, 0.0029794529924270356
1512.0, 0.001776019477595836
1513.0, 0.0022140481705200427
1514.0, 0.004232363106635563
1515.0, 0.0030868693422474967
1516.0, 0.007144333410231007
1517.0, 0.0026624969102007987
1518.0, 0.003815525872475547
1519.0, 0.005609848936158683
1520.0, 0.0043141121399573054
1521.0, 0.004759733553882821
1522.0, 0.006904196886597939
1523.0, 0.005504229480928252
1524.0, 0.0036684503367982206
1525.0, 0.0021972414473709857
1526.0, 0.0009687205506450784
1527, 0.0
1528, 0.0
1529, 0.0
1530, 0.0
1531, 0.0
1532, 0.0
1533, 0.0
1534, 0.0
1535, 0.0
1536, 0.0
1537, 0.0
1538, 0.0
1539, 0.0
1540, 0.0
1541, 0.0
1542, 0.0
1543, 0.0
1544, 0.0
1545, 0.0
1546, 0.0
1547, 0.0
1548, 0.0
1549, 0.0
1550, 0.0
1551, 0.0
1552, 0.0
1553, 0.0
1554, 0.0
1555, 0.0
1556, 0.0
1557, 0.0
1558, 0.0
1559, 0.0
1560, 0.0
1561, 0.0
1562, 0.0
1563, 0.0
1564, 0.0
1565, 0.0
1566, 0.0
1567, 0.0
1568, 0.0
1569, 0.0
1570, 0.0
1571, 0.0
1572, 0.0
1573, 0.0
1574, 0.0
1575, 0.0
1576, 0.0
1577, 0.0
1578, 0.0
1579, 0.0
1580, 0.0
1581, 0.0
1582, 0.0
1583, 0.0
1584, 0.0
1585, 0.0
1586, 0.0
1587, 0.0
1588, 0.0
1589, 0.0
1590, 0.0
1591, 0.0
1592, 0.0
1593, 0.0
1594, 0.0
1595, 0.0
1596, 0.0
1597, 0.0
1598, 0.0
1599, 0.0
