30, 0.0
31, 0.0
32, 0.0
33, 0.0
34, 0.0
35, 0.0
36, 0.0
37, 0.0
38, 0.0
39, 0.0
40, 0.0
41, 0.0
42, 0.0
43, 0.0
44, 0.0
45, 0.0
46, 0.0
47, 0.0
48, 0.0
49, 0.0
50, 0.0
51, 0.0
52, 0.0
53, 0.0
54, 0.0
55, 0.0
56, 0.0
57, 0.0
58, 0.0
59, 0.0
60, 0.0
61, 0.0
62, 0.0
63, 0.0
64, 0.0
65, 0.0
66, 0.0
67, 0.0
68, 0.0
69, 0.0
70, 0.0
71, 0.0
72, 0.0
73, 0.0
74, 0.0
75, 0.0
76, 0.0
77, 0.0
78, 0.0
79, 0.0
80, 0.0
81, 0.0
82, 0.0
83, 0.0
84, 0.0
85, 0.0
86, 0.0
87, 0.0
88, 0.0
89, 0.0
90, 0.0
91, 0.0
92.0, 0.002063492417447646
93.0, 0.006527118441963464
94.0, 0.008865758648734252
95.0, 0.00818220889904218
96.0, 0.006621946235264761
97.0, 0.004974130357087939
98.0, 0.004213914367312412
99.0, 0.004225028982078082
100.0, 0.002427547507642857
101.0, 0.0014930199996132775
102.0, 0.001335351137019783
103.0, 0.000493031443054892
104.0, 0.0027111928309240993
105.0, 0.0036113242290981007
106.0, 0.003872117453955239
107.0, 0.0051055578891834865
108.0, 0.004915862776177041
109.0, 0.0033250211578164483
110.0, 0.0015181281815009177
111.0, 0.0005904435872305296
112.0, 8.436948153201416e-05
113.0, 0.00010278164219048677
114.0, 0.00012695322131968118
115.0, 0.0005779031839031622
116.0, 0.0004937804527344406
117.0, 7.981058062621713e-05
118.0, 0.0001684160712964632
119.0, 0.0006901676068293154
120.0, 8.634339792730944e-05
121.0, 0.00023913637053395615
122.0, 0.00023787140181028512
123.0, 0.0009176737960432024
124.0, 0.0012727098572742847
125.0, 0.00142150630231888
126.0, 0.001325188991440164
127.0, 0.0014364500778203209
128.0, 0.0022187035589292022
129.0, 0.002883912731729201
130.0, 0.0033083045365778305
131.0, 0.0030084914612685675
132.0, 0.0020061644593238662
133.0, 0.0026679272603748086
134.0, 0.0027258085378788475
135.0, 0.002984306647861512
136.0, 0.004697960814033638
137.0, 0.00809102614288788
138.0, 0.009340936877975636
139.0, 0.011915233871049896
140.0, 0.019016431507731114
141.0, 0.02774872584580133
142.0, 0.030305210385343947
143.0, 0.025357747863856316
144.0, 0.017242399584473666
145.0, 0.011900935092338133
146.0, 0.009142944074326243
147.0, 0.0074647865874293605
148.0, 0.005915788363361666
149.0, 0.004606623960236492
150.0, 0.0056962720781368725
151.0, 0.00707674412353971
152.0, 0.00820283184954391
153.0, 0.009303026496162594
154.0, 0.011037406169936911
155.0, 0.01294646163805532
156.0, 0.014541894192145364
157.0, 0.015702314767149183
158.0, 0.017130496403965842
159.0, 0.021740069519859403
160.0, 0.027744774196117417
161.0, 0.03378936587102293
162.0, 0.040449080787779715
163.0, 0.05181998494574479
164.0, 0.06083679555564206
165.0, 0.06159917721233828
166.0, 0.0537178812490547
167.0, 0.04271729880874727
168.0, 0.03658616080136593
169.0, 0.03620202361001422
170.0, 0.04086086407821927
171.0, 0.04974373477109172
172.0, 0.05653253734022363
173.0, 0.055486274318628605
174.0, 0.04509180756835813
175.0, 0.028204416774936507
176.0, 0.016715684893870417
177.0, 0.009584042172574317
178.0, 0.0060617110354573905
179.0, 0.004163706766948509
180.0, 0.0007059512995798751
181.0, 0.0008605064433962011
182.0, 0.0013447682791661306
183.0, 0.0005586609676360245
184.0, 0.00014765344360871782
185.0, 0.0001397590251178336
186.0, 6.844338720641153e-05
187.0, 0.0003376256359008197
188.0, 0.0011373706483977105
189.0, 0.00040671804640379013
190.0, 0.00019217414345779028
191.0, 0.0002185326812312852
192.0, 0.00027099167631478504
193.0, 0.0012463694231621496
194.0, 0.0011062732013852538
195.0, 0.0005522784881605879
196.0, 0.00035035255970463947
197.0, 4.29112556848205e-05
198.0, 1.3270599091197922e-05
199.0, 0.00028184460355488295
200.0, 0.00038321416349083425
201.0, 3.742570720237788e-05
202.0, 0.0004859645216920857
203.0, 0.0005170211003705942
204.0, 0.0009219659276084158
205.0, 0.0013763674417627135
206.0, 0.0007841273019013462
207.0, 0.001899148293062986
208.0, 0.002247284492190565
209.0, 0.0019153327582010734
210.0, 0.002105030887581933
211.0, 0.001646713136458368
212.0, 0.00210778034928553
213.0, 0.003565547022412848
214.0, 0.005179831057730853
215.0, 0.006081547019229575
216.0, 0.00860575863932973
217.0, 0.0084545106608701
218.0, 0.006413703141133952
219.0, 0.005321829725828924
220.0, 0.004627183946182385
221.0, 0.004283794850016188
222.0, 0.004301205553139984
223.0, 0.004436905122454532
224.0, 0.004100715840519563
225.0, 0.004198861148605397
226.0, 0.0034680446271025283
227.0, 0.0030204304289844
228.0, 0.005578398954907133
229.0, 0.006232262199563669
230.0, 0.007222516661087864
231.0, 0.008638376441387619
232.0, 0.009953176810122045
233.0, 0.011044807567407307
234.0, 0.012295527600735339
235.0, 0.013657399031860815
236.0, 0.015032573876418131
237.0, 0.016465494815064884
238.0, 0.018225365604557446
239.0, 0.021660271098533985
240.0, 0.02554141686826733
241.0, 0.028564257331512133
242.0, 0.030632633702688337
243.0, 0.032673667102974965
244.0, 0.035062323889984294
245.0, 0.038228667944635294
246.0, 0.04202051295691375
247.0, 0.04462754649059322
248.0, 0.04796640779183175
249.0, 0.05282757484043711
250.0, 0.05893491100748001
251.0, 0.06585709561855507
252.0, 0.0775473662432432
253.0, 0.09191655672648907
254.0, 0.11104645935486009
255.0, 0.1380580944982854
256.0, 0.1727118178307002
257.0, 0.20931336911744128
258.0, 0.2316215604030787
259.0, 0.22555337786400337
260.0, 0.18639490716799342
261.0, 0.1374090552596871
262.0, 0.09910837607335247
263.0, 0.07335673101773095
264.0, 0.056489800397044536
265.0, 0.047392293098022543
266.0, 0.04094956073068753
267.0, 0.0360536434121001
268.0, 0.03179577943569748
269.0, 0.027025072912258162
270.0, 0.023728385610553526
271.0, 0.021243819798396603
272.0, 0.019385475061995307
273.0, 0.018401708716222
274.0, 0.018508704474621697
275.0, 0.017499746614497595
276.0, 0.017556287831355332
277.0, 0.017125729825395206
278.0, 0.014538087586742451
279.0, 0.012631798222870833
280.0, 0.010285196659052726
281.0, 0.007687651672754392
282.0, 0.005721818613065487
283.0, 0.0047337522338092835
284.0, 0.0036764502137194583
285.0, 0.002755693948798488
286.0, 0.002537951344309551
287.0, 0.0027097536750927856
288.0, 0.0023992266818941496
289.0, 0.0026111385799838377
290.0, 0.002811525457899246
291.0, 0.0035453639225013845
292.0, 0.004984947474759354
293.0, 0.0050838515589012616
294.0, 0.006405836514430204
295.0, 0.00804728729073481
296.0, 0.009042710615385776
297.0, 0.009202705590167165
298.0, 0.01298281972116483
299.0, 0.016902193065477068
300.0, 0.02069512434842004
301.0, 0.02477938895744138
302.0, 0.02891174934539598
303.0, 0.03276791349292609
304.0, 0.03728576419201541
305.0, 0.04183961878575144
306.0, 0.04526639080005606
307.0, 0.046875906949965136
308.0, 0.043975746825623066
309.0, 0.03552568466395288
310.0, 0.02594829794658609
311.0, 0.01873219554678555
312.0, 0.013248552222082332
313.0, 0.008250286718250512
314.0, 0.0055146882883510525
315.0, 0.004295340202377432
316.0, 0.0029917140684782273
317.0, 0.002335728086158136
318.0, 0.0014503700575379432
319.0, 0.0015591936459406943
320.0, 0.002360588715290468
321.0, 0.0020272781336492392
322.0, 0.002297433873301924
323.0, 0.0027164801521301577
324.0, 0.002889256959733317
325.0, 0.002987522247205482
326.0, 0.004068069938164413
327.0, 0.005020449023097372
328.0, 0.0065253948085185086
329.0, 0.008086623851963438
330.0, 0.00894900498095693
331.0, 0.009676821564832629
332.0, 0.011307244151467883
333.0, 0.011670247384908412
334.0, 0.01026148954484526
335.0, 0.008621468201087267
336.0, 0.008415668083316208
337.0, 0.00770701033208568
338.0, 0.0048881989181084945
339.0, 0.0018415019991505392
340.0, 0.0007128205288972262
341.0, 0.001486837472553481
342.0, 0.001502758753778186
343.0, 0.0009852990070469724
344.0, 0.00044623417262539824
345.0, 6.595683872889514e-05
346.0, 0.00043642737562117915
347.0, 0.00015481335529354823
348.0, 0.000155623375188567
349.0, 0.0007017476216667047
350.0, 0.0015521925752718455
351.0, 0.0003356212093306217
352.0, 0.00013880097482077636
353.0, 0.0005436699351277629
354.0, 0.0006243584981529564
355.0, 0.00018273663867046723
356.0, 0.00012205289367697665
357.0, 0.0002108300242615312
358.0, 0.00041244206926939394
359.0, 0.00015006650240748806
360.0, 0.0009087852706420153
361.0, 0.0004525471637762958
362.0, 0.00026329691430681526
363.0, 0.0011310902743246027
364.0, 0.0005798975771396322
365.0, 0.00048647790288393035
366.0, 0.0005422417378416846
367.0, 0.0012373349676722432
368.0, 0.0019974852397710513
369.0, 0.0019501690162327203
370.0, 0.001347725864690412
371.0, 0.0020677024532525677
372.0, 0.0023247154450893076
373.0, 0.0025584655711365805
374.0, 0.0032219685566406485
375.0, 0.0039107297208300735
376.0, 0.0050091885845756755
377.0, 0.005811996855477646
378.0, 0.005746462560854422
379.0, 0.005989830477647932
380.0, 0.008173880748729939
381.0, 0.009179182690034435
382.0, 0.010303719529296278
383.0, 0.011366044516999378
384.0, 0.013194507688283404
385.0, 0.01701676262195789
386.0, 0.019412109265799168
387.0, 0.021877196755491855
388.0, 0.02520586995406133
389.0, 0.029200772026525344
390.0, 0.03305699467390201
391.0, 0.03871686902246044
392.0, 0.04352249075357533
393.0, 0.04864986993324648
394.0, 0.055428795310161705
395.0, 0.06362091746290108
396.0, 0.07229771093684331
397.0, 0.08356270524698738
398.0, 0.09537741157575824
399.0, 0.10720627121073059
400.0, 0.12017153619767684
401.0, 0.13318123578508945
402.0, 0.14620503932200546
403.0, 0.15847167966488152
404.0, 0.17051658485730006
405.0, 0.18259344073482928
406.0, 0.19275598616852374
407.0, 0.19901549968754803
408.0, 0.20056763812739992
409.0, 0.19846022298932617
410.0, 0.19229713712542298
411.0, 0.17987751373563118
412.0, 0.16786679861723436
413.0, 0.15190422915712426
414.0, 0.13153234736631866
415.0, 0.10974172565305215
416.0, 0.09102115908279447
417.0, 0.07511701806848647
418.0, 0.060295374253380975
419.0, 0.04959089763506097
420.0, 0.04286214755248885
421.0, 0.03568278736297885
422.0, 0.028906746703634596
423.0, 0.02511502727328107
424.0, 0.021986993331922226
425.0, 0.0184269504021241
426.0, 0.015829997215835178
427.0, 0.015508238367491517
428.0, 0.013262321335935912
429.0, 0.011498204161227038
430.0, 0.010818195641549604
431.0, 0.009918875800076948
432.0, 0.00964234609329277
433.0, 0.008159503699210315
434.0, 0.007005801330115902
435.0, 0.0061939474510203365
436.0, 0.005047113422382852
437.0, 0.004800333733422867
438.0, 0.0037403910135049255
439.0, 0.003820497582463611
440.0, 0.004392740560647682
441.0, 0.003936314175252208
442.0, 0.0028273203811313313
443.0, 0.0036217632833120982
444.0, 0.0022337663642006704
445.0, 0.0021868674706361528
446.0, 0.0030399166794649276
447.0, 0.0012738671567654016
448.0, 0.001653777958870439
449.0, 0.0020408698301379938
450.0, 0.0011977464852524664
451.0, 0.0007630890035151283
452.0, 0.0018549376409481033
453.0, 0.0019553900779773034
454.0, 0.0015273874891774159
455.0, 0.0016904125744605521
456.0, 0.0020773489955190115
457.0, 0.0016855740322904195
458.0, 0.0004185383671543909
459.0, 0.000771186951247607
460.0, 0.0010322002175406956
461.0, 0.0015206190698294354
462.0, 0.0014843146817749408
463.0, 0.00022616093281922618
464.0, 3.5004021782672426e-05
465.0, 0.0004784023118254097
466.0, 0.0002755850432060994
467.0, 0.0005601955466544139
468.0, 0.0016855415551430954
469.0, 0.0008248394757761503
470.0, 0.001110971905111401
471.0, 0.0018336675286241668
472.0, 0.0013982368725230761
473.0, 0.00016480016507084054
474.0, 0.00011592567290888198
475.0, 0.0008029642914875193
476.0, 0.0003564091618809224
477.0, 0.0003136484366289009
478.0, 0.0005369827220182261
479.0, 0.0003880332019695493
480.0, 0.00023558498829461308
481.0, 0.00035269434747008685
482.0, 0.00018970473529990423
483.0, 0.000609422152393795
484.0, 0.0002976302874692902
485.0, 0.00012190327409494803
486.0, 0.000909473606152419
487.0, 0.0008365822656450064
488.0, 0.0002634989367455104
489.0, 0.0006594908596049581
490.0, 0.00038653837224358824
491.0, 6.964104175300262e-05
492.0, 0.0001966415479269801
493.0, 9.495135841339395e-05
494.0, 0.0003325480153471833
495.0, 0.00022558395181048263
496.0, 0.0002422623487605892
497.0, 0.00045616973261078896
498.0, 0.00019059856102326243
499.0, 0.0005547215403541653
500.0, 0.0005593205646300457
501.0, 0.0011113322427433276
502.0, 0.0009852882762400636
503.0, 0.000568907626661924
504.0, 0.00037506973214968735
505.0, 0.0006481966730963526
506.0, 0.0007958918242177381
507.0, 0.0004700268591647457
508.0, 0.001013928902485491
509.0, 0.0010624921333151711
510.0, 0.0017343683735726967
511.0, 0.0027210101361935042
512.0, 0.0032872492526752344
513.0, 0.003629431613205403
514.0, 0.004200466540619853
515.0, 0.00398572971977064
516.0, 0.004582648090575397
517.0, 0.005672136806763061
518.0, 0.006147702356987193
519.0, 0.007781009894227016
520.0, 0.009197899153929667
521.0, 0.010058634239546048
522.0, 0.010638592294007874
523.0, 0.012015051002018377
524.0, 0.014863672504454032
525.0, 0.01831543063034853
526.0, 0.02225357849311265
527.0, 0.027198125943994293
528.0, 0.03267921230821612
529.0, 0.039748798850649365
530.0, 0.05034588531891397
531.0, 0.05984804583664552
532.0, 0.06903522275725345
533.0, 0.07590328698227665
534.0, 0.0768553338135355
535.0, 0.07124799985964372
536.0, 0.06189628210314532
537.0, 0.04974638382146024
538.0, 0.03981399017058225
539.0, 0.031351854626404406
540.0, 0.024472726351079367
541.0, 0.020044882551649598
542.0, 0.017348873693959984
543.0, 0.015176156875353206
544.0, 0.012431888254632128
545.0, 0.010697207128031776
546.0, 0.009489913759682484
547.0, 0.007598101702037222
548.0, 0.008046471801492061
549.0, 0.009103025114622023
550.0, 0.008245984224356283
551.0, 0.007734837685655685
552.0, 0.00806983602036988
553.0, 0.007799555665831018
554.0, 0.008580615691061236
555.0, 0.009072697617837511
556.0, 0.009803416014095966
557.0, 0.010532601150131424
558.0, 0.010676647211917486
559.0, 0.010450276503163948
560.0, 0.01171588089798984
561.0, 0.01205887921904092
562.0, 0.013002847673726533
563.0, 0.01324404600340858
564.0, 0.01275468105241703
565.0, 0.013881840223495112
566.0, 0.013343373321366741
567.0, 0.015559688386181304
568.0, 0.017698749371409615
569.0, 0.018449432497505056
570.0, 0.019136667365123275
571.0, 0.02129580777817488
572.0, 0.023630648764451246
573.0, 0.024939892467271428
574.0, 0.026940134013095238
575.0, 0.028828669276809347
576.0, 0.03008369405243532
577.0, 0.031791886171197555
578.0, 0.031129335887826275
579.0, 0.033123063420467544
580.0, 0.03467133564194152
581.0, 0.03597402055850414
582.0, 0.0375508925528701
583.0, 0.038196304777851124
584.0, 0.039688159679945684
585.0, 0.040586565083344045
586.0, 0.04159792306427177
587.0, 0.04158274660381099
588.0, 0.04036207790121375
589.0, 0.03961087769506323
590.0, 0.03766677742683333
591.0, 0.03531818305588782
592.0, 0.03213856979311474
593.0, 0.028169756539185187
594.0, 0.02433332635911458
595.0, 0.02120796055736802
596.0, 0.017724065835891423
597.0, 0.014721056398099916
598.0, 0.012395094825958635
599.0, 0.010117371458569956
600.0, 0.008463516178908698
601.0, 0.008307955733409101
602.0, 0.007648437277800936
603.0, 0.005495825352661059
604.0, 0.004484034463463053
605.0, 0.0036072708793263874
606.0, 0.002479070363212829
607.0, 0.002456440467875608
608.0, 0.0036348958567879544
609.0, 0.0021720906604620503
610.0, 0.001624145896337908
611.0, 0.0020800355164991764
612.0, 0.0019447130995080837
613.0, 0.001014626108287368
614.0, 0.0007926990078665596
615.0, 0.0007961491401471835
616.0, 0.00010133952686540865
617.0, 0.0013430590537323968
618.0, 0.002767322523369163
619.0, 0.0016106584986747634
620.0, 0.0005412596182856042
621.0, 0.00041619342632161064
622.0, 0.0002493818392211136
623.0, 0.00016610681624518146
624.0, 0.0002466043426476625
625.0, 0.00018014229140387282
626.0, 0.0007605975196934897
627.0, 0.0011008557552966728
628.0, 0.0009839146948964672
629.0, 0.0005363714901393922
630.0, 0.0003127636109879384
631.0, 0.000646834599402903
632.0, 0.0006842127006335955
633.0, 0.0013391023369508381
634.0, 4.4422753183384004e-05
635.0, 0.0011397743480458834
636.0, 0.0015014988327725469
637.0, 0.0008114965617507811
638.0, 0.0007561091720442092
639.0, 4.0517270244640324e-05
640.0, 0.0004211446021040379
641.0, 0.00013753520371492602
642.0, 8.026519571088759e-05
643.0, 0.0004268494975816718
644.0, 0.0005112052459618179
645.0, 0.00031587508570089177
646.0, 0.000661778854721378
647.0, 0.0003226437589181099
648.0, 0.0005609193662351257
649.0, 0.0006853294123431174
650.0, 0.00022980190567185036
651.0, 0.0012677081141269078
652.0, 0.0016507206280935958
653.0, 0.0005119502736658231
654.0, 0.0004345625543475835
655.0, 0.0017284778073500494
656.0, 0.00251769995164174
657.0, 0.0023387157779007272
658.0, 0.002219000020243075
659.0, 0.0019459819510394003
660.0, 0.0027955840489913776
661.0, 0.00252301332540213
662.0, 0.002226163550993498
663.0, 0.0014833512115232732
664.0, 2.2504725483564394e-05
665.0, 0.0008141473192037174
666.0, 0.002802813640186074
667.0, 0.00238809798717033
668.0, 0.002643013483834705
669.0, 0.0028832670583910655
670.0, 0.0021709424500140993
671.0, 0.0015544165600126247
672.0, 0.0022598768395029525
673.0, 0.0027572796691642137
674.0, 0.002744801629204055
675.0, 0.0035281215274304174
676.0, 0.0036360455036390446
677.0, 0.00322963230068017
678.0, 0.0041465513655381
679.0, 0.0030916629794620508
680.0, 0.003988297843610139
681.0, 0.00366560154501511
682.0, 0.0027371916186704343
683.0, 0.002640324934398227
684.0, 0.003389660809496801
685.0, 0.0036799908272437797
686.0, 0.0029696838092262163
687.0, 0.0030794987021116743
688.0, 0.003646236510195844
689.0, 0.00394224344266216
690.0, 0.0037039918508456823
691.0, 0.003497577368822404
692.0, 0.004030916176442706
693.0, 0.004783191151307057
694.0, 0.002910600559859245
695.0, 0.0020056031139524567
696.0, 0.0025134546003548553
697.0, 0.0026107780934764195
698.0, 0.0022830365222865903
699.0, 0.0031947256531657635
700.0, 0.0021836211212097204
701.0, 0.002492726098820019
702.0, 0.003298168901545681
703.0, 0.003641522551555777
704.0, 0.003435508263116299
705.0, 0.0027846893080330326
706.0, 0.0017445702739844688
707.0, 0.002137151291002841
708.0, 0.002898482926530541
709.0, 0.0032579202758611456
710.0, 0.0029999951085514713
711.0, 0.0026875596332166527
712.0, 0.0028499022937012192
713.0, 0.0030642990173618966
714.0, 0.00233153654054991
715.0, 0.002575252423384428
716.0, 0.0033016316509552417
717.0, 0.0027802539597628685
718.0, 0.001587933971376802
719.0, 0.002178147577068013
720.0, 0.0032337323872835095
721.0, 0.004070161433612332
722.0, 0.002666195025188561
723.0, 0.0016586525119226527
724.0, 0.0015337101913499645
725.0, 0.0017393210390676981
726.0, 0.0022162746423340977
727.0, 0.0022062613267478572
728.0, 0.0009097548799434826
729.0, 0.0016935480972568764
730.0, 0.002178709018159822
731.0, 0.001861208468541441
732.0, 0.001617704328123028
733.0, 0.0015397202616782265
734.0, 0.0012153385985504536
735.0, 0.0011081161979959887
736.0, 0.001749949637637012
737.0, 0.0018382114249318922
738.0, 0.0010621620888311332
739.0, 0.00042273449925144896
740.0, 0.0004468327960670429
741.0, 0.00042409111889291865
742.0, 0.0011469223625539355
743.0, 0.0007279181383629694
744.0, 0.0003930263292097012
745.0, 0.0011731812312206853
746.0, 0.0010386682728395684
747.0, 0.000179572432834051
748.0, 0.0003208647862180849
749.0, 0.00040915735145291
750.0, 0.0006624170186070086
751.0, 0.00038265927104136756
752.0, 0.0005180905421289577
753.0, 0.0009885752119408067
754.0, 0.00036238516939062605
755.0, 0.0007137764908509967
756.0, 0.0007931055588730433
757.0, 0.0007573682599247095
758.0, 0.00048039898802598215
759.0, 0.0010824078530298302
760.0, 0.0016126023733427101
761.0, 0.0008823418767648773
762.0, 0.00012957113788167912
763.0, 0.0010918212022980065
764.0, 0.0016221086381517614
765.0, 0.001215574753203786
766.0, 0.0010721214201350132
767.0, 0.0004961715973531172
768.0, 1.3298346888515134e-05
769.0, 0.00020776248504059537
770.0, 0.00045358228117103807
771.0, 6.733090839928839e-05
772.0, 8.131746187466087e-05
773.0, 0.0008919188871775282
774.0, 0.0006472929798816947
775.0, 0.00019317776253997826
776.0, 0.0008825117745530791
777.0, 0.0010126921376148441
778.0, 0.00014325250469227958
779.0, 0.0003725235382449868
780.0, 0.0006790095708819618
781.0, 0.0010229853723987966
782.0, 0.002531245436342177
783.0, 0.0033170107911816254
784.0, 0.003291639561693502
785.0, 0.0035041889801908912
786.0, 0.0032097814745869493
787.0, 0.0035552546533600938
788.0, 0.004500960368323152
789.0, 0.006543984380720245
790.0, 0.007840109320130536
791.0, 0.009033244941124504
792.0, 0.011159495610240605
793.0, 0.013226205662580716
794.0, 0.014794986747751577
795.0, 0.015860228541194267
796.0, 0.019915086106068958
797.0, 0.023412225435786208
798.0, 0.02813768111779353
799.0, 0.034209339435663566
800.0, 0.03977969989757235
801.0, 0.046314929190872586
802.0, 0.05527520268441737
803.0, 0.06740433141976343
804.0, 0.07912801123079201
805.0, 0.09156213867931859
806.0, 0.10705440899516266
807.0, 0.12508810960719055
808.0, 0.14521756646541717
809.0, 0.16918566214849354
810.0, 0.1972419775059931
811.0, 0.23492642376088968
812.0, 0.2813384660381654
813.0, 0.33704387365412664
814.0, 0.40872052087739547
815.0, 0.4926087775482478
816.0, 0.5831523047521269
817.0, 0.6722831182004814
818.0, 0.7296247013870123
819.0, 0.735365061156298
820.0, 0.6840949699101193
821.0, 0.5954912174936723
822.0, 0.4960964394685876
823.0, 0.40460016772334284
824.0, 0.3291569069066026
825.0, 0.26999824232569036
826.0, 0.22466783807568536
827.0, 0.19162533243394833
828.0, 0.1664541738826184
829.0, 0.14743627302676487
830.0, 0.1320284546713295
831.0, 0.12038486036957977
832.0, 0.11353082914969707
833.0, 0.11015233728765055
834.0, 0.10754478057046567
835.0, 0.10849533443604195
836.0, 0.11530796265132276
837.0, 0.12409125723611203
838.0, 0.13580362381592437
839.0, 0.15003451458087236
840.0, 0.16771120549480062
841.0, 0.19162312967256534
842.0, 0.22331596956184877
843.0, 0.2655409167118857
844.0, 0.32003126366132767
845.0, 0.38998920898859174
846.0, 0.4830252225107425
847.0, 0.6024074201079168
848.0, 0.743166943346099
849.0, 0.8829954416299048
850.0, 0.9818503376239601
851.0, 0.9931076679578715
852.0, 0.9081980079511516
853.0, 0.7583250165486705
854.0, 0.598129410707711
855.0, 0.45857836940670593
856.0, 0.3511197160568888
857.0, 0.27330710487999266
858.0, 0.21524418531576
859.0, 0.17320033896210682
860.0, 0.14132204740968085
861.0, 0.11272940150586126
862.0, 0.09461326223570563
863.0, 0.08034876108240382
864.0, 0.06919321272501099
865.0, 0.05982840316458155
866.0, 0.051309620590016924
867.0, 0.04460485958124083
868.0, 0.03790964533461771
869.0, 0.034010178809104216
870.0, 0.02992380703816925
871.0, 0.026171158262209487
872.0, 0.023278401396094595
873.0, 0.02144882445411874
874.0, 0.01999037874858386
875.0, 0.018194174574914044
876.0, 0.016588973815054194
877.0, 0.015967410918601127
878.0, 0.015372587669548543
879.0, 0.015225412184147939
880.0, 0.016321659863426746
881.0, 0.015798175802654187
882.0, 0.01364503574007147
883.0, 0.01191761857908484
884.0, 0.011024980952141272
885.0, 0.010388839568813823
886.0, 0.009798560065546264
887.0, 0.010365739622411926
888.0, 0.009815077246865117
889.0, 0.01006237612019377
890.0, 0.012126952810590598
891.0, 0.013956095233911073
892.0, 0.016140029071008498
893.0, 0.01996279779072773
894.0, 0.024681401764974572
895.0, 0.033227396611271644
896.0, 0.04250669485724325
897.0, 0.05374060464116334
898.0, 0.06629652784721099
899.0, 0.07527007398723845
900.0, 0.07468329254684228
901.0, 0.0633696712104123
902.0, 0.046613328728854514
903.0, 0.03266997188602096
904.0, 0.021958515645082197
905.0, 0.014460063769037511
906.0, 0.008944554808543764
907.0, 0.005594207009396004
908.0, 0.003733880428268585
909.0, 0.0020395668738720125
910.0, 0.0006599955793783002
911.0, 0.0004568421777878174
912.0, 0.0005278926925771909
913.0, 0.0008749351973442804
914.0, 0.0018120793173519174
915.0, 0.002256781606684923
916.0, 0.001969710786708713
917.0, 0.00111256476284847
918.0, 0.0007961631542435238
919.0, 0.0013531307909230264
920.0, 0.0019314417779528004
921.0, 0.001640579733464086
922.0, 0.0015153312537557592
923.0, 0.001730403561823085
924.0, 0.0014160343993150758
925.0, 0.0010657534708285385
926.0, 0.0006395266965126817
927.0, 0.0002880638428785804
928.0, 0.00022164664826360375
929.0, 0.000156879206105832
930.0, 0.002022047104934847
931.0, 0.002914694753430616
932.0, 0.004609299013212419
933.0, 0.005354571265805265
934.0, 0.006709593168624592
935.0, 0.008751688538145154
936.0, 0.010929935806133322
937.0, 0.013149178153975379
938.0, 0.015881737588917373
939.0, 0.019183499633110192
940.0, 0.02327232501602278
941.0, 0.029171163989678325
942.0, 0.037403817999908676
943.0, 0.04634030105736584
944.0, 0.06025917671181821
945.0, 0.07757635053280501
946.0, 0.09954945024746281
947.0, 0.12311072907317873
948.0, 0.1399203990794897
949.0, 0.14081106282154737
950.0, 0.1243415036095778
951.0, 0.09903401277029553
952.0, 0.07501723002278304
953.0, 0.055761265598501995
954.0, 0.042375164411970416
955.0, 0.03376192102092867
956.0, 0.02624390721777413
957.0, 0.020036669631166862
958.0, 0.01651716652392476
959.0, 0.013034196113178893
960.0, 0.009027656028372247
961.0, 0.009005274741042141
962.0, 0.008753179530659242
963.0, 0.007457599122366733
964.0, 0.008080822082845177
965.0, 0.005801291573118009
966.0, 0.004740756284858156
967.0, 0.0046631517634366315
968.0, 0.004546276277038994
969.0, 0.004185238605663932
970.0, 0.004009269951341655
971.0, 0.004122109643609408
972.0, 0.003628617443780134
973.0, 0.0023499178583799895
974.0, 0.0030395929514635
975.0, 0.0018361655405939184
976.0, 0.002884092896933293
977.0, 0.0029445386255799026
978.0, 0.002354710880561949
979.0, 0.0017139849479019683
980.0, 0.0004252030828196539
981.0, 0.0012378797201172025
982.0, 0.0009249595186496249
983.0, 0.0007072126919467751
984.0, 0.00024703272208295046
985.0, 0.0006006101601339988
986.0, 8.870462125193006e-05
987.0, 0.0002055592833886065
988.0, 0.0019832315052892703
989.0, 0.001908483334666367
990.0, 0.00030957884408660315
991.0, 0.00047719760471236764
992.0, 0.0008372743163469005
993.0, 0.0025985033953240524
994.0, 0.0012261711497793825
995.0, 0.0008794880379387148
996.0, 0.00024326678487259824
997.0, 0.001588898265556239
998.0, 0.0008596545900256614
999.0, 0.00023949021988785673
1000.0, 0.0001952817326707615
1001.0, 0.0008923468935919848
1002.0, 0.001416192288887265
1003.0, 0.0014115881041913954
1004.0, 0.0011536510227286533
1005.0, 0.0007430137521593626
1006.0, 0.0012117340331253155
1007.0, 0.001808532776229531
1008.0, 0.0002719647257462338
1009.0, 0.0011318694347196804
1010.0, 0.002458956476692474
1011.0, 0.001543569135934177
1012.0, 0.0021771994068771902
1013.0, 0.0033508088710093235
1014.0, 0.002829159717157735
1015.0, 0.0029376823580375393
1016.0, 0.0026580436674545206
1017.0, 0.0024902066738266846
1018.0, 0.002698328899660093
1019.0, 0.0022573104665965216
1020.0, 0.00286350428707234
1021.0, 0.0025273581691791624
1022.0, 0.002308401978344626
1023.0, 0.0024167432118816774
1024.0, 0.0022251074205248797
1025.0, 0.002494336945957811
1026.0, 0.0033778371478597525
1027.0, 0.003314255818697142
1028.0, 0.0035420174487298278
1029.0, 0.003242339327641579
1030.0, 0.0016115932898379507
1031.0, 0.0011066996492984946
1032.0, 0.00312178526003961
1033.0, 0.002849849016167897
1034.0, 0.0023754444223937233
1035.0, 0.0018521559989117485
1036.0, 0.002112620781252245
1037.0, 0.0027187033028284193
1038.0, 0.0023903803137726542
1039.0, 0.0023064345833703256
1040.0, 0.0017542177539385494
1041.0, 0.0020315183311798634
1042.0, 0.001235531380270146
1043.0, 0.0025600632860129312
1044.0, 0.0017894473505292927
1045.0, 0.001714132472197974
1046.0, 0.0006739042972733404
1047.0, 0.0014169724077703115
1048.0, 0.002010977507078978
1049.0, 0.0009517796780591447
1050.0, 0.0005937970663124231
1051.0, 0.0007652428637971653
1052.0, 0.0001572993823620591
1053.0, 0.0006592317691110113
1054.0, 0.00112574599014633
1055.0, 9.444285398971105e-05
1056.0, 0.0009580316462602361
1057.0, 0.0003149813892952046
1058.0, 0.0002106301607479994
1059.0, 0.00037511729735887614
1060.0, 0.0002727041250191939
1061.0, 0.0003104385269148732
1062.0, 0.0003063274386097478
1063.0, 0.0004775372192162223
1064.0, 0.0007857486207887606
1065.0, 0.00041031607137936323
1066.0, 0.0008962771231016773
1067.0, 0.0012719545179950453
1068.0, 0.0006698576854310619
1069.0, 0.000540019772066465
1070.0, 0.0005451739623879273
1071.0, 0.0008809399982782204
1072.0, 0.0010637038756941906
1073.0, 0.0006887830528435176
1074.0, 0.0001309084308247784
1075.0, 0.0006677173242701493
1076.0, 0.0017565436916982453
1077.0, 0.0017657373646647859
1078.0, 0.0015873721719582678
1079.0, 0.0017088857920190418
1080.0, 0.0010972882960833753
1081.0, 0.0002598126220086954
1082.0, 0.002338176828352186
1083.0, 0.002363339052507616
1084.0, 0.003132325250098795
1085.0, 0.004122443038188963
1086.0, 0.004263532550890702
1087.0, 0.004351667930270517
1088.0, 0.0034087603560995555
1089.0, 0.0017395305086929814
1090.0, 0.0013628813817151673
1091.0, 0.0016731133158078145
1092.0, 0.0016270912520755811
1093.0, 0.0018845341658603272
1094.0, 0.0004308187254414827
1095.0, 0.0010031895849320167
1096.0, 0.0010354191362614879
1097.0, 0.000745549172199869
1098.0, 0.00015364529620071852
1099.0, 0.0003438334855141136
1100.0, 0.0007422751612271416
1101.0, 0.0003113321020716312
1102.0, 0.0003041481297332842
1103.0, 0.00015674655222850861
1104.0, 0.0011227654664997919
1105.0, 0.0012078765755798864
1106.0, 0.000992487855787175
1107.0, 0.0009319834985025113
1108.0, 0.0006553261509799226
1109.0, 0.0017368299605605743
1110.0, 0.001214267400372056
1111.0, 0.0005293158649159215
1112.0, 0.00021745669399473834
1113.0, 0.0008714713813160052
1114.0, 0.0004456883166930522
1115.0, 0.0007158224708531234
1116.0, 0.0004538456633509862
1117.0, 0.0006994655693849778
1118.0, 0.0001241115881305821
1119.0, 0.0002606616906582595
1120.0, 0.0003094845399972059
1121.0, 0.0009114398204832536
1122.0, 0.0011324050009428755
1123.0, 9.453394090464188e-05
1124.0, 0.0012686694619698324
1125.0, 0.0014180055002377377
1126.0, 0.0002002512889342452
1127.0, 0.00017104568828092952
1128.0, 0.0017795070128075333
1129.0, 0.0016704223280723752
1130.0, 0.0004465899471486414
1131.0, 0.00045059196566673757
1132.0, 0.0007595552076349438
1133.0, 0.0002938272131771829
1134.0, 0.00042014074822772885
1135.0, 0.0010695656214321082
1136.0, 0.0007535480900283173
1137.0, 0.0012138937833917826
1138.0, 0.0004270480150417558
1139.0, 0.00030978454771174154
1140.0, 0.000706575714218291
1141.0, 0.0012776839888586273
1142.0, 0.0013585208236354222
1143.0, 0.0016015413125040042
1144.0, 0.00119594451259301
1145.0, 0.0004179058571921056
1146.0, 0.0004590137937667243
1147.0, 0.0009465047221369091
1148.0, 0.0010607620587089132
1149.0, 0.0011255419058210114
1150.0, 0.0016161504453523325
1151.0, 0.001779134169245137
1152.0, 0.0016474287995941618
1153.0, 0.0008889497286227977
1154.0, 0.0010480274957740282
1155.0, 0.001495513217219173
1156.0, 0.0012468275397119698
1157.0, 0.00013503043215625003
1158.0, 0.0005811764686782285
1159.0, 0.0007978049587166509
1160.0, 0.0009608687068807381
1161.0, 0.0009124665423366449
1162.0, 0.0012452182865490308
1163.0, 0.0013330461131325672
1164.0, 0.0008438950889174963
1165.0, 0.0006362703953896332
1166.0, 0.0005760903113747862
1167.0, 0.0005409111002232773
1168.0, 0.0018010262980682776
1169.0, 0.0020971089074631097
1170.0, 0.0008856138212337499
1171.0, 0.0021943827437013257
1172.0, 0.002585108760718252
1173.0, 0.001353363874361492
1174.0, 0.001957322267179374
1175.0, 0.003183034301422791
1176.0, 0.002596939471911265
1177.0, 0.002526827759641972
1178.0, 0.003246795075758394
1179.0, 0.003378358288016427
1180.0, 0.0028869688857199754
1181.0, 0.002359082008011486
1182.0, 0.0021907838231777625
1183.0, 0.0020345588805275165
1184.0, 0.0017913113775429163
1185.0, 0.002010158129768993
1186.0, 0.0021197532020623307
1187.0, 0.001741846798574416
1188.0, 0.002442008410474923
1189.0, 0.0032744548190785584
1190.0, 0.0031339597170827976
1191.0, 0.0029076963343262013
1192.0, 0.0028837148064376735
1193.0, 0.00198505615894308
1194.0, 0.001742331705047674
1195.0, 0.0023415162382672302
1196.0, 0.0022141870671421714
1197.0, 0.0014478169692636914
1198.0, 0.003359307919241345
1199.0, 0.004039133605775102
1200.0, 0.0017061443430359407
1201.0, 0.00047471483394162967
1202.0, 0.0019984171307734938
1203.0, 0.0024631203022059587
1204.0, 0.000882188375719276
1205.0, 0.0007419532559102266
1206.0, 0.0012414678221470009
1207.0, 0.0011263663205675417
1208.0, 0.001718153071457796
1209.0, 0.0018417006055512495
1210.0, 0.00341041420429012
1211.0, 0.0017461741499417878
1212.0, 0.0015552455451798663
1213.0, 0.0011786064845575016
1214.0, 0.0022391915651880897
1215.0, 0.000585443288587172
1216.0, 0.0008208045291413821
1217.0, 0.0015724875467607775
1218.0, 0.0009102787463079412
1219.0, 0.0007606721429355163
1220.0, 0.0015621662207406155
1221.0, 0.0013193598978530237
1222.0, 0.00225447294856934
1223.0, 0.0021981605400724054
1224.0, 0.0010713908284974939
1225.0, 0.0007050936840127433
1226.0, 0.00026253785562487377
1227.0, 0.0005073764298444197
1228.0, 0.0012954275217752216
1229.0, 0.0009834915025113803
1230.0, 0.0011624007443345392
1231.0, 0.0016031633108755348
1232.0, 0.0015288525050740562
1233.0, 0.0003979636209501229
1234.0, 0.0009361278812483059
1235.0, 0.0022696777840382027
1236.0, 0.0010035541457698452
1237.0, 0.0013658495948280745
1238.0, 0.0005268454443324229
1239.0, 0.0010687889439356553
1240.0, 0.0010369911508660266
1241.0, 0.0005296592589800934
1242.0, 0.00018875916718274192
1243.0, 0.0007141348674079666
1244.0, 0.0008513408912656712
1245.0, 0.00176077412560829
1246.0, 0.002648593946587215
1247.0, 0.0015033982722851397
1248.0, 0.0008768817647273054
1249.0, 0.0005798455661968066
1250.0, 0.0006439739306778639
1251.0, 0.0009816874818106818
1252.0, 0.000926162175765725
1253.0, 0.0016337976476539081
1254.0, 0.0006970255001531461
1255.0, 0.0008671217670658809
1256.0, 0.0013417170287529606
1257.0, 0.0002046116542847238
1258.0, 0.0005893401827707163
1259.0, 0.0011780155482686893
1260.0, 0.0011597581727191652
1261.0, 0.00048556677051957083
1262.0, 0.001375888767785334
1263.0, 0.0010687564484661346
1264.0, 0.0005304579567354382
1265.0, 0.00016445801675202634
1266.0, 0.001448898216617099
1267.0, 0.0016054124368858242
1268.0, 0.00028254866456352073
1269.0, 0.000757043038677783
1270.0, 0.0010029671523783903
1271.0, 0.0006586284155495817
1272.0, 8.79832471220745e-05
1273.0, 0.00028833250720451025
1274.0, 0.0008247536665563477
1275.0, 0.001774823970167606
1276.0, 0.0012070117557196024
1277.0, 0.0015270613198709228
1278.0, 0.0015716368605129894
1279.0, 0.0007478055093933869
1280.0, 0.0017359789489322878
1281.0, 0.0016178545663089107
1282.0, 0.0009188269785702555
1283.0, 0.0008111312306666208
1284.0, 0.0007630368761569255
1285.0, 0.00013650747583783855
1286, 0.0
1287, 0.0
1288, 0.0
1289, 0.0
1290, 0.0
1291, 0.0
1292, 0.0
1293, 0.0
1294, 0.0
1295, 0.0
1296, 0.0
1297, 0.0
1298, 0.0
1299, 0.0
1300, 0.0
1301, 0.0
1302, 0.0
1303, 0.0
1304, 0.0
1305, 0.0
1306, 0.0
1307, 0.0
1308, 0.0
1309, 0.0
1310, 0.0
1311, 0.0
1312, 0.0
1313, 0.0
1314, 0.0
1315, 0.0
1316, 0.0
1317, 0.0
1318, 0.0
1319, 0.0
1320, 0.0
1321, 0.0
1322, 0.0
1323, 0.0
1324, 0.0
1325, 0.0
1326, 0.0
1327, 0.0
1328, 0.0
1329, 0.0
1330, 0.0
1331, 0.0
1332, 0.0
1333, 0.0
1334, 0.0
1335, 0.0
1336, 0.0
1337, 0.0
1338, 0.0
1339, 0.0
1340, 0.0
1341, 0.0
1342, 0.0
1343, 0.0
1344, 0.0
1345, 0.0
1346, 0.0
1347, 0.0
1348, 0.0
1349, 0.0
1350, 0.0
1351, 0.0
1352, 0.0
1353, 0.0
1354, 0.0
1355, 0.0
1356, 0.0
1357, 0.0
1358, 0.0
1359, 0.0
1360, 0.0
1361, 0.0
1362, 0.0
1363, 0.0
1364, 0.0
1365, 0.0
1366, 0.0
1367, 0.0
1368, 0.0
1369, 0.0
1370, 0.0
1371, 0.0
1372, 0.0
1373, 0.0
1374, 0.0
1375, 0.0
1376, 0.0
1377, 0.0
1378, 0.0
1379, 0.0
1380, 0.0
1381, 0.0
1382, 0.0
1383, 0.0
1384, 0.0
1385, 0.0
1386, 0.0
1387, 0.0
1388, 0.0
1389, 0.0
1390, 0.0
1391, 0.0
1392, 0.0
1393, 0.0
1394, 0.0
1395, 0.0
1396, 0.0
1397, 0.0
1398, 0.0
1399, 0.0
1400, 0.0
1401, 0.0
1402, 0.0
1403, 0.0
1404, 0.0
1405, 0.0
1406, 0.0
1407, 0.0
1408, 0.0
1409, 0.0
1410, 0.0
1411, 0.0
1412, 0.0
1413, 0.0
1414, 0.0
1415, 0.0
1416, 0.0
1417, 0.0
1418, 0.0
1419, 0.0
1420, 0.0
1421, 0.0
1422, 0.0
1423, 0.0
1424, 0.0
1425, 0.0
1426, 0.0
1427, 0.0
1428, 0.0
1429, 0.0
1430, 0.0
1431, 0.0
1432, 0.0
1433, 0.0
1434, 0.0
1435, 0.0
1436, 0.0
1437, 0.0
1438, 0.0
1439, 0.0
1440, 0.0
1441, 0.0
1442, 0.0
1443, 0.0
1444, 0.0
1445, 0.0
1446, 0.0
1447, 0.0
1448, 0.0
1449, 0.0
1450, 0.0
1451, 0.0
1452, 0.0
1453, 0.0
1454, 0.0
1455, 0.0
1456, 0.0
1457, 0.0
1458, 0.0
1459, 0.0
1460, 0.0
1461, 0.0
1462, 0.0
1463, 0.0
1464, 0.0
1465, 0.0
1466, 0.0
1467, 0.0
1468, 0.0
1469, 0.0
1470, 0.0
1471, 0.0
1472, 0.0
1473, 0.0
1474, 0.0
1475, 0.0
1476, 0.0
1477, 0.0
1478, 0.0
1479, 0.0
1480, 0.0
1481, 0.0
1482, 0.0
1483, 0.0
1484, 0.0
1485, 0.0
1486, 0.0
1487, 0.0
1488, 0.0
1489, 0.0
1490, 0.0
1491, 0.0
1492, 0.0
1493, 0.0
1494, 0.0
1495, 0.0
1496, 0.0
1497, 0.0
1498, 0.0
1499, 0.0
1500, 0.0
1501, 0.0
1502, 0.0
1503, 0.0
1504, 0.0
1505, 0.0
1506, 0.0
1507, 0.0
1508, 0.0
1509, 0.0
1510, 0.0
1511, 0.0
1512, 0.0
1513, 0.0
1514, 0.0
1515, 0.0
1516, 0.0
1517, 0.0
1518, 0.0
1519, 0.0
1520, 0.0
1521, 0.0
1522, 0.0
1523, 0.0
1524, 0.0
1525, 0.0
1526, 0.0
1527, 0.0
1528, 0.0
1529, 0.0
1530, 0.0
1531, 0.0
1532, 0.0
1533, 0.0
1534, 0.0
1535, 0.0
1536, 0.0
1537, 0.0
1538, 0.0
1539, 0.0
1540, 0.0
1541, 0.0
1542, 0.0
1543, 0.0
1544, 0.0
1545, 0.0
1546, 0.0
1547, 0.0
1548, 0.0
1549, 0.0
1550, 0.0
1551, 0.0
1552, 0.0
1553, 0.0
1554, 0.0
1555, 0.0
1556, 0.0
1557, 0.0
1558, 0.0
1559, 0.0
1560, 0.0
1561, 0.0
1562, 0.0
1563, 0.0
1564, 0.0
1565, 0.0
1566, 0.0
1567, 0.0
1568, 0.0
1569, 0.0
1570, 0.0
1571, 0.0
1572, 0.0
1573, 0.0
1574, 0.0
1575, 0.0
1576, 0.0
1577, 0.0
1578, 0.0
1579, 0.0
1580, 0.0
1581, 0.0
1582, 0.0
1583, 0.0
1584, 0.0
1585, 0.0
1586, 0.0
1587, 0.0
1588, 0.0
1589, 0.0
1590, 0.0
1591, 0.0
1592, 0.0
1593, 0.0
1594, 0.0
1595, 0.0
1596, 0.0
1597, 0.0
1598, 0.0
1599, 0.0
