30, 0.0
31, 0.0
32, 0.0
33, 0.0
34, 0.0
35, 0.0
36, 0.0
37, 0.0
38, 0.0
39, 0.0
40, 0.0
41, 0.0
42, 0.0
43, 0.0
44, 0.0
45, 0.0
46, 0.0
47, 0.0
48, 0.0
49, 0.0
50, 0.0
51, 0.0
52, 0.0
53, 0.0
54, 0.0
55, 0.0
56, 0.0
57, 0.0
58, 0.0
59, 0.0
60, 0.0
61, 0.0
62, 0.0
63, 0.0
64, 0.0
65, 0.0
66, 0.0
67, 0.0
68, 0.0
69, 0.0
70, 0.0
71, 0.0
72, 0.0
73, 0.0
74, 0.0
75, 0.0
76, 0.0
77, 0.0
78, 0.0
79, 0.0
80, 0.0
81, 0.0
82, 0.0
83, 0.0
84, 0.0
85, 0.0
86, 0.0
87, 0.0
88, 0.0
89, 0.0
90, 0.0
91, 0.0
92, 0.0
93, 0.0
94, 0.0
95, 0.0
96, 0.0
97, 0.0
98, 0.0
99, 0.0
100, 0.0
101, 0.0
102, 0.0
103, 0.0
104, 0.0
105, 0.0
106, 0.0
107, 0.0
108, 0.0
109, 0.0
110, 0.0
111, 0.0
112, 0.0
113, 0.0
114, 0.0
115, 0.0
116, 0.0
117, 0.0
118.0, 0.0028248834243827345
119.0, 0.0010369748102684571
120.0, 0.0006898159688110676
121.0, 0.0010870234605077122
122.0, 0.005149635367566983
123.0, 0.010907188575893803
124.0, 0.01808984833374745
125.0, 0.028354210859235868
126.0, 0.04057966741754538
127.0, 0.056141707899836565
128.0, 0.06890169312636102
129.0, 0.07501178284005093
130.0, 0.07406955656929065
131.0, 0.07074066607575133
132.0, 0.07107253970976626
133.0, 0.07669243526328792
134.0, 0.0877010124899002
135.0, 0.1059979650288389
136.0, 0.12847633814433979
137.0, 0.15605890761757135
138.0, 0.1895997284335636
139.0, 0.22722292615207992
140.0, 0.26349716296161024
141.0, 0.285954111316096
142.0, 0.2861656728832853
143.0, 0.2609133443996086
144.0, 0.21654075899010466
145.0, 0.1747074722213313
146.0, 0.14596074792877092
147.0, 0.13191493711130212
148.0, 0.12406523034634756
149.0, 0.12090013922953961
150.0, 0.12378686092299546
151.0, 0.13254059806481489
152.0, 0.14197646959613094
153.0, 0.153759932476524
154.0, 0.16648405042944991
155.0, 0.17510267428972753
156.0, 0.17253845850671418
157.0, 0.16004494942455846
158.0, 0.14156006761288722
159.0, 0.12191513502947308
160.0, 0.10514750111641905
161.0, 0.09088749428599928
162.0, 0.0813393293572705
163.0, 0.07535278968059558
164.0, 0.07044402689779761
165.0, 0.06384604998423624
166.0, 0.059834100307298535
167.0, 0.05834454630983485
168.0, 0.05968821561919461
169.0, 0.06553795195920066
170.0, 0.0752819384958103
171.0, 0.08725832730208288
172.0, 0.10314593835047686
173.0, 0.12573303964749527
174.0, 0.15380162365787148
175.0, 0.1857796721620716
176.0, 0.21619821915264473
177.0, 0.23573686581681128
178.0, 0.22947303373967518
179.0, 0.19229895294358385
180.0, 0.14199760904298162
181.0, 0.09532155638272048
182.0, 0.062032583064172045
183.0, 0.0452109207480763
184.0, 0.03428217750356645
185.0, 0.027290741569519314
186.0, 0.025264247409861787
187.0, 0.026942478044705356
188.0, 0.02753501333895609
189.0, 0.029830170540557935
190.0, 0.035161148090460656
191.0, 0.04092746719349678
192.0, 0.04915161523094168
193.0, 0.05973017327364937
194.0, 0.07114280098590553
195.0, 0.08254527206210593
196.0, 0.09758229814710084
197.0, 0.11180039743776851
198.0, 0.12688575516101328
199.0, 0.14330006551579272
200.0, 0.15539202219179504
201.0, 0.16637092672955817
202.0, 0.17685188126540247
203.0, 0.1814016614975233
204.0, 0.1711282390918389
205.0, 0.14666637154919057
206.0, 0.1260408697782289
207.0, 0.11373058476375644
208.0, 0.10852232970057438
209.0, 0.11105730331525511
210.0, 0.11617633805682535
211.0, 0.1197005874591753
212.0, 0.12248967041148279
213.0, 0.12872532346395507
214.0, 0.139039599149471
215.0, 0.15202893502207251
216.0, 0.16842296819468375
217.0, 0.18748918963442382
218.0, 0.20445897106499739
219.0, 0.21448937280472158
220.0, 0.21946837650088374
221.0, 0.22109732589349043
222.0, 0.21951133681021454
223.0, 0.2237395954320331
224.0, 0.23643210789446087
225.0, 0.25789468139272215
226.0, 0.28810285792861995
227.0, 0.33093944401874603
228.0, 0.38318432214341736
229.0, 0.44294963751115807
230.0, 0.505587591266248
231.0, 0.5597601849524984
232.0, 0.5914644100384807
233.0, 0.5885821327559528
234.0, 0.5473975244573478
235.0, 0.4747498360573273
236.0, 0.38934423017140285
237.0, 0.3105510990790029
238.0, 0.2485109038234334
239.0, 0.2042825483209917
240.0, 0.17456051830376748
241.0, 0.1578606882565061
242.0, 0.14496375100201842
243.0, 0.13604827116762389
244.0, 0.1324717712039692
245.0, 0.13046611716229964
246.0, 0.12426727648144685
247.0, 0.11686406384260205
248.0, 0.11028491454869117
249.0, 0.10433836105532136
250.0, 0.0970940952184353
251.0, 0.09129025750855357
252.0, 0.08594705730105026
253.0, 0.08066454403768179
254.0, 0.07814979420387091
255.0, 0.07909542962357415
256.0, 0.0809686973148719
257.0, 0.08530830020923448
258.0, 0.09364836366908964
259.0, 0.09928307955288108
260.0, 0.1057012788894318
261.0, 0.10777830019250588
262.0, 0.10305437941868238
263.0, 0.09440816410705939
264.0, 0.08188134942406168
265.0, 0.06601950951449835
266.0, 0.049125586448376196
267.0, 0.03340615252383148
268.0, 0.020927536768925725
269.0, 0.012724837691449263
270.0, 0.00598668426335764
271.0, 0.000794381166205218
272.0, 0.0006653732753701843
273.0, 0.001448562714053005
274.0, 0.0019184996977540992
275.0, 0.003164366736467527
276.0, 0.005549923802939649
277.0, 0.007973427026865553
278.0, 0.009550315004788939
279.0, 0.01151261022016707
280.0, 0.013373064807033722
281.0, 0.014032133075713578
282.0, 0.013583453724668133
283.0, 0.012182526841723254
284.0, 0.010180131261821098
285.0, 0.007414664065092414
286.0, 0.0035538245696655297
287.0, 0.0008441425042044898
288.0, 0.0037850668944162413
289.0, 0.008412716297621215
290.0, 0.013254947731246913
291.0, 0.014547567137975833
292.0, 0.01755356851436074
293.0, 0.021096011821505653
294.0, 0.023468844933027602
295.0, 0.02460914194631741
296.0, 0.02733760767869556
297.0, 0.030648384280751707
298.0, 0.035267918628846644
299.0, 0.04126306429737683
300.0, 0.047301084630003105
301.0, 0.050613847296008034
302.0, 0.05477418871396642
303.0, 0.057234624085399276
304.0, 0.05573996367885413
305.0, 0.051699106591658
306.0, 0.048326863366360724
307.0, 0.045731861624888126
308.0, 0.04382203376312414
309.0, 0.04297827921294914
310.0, 0.04402987449649782
311.0, 0.04660222117689855
312.0, 0.050220951194863535
313.0, 0.05464579707301911
314.0, 0.05975695352737552
315.0, 0.06557323399139958
316.0, 0.07209607945078339
317.0, 0.07852417633984152
318.0, 0.08481648406182432
319.0, 0.09160676175780222
320.0, 0.09630410202229737
321.0, 0.09886348965491007
322.0, 0.10100739873572405
323.0, 0.10271819583120301
324.0, 0.10167961990661861
325.0, 0.10420725235661499
326.0, 0.10625429152882632
327.0, 0.10826739823891773
328.0, 0.11218481702402824
329.0, 0.11802715382787589
330.0, 0.12139055058864635
331.0, 0.12686420769780712
332.0, 0.13456738699403037
333.0, 0.14177259791791125
334.0, 0.14377600659048423
335.0, 0.14483827008482078
336.0, 0.14391591875298673
337.0, 0.1404646373825985
338.0, 0.13455847297755447
339.0, 0.12251999388212172
340.0, 0.11130435970121186
341.0, 0.10147441713517122
342.0, 0.09105632254644005
343.0, 0.0790900565650045
344.0, 0.06976758125457393
345.0, 0.06011512068405517
346.0, 0.05159542488801332
347.0, 0.044438527322233384
348.0, 0.034652613566022984
349.0, 0.02620414796985578
350.0, 0.0202649490244393
351.0, 0.01678934562996315
352.0, 0.014535385819524313
353.0, 0.01196478051701021
354.0, 0.012419592599295103
355.0, 0.014256667624000248
356.0, 0.01624607925702723
357.0, 0.018339146308239525
358.0, 0.02075207247782758
359.0, 0.02403320389568435
360.0, 0.027625216931588283
361.0, 0.030216190996986865
362.0, 0.031127072002849736
363.0, 0.03221536149143002
364.0, 0.033626256267365526
365.0, 0.03131058066305925
366.0, 0.027374471025751648
367.0, 0.025680682556359538
368.0, 0.020438784866938682
369.0, 0.01634931058356
370.0, 0.012386967254257739
371.0, 0.007939558145862809
372.0, 0.00370551814556003
373.0, 0.0039797308073183674
374.0, 0.0024200358337601096
375.0, 0.0016452858099432882
376.0, 0.003305724997027545
377.0, 0.006036933198119585
378.0, 0.008895160236315106
379.0, 0.011780612226829306
380.0, 0.01670214016491856
381.0, 0.02194948472453591
382.0, 0.023844681029239416
383.0, 0.028475563238001624
384.0, 0.02932551839872833
385.0, 0.028879683618321165
386.0, 0.0278013384328132
387.0, 0.022357919027686975
388.0, 0.018574800905120085
389.0, 0.015755258177084414
390.0, 0.012290689596385983
391.0, 0.007655300470010786
392.0, 0.0029212149244322782
393.0, 0.0004623978916924287
394.0, 0.0015050959546579958
395.0, 0.004110292564088689
396.0, 0.006703285440890175
397.0, 0.006533888242385571
398.0, 0.006261441213616431
399.0, 0.006395956251579435
400.0, 0.005749676221231825
401.0, 0.003876898231137501
402.0, 0.0014653744774641884
403.0, 0.00032589946758700714
404.0, 0.0031082658702071488
405.0, 0.0070675360703678055
406.0, 0.011498249510334239
407.0, 0.016043356197755848
408.0, 0.02150613743591762
409.0, 0.027552917245206716
410.0, 0.035001467109297676
411.0, 0.044437308716835926
412.0, 0.0553593893312259
413.0, 0.06703935102202614
414.0, 0.07852041408037408
415.0, 0.08817838569604868
416.0, 0.09558593460312668
417.0, 0.10105318652145091
418.0, 0.10125463596288821
419.0, 0.09722979597892444
420.0, 0.09159272717018381
421.0, 0.08783061525316051
422.0, 0.08855726441909995
423.0, 0.09217188359660139
424.0, 0.09651110930899506
425.0, 0.09839403876829533
426.0, 0.09714751509645238
427.0, 0.09379811060595211
428.0, 0.08482845473788356
429.0, 0.07469589112911135
430.0, 0.06831874951783619
431.0, 0.06648654138033164
432.0, 0.06663796556298988
433.0, 0.06806544805361282
434.0, 0.07261174040754209
435.0, 0.07635020000462171
436.0, 0.07874496160482264
437.0, 0.08166982852676001
438.0, 0.08427835529306858
439.0, 0.0868957753671914
440.0, 0.08822175682985262
441.0, 0.08937439914405826
442.0, 0.09195551974036295
443.0, 0.0955598960107006
444.0, 0.09915100907862938
445.0, 0.10367471545213147
446.0, 0.10849730887822724
447.0, 0.11302561425816174
448.0, 0.11782627204977304
449.0, 0.12176087942493488
450.0, 0.12327527853748099
451.0, 0.12406310700941094
452.0, 0.12471752705978892
453.0, 0.12336109187506736
454.0, 0.12250067015435943
455.0, 0.12273631738147411
456.0, 0.12490875751796945
457.0, 0.12915702276662244
458.0, 0.13498585011993486
459.0, 0.14314622963071497
460.0, 0.15528842611391455
461.0, 0.1687825258054966
462.0, 0.18225613884540828
463.0, 0.19639567463296737
464.0, 0.21215999437791655
465.0, 0.22707280116308917
466.0, 0.23987293994963327
467.0, 0.24964215783923172
468.0, 0.25599751069030807
469.0, 0.259958371690681
470.0, 0.256032754166859
471.0, 0.24967535954756478
472.0, 0.23992113968405784
473.0, 0.22534190792274664
474.0, 0.2100782614377923
475.0, 0.19415189762078172
476.0, 0.17838986817393795
477.0, 0.1667298142827138
478.0, 0.1593012010263223
479.0, 0.1523874365610231
480.0, 0.14662123375879912
481.0, 0.14379796834447275
482.0, 0.14304498723978443
483.0, 0.1420074514963409
484.0, 0.13961845782913582
485.0, 0.13998451369086268
486.0, 0.13560355334313773
487.0, 0.13021940229208023
488.0, 0.12588917068242214
489.0, 0.12233679497848932
490.0, 0.11905497761904714
491.0, 0.11569966088734468
492.0, 0.11149273556416721
493.0, 0.10703864423353636
494.0, 0.10263094910643905
495.0, 0.09798410844513075
496.0, 0.09527413972404018
497.0, 0.0913062155312536
498.0, 0.08580509178418744
499.0, 0.08013670271377701
500.0, 0.0752404768427825
501.0, 0.07006764814461743
502.0, 0.06472395129248687
503.0, 0.05947059262810638
504.0, 0.054933117449830024
505.0, 0.050910990923273544
506.0, 0.04587728042834164
507.0, 0.041903656941173505
508.0, 0.0379059497342436
509.0, 0.033155450605052365
510.0, 0.028918429406647603
511.0, 0.027213414597976878
512.0, 0.024262108320652412
513.0, 0.02036420191422233
514.0, 0.017307140932616847
515.0, 0.0145475401181936
516.0, 0.010518281798053733
517.0, 0.005446499886600342
518.0, 0.002342038080592769
519.0, 0.0012867624652532462
520.0, 0.004026918684889733
521.0, 0.005823621035489367
522.0, 0.008276753605988046
523.0, 0.007591438175473975
524.0, 0.007168614092289526
525.0, 0.00823713920883037
526.0, 0.0092209471976885
527.0, 0.007823747624177596
528.0, 0.005181410864161778
529.0, 0.005134800103084067
530.0, 0.0038197763694633137
531.0, 0.00046084079655468366
532.0, 0.0037478904701976953
533.0, 0.007296587202127576
534.0, 0.013700522562321273
535.0, 0.020349994968261273
536.0, 0.024871254983724646
537.0, 0.030030737112899927
538.0, 0.03922650850267198
539.0, 0.04659510991643921
540.0, 0.05469943025311296
541.0, 0.06381743366831778
542.0, 0.07243577123728669
543.0, 0.08011840638406777
544.0, 0.08795167838436219
545.0, 0.09461349723794565
546.0, 0.09709060627850599
547.0, 0.09949802810884892
548.0, 0.10207678776651948
549.0, 0.10236566727613332
550.0, 0.10048692651649
551.0, 0.09680013557805339
552.0, 0.09157858966270085
553.0, 0.08586873083650959
554.0, 0.0794859584658595
555.0, 0.07124083765170008
556.0, 0.06332267279867809
557.0, 0.057151459202787434
558.0, 0.051453569546626346
559.0, 0.048102880365323036
560.0, 0.04695032714217927
561.0, 0.04128895304970364
562.0, 0.04257316882761788
563.0, 0.04330856652718969
564.0, 0.045275856544741096
565.0, 0.04960187723498874
566.0, 0.05348261727383401
567.0, 0.054486060706588006
568.0, 0.05764274839672534
569.0, 0.061656357063178985
570.0, 0.06530617094306188
571.0, 0.06805180873602232
572.0, 0.06902600686155967
573.0, 0.06775073107273841
574.0, 0.0683916860308557
575.0, 0.06864046854633231
576.0, 0.06775110115252397
577.0, 0.06719780300286694
578.0, 0.06959590866565717
579.0, 0.06954933277151722
580.0, 0.07599463607048007
581.0, 0.08439612863329318
582.0, 0.09209820186060942
583.0, 0.10292996161443373
584.0, 0.11403145546123906
585.0, 0.125970831990603
586.0, 0.1413621795692948
587.0, 0.15732974948621484
588.0, 0.1710821319258717
589.0, 0.18262568514245564
590.0, 0.190992748402424
591.0, 0.19736203276437597
592.0, 0.19932197908568874
593.0, 0.19547290800142308
594.0, 0.18648012073543546
595.0, 0.17391849840672596
596.0, 0.15768076408152487
597.0, 0.1392776162361176
598.0, 0.11941736913041358
599.0, 0.09991108795166051
600.0, 0.08268705157262085
601.0, 0.06862647881800113
602.0, 0.057156558893457825
603.0, 0.04703635929830976
604.0, 0.038725641871551086
605.0, 0.03222502957769715
606.0, 0.026824236608950534
607.0, 0.02292015034554237
608.0, 0.019911294300459126
609.0, 0.01828270699467403
610.0, 0.017451265840175804
611.0, 0.016563454390623632
612.0, 0.01576447840641492
613.0, 0.017311975018499733
614.0, 0.017732829500521054
615.0, 0.01840836654143639
616.0, 0.01981116498068814
617.0, 0.021503594961499006
618.0, 0.023245705917237767
619.0, 0.026117242601597795
620.0, 0.02914853300678039
621.0, 0.03378117348938126
622.0, 0.038436905488869744
623.0, 0.04235128655742463
624.0, 0.04820132505531705
625.0, 0.05295660378350845
626.0, 0.057916441166878385
627.0, 0.06293013779165536
628.0, 0.06761512089525187
629.0, 0.07199635659840774
630.0, 0.07677914090770833
631.0, 0.0814031523569857
632.0, 0.08335050124168884
633.0, 0.08648380363662876
634.0, 0.08978463990541238
635.0, 0.09117812429248594
636.0, 0.09459497197605318
637.0, 0.09783101573858398
638.0, 0.10052085146802772
639.0, 0.10347548867502676
640.0, 0.10663328936156054
641.0, 0.10935860354447137
642.0, 0.11123938920893292
643.0, 0.11118360555195539
644.0, 0.10902035040744427
645.0, 0.10582875431532557
646.0, 0.10175829851538677
647.0, 0.09635147310789582
648.0, 0.08982027181209068
649.0, 0.08199673893910182
650.0, 0.07399888626493215
651.0, 0.0662677994014269
652.0, 0.05993531715466296
653.0, 0.05466082630688724
654.0, 0.048267292499953755
655.0, 0.046416324917984926
656.0, 0.04053904380408573
657.0, 0.03807556100534427
658.0, 0.036576801535975534
659.0, 0.03101557707793201
660.0, 0.027502294228386934
661.0, 0.025367782093163167
662.0, 0.023419974642052963
663.0, 0.019619103933079203
664.0, 0.016494569242316546
665.0, 0.015353801652460673
666.0, 0.01260737725396915
667.0, 0.010764024467954797
668.0, 0.0084415669594473
669.0, 0.007002621301182906
670.0, 0.005850778320801274
671.0, 0.004594129779999878
672.0, 0.004092221550757582
673.0, 0.0013833396435148119
674.0, 0.0006358170574362224
675.0, 0.0006671287086957396
676.0, 0.0021885427931770183
677.0, 0.0024959464905389833
678.0, 0.002315821672485012
679.0, 0.002785578557169016
680.0, 0.0036345649777859736
681.0, 0.004589198748954004
682.0, 0.004703953796482331
683.0, 0.004120238271847233
684.0, 0.003999688519801462
685.0, 0.00396948143952293
686.0, 0.003112212844195148
687.0, 0.0021086855317559196
688.0, 0.0006331927609016366
689.0, 0.0006388640427411351
690.0, 0.0010361685755363973
691.0, 0.002368815743201657
692.0, 0.004207293484399998
693.0, 0.0056249679691005
694.0, 0.006252494330398519
695.0, 0.006279124934421502
696.0, 0.006395229718597415
697.0, 0.007609718313012311
698.0, 0.009112825626057603
699.0, 0.009143280990631546
700.0, 0.010162143874468803
701.0, 0.0107508674753283
702.0, 0.009994653893869217
703.0, 0.00982874052699722
704.0, 0.007482892202356298
705.0, 0.007154749469521105
706.0, 0.006792244976129905
707.0, 0.006520138958735093
708.0, 0.005524579512893895
709.0, 0.0027610048899053834
710.0, 0.0027990891245380516
711.0, 0.0036441184651644
712.0, 0.0034497785517290888
713.0, 0.002965892714517631
714.0, 0.0034352615731120593
715.0, 0.004147806973847248
716.0, 0.002707167267946293
717.0, 0.0027235709933505553
718.0, 0.004069641226899562
719.0, 0.005056112941225809
720.0, 0.005379323326120892
721.0, 0.005152080560154908
722.0, 0.004509065125285715
723.0, 0.005232233073786761
724.0, 0.007346635292158101
725.0, 0.007747756729123853
726.0, 0.006945039240169592
727.0, 0.007664654789135564
728.0, 0.01105899432369454
729.0, 0.013153882931794258
730.0, 0.010472902528338934
731.0, 0.010121357894549314
732.0, 0.011816970100159696
733.0, 0.012858879931822187
734.0, 0.012845412189418896
735.0, 0.013423914141663166
736.0, 0.014078620368302078
737.0, 0.012165425781012658
738.0, 0.011749382509696883
739.0, 0.011693543464410762
740.0, 0.011586554980947409
741.0, 0.01193644480513027
742.0, 0.010243707592288315
743.0, 0.01018985742043174
744.0, 0.009636687277013153
745.0, 0.009568996020414547
746.0, 0.009443044444974985
747.0, 0.008593468454647
748.0, 0.007696718919980689
749.0, 0.006464721742284444
750.0, 0.006610435187873791
751.0, 0.004889049937364041
752.0, 0.004310024466492832
753.0, 0.004642927493683802
754.0, 0.003479699616308567
755.0, 0.002317639535285773
756.0, 0.002301835291382897
757.0, 0.001630762005874724
758.0, 0.001285224266575033
759.0, 0.0007454486413822019
760.0, 0.0001228599616171675
761.0, 0.0006500205432905681
762.0, 0.001998477792845792
763.0, 0.0007370988850845856
764.0, 0.00017630196137541636
765.0, 0.0007239281180868663
766.0, 0.0004943057139202272
767.0, 0.00021487524530949784
768.0, 0.0005156064665249189
769.0, 0.0013579063198245359
770.0, 0.0008448120135730681
771.0, 0.0003513984523508142
772.0, 0.0005612472625550565
773.0, 0.0016315887353964458
774.0, 0.001469656988502844
775.0, 0.001381543506681059
776.0, 0.002208692527122332
777.0, 0.002769262822873967
778.0, 0.0036813511475400295
779.0, 0.0044639699858170755
780.0, 0.005191482526350541
781.0, 0.006039868604281854
782.0, 0.005945356567738559
783.0, 0.007599670427265434
784.0, 0.008053758802812599
785.0, 0.00930404128906647
786.0, 0.011418536307097523
787.0, 0.012437988671426044
788.0, 0.01229898170325778
789.0, 0.013925748611930522
790.0, 0.017445394652912536
791.0, 0.019055786988361974
792.0, 0.020787479310739314
793.0, 0.022232402703153003
794.0, 0.023568369269737637
795.0, 0.026615551028357963
796.0, 0.02913553054593851
797.0, 0.029687748921024115
798.0, 0.03182144601220628
799.0, 0.034083117370986946
800.0, 0.03670689877205071
801.0, 0.039914787110129205
802.0, 0.042453182306340854
803.0, 0.04570607249998548
804.0, 0.04903087397633462
805.0, 0.05189119958146033
806.0, 0.05510541096665941
807.0, 0.057965749089325204
808.0, 0.05989952927979715
809.0, 0.061893806157046885
810.0, 0.06377173747115039
811.0, 0.06509987170282319
812.0, 0.06451024975924549
813.0, 0.06389083434920377
814.0, 0.0634618106979545
815.0, 0.06171229511956343
816.0, 0.05835455042513912
817.0, 0.055621538227824674
818.0, 0.05242837004477344
819.0, 0.048242567071188375
820.0, 0.044435839647738604
821.0, 0.04137791188493167
822.0, 0.03872269824968378
823.0, 0.03663935231737378
824.0, 0.033812367225741345
825.0, 0.03141415160082945
826.0, 0.030245938279795197
827.0, 0.028260108379640884
828.0, 0.025862728747038353
829.0, 0.02337340558858174
830.0, 0.02045730886831568
831.0, 0.020240638340530328
832.0, 0.019174310006576132
833.0, 0.018655861409340117
834.0, 0.017305392105192063
835.0, 0.015320479872782256
836.0, 0.0137004464107051
837.0, 0.01314794151962703
838.0, 0.013508045693672342
839.0, 0.01059405243591096
840.0, 0.010673367402158542
841.0, 0.010690922922980626
842.0, 0.010050687312627026
843.0, 0.009601055105210986
844.0, 0.008979969644391132
845.0, 0.007418650768796406
846.0, 0.005528894929251427
847.0, 0.004179273536877363
848.0, 0.004652156958250532
849.0, 0.003961470903522667
850.0, 0.0030102800780915906
851.0, 0.0034004505708370943
852.0, 0.0030859645285226545
853.0, 0.004095854091812573
854.0, 0.0066034733120309665
855.0, 0.005788353720529703
856.0, 0.0033095968545744947
857.0, 0.0026661272314250774
858.0, 0.003239897274755031
859.0, 0.002112732849606784
860.0, 0.0014979128829963532
861.0, 0.00022514597142805592
862.0, 0.00025665900304321326
863.0, 0.00024077739977091121
864.0, 0.0002802960971422303
865.0, 3.8752226826451716e-05
866.0, 0.0002440400828669566
867.0, 0.0008612370386301346
868.0, 0.0005634640861390773
869.0, 0.0013377319752382664
870.0, 0.00026825804908491783
871.0, 0.0007079686498116171
872.0, 6.918850816396032e-05
873.0, 0.0005690841447957026
874.0, 0.0002131484274871454
875.0, 0.0002890932587438938
876.0, 0.0004203202293255264
877.0, 0.0014269041301807376
878.0, 0.0010728828189927764
879.0, 0.000800221148771015
880.0, 0.0011012069757039189
881.0, 0.0005193423567074818
882.0, 0.002328373680979819
883.0, 0.0026891947625172505
884.0, 0.0008844575558928809
885.0, 0.0008112324797409431
886.0, 0.0009522833337179191
887.0, 0.0016370539486998392
888.0, 0.002605697966563858
889.0, 0.002166893473269254
890.0, 0.003577852601160015
891.0, 0.0025039323259109275
892.0, 0.002703988653223026
893.0, 0.003421025126388675
894.0, 0.0032736152153697707
895.0, 0.0027626926050033323
896.0, 0.0025334022767630024
897.0, 0.0023312054533522726
898.0, 0.0028288731218412003
899.0, 0.0029280870675034826
900.0, 0.003551442376719163
901.0, 0.0032686506582875036
902.0, 0.002482470698799817
903.0, 0.0026196494638185386
904.0, 0.0034581998705515656
905.0, 0.0034196261076686993
906.0, 0.004319607705250197
907.0, 0.0036702641480590797
908.0, 0.004158569671430356
909.0, 0.00584213123002647
910.0, 0.005824682641226042
911.0, 0.004030974244786585
912.0, 0.0037162160917938902
913.0, 0.0054596990356886605
914.0, 0.005134972403938125
915.0, 0.004173536851389534
916.0, 0.004779790950232846
917.0, 0.006948499115092543
918.0, 0.0078061485532160526
919.0, 0.007639927211924681
920.0, 0.009012514039733065
921.0, 0.008463974720868168
922.0, 0.009741369881884263
923.0, 0.009933764034665582
924.0, 0.01123692281646152
925.0, 0.01187372030416977
926.0, 0.012961615348701539
927.0, 0.014530849687473375
928.0, 0.014156355801683196
929.0, 0.016243514134904585
930.0, 0.01762160864239418
931.0, 0.01778580814290598
932.0, 0.01884796251825224
933.0, 0.02057942599943598
934.0, 0.022029816160756065
935.0, 0.0229836805197701
936.0, 0.023805323978806945
937.0, 0.02518444159807414
938.0, 0.02398819422994295
939.0, 0.022923103249885758
940.0, 0.023816920933951772
941.0, 0.02306001487114312
942.0, 0.021536523105051036
943.0, 0.020099475578586285
944.0, 0.017217690946201545
945.0, 0.016399695122165686
946.0, 0.014800352919456064
947.0, 0.013276931580640678
948.0, 0.009877455823212557
949.0, 0.007543482355853017
950.0, 0.007123263935224708
951.0, 0.006480992818331667
952.0, 0.004559610633627476
953.0, 0.0026720208981408167
954.0, 0.0005038576321404905
955.0, 0.001087079581523142
956.0, 0.0023366623010265698
957.0, 0.0024459326205920453
958.0, 0.0027107714962707123
959.0, 0.0035373404581267543
960.0, 0.003688680508623588
961.0, 0.0036835388437482177
962.0, 0.0038235694763316883
963.0, 0.0038098248508744506
964.0, 0.005307359074097811
965.0, 0.0057195592764063006
966.0, 0.005153786985003387
967.0, 0.004049183368324271
968.0, 0.002548015239586397
969.0, 0.0014241367082042059
970.0, 0.0005187027077481011
971.0, 0.0007374163373716462
972.0, 0.003350978572729671
973.0, 0.005707075568235168
974.0, 0.008511768434446629
975.0, 0.011788086014674388
976.0, 0.015021788961715278
977.0, 0.018816181880598755
978.0, 0.023536244812592266
979.0, 0.026920197930272487
980.0, 0.030202470093366643
981.0, 0.03351733768513576
982.0, 0.035893385170364125
983.0, 0.03966500585388497
984.0, 0.0422809879443022
985.0, 0.041873072913563666
986.0, 0.04264425823961219
987.0, 0.04139844156237079
988.0, 0.0407284796282599
989.0, 0.03997444670677828
990.0, 0.04039014054236677
991.0, 0.04046166562218328
992.0, 0.039539965316990756
993.0, 0.03984527725646404
994.0, 0.04228926202371192
995.0, 0.04337123986157985
996.0, 0.04569149985977052
997.0, 0.049697376037011846
998.0, 0.051073592841733406
999.0, 0.05366667385427126
1000.0, 0.055700223453662615
1001.0, 0.05734843938517576
1002.0, 0.05953998015403796
1003.0, 0.06000927936615412
1004.0, 0.05880234038979933
1005.0, 0.059837670134133686
1006.0, 0.06048336607616167
1007.0, 0.05955130360949472
1008.0, 0.0607229190210877
1009.0, 0.06127599650366088
1010.0, 0.06260430286819704
1011.0, 0.06703026287516575
1012.0, 0.07095377517877573
1013.0, 0.07430078094058576
1014.0, 0.08021166995774427
1015.0, 0.0860206359505838
1016.0, 0.09192999226472999
1017.0, 0.09990501258234152
1018.0, 0.11021376655048053
1019.0, 0.1211098762262136
1020.0, 0.1327269362595337
1021.0, 0.14751548465077458
1022.0, 0.16454415090913482
1023.0, 0.1842376112167036
1024.0, 0.20562826983213237
1025.0, 0.22820655902083867
1026.0, 0.2562956294830813
1027.0, 0.28985591463494725
1028.0, 0.3273241766556874
1029.0, 0.36776470216061713
1030.0, 0.41136130481078925
1031.0, 0.4603842183301127
1032.0, 0.5137377176813474
1033.0, 0.5694620369807268
1034.0, 0.6288240844055824
1035.0, 0.6942299259538225
1036.0, 0.7617829576388964
1037.0, 0.8262785441595372
1038.0, 0.8869431169051228
1039.0, 0.9413287625978759
1040.0, 0.978240413592853
1041.0, 0.9980916764810207
1042.0, 0.9961302936332448
1043.0, 0.9701948278142873
1044.0, 0.9244329479387388
1045.0, 0.8626145885167671
1046.0, 0.7880482927479593
1047.0, 0.7087976365229957
1048.0, 0.6329412481463338
1049.0, 0.5601145774584882
1050.0, 0.49358481018884515
1051.0, 0.43651055266886774
1052.0, 0.3869196714760344
1053.0, 0.34554482775725065
1054.0, 0.3126385726984992
1055.0, 0.2864246386867233
1056.0, 0.26579917334177783
1057.0, 0.2497557851618656
1058.0, 0.23752862679455283
1059.0, 0.23073096403296056
1060.0, 0.22012656540517608
1061.0, 0.2167938463656126
1062.0, 0.21455521742343928
1063.0, 0.21107002831723753
1064.0, 0.20599385245186203
1065.0, 0.1973316673023141
1066.0, 0.18745461401279326
1067.0, 0.17922511321458773
1068.0, 0.16672866106195103
1069.0, 0.15057495226308912
1070.0, 0.13631001994505146
1071.0, 0.12199091998679683
1072.0, 0.10529400782900074
1073.0, 0.09100475211525043
1074.0, 0.0770292409278443
1075.0, 0.06568085048936943
1076.0, 0.05746849092197048
1077.0, 0.04820393513123878
1078.0, 0.04361526607097403
1079.0, 0.035856614862743136
1080.0, 0.031956849613438545
1081.0, 0.02655452022715365
1082.0, 0.023101579652084397
1083.0, 0.019876310521682768
1084.0, 0.017798846901768528
1085.0, 0.015836781241703367
1086.0, 0.013428896965671327
1087.0, 0.013240215173677926
1088.0, 0.012992488879677114
1089.0, 0.012577562778800564
1090.0, 0.011647937471541565
1091.0, 0.014249244350975354
1092.0, 0.018581540571484492
1093.0, 0.01858019449797244
1094.0, 0.018562793705607303
1095.0, 0.0198376370024546
1096.0, 0.02057309814892696
1097.0, 0.022991665075344333
1098.0, 0.023907261979643185
1099.0, 0.025725788359438045
1100.0, 0.028591111178317537
1101.0, 0.03037787677140266
1102.0, 0.0316341611968501
1103.0, 0.03249555865644778
1104.0, 0.0320183613647083
1105.0, 0.03367874461850878
1106.0, 0.03493062658497694
1107.0, 0.031242517785360916
1108.0, 0.029443986876490948
1109.0, 0.028036644393354623
1110.0, 0.023239120243470926
1111.0, 0.019430594789772396
1112.0, 0.01522121899721168
1113.0, 0.012095384335644142
1114.0, 0.008964900890752293
1115.0, 0.005367325073023356
1116.0, 0.002888622459175775
1117.0, 0.0018181558340670551
1118.0, 0.0005569026121995889
1119.0, 0.002212086634700935
1120.0, 0.002173783434753873
1121.0, 0.0020255306583666388
1122.0, 0.0031340615446255994
1123.0, 0.0029574113895753404
1124.0, 0.0032441314464116433
1125.0, 0.004113218455537418
1126.0, 0.0037431362289864056
1127.0, 0.002985053974769024
1128.0, 0.003626045966833476
1129.0, 0.0032683756643660656
1130.0, 0.0018823954640489026
1131.0, 0.002430419424755431
1132.0, 0.0034339338338103403
1133.0, 0.002351988146544312
1134.0, 0.0016649480977850904
1135.0, 0.0019018644426214537
1136.0, 0.0015619520644590695
1137.0, 0.0006230581876341262
1138.0, 0.0022995852007926375
1139.0, 0.0027865315985421816
1140.0, 0.003271102599260509
1141.0, 0.0037727031982861614
1142.0, 0.004744756376722729
1143.0, 0.005703813245686288
1144.0, 0.006639054674599796
1145.0, 0.008601247008614421
1146.0, 0.0106738902712776
1147.0, 0.01276062592063694
1148.0, 0.01578260458370649
1149.0, 0.019955971348564815
1150.0, 0.023527522605051115
1151.0, 0.02462990713333951
1152.0, 0.029932591374734505
1153.0, 0.03376824612679728
1154.0, 0.03744213820568555
1155.0, 0.0411178308575638
1156.0, 0.04584013065596489
1157.0, 0.05017561429620339
1158.0, 0.05354865474783693
1159.0, 0.056732896723130165
1160.0, 0.05984713755078809
1161.0, 0.06140608380884401
1162.0, 0.0598761529363391
1163.0, 0.05812222523855016
1164.0, 0.05482686557843568
1165.0, 0.05042077255948732
1166.0, 0.04660911779006413
1167.0, 0.0414454802545619
1168.0, 0.03702682371163098
1169.0, 0.03379704532298074
1170.0, 0.03180358102250753
1171.0, 0.029744040723040144
1172.0, 0.02663482389334176
1173.0, 0.025964814539695312
1174.0, 0.025251164637360612
1175.0, 0.02613909636653817
1176.0, 0.025935932581001412
1177.0, 0.025584611709454662
1178.0, 0.026463740109077847
1179.0, 0.026915714660728444
1180.0, 0.027540108933728366
1181.0, 0.028532118164291107
1182.0, 0.028940195163336263
1183.0, 0.028711003356677645
1184.0, 0.02840683864781759
1185.0, 0.027171099723245513
1186.0, 0.025850854375465897
1187.0, 0.022983350491013656
1188.0, 0.02337440060002875
1189.0, 0.021066195258030062
1190.0, 0.01630188668664204
1191.0, 0.016041647256495123
1192.0, 0.014929931190405771
1193.0, 0.01193065724368645
1194.0, 0.009216435539064101
1195.0, 0.006978094190534501
1196.0, 0.0073977853298200745
1197.0, 0.00715566984322267
1198.0, 0.0053234419091224144
1199.0, 0.004392786742494237
1200.0, 0.004165205529283876
1201.0, 0.0038918335943774534
1202.0, 0.0025502701937461353
1203.0, 0.0022117164338875672
1204.0, 0.0027117430851576934
1205.0, 0.0017729676444746157
1206.0, 0.0011482126841527818
1207.0, 0.0016648415523306014
1208.0, 0.0011618933546216617
1209.0, 0.0017863020370233649
1210.0, 0.0006939121858551387
1211.0, 0.001981770129536069
1212.0, 0.0005336062011242991
1213.0, 0.0005301149490699996
1214.0, 0.0018584896654446946
1215.0, 0.0014855789867458775
1216.0, 0.0006903523050149814
1217.0, 0.0009764506019194231
1218.0, 0.0015330999182987873
1219.0, 0.001147890823581023
1220.0, 0.0005364464913944956
1221.0, 0.001407923840934984
1222.0, 0.0021329660770002153
1223.0, 0.0011187506739409533
1224.0, 0.0006664951047704401
1225.0, 0.0001834808065452943
1226.0, 0.00012203792700128088
1227.0, 0.0006788905563763957
1228.0, 0.000625236121270288
1229.0, 0.00018980640980260062
1230.0, 0.0004577048124494933
1231.0, 0.0011605932653384152
1232.0, 0.0012665015748233148
1233.0, 0.0016751803465246268
1234.0, 0.001538057548513536
1235.0, 0.0005606678835598533
1236.0, 8.90681940978996e-05
1237.0, 0.00018787152759087658
1238.0, 0.0007430435074717073
1239.0, 0.00034591951503770783
1240.0, 0.00030184164701512866
1241.0, 0.0011589892119252005
1242.0, 0.001350815773097566
1243.0, 0.0015216064059429572
1244.0, 0.0020584018351915683
1245.0, 0.0017654073012878617
1246.0, 0.0017034941561563032
1247.0, 0.002803181178002008
1248.0, 0.0031806255509239994
1249.0, 0.0025251213515021264
1250.0, 0.0022544352526739065
1251.0, 0.0021034342195916022
1252.0, 0.002258480815842243
1253.0, 0.0021766844109939246
1254.0, 0.0009353042300385057
1255.0, 0.0010615110897209694
1256.0, 0.002524481677083871
1257.0, 0.0025505931589686484
1258.0, 0.0021587338273255023
1259.0, 0.0018234485079989971
1260.0, 0.0012813214180193884
1261.0, 0.004167792251979649
1262.0, 0.00411918387829422
1263.0, 0.0028316935699833905
1264.0, 0.0018335365731316552
1265.0, 0.002914519033126575
1266.0, 0.0018718401959528087
1267.0, 0.001519186842814418
1268.0, 0.0021385607254352378
1269.0, 0.0021994604617078875
1270.0, 0.0012061967479359208
1271.0, 0.0013131103249718642
1272.0, 0.002167840193668092
1273.0, 0.0020267387901764912
1274.0, 0.00108943778845162
1275.0, 0.0008035380603776278
1276.0, 0.0019281490449993802
1277.0, 0.0008530209228820776
1278.0, 0.0020100358178163943
1279.0, 0.0011332937785701069
1280.0, 0.0007637507115129718
1281.0, 0.0011608106038181576
1282.0, 0.001921121289434545
1283.0, 0.0017864494621049843
1284.0, 0.003120201770806033
1285.0, 0.0017040929686930174
1286.0, 0.0008477135707455233
1287.0, 0.0019945468488618643
1288.0, 0.001515856020571609
1289.0, 0.002642207299397496
1290.0, 0.0014614471285693232
1291.0, 0.0013985684158447744
1292.0, 0.0008852954815649875
1293.0, 0.0010366787112780845
1294.0, 0.0018634957185781902
1295.0, 0.00035331325051986723
1296.0, 0.0002568140303445409
1297.0, 0.0015822875053003419
1298.0, 0.002450896851800271
1299.0, 0.003001106004958594
1300.0, 0.0032492010938534963
1301.0, 0.0018950789133438575
1302.0, 0.0001971928567860585
1303.0, 4.420494994001948e-05
1304, 0.0
1305, 0.0
1306, 0.0
1307, 0.0
1308, 0.0
1309, 0.0
1310, 0.0
1311, 0.0
1312, 0.0
1313, 0.0
1314, 0.0
1315, 0.0
1316, 0.0
1317, 0.0
1318, 0.0
1319, 0.0
1320, 0.0
1321, 0.0
1322, 0.0
1323, 0.0
1324, 0.0
1325, 0.0
1326, 0.0
1327, 0.0
1328, 0.0
1329, 0.0
1330, 0.0
1331, 0.0
1332, 0.0
1333, 0.0
1334, 0.0
1335, 0.0
1336, 0.0
1337, 0.0
1338, 0.0
1339, 0.0
1340, 0.0
1341, 0.0
1342, 0.0
1343, 0.0
1344, 0.0
1345, 0.0
1346, 0.0
1347, 0.0
1348, 0.0
1349, 0.0
1350, 0.0
1351, 0.0
1352, 0.0
1353, 0.0
1354, 0.0
1355, 0.0
1356, 0.0
1357, 0.0
1358, 0.0
1359, 0.0
1360, 0.0
1361, 0.0
1362, 0.0
1363, 0.0
1364, 0.0
1365, 0.0
1366, 0.0
1367, 0.0
1368, 0.0
1369, 0.0
1370, 0.0
1371, 0.0
1372, 0.0
1373, 0.0
1374, 0.0
1375, 0.0
1376, 0.0
1377, 0.0
1378, 0.0
1379, 0.0
1380, 0.0
1381, 0.0
1382, 0.0
1383, 0.0
1384, 0.0
1385, 0.0
1386, 0.0
1387, 0.0
1388, 0.0
1389, 0.0
1390, 0.0
1391, 0.0
1392, 0.0
1393, 0.0
1394, 0.0
1395, 0.0
1396, 0.0
1397, 0.0
1398, 0.0
1399, 0.0
1400, 0.0
1401, 0.0
1402, 0.0
1403, 0.0
1404, 0.0
1405, 0.0
1406, 0.0
1407, 0.0
1408, 0.0
1409, 0.0
1410, 0.0
1411, 0.0
1412, 0.0
1413, 0.0
1414, 0.0
1415, 0.0
1416, 0.0
1417, 0.0
1418, 0.0
1419, 0.0
1420, 0.0
1421, 0.0
1422, 0.0
1423, 0.0
1424, 0.0
1425, 0.0
1426, 0.0
1427, 0.0
1428, 0.0
1429, 0.0
1430, 0.0
1431, 0.0
1432, 0.0
1433, 0.0
1434, 0.0
1435, 0.0
1436, 0.0
1437, 0.0
1438, 0.0
1439, 0.0
1440, 0.0
1441, 0.0
1442, 0.0
1443, 0.0
1444, 0.0
1445, 0.0
1446, 0.0
1447, 0.0
1448, 0.0
1449, 0.0
1450, 0.0
1451, 0.0
1452, 0.0
1453, 0.0
1454, 0.0
1455, 0.0
1456, 0.0
1457, 0.0
1458, 0.0
1459, 0.0
1460, 0.0
1461, 0.0
1462, 0.0
1463, 0.0
1464, 0.0
1465, 0.0
1466, 0.0
1467, 0.0
1468, 0.0
1469, 0.0
1470, 0.0
1471, 0.0
1472, 0.0
1473, 0.0
1474, 0.0
1475, 0.0
1476, 0.0
1477, 0.0
1478, 0.0
1479, 0.0
1480, 0.0
1481, 0.0
1482, 0.0
1483, 0.0
1484, 0.0
1485, 0.0
1486, 0.0
1487, 0.0
1488, 0.0
1489, 0.0
1490, 0.0
1491, 0.0
1492, 0.0
1493, 0.0
1494, 0.0
1495, 0.0
1496, 0.0
1497, 0.0
1498, 0.0
1499, 0.0
1500, 0.0
1501, 0.0
1502, 0.0
1503, 0.0
1504, 0.0
1505, 0.0
1506, 0.0
1507, 0.0
1508, 0.0
1509, 0.0
1510, 0.0
1511, 0.0
1512, 0.0
1513, 0.0
1514, 0.0
1515, 0.0
1516, 0.0
1517, 0.0
1518, 0.0
1519, 0.0
1520, 0.0
1521, 0.0
1522, 0.0
1523, 0.0
1524, 0.0
1525, 0.0
1526, 0.0
1527, 0.0
1528, 0.0
1529, 0.0
1530, 0.0
1531, 0.0
1532, 0.0
1533, 0.0
1534, 0.0
1535, 0.0
1536, 0.0
1537, 0.0
1538, 0.0
1539, 0.0
1540, 0.0
1541, 0.0
1542, 0.0
1543, 0.0
1544, 0.0
1545, 0.0
1546, 0.0
1547, 0.0
1548, 0.0
1549, 0.0
1550, 0.0
1551, 0.0
1552, 0.0
1553, 0.0
1554, 0.0
1555, 0.0
1556, 0.0
1557, 0.0
1558, 0.0
1559, 0.0
1560, 0.0
1561, 0.0
1562, 0.0
1563, 0.0
1564, 0.0
1565, 0.0
1566, 0.0
1567, 0.0
1568, 0.0
1569, 0.0
1570, 0.0
1571, 0.0
1572, 0.0
1573, 0.0
1574, 0.0
1575, 0.0
1576, 0.0
1577, 0.0
1578, 0.0
1579, 0.0
1580, 0.0
1581, 0.0
1582, 0.0
1583, 0.0
1584, 0.0
1585, 0.0
1586, 0.0
1587, 0.0
1588, 0.0
1589, 0.0
1590, 0.0
1591, 0.0
1592, 0.0
1593, 0.0
1594, 0.0
1595, 0.0
1596, 0.0
1597, 0.0
1598, 0.0
1599, 0.0
