30, 0.0
31, 0.0
32, 0.0
33, 0.0
34, 0.0
35, 0.0
36, 0.0
37, 0.0
38, 0.0
39, 0.0
40, 0.0
41, 0.0
42, 0.0
43, 0.0
44, 0.0
45, 0.0
46, 0.0
47, 0.0
48, 0.0
49, 0.0
50, 0.0
51, 0.0
52, 0.0
53, 0.0
54, 0.0
55, 0.0
56, 0.0
57, 0.0
58, 0.0
59, 0.0
60, 0.0
61, 0.0
62, 0.0
63, 0.0
64, 0.0
65, 0.0
66, 0.0
67, 0.0
68, 0.0
69, 0.0
70, 0.0
71, 0.0
72, 0.0
73, 0.0
74, 0.0
75, 0.0
76, 0.0
77, 0.0
78, 0.0
79, 0.0
80, 0.0
81, 0.0
82, 0.0
83, 0.0
84, 0.0
85, 0.0
86, 0.0
87, 0.0
88, 0.0
89, 0.0
90, 0.0
91, 0.0
92, 0.0
93, 0.0
94, 0.0
95, 0.0
96, 0.0
97, 0.0
98, 0.0
99, 0.0
100, 0.0
101, 0.0
102, 0.0
103, 0.0
104, 0.0
105, 0.0
106, 0.0
107, 0.0
108, 0.0
109, 0.0
110, 0.0
111, 0.0
112, 0.0
113, 0.0
114, 0.0
115, 0.0
116, 0.0
117, 0.0
118, 0.0
119, 0.0
120, 0.0
121, 0.0
122, 0.0
123, 0.0
124, 0.0
125, 0.0
126, 0.0
127, 0.0
128, 0.0
129, 0.0
130, 0.0
131, 0.0
132, 0.0
133, 0.0
134, 0.0
135, 0.0
136.0, 0.0006588364752163901
137.0, 0.0023860552469722116
138.0, 0.00019784782602209972
139.0, 0.00039552628577528017
140.0, 0.0027126540914003583
141.0, 0.004560264219728653
142.0, 0.00789112980397631
143.0, 0.013077606833277898
144.0, 0.017185605570431306
145.0, 0.023455635002394726
146.0, 0.03224794618675395
147.0, 0.04302153906028436
148.0, 0.054338694056635786
149.0, 0.061847523339275755
150.0, 0.06839279569815014
151.0, 0.07747888065472125
152.0, 0.08875889661404926
153.0, 0.09369776697577725
154.0, 0.09522251801248016
155.0, 0.09302370182925233
156.0, 0.0899089809146983
157.0, 0.09019662622881143
158.0, 0.08978369212527451
159.0, 0.08928161978272281
160.0, 0.08807606846086856
161.0, 0.08314746035795377
162.0, 0.07886950829550132
163.0, 0.0763813605682682
164.0, 0.07264239862960771
165.0, 0.0684288905636954
166.0, 0.06718492313659936
167.0, 0.0649436054164252
168.0, 0.062281535627218484
169.0, 0.05939249689103951
170.0, 0.05646735485185466
171.0, 0.05612840837101234
172.0, 0.055774894999181326
173.0, 0.0549425921499305
174.0, 0.05425288678195451
175.0, 0.05400993334098114
176.0, 0.05241711686462083
177.0, 0.053299412385720744
178.0, 0.05529930668890928
179.0, 0.05381130840194492
180.0, 0.050187384009980414
181.0, 0.04853477733355075
182.0, 0.04653029300613263
183.0, 0.04284560727725563
184.0, 0.03994238601640047
185.0, 0.036296093843604556
186.0, 0.031047088226485067
187.0, 0.02476827632244618
188.0, 0.01932098665670081
189.0, 0.01850000025318718
190.0, 0.014465528816044319
191.0, 0.01127319940568837
192.0, 0.01107962608457089
193.0, 0.010791975918892879
194.0, 0.00691450871761146
195.0, 0.004791090980617716
196.0, 0.00413065319149837
197.0, 0.0032351875050040833
198.0, 0.005621465940042834
199.0, 0.004543484049467309
200.0, 0.0023620876279325984
201.0, 0.0019488004685448055
202.0, 0.004483712398470138
203.0, 0.004811889117947604
204.0, 0.00276403450837455
205.0, 0.000672779769385524
206.0, 0.00030994772064265555
207.0, 0.0006833523918668173
208.0, 0.0018006115670758703
209.0, 0.0014163793932793383
210.0, 0.0008666262459172156
211.0, 0.002338674074788533
212.0, 0.002372915521392386
213.0, 0.0012943596977258488
214.0, 0.0009839161089634267
215.0, 0.001660719782341259
216.0, 0.0016537777157328674
217.0, 0.0012703047411274863
218.0, 0.0008456820363879548
219.0, 0.0003137589366190395
220.0, 0.00029352770989473834
221.0, 0.0002494357060554216
222.0, 0.0007455408948390639
223.0, 0.0004807069617145281
224.0, 0.00032390283027185245
225.0, 0.0004509033208213428
226.0, 0.005119482939879013
227.0, 0.008260485988369613
228.0, 0.009604673079335732
229.0, 0.011302182053372686
230.0, 0.01591514149248911
231.0, 0.02230119039449815
232.0, 0.027657535396037648
233.0, 0.03359379604697457
234.0, 0.04228411864125239
235.0, 0.04740036252652021
236.0, 0.052438243394051974
237.0, 0.06069172169524251
238.0, 0.069688317127137
239.0, 0.0756145359609334
240.0, 0.08475298618444019
241.0, 0.09589123962901708
242.0, 0.10617696751387852
243.0, 0.11697194422164567
244.0, 0.13336144648781567
245.0, 0.15251428579866855
246.0, 0.17544678386626458
247.0, 0.19967736790452847
248.0, 0.2228909733364716
249.0, 0.24883831300544046
250.0, 0.2567529730981164
251.0, 0.2545035738268664
252.0, 0.2459806218470083
253.0, 0.22851111277309952
254.0, 0.2228069454863487
255.0, 0.2171669233749582
256.0, 0.21534659620274205
257.0, 0.2212621712757026
258.0, 0.23220100774863472
259.0, 0.24818583470564992
260.0, 0.26425343975255755
261.0, 0.28306881507225135
262.0, 0.3090732692576125
263.0, 0.33865813450327453
264.0, 0.3666813551893328
265.0, 0.3909208085771815
266.0, 0.4101604803559747
267.0, 0.41904134286386396
268.0, 0.4034453848277012
269.0, 0.3799607115602026
270.0, 0.35169090610213516
271.0, 0.32350241051197537
272.0, 0.29911298525469043
273.0, 0.2699849260283641
274.0, 0.24581502248118675
275.0, 0.23217981269059748
276.0, 0.22613447270004486
277.0, 0.22210176233700726
278.0, 0.2237675833231208
279.0, 0.22737496807335467
280.0, 0.23528843762139334
281.0, 0.24641245160110065
282.0, 0.25395949549480884
283.0, 0.2621942595187633
284.0, 0.26172738900622566
285.0, 0.250369182406064
286.0, 0.23165010469752403
287.0, 0.21052691170242105
288.0, 0.1870600599627215
289.0, 0.16787549995800616
290.0, 0.1574486690543876
291.0, 0.15448182200721677
292.0, 0.15070037916861456
293.0, 0.15373837364240586
294.0, 0.15737847376387765
295.0, 0.1613859419645529
296.0, 0.16726504000781361
297.0, 0.16595332547267347
298.0, 0.15848240659494373
299.0, 0.14717576575265945
300.0, 0.1332276234246531
301.0, 0.1168678498623269
302.0, 0.09933616010723274
303.0, 0.08564404792158414
304.0, 0.07202353717275882
305.0, 0.05901773728016887
306.0, 0.05006026367914252
307.0, 0.04379636550747145
308.0, 0.03697668970090808
309.0, 0.030598144595897915
310.0, 0.025222390162469917
311.0, 0.021127804195680444
312.0, 0.02019381604033176
313.0, 0.018087884812873503
314.0, 0.01470998008651512
315.0, 0.011771546319903466
316.0, 0.01003788943891065
317.0, 0.007292156105649502
318.0, 0.007590281185527272
319.0, 0.007055722058537571
320.0, 0.004431266673914629
321.0, 0.0020875344642489685
322.0, 0.002787452074419319
323.0, 0.003566603107654335
324.0, 0.003937890531123704
325.0, 0.0030107086234219677
326.0, 0.0005819678868197949
327.0, 0.0009671615891989069
328.0, 0.00047826270398320747
329.0, 0.000553516773546348
330.0, 7.024783778891904e-05
331.0, 0.001068075009861022
332.0, 0.0012311813287923263
333.0, 0.0013742976084718669
334.0, 0.0018219565942905807
335.0, 0.00047584656652056064
336.0, 0.0016451157568956238
337.0, 0.0032352511116405342
338.0, 0.0019278586530621475
339.0, 0.0003955401761192318
340.0, 0.0009532657478496282
341.0, 0.0024216906448392703
342.0, 0.0004963734907925602
343.0, 0.0009343223388069433
344.0, 0.0015636364410091261
345.0, 0.0022037916222905985
346.0, 0.002891785431757189
347.0, 0.0034647031522345613
348.0, 0.006646201334890341
349.0, 0.008839305421559205
350.0, 0.009480115813312038
351.0, 0.010023920400798948
352.0, 0.011355256848160637
353.0, 0.01467112379345938
354.0, 0.01886884545852065
355.0, 0.022420700579928954
356.0, 0.02563674419630862
357.0, 0.030613393356808287
358.0, 0.03486151963008529
359.0, 0.03948088235859227
360.0, 0.04485527936604698
361.0, 0.05091349911372096
362.0, 0.05765618322961364
363.0, 0.06359459002630996
364.0, 0.07059095923821461
365.0, 0.07872156601370542
366.0, 0.08814660821648757
367.0, 0.0986484687611388
368.0, 0.10633432298520312
369.0, 0.11318834009755113
370.0, 0.11752687659218923
371.0, 0.11507735811371775
372.0, 0.10386202648363535
373.0, 0.09133571269780584
374.0, 0.07745851854173107
375.0, 0.06313575839500517
376.0, 0.049024456071456064
377.0, 0.03621410333501276
378.0, 0.02723132384864761
379.0, 0.02136643232384162
380.0, 0.015559313399103847
381.0, 0.012152948085615645
382.0, 0.011808082862471132
383.0, 0.010142076422591215
384.0, 0.005215074934500349
385.0, 0.004347059048497578
386.0, 0.005728454601523828
387.0, 0.005813589954074229
388.0, 0.0040180660986783405
389.0, 0.00970025143336782
390.0, 0.010816206655519219
391.0, 0.010406110275398504
392.0, 0.011779024205328573
393.0, 0.014677972540548229
394.0, 0.017906723687031584
395.0, 0.017492469433419526
396.0, 0.01802792836487622
397.0, 0.019608116740602647
398.0, 0.020929037359776248
399.0, 0.025308627765715852
400.0, 0.030796101616804537
401.0, 0.03750112021568803
402.0, 0.0422596740488843
403.0, 0.04577753054778838
404.0, 0.0563437932574282
405.0, 0.061533616264981925
406.0, 0.062126870434269864
407.0, 0.05672620410379564
408.0, 0.04514826799582371
409.0, 0.03179275140535001
410.0, 0.023932139107305482
411.0, 0.016253072290111133
412.0, 0.008992924817087768
413.0, 0.0035016024133204073
414.0, 0.00043727192764667696
415.0, 5.415834581666953e-05
416.0, 0.0006303783049769572
417.0, 0.0008322667312139257
418.0, 0.001569858752634679
419.0, 0.0026362249754755753
420.0, 0.001809205275492012
421.0, 0.00039454802272735195
422.0, 0.0004735143112615223
423.0, 0.002069144973645539
424.0, 0.0019628109065414354
425.0, 0.00034278182150708475
426.0, 0.00046664868518992743
427.0, 0.002695642551016918
428.0, 0.004887676429648829
429.0, 0.0070334686541333475
430.0, 0.00993814272209506
431.0, 0.010803334959850234
432.0, 0.013671197269957963
433.0, 0.016459112599365906
434.0, 0.019294017522125135
435.0, 0.02310320838719795
436.0, 0.027970656500475158
437.0, 0.0327790441986858
438.0, 0.03897482323761112
439.0, 0.045116408894780594
440.0, 0.05105050370475551
441.0, 0.05871124418948656
442.0, 0.06936989481388672
443.0, 0.08040294444735684
444.0, 0.08943215277587803
445.0, 0.10168087519701163
446.0, 0.1161644921998981
447.0, 0.12944749550594792
448.0, 0.14411457199319555
449.0, 0.15487302028764882
450.0, 0.17005781435011852
451.0, 0.18979595900361562
452.0, 0.20847971287055775
453.0, 0.2248125203091956
454.0, 0.24366905891571466
455.0, 0.26221863000216455
456.0, 0.27405747409482395
457.0, 0.27823810124128817
458.0, 0.27625657255100694
459.0, 0.26786128281494614
460.0, 0.2545199154320272
461.0, 0.23913098642301267
462.0, 0.22174305638155284
463.0, 0.2023463987279686
464.0, 0.18175964246466667
465.0, 0.1611840492084062
466.0, 0.14633182702187317
467.0, 0.13211989041329364
468.0, 0.11784297033244741
469.0, 0.10516423257646487
470.0, 0.09383133259842664
471.0, 0.08146083179692071
472.0, 0.07331760172297597
473.0, 0.06531328636904153
474.0, 0.057818502844995734
475.0, 0.0534950475512321
476.0, 0.05045532936058987
477.0, 0.044434503032294695
478.0, 0.0406306939618987
479.0, 0.03527174182745834
480.0, 0.02984020087039122
481.0, 0.028087004935461325
482.0, 0.02575428932610173
483.0, 0.021469063761352696
484.0, 0.021275777750318744
485.0, 0.02091107772176773
486.0, 0.019308298789259694
487.0, 0.01974782937991798
488.0, 0.02079818896049319
489.0, 0.0210440041019805
490.0, 0.021184095084280603
491.0, 0.02166469136333884
492.0, 0.022735341577646593
493.0, 0.024800049489325102
494.0, 0.026538312556578014
495.0, 0.029091926954719148
496.0, 0.03295726716301108
497.0, 0.037130048856995376
498.0, 0.04063402489251008
499.0, 0.04386455618966481
500.0, 0.04721776992873932
501.0, 0.05144249867001257
502.0, 0.055799879303955455
503.0, 0.060080972993077734
504.0, 0.06408115204618499
505.0, 0.06735629757422235
506.0, 0.0719935919764715
507.0, 0.07347327432353178
508.0, 0.07694073341876931
509.0, 0.0790105404871152
510.0, 0.07531218460431835
511.0, 0.07195067702593337
512.0, 0.06352507463222608
513.0, 0.058392891156008916
514.0, 0.05241756268510177
515.0, 0.044349559454977205
516.0, 0.037777680561252074
517.0, 0.032297628428812154
518.0, 0.02884977674642019
519.0, 0.024113283115292313
520.0, 0.02129505637498236
521.0, 0.01976345418115414
522.0, 0.016747852370311088
523.0, 0.014529897185633607
524.0, 0.013223167589088038
525.0, 0.011104422308523649
526.0, 0.009811147316153424
527.0, 0.009480399372081652
528.0, 0.008369804910407999
529.0, 0.006531383706068791
530.0, 0.006470159750752636
531.0, 0.004938648586936836
532.0, 0.003919358459134664
533.0, 0.0040237454615619115
534.0, 0.003491511094304806
535.0, 0.001946887601992671
536.0, 0.0019777056974076045
537.0, 0.0015245270168989058
538.0, 0.00021065395806224324
539.0, 0.0013033492418374334
540.0, 0.0008869049291882725
541.0, 0.0030510074910844146
542.0, 0.0016694196708489193
543.0, 0.0019879642464775958
544.0, 0.0031968276387701338
545.0, 0.0030950628647328404
546.0, 0.0015117226163434932
547.0, 0.0001540275655562652
548.0, 0.0014622348953604062
549.0, 0.0008055503788339628
550.0, 0.0004954898309872529
551.0, 0.0002663654079644265
552.0, 0.000927328490093609
553.0, 0.0015239246348175484
554.0, 0.0015052424535580945
555.0, 0.0020351290899612608
556.0, 0.003311805349104466
557.0, 0.0029757018366320495
558.0, 0.0029431585759505164
559.0, 0.006004031178378301
560.0, 0.006073146029152102
561.0, 0.0074571981653920654
562.0, 0.010315070236749595
563.0, 0.012351934262664111
564.0, 0.013357982798402841
565.0, 0.015082241007261011
566.0, 0.018025872200415016
567.0, 0.022478619916039454
568.0, 0.02591210901599489
569.0, 0.027320709347385064
570.0, 0.030449113358945876
571.0, 0.035869387526573704
572.0, 0.03858372533712397
573.0, 0.04369063879626486
574.0, 0.04784987071721129
575.0, 0.052978964139864235
576.0, 0.05686218704784296
577.0, 0.05842067310843942
578.0, 0.06028800481546445
579.0, 0.06209439218041793
580.0, 0.05993860979289472
581.0, 0.055946557271302384
582.0, 0.05057978472197978
583.0, 0.044264437159597395
584.0, 0.038267280773391234
585.0, 0.03374571829099803
586.0, 0.03087161477589865
587.0, 0.02935242153337482
588.0, 0.029224959653969314
589.0, 0.02831072697946579
590.0, 0.027117600810940185
591.0, 0.028508385224264552
592.0, 0.027249938561042797
593.0, 0.029195582791389684
594.0, 0.0315096310428245
595.0, 0.03274132794416115
596.0, 0.03410864781880883
597.0, 0.03654728851712921
598.0, 0.03853218911979706
599.0, 0.04303735577417016
600.0, 0.04850518473373289
601.0, 0.05096586462758897
602.0, 0.051716449031068534
603.0, 0.05463036116896355
604.0, 0.06061912931534873
605.0, 0.06205540822880595
606.0, 0.06474051699566842
607.0, 0.06686865258063625
608.0, 0.06792035379479851
609.0, 0.0694217901371234
610.0, 0.07352535459750172
611.0, 0.08026674562843411
612.0, 0.0865740427009518
613.0, 0.09219202941378182
614.0, 0.10162223795862581
615.0, 0.11239880422438997
616.0, 0.12198070428571338
617.0, 0.13321778593582562
618.0, 0.14789585913391579
619.0, 0.16812840062582293
620.0, 0.1815703075100868
621.0, 0.19514297865172667
622.0, 0.2111391147813989
623.0, 0.22440221896077606
624.0, 0.23210687008796635
625.0, 0.22498450040537524
626.0, 0.21195971865306892
627.0, 0.1921499150641293
628.0, 0.16754226412213707
629.0, 0.14173764904297995
630.0, 0.11736890689978843
631.0, 0.09643329072310027
632.0, 0.07888471023065276
633.0, 0.0657708357016566
634.0, 0.056573205888749034
635.0, 0.04914712828798626
636.0, 0.0422145595747791
637.0, 0.03618582487573444
638.0, 0.03169616370560616
639.0, 0.027726653542868022
640.0, 0.023536125735617242
641.0, 0.020380874485749805
642.0, 0.018233001264606048
643.0, 0.016075521716875162
644.0, 0.0138691810007735
645.0, 0.01212181286604429
646.0, 0.011269983235500112
647.0, 0.009185854503201734
648.0, 0.007208045365204165
649.0, 0.0058946097163456645
650.0, 0.004720534712407779
651.0, 0.004464161338184617
652.0, 0.004440218023591839
653.0, 0.004047971901324243
654.0, 0.0026447495144252087
655.0, 0.0016721721519044963
656.0, 0.0015390416814992608
657.0, 0.0019858475746298066
658.0, 0.003315708365749819
659.0, 0.00017030544548282946
660.0, 0.00017201717629481878
661.0, 0.0007500423904064032
662.0, 0.0014253400821016861
663.0, 0.001252049652873421
664.0, 0.0004057875139109254
665.0, 0.0014058689440089897
666.0, 0.0011898915348545187
667.0, 0.00017808015925329846
668.0, 0.0005879564882347919
669.0, 0.0010408331299745282
670.0, 0.0003227692116210821
671.0, 0.0005420610614444986
672.0, 0.0006794681545087888
673.0, 0.0009214893437307246
674.0, 0.0008114250424257845
675.0, 0.00044169332159622095
676.0, 0.0007963615683032168
677.0, 0.00046101072739963356
678.0, 0.0003926467000315242
679.0, 0.00021407960063150828
680.0, 0.00010748518402573193
681.0, 2.3035800877422938e-05
682.0, 0.0009747102173536386
683.0, 0.0008984953035531283
684.0, 0.0009072570377219359
685.0, 0.0012958014642503032
686.0, 0.0007522943049583828
687.0, 0.0007948729769910365
688.0, 0.0002382701805382104
689.0, 0.0008186241173608692
690.0, 0.0006052180858359898
691.0, 0.0009085959919087227
692.0, 9.030290024180306e-05
693.0, 0.0007698548002625083
694.0, 0.0010043414963411066
695.0, 0.0006524207441368357
696.0, 0.0006188530251820916
697.0, 0.001258581438649439
698.0, 0.0013272212657720601
699.0, 0.0004110147243468902
700.0, 0.00015178536781107043
701.0, 0.000725918584252975
702.0, 3.557238784938613e-05
703.0, 0.00048257375505203584
704.0, 0.0010821453738650531
705.0, 0.0009012695057304636
706.0, 0.0014131917827145055
707.0, 0.0024623340509680684
708.0, 0.002192799841064807
709.0, 0.0024840343540146214
710.0, 0.0031666004240332966
711.0, 0.003651549990927266
712.0, 0.0039007674648581484
713.0, 0.004878260619232184
714.0, 0.00609983090984925
715.0, 0.006203194793139994
716.0, 0.005593223895154558
717.0, 0.004197308966794414
718.0, 0.00559550338644932
719.0, 0.005418114361766998
720.0, 0.004501125778735167
721.0, 0.004312484959967313
722.0, 0.004325750939631309
723.0, 0.004012116212657053
724.0, 0.003374366348689353
725.0, 0.0014010548848025124
726.0, 0.0010215215119920872
727.0, 0.0017808222135547403
728.0, 0.0006467979218950573
729.0, 0.0005908895051880166
730.0, 0.0011357846447781184
731.0, 5.0607380812207186e-05
732.0, 0.000842017409852505
733.0, 0.0004777265370027932
734.0, 0.00034243004401489667
735.0, 0.000294074577017012
736.0, 0.00030646921038094137
737.0, 0.00023875137370024712
738.0, 0.0002091444391860644
739.0, 0.00044512979700887817
740.0, 0.0007778038461406987
741.0, 0.0004686601303634394
742.0, 0.0007877767708034996
743.0, 0.0007839617952448514
744.0, 0.0001636384373860329
745.0, 8.39892059368032e-05
746.0, 0.0005176314788612217
747.0, 0.0006594237285066723
748.0, 0.000889048913052854
749.0, 0.00023439934755703306
750.0, 0.001424996768436816
751.0, 0.002876293592520663
752.0, 0.002143704696630154
753.0, 0.00041633666013409903
754.0, 0.0009648551696824248
755.0, 0.001242485925236057
756.0, 0.0023132181183697976
757.0, 0.0021236875328233904
758.0, 0.0015490193382550442
759.0, 0.0011800225850040092
760.0, 0.00220600498803778
761.0, 0.0033591857494278776
762.0, 0.00195366743800104
763.0, 0.0012256892872229473
764.0, 0.0021208560332921633
765.0, 0.002510773888769127
766.0, 0.002461501805598568
767.0, 0.0038536163768085755
768.0, 0.004563120110154195
769.0, 0.002980276424330008
770.0, 0.002468464062239701
771.0, 0.0037908182705518783
772.0, 0.00503965644157844
773.0, 0.006418391333309645
774.0, 0.005798757553643191
775.0, 0.007142096915251885
776.0, 0.008296224599148593
777.0, 0.008684505612437863
778.0, 0.01028064748464527
779.0, 0.0099090699691435
780.0, 0.011768558807930334
781.0, 0.012727570739138518
782.0, 0.01327736263192599
783.0, 0.014514421752844349
784.0, 0.014979233503081127
785.0, 0.014726695573028584
786.0, 0.015021817295324338
787.0, 0.015196014142979792
788.0, 0.01708054093716836
789.0, 0.015907194153966124
790.0, 0.01450247864963966
791.0, 0.0140354577954598
792.0, 0.015124133488410038
793.0, 0.014939203810280596
794.0, 0.012685602222431968
795.0, 0.012349624588536503
796.0, 0.010268175459959615
797.0, 0.009267885626172678
798.0, 0.0086415695464691
799.0, 0.007014877550423418
800.0, 0.006302477618817106
801.0, 0.005991953027016353
802.0, 0.005674309947232547
803.0, 0.005416946723376167
804.0, 0.0038340263285248245
805.0, 0.0029829452519044408
806.0, 0.0033504359993473285
807.0, 0.004017647210880263
808.0, 0.003853787904137504
809.0, 0.004136681395606807
810.0, 0.003969283610533405
811.0, 0.0022953987442127645
812.0, 0.0016939766308989295
813.0, 0.0014625842776566584
814.0, 0.0011700983335243883
815.0, 0.001421567001597968
816.0, 0.001481171678478638
817.0, 0.00035642947218174684
818.0, 0.0008190484874971064
819.0, 0.0020595487634811516
820.0, 0.0014007626391810686
821.0, 0.0024986514223070276
822.0, 0.002009510156359209
823.0, 0.0006806567170847316
824.0, 0.0007547966748216977
825.0, 0.0018884208928727447
826.0, 0.0020838854702681224
827.0, 0.001281683367570576
828.0, 0.0009744186318703918
829.0, 0.0016324295940487968
830.0, 0.002417640837649505
831.0, 0.002693255697602974
832.0, 0.0004855741631456706
833.0, 0.0009069196741681319
834.0, 0.00035947172321004506
835.0, 0.0014971145367127618
836.0, 0.002268759002629863
837.0, 0.002200024682460019
838.0, 0.003444985610741327
839.0, 0.0024982766416359148
840.0, 0.0007509482874746622
841.0, 0.0016490004905005341
842.0, 0.0027574982873899306
843.0, 0.002371047806899542
844.0, 0.0019685259536431983
845.0, 0.0031284782528511568
846.0, 0.003196850911090258
847.0, 0.001474220842748239
848.0, 0.002272409001636073
849.0, 0.0022855013075099534
850.0, 0.001994519748196545
851.0, 0.0006214681962860526
852.0, 0.0018459023988919069
853.0, 0.002185390023124364
854.0, 0.002057521131292148
855.0, 0.001407506624664989
856.0, 0.000414342711133765
857.0, 0.0011280107146423427
858.0, 0.002998426910499217
859.0, 0.0027945596520199604
860.0, 0.0015393498722545433
861.0, 0.000673956581748135
862.0, 0.00031251031228822653
863.0, 0.0005145403992965359
864.0, 0.0007971924098571959
865.0, 0.0017462784738735081
866.0, 0.0033192007083432287
867.0, 0.0022840136779495317
868.0, 0.0022484339535241826
869.0, 0.0022504208900825146
870.0, 0.0016054090751473722
871.0, 0.0027228990858455078
872.0, 0.0018455921787057406
873.0, 0.0013623229262331716
874.0, 0.002087129975773739
875.0, 0.0019999246613554207
876.0, 0.0020992241385736398
877.0, 0.002798417471201574
878.0, 0.004437836214554299
879.0, 0.0035696115884215323
880.0, 0.003451530921227445
881.0, 0.003315104772497915
882.0, 0.0025613820375081312
883.0, 0.002567972088971012
884.0, 0.004212177122951498
885.0, 0.005448730332757335
886.0, 0.00437705556558289
887.0, 0.004159937990214951
888.0, 0.003840513231800266
889.0, 0.00452157318931872
890.0, 0.0044913299484735806
891.0, 0.004668253418224858
892.0, 0.005577902224945096
893.0, 0.006152689600807924
894.0, 0.005097292305554729
895.0, 0.004338768674026816
896.0, 0.0054796296188573184
897.0, 0.004555587764192714
898.0, 0.005103978349933841
899.0, 0.004115010695934818
900.0, 0.006192018868194301
901.0, 0.007160237084798153
902.0, 0.007295058683309745
903.0, 0.008684133382131266
904.0, 0.009256376451409953
905.0, 0.007284931578801051
906.0, 0.006741896117961399
907.0, 0.0081316510624318
908.0, 0.006933557307449572
909.0, 0.005285264196599105
910.0, 0.006005029367891453
911.0, 0.006094552113133584
912.0, 0.006004111981803972
913.0, 0.004693295879479203
914.0, 0.003494581108858844
915.0, 0.004293590552585827
916.0, 0.004932431518217009
917.0, 0.003924312644641528
918.0, 0.002960981239637259
919.0, 0.003066826140545108
920.0, 0.002378082998746191
921.0, 0.0016577921216431525
922.0, 0.001484022515297313
923.0, 0.001464533138916031
924.0, 0.0003574582959545143
925.0, 0.00010365277427497137
926.0, 0.0006238731242517922
927.0, 7.912403725876784e-05
928.0, 0.0007041549630889463
929.0, 0.0018992914178331652
930.0, 9.714229678026125e-05
931.0, 0.00013320412342226817
932.0, 0.000567612428910519
933.0, 0.0002736936126608722
934.0, 0.0004971666795231691
935.0, 0.0011050019395119235
936.0, 0.0007602137753773842
937.0, 0.0005910962488800952
938.0, 0.001162426650501853
939.0, 0.0005223689338964728
940.0, 0.000481133390602595
941.0, 0.002796182368233134
942.0, 0.001669651818750245
943.0, 0.000423438182476272
944.0, 0.0008376995796328657
945.0, 0.0009332369382438631
946.0, 0.0013177877366865446
947.0, 0.0008837835979701195
948.0, 0.0002844123887747806
949.0, 0.0002941963147133858
950.0, 4.9433809452244754e-05
951.0, 0.0004434200806966607
952.0, 0.0016057630358364975
953.0, 0.00102190545896402
954.0, 0.001357961774081565
955.0, 0.001934276061981144
956.0, 0.0024179035743702284
957.0, 0.002664538288596537
958.0, 0.003268479432274443
959.0, 0.0036816439258478234
960.0, 0.004379970231659471
961.0, 0.006939303049155946
962.0, 0.007654252771691936
963.0, 0.009041344149500781
964.0, 0.013424429892442068
965.0, 0.016079109878052368
966.0, 0.019092136292386087
967.0, 0.022932091091528373
968.0, 0.026199878011640174
969.0, 0.03181539664017563
970.0, 0.03891208477910089
971.0, 0.045224271706041326
972.0, 0.054589939745066735
973.0, 0.06608558516071598
974.0, 0.0766999369585664
975.0, 0.09127237331600352
976.0, 0.10240898944718807
977.0, 0.12024427065614382
978.0, 0.134166186210668
979.0, 0.15149430848940737
980.0, 0.16993380647573014
981.0, 0.1876576600098204
982.0, 0.20382261804779772
983.0, 0.2147366700353072
984.0, 0.2188850727316088
985.0, 0.2102635167493917
986.0, 0.1907627236004199
987.0, 0.16882613840756794
988.0, 0.14496182685383435
989.0, 0.12187600664240299
990.0, 0.10559320769543395
991.0, 0.09454589408394652
992.0, 0.083763897004726
993.0, 0.07587060976309971
994.0, 0.07078099450147882
995.0, 0.06741530112289619
996.0, 0.06630943172060089
997.0, 0.06253614272771357
998.0, 0.06379189125390754
999.0, 0.0651774989975651
1000.0, 0.07081563490819787
1001.0, 0.07572700878526945
1002.0, 0.08463867512815547
1003.0, 0.09819954038215971
1004.0, 0.11433239336336808
1005.0, 0.13399369473913655
1006.0, 0.15635560165431198
1007.0, 0.18051482377154382
1008.0, 0.2091535166346412
1009.0, 0.2455733028872647
1010.0, 0.2895058588680645
1011.0, 0.3401342062768326
1012.0, 0.40539550010164804
1013.0, 0.4770829713945751
1014.0, 0.5512926887152307
1015.0, 0.6166310631394889
1016.0, 0.6617203381628773
1017.0, 0.6888860624205694
1018.0, 0.7062899594702581
1019.0, 0.7332415613645522
1020.0, 0.781198750306891
1021.0, 0.8518100600958788
1022.0, 0.9353349685730303
1023.0, 0.9905435557891447
1024.0, 0.9871443901038394
1025.0, 0.8992300566109033
1026.0, 0.7553860963474314
1027.0, 0.598530325088533
1028.0, 0.45603624869456205
1029.0, 0.3429823715238149
1030.0, 0.25738943453449414
1031.0, 0.1959666023874823
1032.0, 0.15449400980633204
1033.0, 0.12377627514356404
1034.0, 0.09854062353982672
1035.0, 0.07930299820094261
1036.0, 0.06399987498499075
1037.0, 0.050646249100945305
1038.0, 0.041996373868425245
1039.0, 0.034536155118273404
1040.0, 0.02893906073254174
1041.0, 0.022131388836769284
1042.0, 0.019256411841869783
1043.0, 0.015075967342871907
1044.0, 0.013042682441261323
1045.0, 0.010281029222774945
1046.0, 0.007416623481724461
1047.0, 0.00592415895446121
1048.0, 0.0049215468153732435
1049.0, 0.004551673449918561
1050.0, 0.0035862794820941267
1051.0, 0.004110389857898276
1052.0, 0.0038304664207675873
1053.0, 0.006086602966315624
1054.0, 0.004717931231191599
1055.0, 0.007674338373553431
1056.0, 0.009239847494746605
1057.0, 0.010221352160803866
1058.0, 0.012460394543665963
1059.0, 0.01547150953119755
1060.0, 0.02052533859999459
1061.0, 0.025613460710823693
1062.0, 0.03032282053225159
1063.0, 0.03605839541333126
1064.0, 0.04276832104463278
1065.0, 0.05109530544707992
1066.0, 0.05697131569265317
1067.0, 0.06315070809468987
1068.0, 0.07193289370628819
1069.0, 0.07646682312220575
1070.0, 0.07818852796351267
1071.0, 0.07936030375274054
1072.0, 0.07689690288988361
1073.0, 0.07074033898651752
1074.0, 0.06136946466538827
1075.0, 0.051288735282788385
1076.0, 0.04248215268142048
1077.0, 0.03543412646415891
1078.0, 0.02784168724998781
1079.0, 0.020463956872977647
1080.0, 0.015919195912231683
1081.0, 0.01075946388907756
1082.0, 0.008663700586770903
1083.0, 0.007437458337170908
1084.0, 0.005569212439722137
1085.0, 0.0029019603473939407
1086.0, 0.0009022534167369021
1087.0, 0.00027013921971592424
1088.0, 0.001109996091241115
1089.0, 0.002111009479869536
1090.0, 0.0016791643448492602
1091.0, 0.0012789776601226923
1092.0, 0.0006999281952528359
1093.0, 0.0010553630377624188
1094.0, 0.0020856538739174907
1095.0, 0.0018238283740873414
1096.0, 0.002704911149853472
1097.0, 0.002602400012442965
1098.0, 0.00044635499616394527
1099.0, 0.0007161161917120169
1100.0, 0.0003108215641423142
1101.0, 0.001936166970671778
1102.0, 0.0021693384013191917
1103.0, 0.0024000345951017657
1104.0, 0.0035815078159133337
1105.0, 0.005713755733972927
1106.0, 0.007542686330979691
1107.0, 0.00983910344328218
1108.0, 0.012935298444499088
1109.0, 0.017272475106209814
1110.0, 0.020614588914149964
1111.0, 0.024322837668773935
1112.0, 0.02930033901480701
1113.0, 0.032344331600295824
1114.0, 0.03632303342769674
1115.0, 0.040863042903377514
1116.0, 0.04084963259024831
1117.0, 0.04489411612568881
1118.0, 0.0422394708067923
1119.0, 0.041407128967233836
1120.0, 0.03688986137532968
1121.0, 0.030424705348384623
1122.0, 0.028225598427748324
1123.0, 0.022015526842240615
1124.0, 0.01579185081672941
1125.0, 0.012126980626971332
1126.0, 0.009112242465423229
1127.0, 0.007028813620085969
1128.0, 0.0055956444945277775
1129.0, 0.00472882127004691
1130.0, 0.003946791486554206
1131.0, 0.002344429118530487
1132.0, 0.0009621891888347576
1133.0, 0.00022549961649543648
1134.0, 0.000830536826973197
1135.0, 0.0005954922502935126
1136.0, 0.0001013237931685996
1137.0, 0.000107784091356059
1138.0, 0.0003639443926933549
1139.0, 0.0008161034149388742
1140.0, 0.001370950468215827
1141.0, 0.0011996391951536265
1142.0, 0.000189636981332539
1143.0, 0.00016081700114895517
1144.0, 0.0004570536495541894
1145.0, 0.0006174098000124347
1146.0, 0.0005253077736263831
1147.0, 0.00017413773835883622
1148.0, 0.00010764985069736864
1149.0, 0.0004824936248602223
1150.0, 0.0005242846275115832
1151.0, 0.0009185927279237179
1152.0, 0.0012582499563562372
1153.0, 0.00038765606369303165
1154.0, 0.0009003525379705609
1155.0, 0.0007711009816839959
1156.0, 0.00027397843790316894
1157.0, 0.00025615172165194483
1158.0, 0.00021937464337673453
1159.0, 0.0006982228393062543
1160.0, 7.723549525338514e-05
1161.0, 0.0010887036134069918
1162.0, 0.0006920063425804042
1163.0, 0.0003743090632350594
1164.0, 0.002489736025206883
1165.0, 0.00231450025576944
1166.0, 0.0025914214810274934
1167.0, 0.002223935247230651
1168.0, 0.0014798473870312986
1169.0, 0.001361518949756423
1170.0, 0.0012453994613039032
1171.0, 0.0016797467026135277
1172.0, 0.001973271732523598
1173.0, 0.0015251255609286868
1174.0, 0.0014210563659377323
1175.0, 0.0016200237031308196
1176.0, 0.002144113795645472
1177.0, 0.0010651474325709385
1178.0, 0.0018171867836831858
1179.0, 0.0014768763797960126
1180.0, 0.0032544215659485115
1181.0, 0.002976681489123528
1182.0, 0.003472438626634504
1183.0, 0.0007845154409038919
1184.0, 0.0014454915639064347
1185.0, 0.0020852874276192936
1186.0, 0.0014820789016610123
1187.0, 0.0007291472110473675
1188.0, 0.0019535193530464713
1189.0, 0.0034192293385090114
1190.0, 0.003243256091503123
1191.0, 0.003018927196057572
1192.0, 0.0030871365354574387
1193.0, 0.003501591031952114
1194.0, 0.002893743894297896
1195.0, 0.0023790164974656883
1196.0, 0.0026155956636004112
1197.0, 0.0016390324621759894
1198.0, 0.0019862631811816047
1199.0, 0.0024988611676782994
1200.0, 0.002016453500482788
1201.0, 0.0020107603986182143
1202.0, 0.0013634352981777822
1203.0, 0.0026143495392424573
1204.0, 0.0015708983438122502
1205.0, 0.0016639697335292568
1206.0, 0.0020395848718348136
1207.0, 0.00363465470642609
1208.0, 0.0015003784277189966
1209.0, 8.096729584544085e-05
1210.0, 0.0016493877991118565
1211.0, 0.0020526058823532208
1212.0, 0.00125916201428229
1213.0, 0.0018567699165189097
1214.0, 0.0024307771151595523
1215.0, 0.0022303670311160546
1216.0, 0.0028805166264247945
1217.0, 0.002368493888100934
1218.0, 0.0018069845797958968
1219.0, 0.0015148072965461075
1220.0, 0.001250295609356496
1221.0, 0.0017205932628569804
1222.0, 0.001401600024545914
1223.0, 0.0013936220041210813
1224.0, 0.0025572462077012837
1225.0, 0.0020108815074454363
1226.0, 0.002219522884410456
1227.0, 0.003542195568190807
1228.0, 0.002208982554639802
1229.0, 0.002502919561764197
1230.0, 0.002924291833772701
1231.0, 0.00282853545353275
1232.0, 0.002483385156170396
1233.0, 7.915161529672465e-05
1234.0, 0.002169148121731093
1235.0, 0.0024775184923472994
1236.0, 0.002713601855923426
1237.0, 0.0009842155028076819
1238.0, 0.0007975446269034488
1239.0, 0.0029782907271340905
1240.0, 0.0008072870203685462
1241.0, 0.0010289369486425923
1242.0, 0.0016299918838168124
1243.0, 0.0021417765970925917
1244.0, 0.0010214828499048425
1245.0, 0.0008619717369246955
1246.0, 0.0011790089316031243
1247.0, 0.000847970086487234
1248.0, 0.0021839676401534916
1249.0, 0.002328209035973758
1250.0, 0.0018175629608137406
1251.0, 0.0017048500622327794
1252.0, 0.001291570041072696
1253.0, 0.0014213707172091937
1254.0, 0.002405680364846072
1255.0, 0.00230145320644181
1256.0, 0.001437076672553099
1257.0, 0.0014787171958687438
1258.0, 0.001772749343875203
1259.0, 0.0008571316111544614
1260.0, 0.0007000456050179077
1261.0, 0.0015931825649435187
1262.0, 0.0003672491638873249
1263.0, 0.0002758376711129851
1264.0, 0.001547669213770287
1265.0, 0.0018401714979600086
1266.0, 0.00021759519361898625
1267.0, 0.0011846719337987178
1268.0, 0.0014770345243253135
1269.0, 0.00016697212290445884
1270.0, 0.0009662750331264583
1271, 0.0
1272, 0.0
1273, 0.0
1274, 0.0
1275, 0.0
1276, 0.0
1277, 0.0
1278, 0.0
1279, 0.0
1280, 0.0
1281, 0.0
1282, 0.0
1283, 0.0
1284, 0.0
1285, 0.0
1286, 0.0
1287, 0.0
1288, 0.0
1289, 0.0
1290, 0.0
1291, 0.0
1292, 0.0
1293, 0.0
1294, 0.0
1295, 0.0
1296, 0.0
1297, 0.0
1298, 0.0
1299, 0.0
1300, 0.0
1301, 0.0
1302, 0.0
1303, 0.0
1304, 0.0
1305, 0.0
1306, 0.0
1307, 0.0
1308, 0.0
1309, 0.0
1310, 0.0
1311, 0.0
1312, 0.0
1313, 0.0
1314, 0.0
1315, 0.0
1316, 0.0
1317, 0.0
1318, 0.0
1319, 0.0
1320, 0.0
1321, 0.0
1322, 0.0
1323, 0.0
1324, 0.0
1325, 0.0
1326, 0.0
1327, 0.0
1328, 0.0
1329, 0.0
1330, 0.0
1331, 0.0
1332, 0.0
1333, 0.0
1334, 0.0
1335, 0.0
1336, 0.0
1337, 0.0
1338, 0.0
1339, 0.0
1340, 0.0
1341, 0.0
1342, 0.0
1343, 0.0
1344, 0.0
1345, 0.0
1346, 0.0
1347, 0.0
1348, 0.0
1349, 0.0
1350, 0.0
1351, 0.0
1352, 0.0
1353, 0.0
1354, 0.0
1355, 0.0
1356, 0.0
1357, 0.0
1358, 0.0
1359, 0.0
1360, 0.0
1361, 0.0
1362, 0.0
1363, 0.0
1364, 0.0
1365, 0.0
1366, 0.0
1367, 0.0
1368, 0.0
1369, 0.0
1370, 0.0
1371, 0.0
1372, 0.0
1373, 0.0
1374, 0.0
1375, 0.0
1376, 0.0
1377, 0.0
1378, 0.0
1379, 0.0
1380, 0.0
1381, 0.0
1382, 0.0
1383, 0.0
1384, 0.0
1385, 0.0
1386, 0.0
1387, 0.0
1388, 0.0
1389, 0.0
1390, 0.0
1391, 0.0
1392, 0.0
1393, 0.0
1394, 0.0
1395, 0.0
1396, 0.0
1397, 0.0
1398, 0.0
1399, 0.0
1400, 0.0
1401, 0.0
1402, 0.0
1403, 0.0
1404, 0.0
1405, 0.0
1406, 0.0
1407, 0.0
1408, 0.0
1409, 0.0
1410, 0.0
1411, 0.0
1412, 0.0
1413, 0.0
1414, 0.0
1415, 0.0
1416, 0.0
1417, 0.0
1418, 0.0
1419, 0.0
1420, 0.0
1421, 0.0
1422, 0.0
1423, 0.0
1424, 0.0
1425, 0.0
1426, 0.0
1427, 0.0
1428, 0.0
1429, 0.0
1430, 0.0
1431, 0.0
1432, 0.0
1433, 0.0
1434, 0.0
1435, 0.0
1436, 0.0
1437, 0.0
1438, 0.0
1439, 0.0
1440, 0.0
1441, 0.0
1442, 0.0
1443, 0.0
1444, 0.0
1445, 0.0
1446, 0.0
1447, 0.0
1448, 0.0
1449, 0.0
1450, 0.0
1451, 0.0
1452, 0.0
1453, 0.0
1454, 0.0
1455, 0.0
1456, 0.0
1457, 0.0
1458, 0.0
1459, 0.0
1460, 0.0
1461, 0.0
1462, 0.0
1463, 0.0
1464, 0.0
1465, 0.0
1466, 0.0
1467, 0.0
1468, 0.0
1469, 0.0
1470, 0.0
1471, 0.0
1472, 0.0
1473, 0.0
1474, 0.0
1475, 0.0
1476, 0.0
1477, 0.0
1478, 0.0
1479, 0.0
1480, 0.0
1481, 0.0
1482, 0.0
1483, 0.0
1484, 0.0
1485, 0.0
1486, 0.0
1487, 0.0
1488, 0.0
1489, 0.0
1490, 0.0
1491, 0.0
1492, 0.0
1493, 0.0
1494, 0.0
1495, 0.0
1496, 0.0
1497, 0.0
1498, 0.0
1499, 0.0
1500, 0.0
1501, 0.0
1502, 0.0
1503, 0.0
1504, 0.0
1505, 0.0
1506, 0.0
1507, 0.0
1508, 0.0
1509, 0.0
1510, 0.0
1511, 0.0
1512, 0.0
1513, 0.0
1514, 0.0
1515, 0.0
1516, 0.0
1517, 0.0
1518, 0.0
1519, 0.0
1520, 0.0
1521, 0.0
1522, 0.0
1523, 0.0
1524, 0.0
1525, 0.0
1526, 0.0
1527, 0.0
1528, 0.0
1529, 0.0
1530, 0.0
1531, 0.0
1532, 0.0
1533, 0.0
1534, 0.0
1535, 0.0
1536, 0.0
1537, 0.0
1538, 0.0
1539, 0.0
1540, 0.0
1541, 0.0
1542, 0.0
1543, 0.0
1544, 0.0
1545, 0.0
1546, 0.0
1547, 0.0
1548, 0.0
1549, 0.0
1550, 0.0
1551, 0.0
1552, 0.0
1553, 0.0
1554, 0.0
1555, 0.0
1556, 0.0
1557, 0.0
1558, 0.0
1559, 0.0
1560, 0.0
1561, 0.0
1562, 0.0
1563, 0.0
1564, 0.0
1565, 0.0
1566, 0.0
1567, 0.0
1568, 0.0
1569, 0.0
1570, 0.0
1571, 0.0
1572, 0.0
1573, 0.0
1574, 0.0
1575, 0.0
1576, 0.0
1577, 0.0
1578, 0.0
1579, 0.0
1580, 0.0
1581, 0.0
1582, 0.0
1583, 0.0
1584, 0.0
1585, 0.0
1586, 0.0
1587, 0.0
1588, 0.0
1589, 0.0
1590, 0.0
1591, 0.0
1592, 0.0
1593, 0.0
1594, 0.0
1595, 0.0
1596, 0.0
1597, 0.0
1598, 0.0
1599, 0.0
