30, 0.0
31, 0.0
32, 0.0
33, 0.0
34, 0.0
35, 0.0
36, 0.0
37, 0.0
38, 0.0
39, 0.0
40, 0.0
41, 0.0
42, 0.0
43, 0.0
44, 0.0
45, 0.0
46, 0.0
47, 0.0
48, 0.0
49, 0.0
50, 0.0
51, 0.0
52, 0.0
53, 0.0
54, 0.0
55, 0.0
56, 0.0
57, 0.0
58, 0.0
59, 0.0
60, 0.0
61, 0.0
62, 0.0
63, 0.0
64, 0.0
65, 0.0
66, 0.0
67, 0.0
68, 0.0
69, 0.0
70, 0.0
71, 0.0
72, 0.0
73, 0.0
74, 0.0
75, 0.0
76, 0.0
77, 0.0
78, 0.0
79, 0.0
80, 0.0
81, 0.0
82, 0.0
83, 0.0
84, 0.0
85, 0.0
86, 0.0
87, 0.0
88, 0.0
89, 0.0
90, 0.0
91, 0.0
92, 0.0
93, 0.0
94, 0.0
95, 0.0
96, 0.0
97, 0.0
98, 0.0
99, 0.0
100, 0.0
101, 0.0
102, 0.0
103, 0.0
104, 0.0
105, 0.0
106, 0.0
107, 0.0
108, 0.0
109, 0.0
110, 0.0
111, 0.0
112, 0.0
113, 0.0
114, 0.0
115, 0.0
116, 0.0
117, 0.0
118, 0.0
119, 0.0
120, 0.0
121, 0.0
122, 0.0
123, 0.0
124, 0.0
125, 0.0
126, 0.0
127, 0.0
128, 0.0
129, 0.0
130, 0.0
131, 0.0
132, 0.0
133, 0.0
134, 0.0
135, 0.0
136, 0.0
137, 0.0
138, 0.0
139, 0.0
140, 0.0
141, 0.0
142, 0.0
143, 0.0
144, 0.0
145, 0.0
146, 0.0
147, 0.0
148, 0.0
149, 0.0
150, 0.0
151, 0.0
152, 0.0
153, 0.0
154, 0.0
155, 0.0
156, 0.0
157, 0.0
158, 0.0
159, 0.0
160, 0.0
161, 0.0
162, 0.0
163, 0.0
164, 0.0
165, 0.0
166, 0.0
167, 0.0
168, 0.0
169, 0.0
170, 0.0
171, 0.0
172, 0.0
173, 0.0
174, 0.0
175, 0.0
176, 0.0
177, 0.0
178, 0.0
179, 0.0
180.0, 0.005121564948091103
181.0, 0.01532663288415249
182.0, 0.01859365646271767
183.0, 0.03757511247431275
184.0, 0.05406705901357767
185.0, 0.0541438406051009
186.0, 0.05825160812112589
187.0, 0.060076847976475105
188.0, 0.056620066614574416
189.0, 0.03656035225519401
190.0, 0.015967006922322446
191.0, 0.008950816123570671
192.0, 0.0029516130040292037
193.0, 0.00777197576768108
194.0, 0.0032324340702468367
195.0, 0.017338584430237565
196.0, 0.04053487333906805
197.0, 0.06487950746259949
198.0, 0.08808912047469429
199.0, 0.11067691869787807
200.0, 0.13373302977599258
201.0, 0.14991055686563395
202.0, 0.15585709203964893
203.0, 0.15527170023544049
204.0, 0.14764868952681748
205.0, 0.13095128242067128
206.0, 0.10991366724952031
207.0, 0.09400415292597922
208.0, 0.07767852215881697
209.0, 0.05826517040261019
210.0, 0.043379004768973946
211.0, 0.02814974783061628
212.0, 0.011250305528383698
213.0, 0.005619168672228966
214.0, 0.017201444001373096
215.0, 0.017982794307815745
216.0, 0.01189352952232232
217.0, 0.0035238179342067365
218.0, 0.0067782529511219505
219.0, 0.021049835966007888
220.0, 0.039577335515579314
221.0, 0.07793367947519336
222.0, 0.12334157905610747
223.0, 0.16155962540009358
224.0, 0.19700968264265686
225.0, 0.23346063314310736
226.0, 0.2622277362177691
227.0, 0.2943345462476246
228.0, 0.33816793741568013
229.0, 0.3450409693687708
230.0, 0.3680791496302225
231.0, 0.3988761887509538
232.0, 0.4246090960898215
233.0, 0.4474508558523215
234.0, 0.4687844973820961
235.0, 0.5033838846167127
236.0, 0.5439529540492399
237.0, 0.5799984491383133
238.0, 0.6187619469046807
239.0, 0.6726514035513579
240.0, 0.7310664087967487
241.0, 0.7816669283272013
242.0, 0.8211666814345078
243.0, 0.8703738807159924
244.0, 0.9043990683483899
245.0, 0.9305652810750636
246.0, 0.9518514249858092
247.0, 0.9585653247602415
248.0, 0.9750182000359019
249.0, 0.9935452047571304
250.0, 0.9965444555589209
251.0, 0.981995478602604
252.0, 0.9730582037098234
253.0, 0.9528477296332442
254.0, 0.9410008946162668
255.0, 0.9226123444513369
256.0, 0.8726061735188523
257.0, 0.804090893687912
258.0, 0.7469698705299355
259.0, 0.687294867524372
260.0, 0.624070805346659
261.0, 0.5656974838650388
262.0, 0.4984272308303267
263.0, 0.4597372212055952
264.0, 0.4296819383349843
265.0, 0.3960866153672879
266.0, 0.3705779297386711
267.0, 0.3539889036386253
268.0, 0.35154194795929833
269.0, 0.348392579369844
270.0, 0.3403214777176408
271.0, 0.3675815829125709
272.0, 0.38027990624387076
273.0, 0.40316923471657545
274.0, 0.4374284439899454
275.0, 0.4683278764114498
276.0, 0.49543373386917555
277.0, 0.5357770661397746
278.0, 0.5691098376715115
279.0, 0.5891861315660509
280.0, 0.6134509756627753
281.0, 0.6515965182568736
282.0, 0.6868203533002739
283.0, 0.691802330648069
284.0, 0.6842761914619023
285.0, 0.6978837652343136
286.0, 0.6955624084431055
287.0, 0.6802292199190964
288.0, 0.6575905182374774
289.0, 0.6349273216621608
290.0, 0.6180433066794973
291.0, 0.5978738088284816
292.0, 0.5720891976439318
293.0, 0.544050163241243
294.0, 0.5217456159828254
295.0, 0.5143609658892072
296.0, 0.5128456611566881
297.0, 0.5109124113459639
298.0, 0.5105086988314712
299.0, 0.5115774290004005
300.0, 0.5089865929064707
301.0, 0.515417215989084
302.0, 0.5157843485713097
303.0, 0.5088319042980546
304.0, 0.49929114471474473
305.0, 0.48723027475566055
306.0, 0.46190222727618546
307.0, 0.4288853420044277
308.0, 0.40033397171528023
309.0, 0.38217160923421956
310.0, 0.3672505265008753
311.0, 0.3335746314785443
312.0, 0.29751596030177463
313.0, 0.27121629394432645
314.0, 0.25628327426585684
315.0, 0.2271029871996028
316.0, 0.1947487862525545
317.0, 0.17902560060470268
318.0, 0.17511592112821223
319.0, 0.1686909491404237
320.0, 0.16700365407265538
321.0, 0.15240047567403803
322.0, 0.14556000950263476
323.0, 0.14817367960274863
324.0, 0.14582166477262126
325.0, 0.13385867407029425
326.0, 0.1297899769601212
327.0, 0.13161842266295687
328.0, 0.1281990464005457
329.0, 0.11570931798193414
330.0, 0.11157823026373047
331.0, 0.10483602876597972
332.0, 0.08920148020736343
333.0, 0.06988045674025858
334.0, 0.05487725789705199
335.0, 0.043039084385107715
336.0, 0.02608640077011353
337.0, 0.012712606940770897
338.0, 0.004839881938744992
339.0, 0.0027631245331130286
340.0, 0.014640105743253185
341.0, 0.016324259307556654
342.0, 0.01558654900170733
343.0, 0.011229049662793153
344.0, 0.00214137333318174
345.0, 0.0036810477943452387
346.0, 0.011049959840573319
347.0, 0.02680817011776462
348.0, 0.04035148738886406
349.0, 0.04541083366637861
350.0, 0.05425951322072557
351.0, 0.06774262946488152
352.0, 0.08171061772371731
353.0, 0.09207590797344507
354.0, 0.0976825333125049
355.0, 0.10215433193870327
356.0, 0.10851608698560954
357.0, 0.11604338907752004
358.0, 0.11623492047534058
359.0, 0.1098219807795508
360.0, 0.10706520569274951
361.0, 0.09360316226561437
362.0, 0.08640187344789686
363.0, 0.0790925665075989
364.0, 0.06603654411255067
365.0, 0.050042211311791436
366.0, 0.044653314381317664
367.0, 0.03650107207873429
368.0, 0.02940355147704889
369.0, 0.025614067674912845
370.0, 0.018680003900031803
371.0, 0.0034574010469022288
372.0, 0.003137159259207762
373.0, 0.010590988128175358
374.0, 0.016988624350981807
375.0, 0.016096347643401697
376.0, 0.030909647678171132
377.0, 0.025404892188812415
378.0, 0.021349252212968607
379.0, 0.02480539994003028
380.0, 0.02621430351946626
381.0, 0.017860341848949343
382.0, 0.013344168044825033
383.0, 0.006521923829785298
384.0, 0.002106837013013131
385.0, 0.002995020484471388
386.0, 0.011910714370928503
387.0, 0.01367087084259362
388.0, 0.016237570401829025
389.0, 0.02234297489681278
390.0, 0.03220262461872342
391.0, 0.04564557586824351
392.0, 0.052381068605083285
393.0, 0.06691807322979305
394.0, 0.07924632734367114
395.0, 0.08244150571173431
396.0, 0.0846183752220187
397.0, 0.10596323878441753
398.0, 0.11521237418675595
399.0, 0.12556463181742397
400.0, 0.13555129115643813
401.0, 0.13977446533569182
402.0, 0.15239427157186644
403.0, 0.17857824023420965
404.0, 0.19288483871385811
405.0, 0.20567444462227913
406.0, 0.2256192136064924
407.0, 0.24753936047514313
408.0, 0.2745068809828648
409.0, 0.3087053601943186
410.0, 0.33454433725634725
411.0, 0.358789064257497
412.0, 0.3943349176844455
413.0, 0.43465442483425787
414.0, 0.488586775584609
415.0, 0.5330582187164052
416.0, 0.5686602723213192
417.0, 0.6018059861560987
418.0, 0.6327462017150685
419.0, 0.6850533868322646
420.0, 0.7149239723135887
421.0, 0.7408867846146043
422.0, 0.7684097929200174
423.0, 0.784496175997609
424.0, 0.7920800748226207
425.0, 0.7900369042772003
426.0, 0.7748259647593021
427.0, 0.7650421613625509
428.0, 0.7626426774435399
429.0, 0.7341738805949298
430.0, 0.6937979749261539
431.0, 0.6730056187418584
432.0, 0.6593998604989157
433.0, 0.6367270883715178
434.0, 0.6055179773105738
435.0, 0.5991041196009149
436.0, 0.5846746207734292
437.0, 0.5805660885351726
438.0, 0.5796714355277586
439.0, 0.571687037191292
440.0, 0.5692352176930102
441.0, 0.5752700316543462
442.0, 0.5827322376159034
443.0, 0.5857451730682988
444.0, 0.5831281768945507
445.0, 0.5759250127175637
446.0, 0.5712504505964713
447.0, 0.5527121793746667
448.0, 0.5489680753347764
449.0, 0.5393042438353345
450.0, 0.5101938876332546
451.0, 0.4960154619684395
452.0, 0.4812599725579376
453.0, 0.4537701203242873
454.0, 0.4291074923044444
455.0, 0.4153633259336663
456.0, 0.40706382087380666
457.0, 0.3930440983186787
458.0, 0.38046865874309005
459.0, 0.3623924960987767
460.0, 0.3470505397709157
461.0, 0.34150329936122464
462.0, 0.33810013611904116
463.0, 0.3266841923095088
464.0, 0.3068221050499206
465.0, 0.2926549367593524
466.0, 0.2885432287230926
467.0, 0.2864682113539128
468.0, 0.27511446450021215
469.0, 0.2630882106555046
470.0, 0.2509098947446363
471.0, 0.2431319233759605
472.0, 0.24274381639547674
473.0, 0.24421656837155825
474.0, 0.2241860416617112
475.0, 0.22318527125814142
476.0, 0.2143548113905761
477.0, 0.2087711867123479
478.0, 0.21818710147812298
479.0, 0.2259649838844592
480.0, 0.22256665910791815
481.0, 0.21840015882202513
482.0, 0.21896746277795465
483.0, 0.221398862305125
484.0, 0.2202846507945402
485.0, 0.2134345304179873
486.0, 0.20959533716998557
487.0, 0.214761487625588
488.0, 0.2187948292403631
489.0, 0.21408711375054626
490.0, 0.20266437250957436
491.0, 0.19952206605018574
492.0, 0.20009303776122372
493.0, 0.19351948598969224
494.0, 0.18055874659548335
495.0, 0.16868186376628358
496.0, 0.16378113999693222
497.0, 0.15956826386283066
498.0, 0.1488493667098843
499.0, 0.14206247963893656
500.0, 0.13608870327784714
501.0, 0.12543711030532195
502.0, 0.11294931500394007
503.0, 0.10551807261671686
504.0, 0.10043722473563563
505.0, 0.10020656093551729
506.0, 0.09764626192570633
507.0, 0.08957027573730612
508.0, 0.08237178805797701
509.0, 0.0787958417191943
510.0, 0.06769252059512673
511.0, 0.06763247683308705
512.0, 0.06605588439450535
513.0, 0.05161931393219974
514.0, 0.04351131784874325
515.0, 0.040037247226460654
516.0, 0.042220795038142536
517.0, 0.04122691991911703
518.0, 0.036960236770503724
519.0, 0.03080344405655968
520.0, 0.01931664640777587
521.0, 0.011036529009359097
522.0, 0.01817744442765165
523.0, 0.017620923577766866
524.0, 0.00978676111919321
525.0, 0.007601457345130779
526.0, 0.006981595320198653
527.0, 0.005564789666089845
528.0, 0.0033202423644978344
529.0, 0.0007423963091097414
530.0, 0.0013124514656100285
531.0, 0.005872177467301425
532.0, 0.0033113122959173703
533.0, 0.000802787536145936
534.0, 0.00410065785120376
535.0, 0.00842905813496418
536.0, 0.011689125612706882
537.0, 0.013507011699922501
538.0, 0.010961530614654944
539.0, 0.004169446495285971
540.0, 0.001154905867832369
541.0, 0.001749756661626184
542.0, 0.0001334859011639265
543.0, 0.0028980076967014814
544.0, 0.0073252642249959695
545.0, 0.005778658533529932
546.0, 0.01047674992431669
547.0, 0.008517493387716395
548.0, 0.005468645832140293
549.0, 0.011168991157636076
550.0, 0.012870692781618587
551.0, 0.0067346735636328705
552.0, 0.00047190601596767663
553.0, 0.0032212558352205873
554.0, 0.008015530862349357
555.0, 0.006095541702686783
556.0, 0.0010846423430082447
557.0, 0.0026201627977913626
558.0, 0.0013838871256645238
559.0, 0.003097795766988334
560.0, 0.0036664359800505793
561.0, 0.0004012523800703772
562.0, 0.005380210898538864
563.0, 0.018903286458297624
564.0, 0.01124886419978644
565.0, 0.010351903757607066
566.0, 0.019113911045883086
567.0, 0.01954806080338923
568.0, 0.004470220313434725
569.0, 0.01693200454347902
570.0, 0.013729431709760747
571.0, 0.02237501773062426
572.0, 0.028197095325270614
573.0, 0.03145852756424517
574.0, 0.03926644601816623
575.0, 0.03464309885577934
576.0, 0.04425327102488282
577.0, 0.05094819568436308
578.0, 0.05762484557022296
579.0, 0.06255651665383824
580.0, 0.06756247654125505
581.0, 0.081481678242691
582.0, 0.08400715698653813
583.0, 0.09274294874669367
584.0, 0.1007333136813463
585.0, 0.10807847220862
586.0, 0.11913807364059022
587.0, 0.13200560061463112
588.0, 0.13885608718306464
589.0, 0.1535795138635898
590.0, 0.16739213224599975
591.0, 0.1794322454131297
592.0, 0.19517602861692127
593.0, 0.21297585432493238
594.0, 0.22259859386759803
595.0, 0.23452415404710697
596.0, 0.23000533315181945
597.0, 0.24570141470940818
598.0, 0.2629760841223737
599.0, 0.27069375280153185
600.0, 0.27734855842474476
601.0, 0.27481653387660726
602.0, 0.28754905918112716
603.0, 0.29602111206457876
604.0, 0.29459913518833986
605.0, 0.2942319236881635
606.0, 0.29735442548906243
607.0, 0.2956002199758097
608.0, 0.29901337072408457
609.0, 0.29217332888030445
610.0, 0.29808278276792477
611.0, 0.30795998623366905
612.0, 0.3099579355456486
613.0, 0.3119367339794549
614.0, 0.32318718313362327
615.0, 0.32718643875125547
616.0, 0.334946101954045
617.0, 0.33720756649718125
618.0, 0.3385405425456651
619.0, 0.3419606441346143
620.0, 0.3364172989176808
621.0, 0.34453772030646496
622.0, 0.35011733834417275
623.0, 0.34321713328400627
624.0, 0.3337826037008023
625.0, 0.3298689565456046
626.0, 0.3290605103427352
627.0, 0.3233251939232856
628.0, 0.30203921522351557
629.0, 0.2872126175882619
630.0, 0.28536802340087924
631.0, 0.27686714520300276
632.0, 0.2634293560354439
633.0, 0.2621264546679007
634.0, 0.25541957294450385
635.0, 0.23752293243137965
636.0, 0.23206315968459315
637.0, 0.22655542037527668
638.0, 0.22196668643478942
639.0, 0.2182156070854004
640.0, 0.20668237716393098
641.0, 0.19556396201667223
642.0, 0.18559823986126567
643.0, 0.1826495684682414
644.0, 0.18994472707425095
645.0, 0.18543682746861798
646.0, 0.17027439817020842
647.0, 0.1733601774549034
648.0, 0.16364070961298843
649.0, 0.1542556148502542
650.0, 0.15172695007880535
651.0, 0.15062186117582066
652.0, 0.14603573845897327
653.0, 0.13941553501375623
654.0, 0.13715274527951576
655.0, 0.1410511693710681
656.0, 0.13990408445678326
657.0, 0.13583436379483776
658.0, 0.1299509009513356
659.0, 0.12960254969375984
660.0, 0.13464032155484867
661.0, 0.12809815232084137
662.0, 0.11102304354434825
663.0, 0.1214481572790564
664.0, 0.10970119393192113
665.0, 0.10126744666738381
666.0, 0.10880864059695479
667.0, 0.10536249901711066
668.0, 0.09585439970770909
669.0, 0.09217158042037107
670.0, 0.09027915500310225
671.0, 0.07633125969249442
672.0, 0.07730208297666423
673.0, 0.0848154667952067
674.0, 0.07724154955777084
675.0, 0.07098513141129724
676.0, 0.06526729300868504
677.0, 0.06212332196332159
678.0, 0.058951216964147936
679.0, 0.05679415006945617
680.0, 0.050204127719897296
681.0, 0.04001831931134979
682.0, 0.037662363254761265
683.0, 0.041028082756272656
684.0, 0.03815627426120195
685.0, 0.03004788837665516
686.0, 0.02122562927691639
687.0, 0.016909350427014185
688.0, 0.014394146319644951
689.0, 0.008951018420654488
690.0, 0.01735642064239169
691.0, 0.014792582458225621
692.0, 0.007593667616849362
693.0, 0.0056272593859271
694.0, 0.004271631108552497
695.0, 0.004522329069573557
696.0, 0.010762460500430589
697.0, 0.0027819844137022777
698.0, 0.007366166206619853
699.0, 0.0023827973207284584
700.0, 0.006110051359138212
701.0, 0.0051462601323427224
702.0, 0.0052758435447357675
703.0, 0.007988226854445665
704.0, 0.003167733654614913
705.0, 0.0004866273658404452
706.0, 0.002177814918096588
707.0, 0.0048312746749291265
708.0, 0.006558488224544773
709.0, 0.0050396675994694015
710.0, 0.001500104342803801
711.0, 0.004828938523700409
712.0, 0.007655225767314611
713.0, 0.031284127087095534
714.0, 0.027777496937008206
715.0, 0.019636679615490246
716.0, 0.020806936574641652
717.0, 0.024977033705493555
718.0, 0.029558299787813068
719.0, 0.03689286779381059
720.0, 0.04196487697059583
721.0, 0.04380430652704467
722.0, 0.04368934213676835
723.0, 0.04776738974908003
724.0, 0.0513490669888243
725.0, 0.047568427848533004
726.0, 0.04251867684497791
727.0, 0.0437314375715521
728.0, 0.04082934262194218
729.0, 0.036971063163871734
730.0, 0.031213329468095574
731.0, 0.02803573719950158
732.0, 0.028275245630695722
733.0, 0.02564894955442994
734.0, 0.018917144282207272
735.0, 0.01679610375805043
736.0, 0.01153286039062895
737.0, 0.01294938816323675
738.0, 0.013228901374085106
739.0, 0.0044199462347084845
740.0, 0.0008520049829481713
741.0, 0.00922856307635964
742.0, 0.0070812677750207486
743.0, 0.0019547017851280937
744.0, 0.0009292831695376984
745.0, 0.012554364088017566
746.0, 0.019167667405808962
747.0, 0.013908531589064306
748.0, 0.004943203730438271
749.0, 0.004357552450388631
750.0, 0.0012098575187817376
751.0, 0.0015614345388904741
752.0, 0.003331402217554589
753.0, 0.004036066427651986
754.0, 0.010256091946000336
755.0, 0.012679995194228227
756.0, 0.01608093222959843
757.0, 0.018382104100545388
758.0, 0.02047976117833507
759.0, 0.022337686496440412
760.0, 0.024533182731339895
761.0, 0.028658768201751027
762.0, 0.039841634638470846
763.0, 0.04878764667022714
764.0, 0.052637329434174075
765.0, 0.060173521056826294
766.0, 0.06191055132340596
767.0, 0.0763933829181716
768.0, 0.07605041170069791
769.0, 0.0773197920759024
770.0, 0.09744350938958031
771.0, 0.11119508834652468
772.0, 0.10818203012763741
773.0, 0.12369777071091403
774.0, 0.125645905693954
775.0, 0.12658375569229158
776.0, 0.13336270681543666
777.0, 0.1454804748599904
778.0, 0.1561094412622282
779.0, 0.1669971756750291
780.0, 0.17740714768712174
781.0, 0.1844210652472429
782.0, 0.20333981454725616
783.0, 0.21764129720997827
784.0, 0.217357004757363
785.0, 0.22908588824403806
786.0, 0.23982134678511177
787.0, 0.24139784339936224
788.0, 0.24690801337078033
789.0, 0.26417015328599425
790.0, 0.27597295401540295
791.0, 0.28108406380058837
792.0, 0.28676596749599026
793.0, 0.2964058185581797
794.0, 0.298428846778949
795.0, 0.2966960909748097
796.0, 0.29410889449918487
797.0, 0.29150850363872444
798.0, 0.2991474011782971
799.0, 0.28810992858737755
800.0, 0.2774104472079459
801.0, 0.2779249892314524
802.0, 0.2734166818533172
803.0, 0.2691467436142147
804.0, 0.26845244692507186
805.0, 0.2661219581044564
806.0, 0.25813812897981847
807.0, 0.2513906132117732
808.0, 0.2654483603111484
809.0, 0.2565674159695548
810.0, 0.2698985716836479
811.0, 0.2661203798486774
812.0, 0.2681657028801361
813.0, 0.281131354875915
814.0, 0.2845493807327209
815.0, 0.3023187537571184
816.0, 0.3138117937128474
817.0, 0.330225073691923
818.0, 0.3403441979839231
819.0, 0.3595923495446499
820.0, 0.3679172926030786
821.0, 0.37890038320463487
822.0, 0.3975535453890732
823.0, 0.4127247960667453
824.0, 0.4387530514400273
825.0, 0.442362731427969
826.0, 0.4486819200277939
827.0, 0.46169340718885415
828.0, 0.45378178619044
829.0, 0.4461403413962185
830.0, 0.4447310488293436
831.0, 0.43687986221106323
832.0, 0.42375279738350563
833.0, 0.4109079318352592
834.0, 0.40074008034919417
835.0, 0.37802973648409044
836.0, 0.36379376255466855
837.0, 0.34604627981974323
838.0, 0.3300022108878856
839.0, 0.31419282828759165
840.0, 0.2916713461358368
841.0, 0.27016059936049586
842.0, 0.2593252623075532
843.0, 0.2508469751249611
844.0, 0.2336694012247722
845.0, 0.2211839546958706
846.0, 0.20468092875002955
847.0, 0.18998776127767594
848.0, 0.18048149183991805
849.0, 0.17138651302859328
850.0, 0.16232283442921433
851.0, 0.15422113710254134
852.0, 0.13746365468909638
853.0, 0.1300244774543268
854.0, 0.11765381918711591
855.0, 0.1095846508790387
856.0, 0.10116816107689477
857.0, 0.09216917526375197
858.0, 0.07991276058684306
859.0, 0.06604761570223276
860.0, 0.06299170704513449
861.0, 0.055416494770281384
862.0, 0.04462270638385668
863.0, 0.03805771791294853
864.0, 0.03501243834418881
865.0, 0.03000597184398795
866.0, 0.030152440303663774
867.0, 0.02767680001315486
868.0, 0.018304637995935607
869.0, 0.013308408418787122
870.0, 0.0048043776772764175
871.0, 0.0063184669191479635
872.0, 0.006178936606165068
873.0, 0.0009707976800168456
874.0, 0.0020185368044741353
875.0, 0.004488406945095584
876.0, 0.008037297666863825
877.0, 0.00820069349201522
878.0, 0.003001029767823243
879.0, 0.004636889171903287
880.0, 0.002385878938131013
881.0, 0.005014976730716583
882.0, 0.0008675701935039828
883.0, 0.003876643703241698
884.0, 0.006852611361635339
885.0, 0.002779921704453167
886.0, 0.0031420537646623683
887.0, 0.004119161958837414
888.0, 0.0014341190272914401
889.0, 0.015322151643757631
890.0, 0.0013572434586309537
891.0, 0.001015849142403567
892.0, 0.005708217564608007
893.0, 0.004129847571023455
894.0, 0.0033246209022359707
895.0, 0.004879941831336735
896.0, 0.0014538512441010314
897.0, 0.002972936721043895
898.0, 0.0017416164653866137
899.0, 0.005945466185312048
900.0, 0.0019566060118689234
901.0, 0.006795113608073141
902.0, 0.002428540107987214
903.0, 0.007169822372117196
904.0, 0.0021235060378196617
905.0, 0.0005678117696289989
906.0, 0.003357048450250177
907.0, 0.0016170447270391964
908.0, 0.00515393723514035
909.0, 0.0020026997806811765
910.0, 0.00110446949356227
911.0, 0.0014944324741610485
912.0, 0.0016638152597327595
913.0, 0.0009021884520453643
914.0, 0.004414313896296479
915.0, 0.003192633621342575
916.0, 0.0033304597918854756
917.0, 0.0010640100697927055
918.0, 0.00024610013251873423
919.0, 0.0027787724845115542
920.0, 0.0030024052277586987
921.0, 0.006142893664283102
922.0, 0.0007095069712991249
923.0, 0.0009782553432751554
924.0, 0.0006663730239167757
925.0, 0.002825190429917195
926.0, 0.0016703111076100709
927.0, 0.0033878397216244374
928.0, 0.006075133052716823
929.0, 0.0011394933040165492
930.0, 0.0005997778954375817
931.0, 0.005361122076326863
932.0, 0.004932573946476209
933.0, 0.0033400027194351624
934.0, 0.006622884185314753
935.0, 0.005686235228326859
936.0, 0.006175981517535639
937.0, 0.010463811462310285
938.0, 0.010969200498132953
939.0, 0.009930945198499646
940.0, 0.010208334573940481
941.0, 0.00438706804027988
942.0, 0.0047491510784984725
943.0, 0.004308189535028973
944.0, 0.006950657963970351
945.0, 0.009757435154528793
946.0, 0.012134778942493143
947.0, 0.010354066862580332
948.0, 0.006568547131533585
949.0, 0.004246833375231373
950.0, 0.006343440912966678
951.0, 0.01140219245623263
952.0, 0.010630450398856033
953.0, 0.01395249977809301
954.0, 0.015428590913291126
955.0, 0.014971052122059963
956.0, 0.01359921098797514
957.0, 0.009986246083281757
958.0, 0.010274687534843152
959.0, 0.01321402584668485
960.0, 0.01747040497636886
961.0, 0.01995154969036241
962.0, 0.018614807649285508
963.0, 0.019468589646453687
964.0, 0.014029065287223445
965.0, 0.016302644410495573
966.0, 0.01710403966915126
967.0, 0.011776852546573699
968.0, 0.021766230678673046
969.0, 0.021829498151828712
970.0, 0.017009466103079324
971.0, 0.01549211876360633
972.0, 0.018190945170529854
973.0, 0.02206780883759782
974.0, 0.02222649872949241
975.0, 0.019944319039733534
976.0, 0.013326001995250806
977.0, 0.02114252038945238
978.0, 0.01772052430599816
979.0, 0.01722013153261255
980.0, 0.016403850107940703
981.0, 0.01681617583192545
982.0, 0.021586238214097924
983.0, 0.018376518745339125
984.0, 0.017264098679435992
985.0, 0.02257452393494686
986.0, 0.01644150476389366
987.0, 0.010348577230203876
988.0, 0.0055846103966793355
989.0, 0.010464235909606465
990.0, 0.012088300604928142
991.0, 0.014102986400912102
992.0, 0.008580451006404224
993.0, 0.005623355562286767
994.0, 0.007263616321344022
995.0, 0.016167775475158217
996.0, 0.01648456645356626
997.0, 0.0106002989088365
998.0, 0.015521786739024518
999.0, 0.014630125478926304
1000.0, 0.012276463109851855
1001.0, 0.00984645120540588
1002.0, 0.011710625472958437
1003.0, 0.009916654149965053
1004.0, 0.010886112972855752
1005.0, 0.01663320629080512
1006.0, 0.014688658696319756
1007.0, 0.01154133798762872
1008.0, 0.009853202276428736
1009.0, 0.011264059128073723
1010.0, 0.010490590912307467
1011.0, 0.005312804880785283
1012.0, 0.01289011916197293
1013.0, 0.013693365500906721
1014.0, 0.009286464889023405
1015.0, 0.012201508984118882
1016.0, 0.009690955878625467
1017.0, 0.012484799344934747
1018.0, 0.015067662233128658
1019.0, 0.005980550263841248
1020.0, 0.007438861677126693
1021.0, 0.008700947939884416
1022.0, 0.004713443399227823
1023.0, 0.005468471247766272
1024.0, 0.0028235141054644844
1025.0, 0.0031141923258009973
1026.0, 0.006754652391405686
1027.0, 0.002064930207540115
1028.0, 0.0036971952328855857
1029.0, 0.002675706477674692
1030.0, 0.003944210286707632
1031.0, 0.010824133036292545
1032.0, 0.011077795030674855
1033.0, 0.009441482485378488
1034.0, 0.007467172244391453
1035.0, 0.006579098551069422
1036.0, 0.006238702000043826
1037.0, 0.0055629607574226875
1038.0, 0.008764759731831348
1039.0, 0.009827804383672931
1040.0, 0.011199181518888528
1041.0, 0.0026823969143845217
1042.0, 0.006962236805965739
1043.0, 0.007569309900706761
1044.0, 0.0057791870596112715
1045.0, 0.0069922013191132965
1046.0, 0.010188108987929021
1047.0, 0.008571029531178965
1048.0, 0.008782857493409875
1049.0, 0.011979781049630479
1050.0, 0.009977716067650447
1051.0, 0.00621393015059161
1052.0, 0.00878450507544733
1053.0, 0.015713762145070337
1054.0, 0.007804484875039835
1055.0, 0.001649074251409868
1056.0, 0.012095295875256103
1057.0, 0.012768331151220972
1058.0, 0.00917606243722667
1059.0, 0.009831275568733236
1060.0, 0.006674113826751623
1061.0, 0.0039232500650239616
1062.0, 0.0033750162173135177
1063.0, 0.006825154405192917
1064.0, 0.008188209963676883
1065.0, 0.007044780879787917
1066.0, 0.00872263692100065
1067.0, 0.0028023153522562776
1068.0, 0.0006050803121502237
1069.0, 0.004161893623102341
1070.0, 0.004408052494765185
1071.0, 0.00230774352459841
1072.0, 0.005327515749117345
1073.0, 0.00678043460368181
1074.0, 0.005329667607349172
1075.0, 0.0035104764035860103
1076.0, 0.006724228909385091
1077.0, 0.004897481752537293
1078.0, 0.0012565521538604229
1079.0, 0.004450186153901558
1080.0, 0.01009349322621508
1081.0, 0.006458336868667461
1082.0, 0.008731073349982249
1083.0, 0.009955731275080856
1084.0, 0.000947733949489952
1085.0, 0.005328038877716128
1086.0, 0.0047844432631809885
1087.0, 0.0016938053436535824
1088.0, 0.003129465507725097
1089.0, 0.0010964372260702728
1090.0, 0.0017616944997424961
1091.0, 0.005749309214816585
1092.0, 0.0076824235605474555
1093.0, 0.005355842533451402
1094.0, 0.008661579415061016
1095.0, 0.010925513072893809
1096.0, 0.008086473834790709
1097.0, 0.008905448456514328
1098.0, 0.0068106718788619545
1099.0, 0.004711788707788319
1100.0, 0.004576372526726858
1101.0, 0.0038393272913985316
1102.0, 0.0008590915489093148
1103.0, 0.0008390220796099922
1104.0, 0.0035400450943267143
1105.0, 0.0017289325685690598
1106.0, 0.0015124810363991764
1107.0, 0.002571929818801126
1108.0, 0.004710546908747603
1109.0, 0.00239270164269616
1110.0, 0.007045316950809392
1111.0, 0.005727142296212273
1112.0, 0.0016372438496783763
1113.0, 0.005226017439665864
1114.0, 0.007274471878563875
1115.0, 0.006289659590231288
1116.0, 0.00294724496994976
1117.0, 0.001330646819787077
1118.0, 0.0015680916586308005
1119.0, 0.004415384418327582
1120.0, 0.0022981574576509483
1121.0, 0.006373431873872475
1122.0, 0.007182342945655928
1123.0, 0.0057550331327273
1124.0, 0.004848259588880009
1125.0, 0.008052553071021295
1126.0, 0.003951100675593286
1127.0, 0.005552198977335322
1128.0, 0.004431940987310255
1129.0, 0.003761989594772599
1130.0, 0.007895461029540573
1131.0, 0.005536853003075849
1132.0, 0.0029869449320457124
1133.0, 0.005594053794136684
1134.0, 0.0038222152133594893
1135.0, 0.002740229172169431
1136.0, 0.0018593892529211308
1137.0, 0.006635495303572779
1138.0, 0.0032982538289164113
1139.0, 0.0029756407112355183
1140.0, 0.000995795975323328
1141.0, 0.005294000341933923
1142.0, 0.004720305504720427
1143.0, 0.0007857751038036578
1144.0, 0.007534043440433485
1145.0, 0.0082009554232588
1146.0, 0.002208064609779168
1147.0, 0.0031012926586598205
1148.0, 0.005543877156137205
1149.0, 0.009547792906418669
1150.0, 0.0022897821011244194
1151.0, 0.0014413122398221289
1152.0, 0.0015144572651834703
1153.0, 0.002529991705899008
1154.0, 0.002237946330471442
1155.0, 0.007110463408066739
1156.0, 0.0040708444210246575
1157.0, 0.005380204505377306
1158.0, 0.00572047280553411
1159.0, 0.004200255572035969
1160.0, 0.0004055780886333944
1161.0, 0.00688300348373497
1162.0, 0.002000039281129243
1163.0, 0.004420039693334495
1164.0, 0.005372564679544225
1165.0, 0.00806604826199513
1166.0, 0.007617159337985451
1167.0, 0.006053565825940278
1168.0, 0.009194792566912142
1169.0, 0.008791040442224346
1170.0, 0.0036629010354655793
1171.0, 0.005620597169325897
1172.0, 0.006171084721197732
1173.0, 0.005124650809110705
1174.0, 0.005758438352287997
1175.0, 0.0005220977000719162
1176.0, 0.005782744097880938
1177.0, 0.0053656224268329895
1178.0, 0.009612497427791272
1179.0, 0.006201194660156836
1180.0, 0.006599725684681803
1181.0, 0.004644450466976362
1182.0, 0.0003498270538110479
1183.0, 0.0035261597294520765
1184.0, 0.007042062712507717
1185.0, 0.010552486814458565
1186.0, 0.006995906111820738
1187.0, 0.0008220286897310468
1188.0, 0.005675958155076351
1189.0, 0.004238828889462153
1190.0, 0.002506749224196955
1191.0, 0.0018917650769168697
1192.0, 0.0027173306392377443
1193.0, 0.0025296051662141417
1194.0, 0.002400482638534179
1195.0, 0.007623489514667247
1196.0, 0.0051559408419803564
1197.0, 0.0004503989230250319
1198.0, 0.0039977976546091655
1199.0, 0.00503464961624049
1200.0, 0.004424365063466587
1201.0, 0.009153259875867414
1202.0, 0.011540977590953844
1203.0, 0.004584813133201601
1204.0, 0.004800443605712681
1205.0, 0.0015632820359686556
1206.0, 0.004393520787717063
1207, 0.0
1208, 0.0
1209, 0.0
1210, 0.0
1211, 0.0
1212, 0.0
1213, 0.0
1214, 0.0
1215, 0.0
1216, 0.0
1217, 0.0
1218, 0.0
1219, 0.0
1220, 0.0
1221, 0.0
1222, 0.0
1223, 0.0
1224, 0.0
1225, 0.0
1226, 0.0
1227, 0.0
1228, 0.0
1229, 0.0
1230, 0.0
1231, 0.0
1232, 0.0
1233, 0.0
1234, 0.0
1235, 0.0
1236, 0.0
1237, 0.0
1238, 0.0
1239, 0.0
1240, 0.0
1241, 0.0
1242, 0.0
1243, 0.0
1244, 0.0
1245, 0.0
1246, 0.0
1247, 0.0
1248, 0.0
1249, 0.0
1250, 0.0
1251, 0.0
1252, 0.0
1253, 0.0
1254, 0.0
1255, 0.0
1256, 0.0
1257, 0.0
1258, 0.0
1259, 0.0
1260, 0.0
1261, 0.0
1262, 0.0
1263, 0.0
1264, 0.0
1265, 0.0
1266, 0.0
1267, 0.0
1268, 0.0
1269, 0.0
1270, 0.0
1271, 0.0
1272, 0.0
1273, 0.0
1274, 0.0
1275, 0.0
1276, 0.0
1277, 0.0
1278, 0.0
1279, 0.0
1280, 0.0
1281, 0.0
1282, 0.0
1283, 0.0
1284, 0.0
1285, 0.0
1286, 0.0
1287, 0.0
1288, 0.0
1289, 0.0
1290, 0.0
1291, 0.0
1292, 0.0
1293, 0.0
1294, 0.0
1295, 0.0
1296, 0.0
1297, 0.0
1298, 0.0
1299, 0.0
1300, 0.0
1301, 0.0
1302, 0.0
1303, 0.0
1304, 0.0
1305, 0.0
1306, 0.0
1307, 0.0
1308, 0.0
1309, 0.0
1310, 0.0
1311, 0.0
1312, 0.0
1313, 0.0
1314, 0.0
1315, 0.0
1316, 0.0
1317, 0.0
1318, 0.0
1319, 0.0
1320, 0.0
1321, 0.0
1322, 0.0
1323, 0.0
1324, 0.0
1325, 0.0
1326, 0.0
1327, 0.0
1328, 0.0
1329, 0.0
1330, 0.0
1331, 0.0
1332, 0.0
1333, 0.0
1334, 0.0
1335, 0.0
1336, 0.0
1337, 0.0
1338, 0.0
1339, 0.0
1340, 0.0
1341, 0.0
1342, 0.0
1343, 0.0
1344, 0.0
1345, 0.0
1346, 0.0
1347, 0.0
1348, 0.0
1349, 0.0
1350, 0.0
1351, 0.0
1352, 0.0
1353, 0.0
1354, 0.0
1355, 0.0
1356, 0.0
1357, 0.0
1358, 0.0
1359, 0.0
1360, 0.0
1361, 0.0
1362, 0.0
1363, 0.0
1364, 0.0
1365, 0.0
1366, 0.0
1367, 0.0
1368, 0.0
1369, 0.0
1370, 0.0
1371, 0.0
1372, 0.0
1373, 0.0
1374, 0.0
1375, 0.0
1376, 0.0
1377, 0.0
1378, 0.0
1379, 0.0
1380, 0.0
1381, 0.0
1382, 0.0
1383, 0.0
1384, 0.0
1385, 0.0
1386, 0.0
1387, 0.0
1388, 0.0
1389, 0.0
1390, 0.0
1391, 0.0
1392, 0.0
1393, 0.0
1394, 0.0
1395, 0.0
1396, 0.0
1397, 0.0
1398, 0.0
1399, 0.0
1400, 0.0
1401, 0.0
1402, 0.0
1403, 0.0
1404, 0.0
1405, 0.0
1406, 0.0
1407, 0.0
1408, 0.0
1409, 0.0
1410, 0.0
1411, 0.0
1412, 0.0
1413, 0.0
1414, 0.0
1415, 0.0
1416, 0.0
1417, 0.0
1418, 0.0
1419, 0.0
1420, 0.0
1421, 0.0
1422, 0.0
1423, 0.0
1424, 0.0
1425, 0.0
1426, 0.0
1427, 0.0
1428, 0.0
1429, 0.0
1430, 0.0
1431, 0.0
1432, 0.0
1433, 0.0
1434, 0.0
1435, 0.0
1436, 0.0
1437, 0.0
1438, 0.0
1439, 0.0
1440, 0.0
1441, 0.0
1442, 0.0
1443, 0.0
1444, 0.0
1445, 0.0
1446, 0.0
1447, 0.0
1448, 0.0
1449, 0.0
1450, 0.0
1451, 0.0
1452, 0.0
1453, 0.0
1454, 0.0
1455, 0.0
1456, 0.0
1457, 0.0
1458, 0.0
1459, 0.0
1460, 0.0
1461, 0.0
1462, 0.0
1463, 0.0
1464, 0.0
1465, 0.0
1466, 0.0
1467, 0.0
1468, 0.0
1469, 0.0
1470, 0.0
1471, 0.0
1472, 0.0
1473, 0.0
1474, 0.0
1475, 0.0
1476, 0.0
1477, 0.0
1478, 0.0
1479, 0.0
1480, 0.0
1481, 0.0
1482, 0.0
1483, 0.0
1484, 0.0
1485, 0.0
1486, 0.0
1487, 0.0
1488, 0.0
1489, 0.0
1490, 0.0
1491, 0.0
1492, 0.0
1493, 0.0
1494, 0.0
1495, 0.0
1496, 0.0
1497, 0.0
1498, 0.0
1499, 0.0
1500, 0.0
1501, 0.0
1502, 0.0
1503, 0.0
1504, 0.0
1505, 0.0
1506, 0.0
1507, 0.0
1508, 0.0
1509, 0.0
1510, 0.0
1511, 0.0
1512, 0.0
1513, 0.0
1514, 0.0
1515, 0.0
1516, 0.0
1517, 0.0
1518, 0.0
1519, 0.0
1520, 0.0
1521, 0.0
1522, 0.0
1523, 0.0
1524, 0.0
1525, 0.0
1526, 0.0
1527, 0.0
1528, 0.0
1529, 0.0
1530, 0.0
1531, 0.0
1532, 0.0
1533, 0.0
1534, 0.0
1535, 0.0
1536, 0.0
1537, 0.0
1538, 0.0
1539, 0.0
1540, 0.0
1541, 0.0
1542, 0.0
1543, 0.0
1544, 0.0
1545, 0.0
1546, 0.0
1547, 0.0
1548, 0.0
1549, 0.0
1550, 0.0
1551, 0.0
1552, 0.0
1553, 0.0
1554, 0.0
1555, 0.0
1556, 0.0
1557, 0.0
1558, 0.0
1559, 0.0
1560, 0.0
1561, 0.0
1562, 0.0
1563, 0.0
1564, 0.0
1565, 0.0
1566, 0.0
1567, 0.0
1568, 0.0
1569, 0.0
1570, 0.0
1571, 0.0
1572, 0.0
1573, 0.0
1574, 0.0
1575, 0.0
1576, 0.0
1577, 0.0
1578, 0.0
1579, 0.0
1580, 0.0
1581, 0.0
1582, 0.0
1583, 0.0
1584, 0.0
1585, 0.0
1586, 0.0
1587, 0.0
1588, 0.0
1589, 0.0
1590, 0.0
1591, 0.0
1592, 0.0
1593, 0.0
1594, 0.0
1595, 0.0
1596, 0.0
1597, 0.0
1598, 0.0
1599, 0.0
