30, 0.0
31, 0.0
32, 0.0
33, 0.0
34, 0.0
35, 0.0
36, 0.0
37, 0.0
38, 0.0
39, 0.0
40, 0.0
41, 0.0
42, 0.0
43, 0.0
44, 0.0
45, 0.0
46, 0.0
47, 0.0
48, 0.0
49, 0.0
50, 0.0
51, 0.0
52, 0.0
53, 0.0
54, 0.0
55, 0.0
56, 0.0
57, 0.0
58, 0.0
59, 0.0
60, 0.0
61, 0.0
62, 0.0
63, 0.0
64, 0.0
65, 0.0
66, 0.0
67, 0.0
68, 0.0
69, 0.0
70, 0.0
71, 0.0
72, 0.0
73, 0.0
74, 0.0
75, 0.0
76, 0.0
77, 0.0
78, 0.0
79, 0.0
80, 0.0
81, 0.0
82, 0.0
83, 0.0
84, 0.0
85, 0.0
86, 0.0
87, 0.0
88, 0.0
89, 0.0
90, 0.0
91, 0.0
92, 0.0
93, 0.0
94, 0.0
95, 0.0
96, 0.0
97, 0.0
98, 0.0
99, 0.0
100, 0.0
101, 0.0
102, 0.0
103, 0.0
104, 0.0
105, 0.0
106, 0.0
107, 0.0
108, 0.0
109, 0.0
110, 0.0
111, 0.0
112, 0.0
113, 0.0
114, 0.0
115, 0.0
116, 0.0
117, 0.0
118, 0.0
119, 0.0
120, 0.0
121, 0.0
122, 0.0
123, 0.0
124, 0.0
125, 0.0
126, 0.0
127, 0.0
128, 0.0
129.0, 0.0005694781070685171
130.0, 0.0010079504149389123
131.0, 0.00026593649672260574
132.0, 0.0019832386237169965
133.0, 0.005931311362601095
134.0, 0.010709583549164063
135.0, 0.018250485234170936
136.0, 0.023613633500025835
137.0, 0.02797658848121812
138.0, 0.033660538208828715
139.0, 0.04326452343014068
140.0, 0.05521656914361654
141.0, 0.07027580432319375
142.0, 0.08836216867768634
143.0, 0.10867963110842731
144.0, 0.13227137555530155
145.0, 0.16648642970484023
146.0, 0.20684657380880805
147.0, 0.2397453279153927
148.0, 0.22385215804620806
149.0, 0.17151779174957804
150.0, 0.1148489069062779
151.0, 0.07341235245199655
152.0, 0.05090629086348348
153.0, 0.03882359389335722
154.0, 0.0351681433652734
155.0, 0.036530953961207105
156.0, 0.038354394386488036
157.0, 0.04467535140376533
158.0, 0.05457451881598414
159.0, 0.06799920867234975
160.0, 0.08969514139890827
161.0, 0.13265788960511196
162.0, 0.184009127532589
163.0, 0.20215861703729704
164.0, 0.16705641811363428
165.0, 0.10201398700163461
166.0, 0.055824768784100864
167.0, 0.029663510826516103
168.0, 0.016469482083788286
169.0, 0.008639887680947563
170.0, 0.006145201201823904
171.0, 0.005104449286275016
172.0, 0.0038883533916107553
173.0, 0.00258004227574958
174.0, 0.0009120234214022924
175.0, 0.002175146904877198
176.0, 0.004249290703994686
177.0, 0.004915471770560781
178.0, 0.00462450321523475
179.0, 0.006079381824449671
180.0, 0.007837480112942222
181.0, 0.010448878310288606
182.0, 0.015542584669510525
183.0, 0.019436188447336508
184.0, 0.023601692607285955
185.0, 0.026792909478267818
186.0, 0.026464362209072927
187.0, 0.02010447925632396
188.0, 0.011995770828171316
189.0, 0.005722558054942696
190.0, 0.0030524831485480557
191.0, 0.002323963127771606
192.0, 0.00041851859063076207
193.0, 0.001983728706964393
194.0, 0.001101934874201477
195.0, 0.0003606481127666985
196.0, 0.002236399980384634
197.0, 0.002912041436310868
198.0, 0.0015936566368712122
199.0, 0.00027092186648239303
200.0, 0.0006362629518936284
201.0, 0.0008172889024904114
202.0, 0.0017475229569012577
203.0, 0.0011263267613693248
204.0, 0.0005243000902606142
205.0, 0.0011263220395709977
206.0, 0.001635274629608922
207.0, 0.0009101625127036756
208.0, 0.001147555179612201
209.0, 0.0014592406269525577
210.0, 0.0023183565764079285
211.0, 0.0032887206103234872
212.0, 0.0031736491621027953
213.0, 0.002109233502713671
214.0, 0.0016337937786585631
215.0, 0.002174974964330616
216.0, 0.0030172115870462464
217.0, 0.003328824844903369
218.0, 0.002891857150827597
219.0, 0.0016189825259419477
220.0, 0.0022364551652986025
221.0, 0.004488334039774429
222.0, 0.004178581901622247
223.0, 0.0029435522560202015
224.0, 0.003870102527048654
225.0, 0.006396723095910591
226.0, 0.008053479684647057
227.0, 0.008288958022333454
228.0, 0.008695479576343425
229.0, 0.008998440540246854
230.0, 0.009018942334945131
231.0, 0.009740207126352865
232.0, 0.009856097598741198
233.0, 0.00958503740168037
234.0, 0.009727878508460248
235.0, 0.01061709463981584
236.0, 0.010673294952066419
237.0, 0.01122974074043325
238.0, 0.012530857055925345
239.0, 0.013725898747405265
240.0, 0.013383897170089061
241.0, 0.01531372766231838
242.0, 0.01720334400499106
243.0, 0.017946828518132375
244.0, 0.017892060910184006
245.0, 0.022644156287332923
246.0, 0.02515154578501632
247.0, 0.02614339745952013
248.0, 0.02819558066138254
249.0, 0.032594597799037346
250.0, 0.03593787461830874
251.0, 0.03789027531769958
252.0, 0.03903994977425387
253.0, 0.03836707477551822
254.0, 0.0326612733437302
255.0, 0.02714165876564484
256.0, 0.021882976861712897
257.0, 0.01647265041533684
258.0, 0.012302593103213516
259.0, 0.01212812543047539
260.0, 0.011247960810964304
261.0, 0.009435891608394906
262.0, 0.007947366809154052
263.0, 0.007331837088244682
264.0, 0.006628473506727161
265.0, 0.005786707216868642
266.0, 0.005945685427336799
267.0, 0.007721128983287594
268.0, 0.007439665610598351
269.0, 0.007642161973923491
270.0, 0.008306169129466093
271.0, 0.009085227237336579
272.0, 0.010458568058136624
273.0, 0.010450836332576817
274.0, 0.012645926656795026
275.0, 0.01631958627472515
276.0, 0.019075681615196953
277.0, 0.022903326766596132
278.0, 0.024421325589877564
279.0, 0.023303488426156076
280.0, 0.019361673926988447
281.0, 0.012801853060451838
282.0, 0.008832353724784222
283.0, 0.00783106006329782
284.0, 0.006682302584628919
285.0, 0.004986409229344391
286.0, 0.005518058430680278
287.0, 0.004421533195071066
288.0, 0.004454199275034005
289.0, 0.0057189177345793665
290.0, 0.006425129710023332
291.0, 0.005722976882966072
292.0, 0.007013967947880525
293.0, 0.0077781004911416304
294.0, 0.0074199454981127184
295.0, 0.007836870492725535
296.0, 0.010512672637013618
297.0, 0.012970200097085816
298.0, 0.015542971393576577
299.0, 0.01757945211082219
300.0, 0.016775407134029096
301.0, 0.01763171015237677
302.0, 0.01857620148799737
303.0, 0.019455599060981994
304.0, 0.02124770590946261
305.0, 0.024446855271792613
306.0, 0.02637547187766143
307.0, 0.029660332858595886
308.0, 0.0346030140249473
309.0, 0.0398575836093105
310.0, 0.04503525346704244
311.0, 0.05238017431159213
312.0, 0.062263360815960934
313.0, 0.07516171630154554
314.0, 0.0918847373933745
315.0, 0.11179264227254879
316.0, 0.126928765159611
317.0, 0.1288090084372575
318.0, 0.11247545097059426
319.0, 0.08120145858313842
320.0, 0.05225200445256624
321.0, 0.03403546768957902
322.0, 0.022817696372609546
323.0, 0.014631181596500488
324.0, 0.010720289034997187
325.0, 0.007549443199098569
326.0, 0.005691163415017564
327.0, 0.004703602352546096
328.0, 0.0035652574596367523
329.0, 0.002057296480094747
330.0, 0.002641800386905728
331.0, 0.00261802946572967
332.0, 0.0015990879527049816
333.0, 0.0010398111645890063
334.0, 0.0010153600206465171
335.0, 0.0017458926935908833
336.0, 0.0013819726660689055
337.0, 0.000281831579463994
338.0, 0.00017244799620099967
339.0, 0.0017292477096084882
340.0, 0.001982050572716593
341.0, 0.0008550060687300346
342.0, 0.00015288058630648035
343.0, 0.0011059519454039001
344.0, 0.0013470606972015111
345.0, 0.000428561945812281
346.0, 0.001050400475540856
347.0, 0.0008126537985897008
348.0, 0.00022137679645721427
349.0, 0.00026776955511810513
350.0, 0.0005404599248444459
351.0, 0.0015871096818736842
352.0, 0.0022093523502443135
353.0, 0.0021827902748079967
354.0, 0.003360939955372937
355.0, 0.003431727445832228
356.0, 0.003765130062578544
357.0, 0.005402038821156003
358.0, 0.005884215396949268
359.0, 0.005754961590331394
360.0, 0.0073707962993997365
361.0, 0.009006460220456078
362.0, 0.009462838456406037
363.0, 0.010504685162763457
364.0, 0.012352291285735322
365.0, 0.014306840311050428
366.0, 0.015992422704427255
367.0, 0.017369268709447445
368.0, 0.01817542242767163
369.0, 0.015660448524470624
370.0, 0.013653548937880917
371.0, 0.012589038293320507
372.0, 0.010911910192233096
373.0, 0.007301398627864639
374.0, 0.007377672166145389
375.0, 0.005493781631028119
376.0, 0.0033353909409310706
377.0, 0.003333561830200606
378.0, 0.004236434181233312
379.0, 0.004235209351112828
380.0, 0.0016855125145818967
381.0, 0.0007530799032289244
382.0, 0.0036337517511448704
383.0, 0.0034654964841505983
384.0, 0.0039939187371272715
385.0, 0.004431288709813781
386.0, 0.004580383673780647
387.0, 0.004517024195962148
388.0, 0.003934639035321504
389.0, 0.003248606568015667
390.0, 0.0029610583826368505
391.0, 0.0032054142202687843
392.0, 0.0032072766174236823
393.0, 0.0021293031516042183
394.0, 0.0022455567166085088
395.0, 0.0013989411113980643
396.0, 0.0019171823671825094
397.0, 0.0034433024037632443
398.0, 0.002798393042607145
399.0, 0.002898424227116598
400.0, 0.0024916780703503126
401.0, 0.002213891457210837
402.0, 0.0037823222710088636
403.0, 0.006869322138522777
404.0, 0.004477664327755896
405.0, 0.00413425570039396
406.0, 0.0036153853322796552
407.0, 0.0017112533304712556
408.0, 0.00016702566384447782
409.0, 5.514577269103558e-05
410.0, 0.0003280790938480709
411.0, 0.0009308646074618733
412.0, 0.0013942377078831152
413.0, 0.0015156831751079586
414.0, 0.002048891423888534
415.0, 0.0013247817796557286
416.0, 0.0012080693892309714
417.0, 0.001254741250932393
418.0, 0.00028000161547056854
419.0, 0.0008810456256595484
420.0, 0.002469343672733238
421.0, 0.0033461761141385443
422.0, 0.0040810612315790515
423.0, 0.005831486734869393
424.0, 0.008627976301207157
425.0, 0.011728606338517059
426.0, 0.014579739435514869
427.0, 0.016891165009243276
428.0, 0.018316322849280427
429.0, 0.018432717597165416
430.0, 0.016769022699461025
431.0, 0.015151167828554225
432.0, 0.013509654585714145
433.0, 0.01423576661170988
434.0, 0.018952553468136676
435.0, 0.021000045318522148
436.0, 0.021615260359875474
437.0, 0.021939784788615108
438.0, 0.02167363256479669
439.0, 0.019823865833262573
440.0, 0.01615653042715291
441.0, 0.011994809571088613
442.0, 0.009627758691407223
443.0, 0.008146427414620346
444.0, 0.006441255598780711
445.0, 0.005631635582346368
446.0, 0.007318834516542444
447.0, 0.007008243782473804
448.0, 0.006552945795029431
449.0, 0.006891099081328648
450.0, 0.006866883362451516
451.0, 0.0070180928761746485
452.0, 0.007814523070620997
453.0, 0.0071140310602354415
454.0, 0.006792082525372833
455.0, 0.009091210707457404
456.0, 0.011277796601017463
457.0, 0.012698880091628499
458.0, 0.012686170205245505
459.0, 0.012904836069260654
460.0, 0.01358783712470128
461.0, 0.011541920862304328
462.0, 0.012629405592065409
463.0, 0.012950057853662288
464.0, 0.014131603552938332
465.0, 0.017692662666860908
466.0, 0.022676605328744277
467.0, 0.027923977192974594
468.0, 0.03601621699830327
469.0, 0.04765874393313918
470.0, 0.0626606209205029
471.0, 0.08123013442221651
472.0, 0.10542123139480003
473.0, 0.13030436743783802
474.0, 0.15024244015492424
475.0, 0.16457954796127394
476.0, 0.17654476225573437
477.0, 0.19228839677067827
478.0, 0.2118497788295488
479.0, 0.23721788677472494
480.0, 0.2666811603312718
481.0, 0.300657853635465
482.0, 0.3424357755740715
483.0, 0.3930342022858339
484.0, 0.45180924098212544
485.0, 0.5227971257002582
486.0, 0.6126915904155514
487.0, 0.7227622036862126
488.0, 0.8424788038418671
489.0, 0.9445408696259459
490.0, 0.9972197715170616
491.0, 0.9569224224667254
492.0, 0.8196863748674988
493.0, 0.6340636853110774
494.0, 0.4597116455452837
495.0, 0.3240649163769837
496.0, 0.23264390697248172
497.0, 0.1743824474145551
498.0, 0.13432885551529253
499.0, 0.10484810077104789
500.0, 0.08659968707793146
501.0, 0.07050538098842793
502.0, 0.05777262136525152
503.0, 0.04857546948417766
504.0, 0.04106758242856433
505.0, 0.03456376848638439
506.0, 0.03004050046082653
507.0, 0.02556116162148557
508.0, 0.020839897004243352
509.0, 0.017240326249478417
510.0, 0.01535794539541772
511.0, 0.013258075324962851
512.0, 0.01237473999244793
513.0, 0.008945405348505355
514.0, 0.006652620276518277
515.0, 0.006512844495159207
516.0, 0.004384538520240587
517.0, 0.001774272370800535
518.0, 0.0005622007981111401
519.0, 0.0009186265481287319
520.0, 0.0004964842955284994
521.0, 0.0013292389364418164
522.0, 0.0011840973643953766
523.0, 0.002006547834824178
524.0, 0.0015762003122433085
525.0, 0.0004949829815076385
526.0, 0.00017724131879195114
527.0, 0.0005664339130437355
528.0, 0.0015873932209914954
529.0, 0.003154187591414774
530.0, 0.005300684325653413
531.0, 0.00802129268350134
532.0, 0.01192011432061084
533.0, 0.017878333016263206
534.0, 0.024643076349341268
535.0, 0.030557559442996606
536.0, 0.03662117336627346
537.0, 0.0411690855153733
538.0, 0.04389309807169924
539.0, 0.04946135109193293
540.0, 0.05800553754293897
541.0, 0.06606698012134467
542.0, 0.07622075901509562
543.0, 0.0885461073312152
544.0, 0.10181894544895165
545.0, 0.11763647669504941
546.0, 0.13510224608890486
547.0, 0.15877216324987195
548.0, 0.1834410111231356
549.0, 0.20820373660895125
550.0, 0.23300984909169095
551.0, 0.2444410829434788
552.0, 0.2354889123289467
553.0, 0.20829352174962704
554.0, 0.17327461593497717
555.0, 0.13743259917824624
556.0, 0.1038738586509171
557.0, 0.08068809749100225
558.0, 0.06357715554237764
559.0, 0.05102832385848102
560.0, 0.04162877824930017
561.0, 0.03411293987361492
562.0, 0.028096053048424083
563.0, 0.02471874226709011
564.0, 0.020522484306781115
565.0, 0.016602120205524703
566.0, 0.013778295360850769
567.0, 0.012071874955083564
568.0, 0.010652594548461625
569.0, 0.007681215205929416
570.0, 0.00565946621682765
571.0, 0.005202257129316153
572.0, 0.004703339538195989
573.0, 0.003578711653017968
574.0, 0.0031872635105166056
575.0, 0.003462580562081634
576.0, 0.0027982992744215486
577.0, 0.0018942681845381057
578.0, 0.0014724956151198432
579.0, 0.0017933147957285007
580.0, 0.0027798202794412814
581.0, 0.002186379221088077
582.0, 0.0006248727582289688
583.0, 2.850538049226885e-05
584.0, 5.691005358375057e-05
585.0, 0.0001084628165258847
586.0, 0.0005707434909939968
587.0, 0.000987198788191869
588.0, 0.001482211154999591
589.0, 0.00054721235387635
590.0, 0.0006578631056758532
591.0, 0.0023383375497652127
592.0, 0.002836371992658228
593.0, 0.0035303689835522924
594.0, 0.0023204012748263402
595.0, 0.001468184497018134
596.0, 0.0006315992465821189
597.0, 0.00040206838860171645
598.0, 0.0019338549527841583
599.0, 0.001540172455650123
600.0, 0.00034514530485585165
601.0, 0.0004020697468189099
602.0, 0.0005427410268199483
603.0, 0.000856087255286279
604.0, 0.0003928404259363988
605.0, 5.6961721945196935e-05
606.0, 0.00043357950274905036
607.0, 0.0012015427016264643
608.0, 0.0011589431962415531
609.0, 0.00010902224137054382
610.0, 0.0007228214649365748
611.0, 0.0008263520949334381
612.0, 0.0004286232415144198
613.0, 0.001255506417075459
614.0, 0.0012226961824293558
615.0, 0.000663048094756553
616.0, 0.0003538632564677616
617.0, 0.001022588891109468
618.0, 0.0006992667635045271
619.0, 0.0014392793766067867
620.0, 0.0017863997004687244
621.0, 0.0012295157997020028
622.0, 0.0006926489717815303
623.0, 0.0011897583037774693
624.0, 0.0018796867882348762
625.0, 0.0018665018788544543
626.0, 0.0010794196783601021
627.0, 0.0007346424543857655
628.0, 0.0011862430538044008
629.0, 0.0015752939755277202
630.0, 0.0010963846101501257
631.0, 0.0012323036475870182
632.0, 0.0018117827629491568
633.0, 0.0020843150421244686
634.0, 0.0018539172896845776
635.0, 0.0016467996010878574
636.0, 0.0020887509082856068
637.0, 0.0024921624469824736
638.0, 0.0022268278101479524
639.0, 0.0022726406288045113
640.0, 0.002527432836859435
641.0, 0.0024928191433981188
642.0, 0.002152740647354547
643.0, 0.0019294722030934605
644.0, 0.002342250802523589
645.0, 0.0030829839563430417
646.0, 0.0027705055282154713
647.0, 0.002414244136805051
648.0, 0.0030418218674236166
649.0, 0.0029248366007101137
650.0, 0.0031162453645138593
651.0, 0.0037587780303594233
652.0, 0.003479518958615523
653.0, 0.0033103554611678947
654.0, 0.004133322442099001
655.0, 0.004763651950365505
656.0, 0.004681898233716478
657.0, 0.005743634420633846
658.0, 0.005707930053381549
659.0, 0.005741195738380323
660.0, 0.006451943558197509
661.0, 0.006679418418558498
662.0, 0.006519516496330292
663.0, 0.0046455272127499565
664.0, 0.004711699044607355
665.0, 0.004389116449133085
666.0, 0.0028919382241503135
667.0, 0.00202320452724517
668.0, 0.002677311686563159
669.0, 0.0025895591253623142
670.0, 0.0018946120202348272
671.0, 0.0028493031060703076
672.0, 0.0036813315944666685
673.0, 0.0038077975684434858
674.0, 0.004659843464048798
675.0, 0.006660668506613125
676.0, 0.0074220365487315445
677.0, 0.007316832826996536
678.0, 0.007272334325166403
679.0, 0.008547329676486547
680.0, 0.010757490475025675
681.0, 0.011719212117792649
682.0, 0.01124180497918703
683.0, 0.011478789937619225
684.0, 0.013261590537132115
685.0, 0.016266701016464925
686.0, 0.018976319228814716
687.0, 0.020568957399307718
688.0, 0.021787869679669884
689.0, 0.025117059275521502
690.0, 0.028562914955855872
691.0, 0.03037768553430373
692.0, 0.03414102256112558
693.0, 0.038278246717802326
694.0, 0.04016063829466466
695.0, 0.041225595592302045
696.0, 0.038727892998818646
697.0, 0.03312524572099309
698.0, 0.028249576605889823
699.0, 0.022479055786688563
700.0, 0.016454684205703764
701.0, 0.012424089393768897
702.0, 0.010462700498436958
703.0, 0.008045032114193195
704.0, 0.006392392994493964
705.0, 0.0044000216467587425
706.0, 0.0038246591671517154
707.0, 0.003855186062205052
708.0, 0.003014572031239438
709.0, 0.0021657626138440146
710.0, 0.0012037289687361287
711.0, 0.0019519417058114115
712.0, 0.0023714544246870232
713.0, 0.0016818102205256955
714.0, 0.000828487352412264
715.0, 0.0008816745115071223
716.0, 0.0012804447223537679
717.0, 0.00021106952792392678
718.0, 0.0007739105121013346
719.0, 0.0017309494939004991
720.0, 0.0008602105673680379
721.0, 0.00017200264259964167
722.0, 0.0006201073614706484
723.0, 0.00048199403028214145
724.0, 4.212434312741085e-05
725.0, 0.0003345941509749665
726.0, 0.0001892365773121709
727.0, 0.00027108753775258296
728.0, 0.0005702712411191096
729.0, 0.0003012480950576108
730.0, 0.0010573053720596354
731.0, 0.0012633958793437314
732.0, 0.0004241772527536344
733.0, 0.0004221946824188346
734.0, 0.0006530204176014944
735.0, 0.000515323965253815
736.0, 0.00019556563760960208
737.0, 0.0001816971752598883
738.0, 0.0014285124439361808
739.0, 0.0014505862302393278
740.0, 0.0007129071469866802
741.0, 0.0005280389946317951
742.0, 0.00016368062373097567
743.0, 0.000295749816868211
744.0, 0.0008307439608032684
745.0, 0.00042081037608010925
746.0, 0.001979795727336791
747.0, 0.0013902670969319713
748.0, 0.0002659774217881236
749.0, 0.00042609925460991533
750.0, 0.00034422228843304485
751.0, 0.0008807316682162519
752.0, 0.0008972827551707769
753.0, 0.0008119542559243934
754.0, 0.0014271633866418056
755.0, 0.0010531778553642605
756.0, 3.828671655294901e-05
757.0, 0.0003727650146823449
758.0, 0.0006496061410944154
759.0, 0.0017399005707960026
760.0, 0.0009651146289420645
761.0, 0.00023816333096826097
762.0, 0.000142590366646872
763.0, 0.0011023752508088542
764.0, 0.001197218101340495
765.0, 0.0005653503126390689
766.0, 0.0010363441645709008
767.0, 0.0008089024752447553
768.0, 0.0010619328899448292
769.0, 0.0005576843175745459
770.0, 0.0018243275313720823
771.0, 0.0021257672973125463
772.0, 0.0012378753462676275
773.0, 0.0015909030307342407
774.0, 0.0020143560280651077
775.0, 0.0022814486372963396
776.0, 0.002686316528483729
777.0, 0.003119277143436021
778.0, 0.002831563836235771
779.0, 0.002264130317152801
780.0, 0.002225400812420302
781.0, 0.0026577244961707917
782.0, 0.002904295796155915
783.0, 0.003781286103741379
784.0, 0.004572691534312467
785.0, 0.004704427525545492
786.0, 0.004559516343113779
787.0, 0.004659069120773974
788.0, 0.005257651961423384
789.0, 0.005391462106409246
790.0, 0.0031198302371983158
791.0, 0.004549763079015838
792.0, 0.004401282372424944
793.0, 0.004090134426923152
794.0, 0.002417640119230789
795.0, 0.0008399898295122677
796.0, 0.001268832168734755
797.0, 0.0018249909818763561
798.0, 0.002972454114757717
799.0, 0.003124267251433298
800.0, 0.0021359791981310993
801.0, 0.0012367265577283091
802.0, 0.0015144633870390533
803.0, 0.0018704686511205714
804.0, 0.0015066994575183574
805.0, 0.0022344683584607536
806.0, 0.002525529277958798
807.0, 0.0021517625937163797
808.0, 0.0030029597826986072
809.0, 0.0027890435376881524
810.0, 0.0031454771971258797
811.0, 0.0036817625485771307
812.0, 0.0021624876263511817
813.0, 0.0032076592994603574
814.0, 0.0027192405490463426
815.0, 0.0020783893945784766
816.0, 0.0027025166487156765
817.0, 0.0010820294599860867
818.0, 0.0007046161282161629
819.0, 0.0017368064274036578
820.0, 0.001305494016126825
821.0, 0.001624256401583292
822.0, 0.0011671353867718044
823.0, 9.571756717699644e-05
824.0, 9.142339794119761e-05
825.0, 7.835480849872838e-05
826.0, 0.0005828557105996879
827.0, 0.0008891628572518114
828.0, 0.000512289455635098
829.0, 0.0007697933290106243
830.0, 0.0006914565330423968
831.0, 0.0027982649487324966
832.0, 0.0029912458918593576
833.0, 0.0017776395531042316
834.0, 0.0028933177445366284
835.0, 0.0029241832460284345
836.0, 5.623319791299528e-05
837.0, 0.0017019193045832283
838.0, 0.0015950581790490888
839.0, 0.0024242183613872714
840.0, 0.0022778110560698816
841.0, 0.001882328557500838
842.0, 0.0020054365497017054
843.0, 0.002638160533774914
844.0, 0.0032718557703191853
845.0, 0.003701640869777422
846.0, 0.004302892606643579
847.0, 0.0039059092642696976
848.0, 0.005535529927658843
849.0, 0.005881073173998779
850.0, 0.0036607043433353205
851.0, 0.003031727546672261
852.0, 0.003403706029087531
853.0, 0.0021183743226084566
854.0, 0.0016642334902403997
855.0, 0.0021791049015081098
856.0, 0.0010299596476197508
857.0, 0.0017297652945997208
858.0, 0.0013508105044782916
859.0, 0.0004799465987795821
860.0, 0.000589178271674696
861.0, 0.0007989781084378354
862.0, 0.0006459763948450457
863.0, 0.0008328488885264358
864.0, 0.0008508495689094253
865.0, 0.002179562940179901
866.0, 0.001370804970615982
867.0, 0.0011789111627957933
868.0, 0.0012403289408097911
869.0, 0.0009306919691834046
870.0, 0.0015737933268960044
871.0, 0.002397019100766648
872.0, 0.0019506837701933157
873.0, 0.0016108369361460336
874.0, 0.00046722939658186077
875.0, 0.0006313173146452448
876.0, 0.0003154546385347603
877.0, 0.00013291069879178038
878.0, 0.0006385652550065825
879.0, 0.0008210833031436797
880.0, 0.0018187767241254966
881.0, 0.0010000748463258088
882.0, 0.0007392770145647217
883.0, 0.0015308477498770046
884.0, 0.001345696686203082
885.0, 0.0018059582229539963
886.0, 0.001868462898386651
887.0, 0.0012307669529136292
888.0, 0.0016161309427495723
889.0, 0.0007344427652093225
890.0, 0.0024871234229229323
891.0, 0.001620533299309713
892.0, 0.0013547513390637816
893.0, 0.0033518951226282315
894.0, 0.004367077458682334
895.0, 0.004307353944785513
896.0, 0.003747394149369696
897.0, 0.002647572051724664
898.0, 0.0027048819190500454
899.0, 0.0018328925432019299
900.0, 0.002635783110620601
901.0, 0.0020648389229150866
902.0, 0.000524723860544085
903.0, 3.0171229439372205e-05
904.0, 0.0009699943528302967
905.0, 0.0016565197774312168
906.0, 0.0008993087973961226
907.0, 0.0007215009059277405
908.0, 0.0008712363253828585
909.0, 0.0007730197571843215
910.0, 0.001216180076370324
911.0, 0.0011297090821577927
912.0, 0.0010968941607198484
913.0, 0.0004438071053318999
914.0, 0.001003394659612579
915.0, 0.0004900295062450902
916.0, 0.0017483288565172264
917.0, 0.0008149341789362177
918.0, 0.0008537013342474088
919.0, 0.0009006172450429871
920.0, 0.000910886326085526
921.0, 0.0011234174216456666
922.0, 0.0024217196399681277
923.0, 0.0036019503399249116
924.0, 0.0035232399240685366
925.0, 0.0033546447404245866
926.0, 0.003176305709244016
927.0, 0.0033729809404679113
928.0, 0.004444254861192789
929.0, 0.0064245637448950505
930.0, 0.007131030730443497
931.0, 0.007790357331369833
932.0, 0.008526045555025627
933.0, 0.010682335520768764
934.0, 0.012961972543939451
935.0, 0.01242984616258312
936.0, 0.014282185579267413
937.0, 0.016070639035102835
938.0, 0.015257653584668915
939.0, 0.014342683307948583
940.0, 0.012761055436194413
941.0, 0.009445857785403623
942.0, 0.006940131768341066
943.0, 0.006485068018415535
944.0, 0.005923568179213442
945.0, 0.00398375815412526
946.0, 0.0034057366988103927
947.0, 0.003005321538878148
948.0, 0.0020536265757415016
949.0, 0.0025104472131825656
950.0, 0.0022838780348612975
951.0, 0.0017114037350811084
952.0, 0.0010848614980108117
953.0, 0.0007926327236130687
954.0, 0.0009274466176307238
955.0, 0.0002156257433068647
956.0, 0.0005068147344071207
957.0, 0.000566574851278729
958.0, 0.0016431462691845439
959.0, 0.0009883905152125293
960.0, 0.001069269787678922
961.0, 0.0007313954134084917
962.0, 0.00028296474528391084
963.0, 0.00044304488356924156
964.0, 0.000255054728180907
965.0, 0.00019070149240298814
966.0, 0.0001816402799039139
967.0, 0.0003012842342900226
968.0, 0.00018910962871611115
969.0, 0.00020483637874026616
970.0, 0.0005856885783481208
971.0, 0.00013229101197509565
972.0, 0.0001389701145079822
973.0, 0.0004944273477525453
974.0, 0.00016907847267762477
975.0, 0.001102839537074503
976.0, 0.0021489168884951506
977.0, 0.0012289093405168157
978.0, 0.0001974099799695932
979.0, 0.00024673408497927446
980.0, 0.000966311020136153
981.0, 0.0026503450580995795
982.0, 0.002046655624050923
983.0, 0.001895923373738978
984.0, 0.0022998612177469978
985.0, 0.001913034733511467
986.0, 0.0028578852481358744
987.0, 0.0021519055467419702
988.0, 0.005525182338297547
989.0, 0.003879027783741474
990.0, 0.004959234547334536
991.0, 0.005329743904075684
992.0, 0.005681377659633838
993.0, 0.006482145043908742
994.0, 0.006963247917498689
995.0, 0.006844891877382559
996.0, 0.006798149529100376
997.0, 0.007345803441811978
998.0, 0.007166613301170472
999.0, 0.007956568765095795
1000.0, 0.0073025262816468805
1001.0, 0.0064439270159791515
1002.0, 0.004972652734274318
1003.0, 0.0038524711049271105
1004.0, 0.005210844587908412
1005.0, 0.005867688183415605
1006.0, 0.004965325717489965
1007.0, 0.004663918067298605
1008.0, 0.00442518402829995
1009.0, 0.00447952962145289
1010.0, 0.005200790470262611
1011.0, 0.004604754719430866
1012.0, 0.003428628043710398
1013.0, 0.0026855877319887722
1014.0, 0.0019569170139894284
1015.0, 0.0017090140168250691
1016.0, 0.0009650920311532627
1017.0, 5.8310890373243114e-05
1018.0, 9.95750938460866e-05
1019.0, 0.0004094562208548788
1020.0, 0.0007668393266128163
1021.0, 0.0008023675031078246
1022.0, 0.00036704188573476816
1023.0, 0.0016681069272804084
1024.0, 0.0006890040545686157
1025.0, 0.001994856810959036
1026.0, 0.003017362881158525
1027.0, 0.003129968532432477
1028.0, 0.003361148536109311
1029.0, 0.00405392407888587
1030.0, 0.005564480675106301
1031.0, 0.007605605084862326
1032.0, 0.008779691847304552
1033.0, 0.009582272413016723
1034.0, 0.01185461993491842
1035.0, 0.013917584652583276
1036.0, 0.014595226857266465
1037.0, 0.017505300960313674
1038.0, 0.01992696949241338
1039.0, 0.02245345680309952
1040.0, 0.025647027397592684
1041.0, 0.029362321358899816
1042.0, 0.03289556382566243
1043.0, 0.03465478227558906
1044.0, 0.03487445084905969
1045.0, 0.03415240919168148
1046.0, 0.030273386577816693
1047.0, 0.02742881964066495
1048.0, 0.021931322184721637
1049.0, 0.017764643782856818
1050.0, 0.014576484322048144
1051.0, 0.012294396400787229
1052.0, 0.010641991838229963
1053.0, 0.009449505859082582
1054.0, 0.009322536621198316
1055.0, 0.009282374117824926
1056.0, 0.007161874104257953
1057.0, 0.00647499192549579
1058.0, 0.0072690293385179
1059.0, 0.006385833617655968
1060.0, 0.004180798140152119
1061.0, 0.0038024884603906316
1062.0, 0.004111600597865858
1063.0, 0.0041907365104378895
1064.0, 0.003179306236670102
1065.0, 0.0020143382607961404
1066.0, 0.0013893922950707746
1067.0, 0.0014920225709163337
1068.0, 0.002211292559132921
1069.0, 0.0018016680884642595
1070.0, 0.0012506390703013062
1071.0, 0.0018726960995106194
1072.0, 0.0014791796329209216
1073.0, 0.0011192794363861045
1074.0, 0.0008582041140070171
1075.0, 0.00048233110196044834
1076.0, 0.0006535534844458347
1077.0, 0.0003351481098625771
1078.0, 0.0001644306748462496
1079.0, 0.0007933038847635763
1080.0, 0.0010128004325574585
1081.0, 0.0013598530261334546
1082.0, 0.0012965745142124085
1083.0, 0.0010121654607823198
1084.0, 0.0012701565818943271
1085.0, 0.00026522483986753565
1086.0, 0.001951659742883532
1087.0, 0.0005517592129216214
1088.0, 8.598221628807301e-05
1089.0, 0.00022554722902174226
1090.0, 3.41613727890032e-05
1091.0, 0.0002468815492181187
1092.0, 0.0012508044398752164
1093.0, 0.0014604757213559194
1094.0, 0.0003097604560404575
1095.0, 0.00026279997210277504
1096.0, 0.0009972699643092412
1097.0, 0.0006845228114723194
1098.0, 0.0003854227314181346
1099.0, 0.00010773970391160041
1100.0, 0.0005166501620850211
1101.0, 0.0009232350947874759
1102.0, 0.0006584530923948234
1103.0, 0.0013726571607145192
1104.0, 0.0002731195109145342
1105.0, 0.00011316414361661233
1106.0, 0.00023529820465241496
1107.0, 0.0005276839044489238
1108.0, 0.0010986257521171713
1109.0, 0.0004197792029100414
1110.0, 0.0002402670252687843
1111.0, 0.0008747090218317626
1112.0, 0.00030009228328738515
1113.0, 0.0006753460303158336
1114.0, 0.0010548908682002948
1115.0, 0.0010919922951674133
1116.0, 0.0004115819641610127
1117.0, 0.0004544411008827442
1118.0, 0.0006855430566949068
1119.0, 0.001028362825662239
1120.0, 0.0026322879288999935
1121.0, 0.0024448470203815515
1122.0, 0.0011180454314818522
1123.0, 0.001469680720065907
1124.0, 0.001506829748132591
1125.0, 0.0016312931565728673
1126.0, 0.0028403584069730333
1127.0, 0.0037714969278417076
1128.0, 0.0032317002870675487
1129.0, 0.00370313104501622
1130.0, 0.00462841653322196
1131.0, 0.004485416350443797
1132.0, 0.0047846464657723565
1133.0, 0.004780801573417049
1134.0, 0.005914978325122417
1135.0, 0.0067675165818757155
1136.0, 0.007963780367692281
1137.0, 0.010038519494625562
1138.0, 0.010415126250250642
1139.0, 0.011100455961071905
1140.0, 0.01350243414080995
1141.0, 0.013962565844976694
1142.0, 0.014277705416687447
1143.0, 0.015715077408520017
1144.0, 0.01808712077517622
1145.0, 0.016350677640413827
1146.0, 0.016382286430024064
1147.0, 0.01583582699909997
1148.0, 0.014379735858136618
1149.0, 0.012980655799226687
1150.0, 0.011674677962246308
1151.0, 0.011208349377700162
1152.0, 0.01077837099473543
1153.0, 0.009430032895680571
1154.0, 0.008439749154148782
1155.0, 0.008834511660795328
1156.0, 0.009584619492721998
1157.0, 0.010511915818412418
1158.0, 0.011467473116554435
1159.0, 0.01214935327879684
1160.0, 0.012750364476244922
1161.0, 0.016382994506970935
1162.0, 0.01563400389313783
1163.0, 0.018104045611098237
1164.0, 0.021429546609192152
1165.0, 0.023408739675059728
1166.0, 0.027100770459600212
1167.0, 0.02908668649769144
1168.0, 0.03231066095507204
1169.0, 0.03706431261075385
1170.0, 0.04200811370357374
1171.0, 0.04737866715155542
1172.0, 0.05097868487260929
1173.0, 0.05348488643747484
1174.0, 0.057637866768805515
1175.0, 0.06131465361148056
1176.0, 0.06087193555791177
1177.0, 0.05641758189465181
1178.0, 0.05261419105344079
1179.0, 0.04778410286866655
1180.0, 0.04351097184958355
1181.0, 0.0362447177416602
1182.0, 0.03176796260735936
1183.0, 0.02894552683212703
1184.0, 0.025819688119156817
1185.0, 0.02385108195318203
1186.0, 0.020316605411966993
1187.0, 0.017155014710672312
1188.0, 0.015400611096241768
1189.0, 0.01273963571474747
1190.0, 0.010416502130068039
1191.0, 0.009502890820703113
1192.0, 0.008415764738530602
1193.0, 0.008372149565407551
1194.0, 0.006624024791799983
1195.0, 0.006662343860743429
1196.0, 0.007336000322187036
1197.0, 0.006682873759450878
1198.0, 0.004950491906753138
1199.0, 0.006296166915109153
1200.0, 0.0045015547810179244
1201.0, 0.0036916140570834722
1202.0, 0.004628977336622977
1203.0, 0.004935083502957293
1204.0, 0.004158866100925065
1205.0, 0.004091293196287044
1206.0, 0.0036521375354220827
1207.0, 0.0028325989856893287
1208.0, 0.002390813294130646
1209.0, 0.002016457765581143
1210.0, 0.0019113662555410912
1211.0, 0.0019064179459416248
1212.0, 0.001943576208682367
1213.0, 0.0022026220355701107
1214.0, 0.002003489566847231
1215.0, 0.002600099908909011
1216.0, 0.0034540558778422964
1217.0, 0.0026937577149537327
1218.0, 0.0013462833169286493
1219.0, 0.00017732104714947405
1220.0, 0.00210958500714601
1221.0, 0.0005514421091358257
1222.0, 0.0002775254105182337
1223.0, 0.001891429995608462
1224.0, 0.0012649040748391321
1225.0, 0.0001818621358481894
1226.0, 8.50527357924919e-05
1227.0, 0.00034903712039357284
1228.0, 0.00033749081364981286
1229.0, 0.00032524347347643223
1230.0, 0.0008209303650801444
1231.0, 0.001203810373924021
1232.0, 0.0013308291122831988
1233.0, 0.0005793392411899201
1234.0, 0.000557650572039901
1235.0, 0.0008866450986505222
1236.0, 0.001812549543442762
1237.0, 0.0004184344392485344
1238.0, 0.0010454989984423812
1239.0, 0.00012779849114961703
1240.0, 0.00026945286167823993
1241.0, 0.0009590564378675543
1242.0, 0.0010481837728787363
1243.0, 0.0006821547275201827
1244.0, 0.0005029775540535335
1245.0, 0.0004046069052275244
1246.0, 0.0003102250779769189
1247.0, 0.0012758397651415237
1248.0, 0.0003638305454193536
1249.0, 0.0008549563402165376
1250.0, 0.0010277397656092446
1251.0, 0.00020050264989575302
1252.0, 0.00011068524437511689
1253.0, 0.0009051369195031855
1254.0, 0.0015676733382128968
1255.0, 0.001049032207757882
1256.0, 0.0004655073612582403
1257.0, 0.0009937655446016465
1258.0, 0.0008502523865516732
1259.0, 0.0006278060438850623
1260.0, 0.0008828346396704043
1261.0, 0.0006863285843542428
1262.0, 0.0009533853353552077
1263.0, 0.000553076908658228
1264.0, 0.000428423095020641
1265.0, 0.0010751708199661484
1266.0, 0.0009524418914770319
1267.0, 0.0008635002539359518
1268.0, 0.0006230989293907807
1269.0, 0.00041049590989477463
1270.0, 0.0009504282798988953
1271.0, 0.0007757344657154126
1272.0, 0.0008607573079279341
1273.0, 0.0015917597767546089
1274.0, 0.002342349453229051
1275.0, 0.0024429363589655523
1276.0, 0.0011565258801916872
1277.0, 0.00019402975412622107
1278.0, 0.00044857545288122145
1279.0, 0.0007531094503321577
1280.0, 0.0003807602402567294
1281.0, 0.00010778445514846171
1282.0, 0.0005517368057268774
1283.0, 0.001829344772728183
1284.0, 0.001977306101878396
1285.0, 0.0010563007667852306
1286.0, 0.0005519395256880709
1287.0, 0.0002745753446487284
1288.0, 0.00031945794058910073
1289, 0.0
1290, 0.0
1291, 0.0
1292, 0.0
1293, 0.0
1294, 0.0
1295, 0.0
1296, 0.0
1297, 0.0
1298, 0.0
1299, 0.0
1300, 0.0
1301, 0.0
1302, 0.0
1303, 0.0
1304, 0.0
1305, 0.0
1306, 0.0
1307, 0.0
1308, 0.0
1309, 0.0
1310, 0.0
1311, 0.0
1312, 0.0
1313, 0.0
1314, 0.0
1315, 0.0
1316, 0.0
1317, 0.0
1318, 0.0
1319, 0.0
1320, 0.0
1321, 0.0
1322, 0.0
1323, 0.0
1324, 0.0
1325, 0.0
1326, 0.0
1327, 0.0
1328, 0.0
1329, 0.0
1330, 0.0
1331, 0.0
1332, 0.0
1333, 0.0
1334, 0.0
1335, 0.0
1336, 0.0
1337, 0.0
1338, 0.0
1339, 0.0
1340, 0.0
1341, 0.0
1342, 0.0
1343, 0.0
1344, 0.0
1345, 0.0
1346, 0.0
1347, 0.0
1348, 0.0
1349, 0.0
1350, 0.0
1351, 0.0
1352, 0.0
1353, 0.0
1354, 0.0
1355, 0.0
1356, 0.0
1357, 0.0
1358, 0.0
1359, 0.0
1360, 0.0
1361, 0.0
1362, 0.0
1363, 0.0
1364, 0.0
1365, 0.0
1366, 0.0
1367, 0.0
1368, 0.0
1369, 0.0
1370, 0.0
1371, 0.0
1372, 0.0
1373, 0.0
1374, 0.0
1375, 0.0
1376, 0.0
1377, 0.0
1378, 0.0
1379, 0.0
1380, 0.0
1381, 0.0
1382, 0.0
1383, 0.0
1384, 0.0
1385, 0.0
1386, 0.0
1387, 0.0
1388, 0.0
1389, 0.0
1390, 0.0
1391, 0.0
1392, 0.0
1393, 0.0
1394, 0.0
1395, 0.0
1396, 0.0
1397, 0.0
1398, 0.0
1399, 0.0
1400, 0.0
1401, 0.0
1402, 0.0
1403, 0.0
1404, 0.0
1405, 0.0
1406, 0.0
1407, 0.0
1408, 0.0
1409, 0.0
1410, 0.0
1411, 0.0
1412, 0.0
1413, 0.0
1414, 0.0
1415, 0.0
1416, 0.0
1417, 0.0
1418, 0.0
1419, 0.0
1420, 0.0
1421, 0.0
1422, 0.0
1423, 0.0
1424, 0.0
1425, 0.0
1426, 0.0
1427, 0.0
1428, 0.0
1429, 0.0
1430, 0.0
1431, 0.0
1432, 0.0
1433, 0.0
1434, 0.0
1435, 0.0
1436, 0.0
1437, 0.0
1438, 0.0
1439, 0.0
1440, 0.0
1441, 0.0
1442, 0.0
1443, 0.0
1444, 0.0
1445, 0.0
1446, 0.0
1447, 0.0
1448, 0.0
1449, 0.0
1450, 0.0
1451, 0.0
1452, 0.0
1453, 0.0
1454, 0.0
1455, 0.0
1456, 0.0
1457, 0.0
1458, 0.0
1459, 0.0
1460, 0.0
1461, 0.0
1462, 0.0
1463, 0.0
1464, 0.0
1465, 0.0
1466, 0.0
1467, 0.0
1468, 0.0
1469, 0.0
1470, 0.0
1471, 0.0
1472, 0.0
1473, 0.0
1474, 0.0
1475, 0.0
1476, 0.0
1477, 0.0
1478, 0.0
1479, 0.0
1480, 0.0
1481, 0.0
1482, 0.0
1483, 0.0
1484, 0.0
1485, 0.0
1486, 0.0
1487, 0.0
1488, 0.0
1489, 0.0
1490, 0.0
1491, 0.0
1492, 0.0
1493, 0.0
1494, 0.0
1495, 0.0
1496, 0.0
1497, 0.0
1498, 0.0
1499, 0.0
1500, 0.0
1501, 0.0
1502, 0.0
1503, 0.0
1504, 0.0
1505, 0.0
1506, 0.0
1507, 0.0
1508, 0.0
1509, 0.0
1510, 0.0
1511, 0.0
1512, 0.0
1513, 0.0
1514, 0.0
1515, 0.0
1516, 0.0
1517, 0.0
1518, 0.0
1519, 0.0
1520, 0.0
1521, 0.0
1522, 0.0
1523, 0.0
1524, 0.0
1525, 0.0
1526, 0.0
1527, 0.0
1528, 0.0
1529, 0.0
1530, 0.0
1531, 0.0
1532, 0.0
1533, 0.0
1534, 0.0
1535, 0.0
1536, 0.0
1537, 0.0
1538, 0.0
1539, 0.0
1540, 0.0
1541, 0.0
1542, 0.0
1543, 0.0
1544, 0.0
1545, 0.0
1546, 0.0
1547, 0.0
1548, 0.0
1549, 0.0
1550, 0.0
1551, 0.0
1552, 0.0
1553, 0.0
1554, 0.0
1555, 0.0
1556, 0.0
1557, 0.0
1558, 0.0
1559, 0.0
1560, 0.0
1561, 0.0
1562, 0.0
1563, 0.0
1564, 0.0
1565, 0.0
1566, 0.0
1567, 0.0
1568, 0.0
1569, 0.0
1570, 0.0
1571, 0.0
1572, 0.0
1573, 0.0
1574, 0.0
1575, 0.0
1576, 0.0
1577, 0.0
1578, 0.0
1579, 0.0
1580, 0.0
1581, 0.0
1582, 0.0
1583, 0.0
1584, 0.0
1585, 0.0
1586, 0.0
1587, 0.0
1588, 0.0
1589, 0.0
1590, 0.0
1591, 0.0
1592, 0.0
1593, 0.0
1594, 0.0
1595, 0.0
1596, 0.0
1597, 0.0
1598, 0.0
1599, 0.0
