30, 0.0
31, 0.0
32, 0.0
33, 0.0
34, 0.0
35, 0.0
36, 0.0
37, 0.0
38, 0.0
39, 0.0
40, 0.0
41, 0.0
42, 0.0
43, 0.0
44, 0.0
45, 0.0
46, 0.0
47, 0.0
48, 0.0
49, 0.0
50, 0.0
51, 0.0
52, 0.0
53, 0.0
54, 0.0
55, 0.0
56, 0.0
57, 0.0
58, 0.0
59, 0.0
60, 0.0
61, 0.0
62, 0.0
63, 0.0
64, 0.0
65, 0.0
66, 0.0
67, 0.0
68, 0.0
69, 0.0
70, 0.0
71, 0.0
72, 0.0
73, 0.0
74, 0.0
75, 0.0
76, 0.0
77, 0.0
78, 0.0
79, 0.0
80, 0.0
81, 0.0
82, 0.0
83, 0.0
84, 0.0
85, 0.0
86, 0.0
87, 0.0
88, 0.0
89, 0.0
90, 0.0
91, 0.0
92, 0.0
93, 0.0
94, 0.0
95, 0.0
96, 0.0
97, 0.0
98, 0.0
99, 0.0
100, 0.0
101, 0.0
102, 0.0
103, 0.0
104, 0.0
105, 0.0
106, 0.0
107, 0.0
108, 0.0
109, 0.0
110, 0.0
111, 0.0
112, 0.0
113, 0.0
114, 0.0
115, 0.0
116, 0.0
117, 0.0
118, 0.0
119, 0.0
120, 0.0
121, 0.0
122, 0.0
123, 0.0
124, 0.0
125, 0.0
126, 0.0
127, 0.0
128, 0.0
129, 0.0
130, 0.0
131, 0.0
132, 0.0
133, 0.0
134, 0.0
135, 0.0
136, 0.0
137, 0.0
138, 0.0
139, 0.0
140, 0.0
141, 0.0
142, 0.0
143, 0.0
144, 0.0
145, 0.0
146, 0.0
147, 0.0
148, 0.0
149, 0.0
150, 0.0
151, 0.0
152, 0.0
153, 0.0
154, 0.0
155, 0.0
156, 0.0
157, 0.0
158, 0.0
159, 0.0
160, 0.0
161, 0.0
162, 0.0
163, 0.0
164, 0.0
165, 0.0
166, 0.0
167, 0.0
168, 0.0
169, 0.0
170, 0.0
171, 0.0
172, 0.0
173, 0.0
174, 0.0
175, 0.0
176, 0.0
177, 0.0
178, 0.0
179, 0.0
180, 0.0
181, 0.0
182, 0.0
183, 0.0
184.0, 0.0007801673149903478
185.0, 0.00040895482005303595
186.0, 0.004381663773111896
187.0, 0.010921135108610364
188.0, 0.005229700220186357
189.0, 0.0002530470178878262
190.0, 0.002411925876996277
191.0, 0.007143343560027746
192.0, 0.008163237241436689
193.0, 0.004631810820683766
194.0, 0.004079173520337271
195.0, 0.01111059075311876
196.0, 0.010521215739173024
197.0, 0.009398357891747177
198.0, 0.01201104412310452
199.0, 0.017221331879331638
200.0, 0.01259223071234412
201.0, 0.014823706945205593
202.0, 0.0174000383459748
203.0, 0.019707621408936882
204.0, 0.03003644075364026
205.0, 0.020282388979214794
206.0, 0.016206799752205167
207.0, 0.014541712050822263
208.0, 0.007633425483467894
209.0, 0.0004790109458488286
210.0, 0.004106313577101291
211.0, 0.014987438783951843
212.0, 0.021934407126960504
213.0, 0.013140171979246211
214.0, 0.0021825559384477298
215.0, 0.0008364993487999848
216.0, 0.0019464316990826652
217.0, 0.0037030883190592523
218.0, 0.00861562254847904
219.0, 0.00245281960257677
220.0, 0.002268587371970244
221.0, 0.006179531173701379
222.0, 0.005140900218918472
223.0, 0.011819771282726484
224.0, 0.020048697249377013
225.0, 0.021991421308919575
226.0, 0.018092696260046295
227.0, 0.028717628765961112
228.0, 0.021470413652875518
229.0, 0.018805670406447955
230.0, 0.027723526354248455
231.0, 0.030857637445452828
232.0, 0.029442084012951363
233.0, 0.035591705145569065
234.0, 0.03699884014909609
235.0, 0.025613101020172207
236.0, 0.041164561415864706
237.0, 0.04843988712075972
238.0, 0.04698753057152353
239.0, 0.04472968546392657
240.0, 0.05031743044213389
241.0, 0.05010771893170501
242.0, 0.05893222258411369
243.0, 0.06831204018222023
244.0, 0.06831982645082355
245.0, 0.07270628594747465
246.0, 0.08014420445834063
247.0, 0.07833131489645964
248.0, 0.07393949419373415
249.0, 0.0882144713584552
250.0, 0.09470166224949965
251.0, 0.10073940092306133
252.0, 0.10594453833134514
253.0, 0.1080664734128206
254.0, 0.10936272361696253
255.0, 0.11150438126472842
256.0, 0.11566359869093595
257.0, 0.12442071029157503
258.0, 0.13728450997228445
259.0, 0.13742119718372448
260.0, 0.12751616107760214
261.0, 0.11931682824115279
262.0, 0.11841746483017655
263.0, 0.11790817032383975
264.0, 0.1086883982138702
265.0, 0.09468411420354794
266.0, 0.08492813501504137
267.0, 0.08516229461656014
268.0, 0.08333654697830124
269.0, 0.0718005193723906
270.0, 0.06615782653139418
271.0, 0.06693722045217268
272.0, 0.055314178752874255
273.0, 0.05468305103336195
274.0, 0.05227755219306597
275.0, 0.047605857802065644
276.0, 0.04500878133922685
277.0, 0.03988251038848848
278.0, 0.04028177031442838
279.0, 0.04269307272050508
280.0, 0.03922957940200637
281.0, 0.027717856313413405
282.0, 0.026415105535411373
283.0, 0.02445478226510487
284.0, 0.023772690679140472
285.0, 0.025649750658000455
286.0, 0.022861810773122094
287.0, 0.0153783855764786
288.0, 0.009432014336572581
289.0, 0.007671097837847012
290.0, 0.008245449246727442
291.0, 0.004134217368747873
292.0, 0.0031854846409577666
293.0, 0.004939907947444403
294.0, 0.005684725873039639
295.0, 0.0025238531424785966
296.0, 0.0012692539116503703
297.0, 0.0012386840076791185
298.0, 0.0019111018420572851
299.0, 0.0021328655062536747
300.0, 0.0066186003518807135
301.0, 0.001406784346071613
302.0, 0.005847555003272066
303.0, 0.005533191857231078
304.0, 0.0017843602663278589
305.0, 0.006285114450901803
306.0, 0.002566429117524013
307.0, 0.0011435992221471786
308.0, 0.0032919928436258386
309.0, 0.0002449946061366093
310.0, 0.00559533402820643
311.0, 0.0025010094453894443
312.0, 0.002565519061293967
313.0, 0.0007681803027416375
314.0, 0.006701986787808183
315.0, 0.004285804970382209
316.0, 0.0006768444549614359
317.0, 0.0002668136667020544
318.0, 0.003318370154680262
319.0, 0.007931418793555555
320.0, 0.007128974870454126
321.0, 0.007628083895218056
322.0, 0.010894945682548566
323.0, 0.012946997629073271
324.0, 0.008013600004580429
325.0, 0.016641475775303807
326.0, 0.020463278611606284
327.0, 0.01801227534083654
328.0, 0.024701084402158634
329.0, 0.019566403151950584
330.0, 0.02520806286278325
331.0, 0.027467815317709292
332.0, 0.02120199650112519
333.0, 0.02453663302954499
334.0, 0.021265628514143292
335.0, 0.0291519120217228
336.0, 0.03807943952270828
337.0, 0.03602099315203891
338.0, 0.03498210267850646
339.0, 0.033925387526115035
340.0, 0.031970082678823175
341.0, 0.03429142755586325
342.0, 0.044558275882545954
343.0, 0.04759378317131936
344.0, 0.04498844453680953
345.0, 0.04129401142598267
346.0, 0.04233600510976647
347.0, 0.05015904576951444
348.0, 0.052156705263935586
349.0, 0.05278671772489239
350.0, 0.0544463654493887
351.0, 0.058784082305474224
352.0, 0.06400375746415082
353.0, 0.054095267069285274
354.0, 0.06653717862438055
355.0, 0.0767018013915513
356.0, 0.06919771285171983
357.0, 0.06549782785255623
358.0, 0.07034495535029682
359.0, 0.07136951858710028
360.0, 0.0751787893544484
361.0, 0.08299163180067522
362.0, 0.07571662118773978
363.0, 0.07612720643142874
364.0, 0.08656870726343618
365.0, 0.08881466361939479
366.0, 0.07934053922893254
367.0, 0.08960385575620453
368.0, 0.0924103679104978
369.0, 0.09414527624649346
370.0, 0.09798133962264975
371.0, 0.09946461551038416
372.0, 0.0745286633937485
373.0, 0.0782186811606558
374.0, 0.0940653580478458
375.0, 0.09653192876369228
376.0, 0.08029388820915177
377.0, 0.0864089548640693
378.0, 0.08994807607657013
379.0, 0.08121716164360421
380.0, 0.07387881498268105
381.0, 0.08270590378654571
382.0, 0.084220445804132
383.0, 0.08704862682787566
384.0, 0.07255394364925698
385.0, 0.05875963109141297
386.0, 0.07450826133685455
387.0, 0.06670987242669783
388.0, 0.060172602119470966
389.0, 0.052145198017935136
390.0, 0.05037415395263966
391.0, 0.06461253467568892
392.0, 0.06114470396053907
393.0, 0.04869942642221618
394.0, 0.04704658494469084
395.0, 0.04995185686534546
396.0, 0.039651987549366406
397.0, 0.04246871148799592
398.0, 0.03804280546920867
399.0, 0.030495136251752982
400.0, 0.028306189774166983
401.0, 0.03418573062177648
402.0, 0.028683792039796464
403.0, 0.026493776295972292
404.0, 0.02715430317551754
405.0, 0.02385972583134487
406.0, 0.014135141851359787
407.0, 0.01633011484638639
408.0, 0.01700102896546457
409.0, 0.010224556758409038
410.0, 0.003674825813793822
411.0, 0.007864632260786934
412.0, 0.003691825842097502
413.0, 0.0003503653258275271
414.0, 0.00507970685718966
415.0, 0.006520482186157923
416.0, 0.006112556078546178
417.0, 0.0024468768001437873
418.0, 0.005958389155667844
419.0, 0.012932123302501193
420.0, 0.006422520585411826
421.0, 0.0022282743366300525
422.0, 0.0036186135543321814
423.0, 0.0026989143635049607
424.0, 0.001046977436823784
425.0, 0.0011924288905790338
426.0, 0.0011777634040798625
427.0, 0.009990697680214341
428.0, 0.008452633441178005
429.0, 0.012298615930628436
430.0, 0.019100538849076986
431.0, 0.016015970555709424
432.0, 0.01924698618844141
433.0, 0.028532593429545332
434.0, 0.031135239335407287
435.0, 0.025887014586527438
436.0, 0.02038176781931029
437.0, 0.022106643082302743
438.0, 0.031698749990416844
439.0, 0.02859940873847472
440.0, 0.02236748794936771
441.0, 0.027583824487699075
442.0, 0.02943429137157428
443.0, 0.0244578203912745
444.0, 0.02803589773341398
445.0, 0.02892887619324612
446.0, 0.019994547143294596
447.0, 0.019062758602442754
448.0, 0.020863119148353534
449.0, 0.023169307848418523
450.0, 0.019604236200233504
451.0, 0.010002743156372413
452.0, 0.005275011868416189
453.0, 0.010733004985135297
454.0, 0.003890644203362783
455.0, 0.0047682270685479354
456.0, 0.0018431290537785703
457.0, 0.006570028399414601
458.0, 0.0017672345710936922
459.0, 0.0001608873131978349
460.0, 0.0012421302532081371
461.0, 0.0014286927194881703
462.0, 0.003198519634288872
463.0, 0.009182837816147867
464.0, 0.010905865085364664
465.0, 0.008936363498334031
466.0, 0.011499179909028233
467.0, 0.022890437939792087
468.0, 0.024713108449439313
469.0, 0.02534458733675528
470.0, 0.027459338510453124
471.0, 0.027049828089594004
472.0, 0.026223911257361145
473.0, 0.038576315625241074
474.0, 0.038495876435588224
475.0, 0.04138867123052153
476.0, 0.04597861633318432
477.0, 0.046857797174039664
478.0, 0.04649693343147662
479.0, 0.04267138935440175
480.0, 0.046180841471193106
481.0, 0.05105323814828819
482.0, 0.059673044436368276
483.0, 0.07772836959243902
484.0, 0.07826420720671565
485.0, 0.09125483933695404
486.0, 0.09439193680606399
487.0, 0.09433276148842976
488.0, 0.10963763696630842
489.0, 0.11948843643975728
490.0, 0.14068517868434505
491.0, 0.15182101623031993
492.0, 0.16775662940784802
493.0, 0.19894034332261318
494.0, 0.21726523771071088
495.0, 0.23614299347483667
496.0, 0.2672271895112972
497.0, 0.29750780706676405
498.0, 0.32690165691833717
499.0, 0.3709314625429291
500.0, 0.4208814895649758
501.0, 0.46148498175590286
502.0, 0.5027860252218603
503.0, 0.5522718070659627
504.0, 0.6057753328183935
505.0, 0.6374798846944947
506.0, 0.6907158044202942
507.0, 0.7472551758435375
508.0, 0.7967319932748583
509.0, 0.8421394994383193
510.0, 0.8927167581718638
511.0, 0.9331323827305755
512.0, 0.9601004088875341
513.0, 0.9781299554030851
514.0, 0.9929129407504976
515.0, 0.9998657889076505
516.0, 0.9820636604538275
517.0, 0.9583915024061795
518.0, 0.9266557041387848
519.0, 0.8877342106018424
520.0, 0.8504957980680554
521.0, 0.8268458554970748
522.0, 0.787893443477017
523.0, 0.7463813141840769
524.0, 0.7083799962864907
525.0, 0.6754789728369271
526.0, 0.6433591505756607
527.0, 0.5948437227043207
528.0, 0.5590365477769466
529.0, 0.5321301025506612
530.0, 0.5070333336485336
531.0, 0.4802797394688779
532.0, 0.44533579532381407
533.0, 0.4082462590449547
534.0, 0.3790386013865894
535.0, 0.35491252435162063
536.0, 0.33455762366186215
537.0, 0.31839049671704994
538.0, 0.2768848252249781
539.0, 0.25667503932288377
540.0, 0.23809687145808542
541.0, 0.21547865812482303
542.0, 0.19970215458498475
543.0, 0.18017673094562986
544.0, 0.1649005815974187
545.0, 0.15498953549535632
546.0, 0.14114217595071243
547.0, 0.12223833851947326
548.0, 0.10728525829302743
549.0, 0.09333293576358302
550.0, 0.08769493625365132
551.0, 0.08042531269882898
552.0, 0.07106275773842347
553.0, 0.06404641314816238
554.0, 0.0559539585467638
555.0, 0.056214612661047485
556.0, 0.04127295711399171
557.0, 0.028431683385720337
558.0, 0.027771265804356755
559.0, 0.024105099076787498
560.0, 0.014844590783795394
561.0, 0.022341669477810445
562.0, 0.01925617453340867
563.0, 0.009639329067240377
564.0, 0.007605437055184446
565.0, 0.0031264346255104702
566.0, 0.0060523653872100866
567.0, 0.0016647264332687861
568.0, 0.0004537604381081336
569.0, 0.002655973511773999
570.0, 0.00038842779523328385
571.0, 0.007187333840939265
572.0, 0.0011721417156226185
573.0, 0.00509527146523826
574.0, 0.0014086791761763597
575.0, 0.0029939758213673082
576.0, 0.003405038202679952
577.0, 0.00773531704009637
578.0, 0.002785445382206403
579.0, 0.0011963877338222026
580.0, 0.0017976989923752294
581.0, 0.002050019229355814
582.0, 0.0038578055660284903
583.0, 0.0022463637241526666
584.0, 0.00015147916596107728
585.0, 0.0023901700344376316
586.0, 0.004822506150029263
587.0, 0.0030995482001021997
588.0, 0.009051299413991746
589.0, 0.006588893704516686
590.0, 0.010135061673323535
591.0, 0.011579979268036016
592.0, 0.004156580815455644
593.0, 0.0019989522479891115
594.0, 0.009383825994415456
595.0, 0.007541713601382833
596.0, 0.007999221511035808
597.0, 0.01255266850221297
598.0, 0.016838942801822826
599.0, 0.023152330036217594
600.0, 0.023362940486022558
601.0, 0.024092545353377237
602.0, 0.025116733796966148
603.0, 0.028304453465951528
604.0, 0.035377414923290974
605.0, 0.037649330859742564
606.0, 0.029450623468438707
607.0, 0.03352923623921212
608.0, 0.04216863502381338
609.0, 0.047518755602828706
610.0, 0.051884287029750675
611.0, 0.05597160239220366
612.0, 0.05868259034902345
613.0, 0.05667309152566814
614.0, 0.06025478018149436
615.0, 0.06995130989937569
616.0, 0.07342834985567186
617.0, 0.0716189336750408
618.0, 0.07285249284242624
619.0, 0.07566218890097731
620.0, 0.07279931708914787
621.0, 0.06967543676302558
622.0, 0.07462238686441333
623.0, 0.06885495373597199
624.0, 0.06209288943660796
625.0, 0.061214291008777524
626.0, 0.058550557852427625
627.0, 0.05253844062435765
628.0, 0.05354163537909518
629.0, 0.053787133541325444
630.0, 0.03965597624119572
631.0, 0.028932458390715104
632.0, 0.02777369463542117
633.0, 0.027893879872977666
634.0, 0.025001785503813965
635.0, 0.027112821843761323
636.0, 0.02437106919555545
637.0, 0.013253017389768735
638.0, 0.011903100053571201
639.0, 0.023324521976400503
640.0, 0.017336539346717316
641.0, 0.016833371801389312
642.0, 0.009655562017788338
643.0, 0.012400069514120574
644.0, 0.017353748033946938
645.0, 0.011047873240867579
646.0, 0.004992567959299461
647.0, 0.009586270876302202
648.0, 0.009292516810603101
649.0, 0.01644999784407164
650.0, 0.01791186272169581
651.0, 0.006856233892092136
652.0, 0.007341470717301711
653.0, 0.005041950647863543
654.0, 0.0020729333961764756
655.0, 0.0061590324687518915
656.0, 0.005687465734221339
657.0, 0.0021375242294361225
658.0, 0.006559831535421906
659.0, 0.0030864955019401516
660.0, 0.008428902632367815
661.0, 0.007154472903952657
662.0, 0.0021156098022806695
663.0, 0.001531481487499833
664.0, 0.015149419438996885
665.0, 0.010166692780402534
666.0, 0.00040437652479544724
667.0, 0.0005470435223580171
668.0, 0.0008994623633544285
669.0, 0.0057821990390850946
670.0, 0.0011121044026242489
671.0, 0.0018976916425696275
672.0, 0.005989216355468883
673.0, 0.0035166074978325293
674.0, 0.0024892147725521976
675.0, 0.0044813720549393785
676.0, 0.0025218636817770194
677.0, 0.0020941041330907817
678.0, 0.00041959279216748264
679.0, 0.003891758961663957
680.0, 0.003929497128253517
681.0, 0.0004999485709899062
682.0, 0.0035594418969268423
683.0, 0.009706840092220807
684.0, 0.011093412672242788
685.0, 0.00409675854130015
686.0, 0.0004292978485277323
687.0, 0.0035311962287193606
688.0, 0.005734894832099024
689.0, 0.0007978830704664053
690.0, 0.0007248938470470806
691.0, 0.0003156118515785578
692.0, 0.0020860447170412506
693.0, 0.0027078672124333167
694.0, 0.0007649098709783794
695.0, 0.0025733117488275564
696.0, 0.005289453050847047
697.0, 0.0018427778756469095
698.0, 0.00014717685090614787
699.0, 0.002491593955222187
700.0, 0.006903429235791615
701.0, 0.0064459027770173895
702.0, 0.0015276054299074547
703.0, 0.0037724217623877924
704.0, 0.009458497720169781
705.0, 0.010161072385860271
706.0, 0.007974236819718225
707.0, 0.006655541041442909
708.0, 0.00673857484064432
709.0, 0.008055270202654735
710.0, 0.008184946875636345
711.0, 0.01261852386960249
712.0, 0.015807426816880077
713.0, 0.012858771657639075
714.0, 0.014560455478642553
715.0, 0.021788904161100305
716.0, 0.021035003516391104
717.0, 0.017650119278316785
718.0, 0.018084275917494032
719.0, 0.023220628773520904
720.0, 0.030003840366031254
721.0, 0.03584854573069693
722.0, 0.039358508177165526
723.0, 0.03452280073429327
724.0, 0.031219526864504084
725.0, 0.03346960881587825
726.0, 0.036946112727929574
727.0, 0.042666024753456336
728.0, 0.04391956883709487
729.0, 0.04741604689984182
730.0, 0.0511270164316096
731.0, 0.05068114477410739
732.0, 0.04845473694793585
733.0, 0.0504656148292285
734.0, 0.03949704830816356
735.0, 0.04752596623275143
736.0, 0.04935929164085887
737.0, 0.045331043718908226
738.0, 0.03987005371506738
739.0, 0.033426296381748676
740.0, 0.033959262600529276
741.0, 0.029221033818091827
742.0, 0.029950562041766438
743.0, 0.03216098494759716
744.0, 0.026231565030204795
745.0, 0.014862197943187473
746.0, 0.011130484256032443
747.0, 0.009452664048996936
748.0, 0.004893455276225505
749.0, 0.006400596997192176
750.0, 0.011944826024865792
751.0, 0.013448644122806677
752.0, 0.008834904901820357
753.0, 0.007772155710752046
754.0, 0.00675217520967238
755.0, 0.010637617433688963
756.0, 0.012846515832236236
757.0, 0.015000002894840915
758.0, 0.02185098891917747
759.0, 0.031276664673461595
760.0, 0.033286003643865185
761.0, 0.043018597861564284
762.0, 0.05920990940505825
763.0, 0.07315054066105073
764.0, 0.08409865001670032
765.0, 0.09835876129000554
766.0, 0.11691900230950093
767.0, 0.13069709986312875
768.0, 0.1506122973580229
769.0, 0.1669712246257172
770.0, 0.18797548619826338
771.0, 0.21883681006570654
772.0, 0.2470893005023345
773.0, 0.2568963061735736
774.0, 0.2720305769943188
775.0, 0.28773818163052467
776.0, 0.2892423787381088
777.0, 0.28808155727892
778.0, 0.2870019281948529
779.0, 0.27648654274621554
780.0, 0.27332754189354386
781.0, 0.2544569618385859
782.0, 0.2175000774565482
783.0, 0.2018796271468257
784.0, 0.1929736684655957
785.0, 0.17369804862752988
786.0, 0.16175660502234523
787.0, 0.14853551538584228
788.0, 0.13399201777946498
789.0, 0.12825325394048506
790.0, 0.13044084782921664
791.0, 0.12463961247712722
792.0, 0.10861191119499285
793.0, 0.104852945271058
794.0, 0.09792686821151074
795.0, 0.09435023139122496
796.0, 0.10017617252570657
797.0, 0.10249231617402457
798.0, 0.09390908843749217
799.0, 0.08863747520339811
800.0, 0.10676417717526565
801.0, 0.09278419329949524
802.0, 0.09771003379531466
803.0, 0.10451224032605001
804.0, 0.11408060040244307
805.0, 0.12352400123969652
806.0, 0.12701279748598734
807.0, 0.13217960106353616
808.0, 0.13812242189827575
809.0, 0.1454948058777897
810.0, 0.16400005799060532
811.0, 0.1667665601849204
812.0, 0.163145539338688
813.0, 0.17011954264760526
814.0, 0.16619894951725978
815.0, 0.17359140886386717
816.0, 0.18409841745476122
817.0, 0.17744008533812045
818.0, 0.17190084029458008
819.0, 0.1720020626043192
820.0, 0.1684307598342784
821.0, 0.1687684454656173
822.0, 0.1762367447951523
823.0, 0.17526474271425066
824.0, 0.17381476551890312
825.0, 0.17516112895683658
826.0, 0.17489968327638786
827.0, 0.1713462404914514
828.0, 0.17051729294864054
829.0, 0.17783765763906179
830.0, 0.16478750969763578
831.0, 0.15365596627656292
832.0, 0.14393609205923716
833.0, 0.13107752640576964
834.0, 0.11830154812419064
835.0, 0.10892796913420644
836.0, 0.09892385436607978
837.0, 0.08925610208380684
838.0, 0.07424720366922899
839.0, 0.07195347105983377
840.0, 0.0647946706388771
841.0, 0.048861273634105654
842.0, 0.045251799827926445
843.0, 0.038378117708316
844.0, 0.03625928945969018
845.0, 0.0342462823017785
846.0, 0.028536370838365313
847.0, 0.026677188926531994
848.0, 0.02452431464531458
849.0, 0.017017565836248184
850.0, 0.017408768078173018
851.0, 0.01290134610412064
852.0, 0.009888835993833006
853.0, 0.006687699557278024
854.0, 0.006411067082783861
855.0, 0.010835385537984478
856.0, 0.011820252921290407
857.0, 0.0015314883358308203
858.0, 0.0023179002360629013
859.0, 0.004907899246318869
860.0, 0.0057032695944261485
861.0, 0.0038313618776554133
862.0, 0.0014962200528908477
863.0, 0.002689352629862991
864.0, 0.0021984863665388083
865.0, 0.010337670070997307
866.0, 0.0028324602424673424
867.0, 0.0013706560912589239
868.0, 0.0007789022333317933
869.0, 0.001807687243775895
870.0, 0.004809667154485454
871.0, 0.0006309339463920143
872.0, 0.001292922670432259
873.0, 0.002048115167242707
874.0, 0.0008554207362574582
875.0, 0.0030609868664637214
876.0, 0.005721150442901589
877.0, 0.0044695879102153125
878.0, 0.0006495029199842012
879.0, 0.0025147742027138193
880.0, 0.0019320327929945212
881.0, 0.004797572464837277
882.0, 0.0034961925590747257
883.0, 0.004993829781137781
884.0, 0.002868494975808966
885.0, 0.001562243236780635
886.0, 0.0011409583396797282
887.0, 0.0020649701114659777
888.0, 0.0013272860898602774
889.0, 0.0006882980612569181
890.0, 0.009676151103934634
891.0, 0.0056532285546322825
892.0, 0.0031523053379615596
893.0, 0.003353731716851616
894.0, 0.00035028958991651174
895.0, 0.00382633682627472
896.0, 0.004142656560397307
897.0, 0.004224629682092991
898.0, 0.010477893473250791
899.0, 0.010127932319735473
900.0, 0.00536224830825793
901.0, 0.00144885447355396
902.0, 0.0018552399286873176
903.0, 0.006779683154670179
904.0, 0.001272892771151196
905.0, 0.0035632515595668606
906.0, 0.012312969233531907
907.0, 0.01101488736768648
908.0, 0.008968875689481008
909.0, 0.013098439148248655
910.0, 0.006465074172918091
911.0, 0.005422910042995314
912.0, 0.003592898289947872
913.0, 0.010412368732796278
914.0, 0.005402460619693927
915.0, 0.002212075574761926
916.0, 0.007166840634580702
917.0, 0.006995601589971304
918.0, 0.0034337155580856297
919.0, 0.0033152141645098106
920.0, 0.011005342257830458
921.0, 0.0082871357333639
922.0, 0.011394577718643316
923.0, 0.016091733334409233
924.0, 0.010881420697100689
925.0, 0.005195890246040286
926.0, 0.015797322088882394
927.0, 0.006621769239188954
928.0, 0.007323977023953472
929.0, 0.01312310587496253
930.0, 0.011659327164775269
931.0, 0.011547877003004787
932.0, 0.013715973724412737
933.0, 0.01171619124776463
934.0, 0.0112465537516441
935.0, 0.0017409127560546233
936.0, 0.008702268266272916
937.0, 0.010919354380682908
938.0, 0.010730380962513619
939.0, 0.016570502861962884
940.0, 0.01872495831013777
941.0, 0.0079723334105566
942.0, 0.005643265649818604
943.0, 0.013373699540098725
944.0, 0.007490679485277211
945.0, 0.006552532392102073
946.0, 0.007391301456163326
947.0, 0.005382602182962596
948.0, 0.00530984426380207
949.0, 0.011100382155724961
950.0, 0.015544497615550306
951.0, 0.005499915863590781
952.0, 0.001510558580971335
953.0, 0.0056355227535636815
954.0, 0.010891504820932969
955.0, 0.006284707595304309
956.0, 0.0018531721476310735
957.0, 0.00687616192604917
958.0, 0.01055911498251312
959.0, 0.011178342924539647
960.0, 0.012977324541573661
961.0, 0.012439125409081223
962.0, 0.016414291369943268
963.0, 0.010156307735557035
964.0, 0.008567732203203894
965.0, 0.012253207797922536
966.0, 0.005594307762855458
967.0, 0.008550487925883917
968.0, 0.010178628477864821
969.0, 0.0019520711417181755
970.0, 0.003053342815109854
971.0, 0.0013832881580744525
972.0, 0.0008105758618583293
973.0, 0.006860682300287734
974.0, 0.011546665279713908
975.0, 0.006773024352428327
976.0, 0.003200472328779827
977.0, 0.002522364946439464
978.0, 0.0066734171830058475
979.0, 0.002337793654249083
980.0, 0.0023907320159422237
981.0, 0.0037240851488226766
982.0, 0.0119241041194794
983.0, 0.009751834887502685
984.0, 0.004206509466703496
985.0, 0.005368391052141882
986.0, 0.012202294450892756
987.0, 0.007015652053781148
988.0, 0.012406684395341584
989.0, 0.00919430357777598
990.0, 0.0008364136984347478
991.0, 0.0006268375388307327
992.0, 0.007252568471664477
993.0, 0.007018303833097609
994.0, 0.0038199326453110384
995.0, 0.01090337481862442
996.0, 0.003362961247111935
997.0, 0.006604533932849276
998.0, 0.01140584319458813
999.0, 0.007244885234337413
1000.0, 0.008927989133455135
1001.0, 0.009670301307269731
1002.0, 0.005657109306590073
1003.0, 0.012148669982818642
1004.0, 0.012003817528526105
1005.0, 0.012388646138055247
1006.0, 0.011418516137919332
1007.0, 0.012520107503088067
1008.0, 0.015606054250453827
1009.0, 0.016627318645472483
1010.0, 0.01783539667942066
1011.0, 0.018123910211534568
1012.0, 0.02740466195388992
1013.0, 0.02684444770949647
1014.0, 0.023617832743896682
1015.0, 0.020930448252815717
1016.0, 0.025785598577272167
1017.0, 0.0280792840617111
1018.0, 0.02026250548924693
1019.0, 0.025488686926626185
1020.0, 0.03038696811742742
1021.0, 0.02819820018342039
1022.0, 0.026720233759680145
1023.0, 0.026667927396852326
1024.0, 0.031620007826748876
1025.0, 0.03479454823536301
1026.0, 0.032330317986253784
1027.0, 0.032274999947267326
1028.0, 0.0386948630418702
1029.0, 0.03888736319241307
1030.0, 0.026589128151006013
1031.0, 0.040829767222005285
1032.0, 0.03913829587313402
1033.0, 0.037204635754924636
1034.0, 0.041271508550671764
1035.0, 0.04159447880911956
1036.0, 0.03680516744914543
1037.0, 0.03501832801742025
1038.0, 0.041733781777817336
1039.0, 0.035497816927712596
1040.0, 0.029173400827977775
1041.0, 0.034401993028583204
1042.0, 0.03524092221763919
1043.0, 0.027884979053530812
1044.0, 0.023616547630720783
1045.0, 0.024258014043581383
1046.0, 0.024083042622692688
1047.0, 0.0323997849626824
1048.0, 0.02856682627390288
1049.0, 0.027393737435229614
1050.0, 0.024035006174763687
1051.0, 0.020166880416235065
1052.0, 0.02437786370799006
1053.0, 0.02667687702298666
1054.0, 0.021241894732879872
1055.0, 0.01748125167230975
1056.0, 0.01882730305122453
1057.0, 0.01747492798970765
1058.0, 0.010846043041398492
1059.0, 0.010513056385483345
1060.0, 0.0170114435338824
1061.0, 0.01670826366432283
1062.0, 0.008971834729248647
1063.0, 0.007782355693602985
1064.0, 0.012993343050350601
1065.0, 0.011692022798591021
1066.0, 0.011278670246228901
1067.0, 0.01724211573880603
1068.0, 0.0018031379407572423
1069.0, 0.0014515355161586528
1070.0, 0.010805463229011143
1071.0, 0.008586209289558062
1072.0, 0.00558601996936594
1073.0, 0.007675785343511178
1074.0, 0.007578476213909349
1075.0, 0.006365361553441382
1076.0, 0.003960462888807932
1077.0, 0.008147860598473479
1078.0, 0.010893536293645747
1079.0, 0.008843637446696192
1080.0, 0.00740180832909957
1081.0, 0.004671788748967447
1082.0, 0.002500776042767944
1083.0, 0.0042457574684034915
1084.0, 0.004731444486358655
1085.0, 0.0004214465689125063
1086.0, 0.006269195909376387
1087.0, 0.0035793360610405205
1088.0, 0.00399755082147958
1089.0, 0.0020129639536212475
1090.0, 0.001152792336835845
1091.0, 0.0024991799136612723
1092.0, 0.0027034190501141046
1093.0, 0.006821487766108595
1094.0, 0.004211027474011828
1095.0, 0.0014383028017765558
1096.0, 0.002883255065104809
1097.0, 0.009032654886677212
1098.0, 0.00239709363532661
1099.0, 0.01093038173798357
1100.0, 0.011598032221016954
1101.0, 0.002376294755393249
1102.0, 0.004198215813930452
1103.0, 0.003200411023245924
1104.0, 0.006499115104717095
1105.0, 0.006805904737751655
1106.0, 0.010271852439050884
1107.0, 0.005728262623375374
1108.0, 0.0046813717722748
1109.0, 0.001698916550334365
1110.0, 0.0011476645892408485
1111.0, 0.0023162134141032453
1112.0, 0.00592716768363497
1113.0, 0.0061085399579978595
1114.0, 0.003732633779211173
1115.0, 0.0035343125834830054
1116.0, 0.004969739279646267
1117.0, 0.010201013508926958
1118.0, 0.003405040132355799
1119.0, 0.0014148777919101374
1120.0, 0.011187501791094498
1121.0, 0.006396347056220603
1122.0, 0.008970436688908661
1123.0, 0.01234127907245521
1124.0, 0.006224765290910513
1125.0, 0.00170655795135039
1126.0, 0.0037162076018822667
1127.0, 0.0047087915308147
1128.0, 0.0044286843404457606
1129.0, 0.0034349873648410766
1130.0, 0.007311489298939115
1131.0, 0.010327419261496721
1132.0, 0.005925074594152392
1133.0, 0.006297141616044064
1134.0, 0.011079542058526338
1135.0, 0.012522346539825415
1136.0, 0.00976945428897772
1137.0, 0.005644116342679103
1138.0, 0.009598432762386023
1139.0, 0.010822329368357373
1140.0, 0.008889388866457465
1141.0, 0.00952446921920008
1142.0, 0.010031755766252742
1143.0, 0.014001105791611694
1144.0, 0.007458028400364354
1145.0, 0.006093253989777928
1146.0, 0.014757073998393627
1147.0, 0.014831025586753551
1148.0, 0.010321443699972909
1149.0, 0.00857226573320599
1150.0, 0.014266145801545761
1151.0, 0.0026938811792113337
1152.0, 0.0035879846184298458
1153.0, 0.007037039715192602
1154.0, 0.007136371614705036
1155.0, 0.004520746907396018
1156.0, 0.006248704895344071
1157.0, 0.010942505336568816
1158.0, 0.013740291888066733
1159.0, 0.012355963966839266
1160.0, 0.0013445973633829634
1161.0, 0.0009370034052062416
1162.0, 0.004450866910004214
1163.0, 0.009122747074012767
1164.0, 0.008794808657100781
1165.0, 0.006836214790880751
1166.0, 0.00646289844619223
1167.0, 0.005517679128662399
1168.0, 0.006935117273111405
1169.0, 0.008267732325605855
1170.0, 0.0035895339668539387
1171.0, 0.004721009325378068
1172.0, 0.008647463771746921
1173.0, 0.0030064133691986216
1174.0, 0.010962019750485148
1175.0, 0.006541233289812837
1176.0, 0.004698093243405735
1177.0, 0.009579912809690031
1178.0, 0.012053118774329557
1179.0, 0.007054632492580641
1180.0, 0.004620482962034203
1181.0, 0.00507118693587975
1182.0, 0.003442336356558437
1183.0, 0.011871682452233355
1184.0, 0.008281177270862503
1185.0, 0.005085029495194842
1186.0, 0.007326305867828175
1187.0, 0.01113698333157634
1188.0, 0.014219730419141744
1189.0, 0.0100478820925498
1190.0, 0.007947502485278738
1191.0, 0.008143525363434614
1192.0, 0.007898470417204258
1193.0, 0.007215202683396021
1194.0, 0.006407637216200622
1195.0, 0.0073174875617883816
1196.0, 0.001616940768594595
1197.0, 0.009262719518405146
1198.0, 0.0034716341555385477
1199.0, 0.007440288473391024
1200.0, 0.005734581908873466
1201.0, 0.007890966745492022
1202.0, 0.01449101637206804
1203.0, 0.008657512755502311
1204.0, 0.00290137338158748
1205.0, 0.008906498985032816
1206.0, 0.011833580083903497
1207.0, 0.005221548654199726
1208.0, 0.00769219969713634
1209.0, 0.012247695505897327
1210.0, 0.008191122032831878
1211.0, 0.00495949849355124
1212.0, 0.0024705590787076417
1213.0, 0.005426031457409008
1214.0, 0.010651437666730684
1215.0, 0.01245541949654339
1216.0, 0.010867600506439331
1217.0, 0.005232033530673582
1218.0, 0.0033593243244485396
1219.0, 0.010072854368691526
1220.0, 0.0084767148996636
1221.0, 0.012329638064511577
1222.0, 0.008562608125757471
1223.0, 0.012651174662671103
1224.0, 0.010364015366201549
1225.0, 0.006216870956088162
1226.0, 0.010344144022392325
1227.0, 0.012854806711551092
1228.0, 0.008866633719021735
1229.0, 0.006846677818180502
1230.0, 0.006144761521529855
1231.0, 0.0027393093003908234
1232.0, 0.004613869074053856
1233.0, 0.010112587278475645
1234.0, 0.00934429418411337
1235.0, 0.007656994576953988
1236.0, 0.009702125566080468
1237.0, 0.011547542973263073
1238.0, 0.012881700835795387
1239.0, 0.002680064839920771
1240.0, 0.004263618249732227
1241.0, 0.009727065733140704
1242.0, 0.006551382759314123
1243.0, 0.002834777543374475
1244.0, 0.006288277430147346
1245.0, 0.012429751830397745
1246.0, 0.010578709555101967
1247.0, 0.0016682967549342112
1248.0, 0.0027054869159009545
1249.0, 0.008859592865415787
1250.0, 0.01132739267612162
1251.0, 0.010373483659593083
1252.0, 0.012750021892292547
1253.0, 0.010149756642778543
1254.0, 0.00489151139812741
1255.0, 0.0010656370587605044
1256.0, 0.006947927124208065
1257.0, 0.010471722929991665
1258.0, 0.004047098986806318
1259.0, 0.0033686003038336542
1260.0, 0.006689792911466243
1261.0, 0.007684850330470186
1262.0, 0.015160664708091322
1263.0, 0.011588164984210456
1264.0, 0.008445945263994017
1265.0, 0.0007815979037371151
1266.0, 0.007073817089640684
1267.0, 0.011799995942018603
1268.0, 0.008221753756245122
1269.0, 0.006045058087193927
1270.0, 0.00949574249831125
1271.0, 0.010971778082282769
1272.0, 0.006043812956983847
1273.0, 0.0003026210765704838
1274.0, 0.0016313170334140744
1275.0, 0.00656181461408701
1276.0, 0.009534167832196233
1277.0, 0.009893942768036975
1278.0, 0.0049932976995103635
1279.0, 0.012521419885122976
1280.0, 0.008550432307306755
1281.0, 0.0037206715141802223
1282.0, 0.0069925235747654215
1283.0, 0.00823158762278386
1284.0, 0.002483089251470096
1285.0, 0.00041027611201615904
1286.0, 0.0036318019943320035
1287.0, 0.007215499573103612
1288.0, 0.006184479655317601
1289.0, 0.0051292029342297684
1290.0, 0.005604428119738675
1291.0, 0.00023864886769869894
1292.0, 0.0011382133926108986
1293, 0.0
1294, 0.0
1295, 0.0
1296, 0.0
1297, 0.0
1298, 0.0
1299, 0.0
1300, 0.0
1301, 0.0
1302, 0.0
1303, 0.0
1304, 0.0
1305, 0.0
1306, 0.0
1307, 0.0
1308, 0.0
1309, 0.0
1310, 0.0
1311, 0.0
1312, 0.0
1313, 0.0
1314, 0.0
1315, 0.0
1316, 0.0
1317, 0.0
1318, 0.0
1319, 0.0
1320, 0.0
1321, 0.0
1322, 0.0
1323, 0.0
1324, 0.0
1325, 0.0
1326, 0.0
1327, 0.0
1328, 0.0
1329, 0.0
1330, 0.0
1331, 0.0
1332, 0.0
1333, 0.0
1334, 0.0
1335, 0.0
1336, 0.0
1337, 0.0
1338, 0.0
1339, 0.0
1340, 0.0
1341, 0.0
1342, 0.0
1343, 0.0
1344, 0.0
1345, 0.0
1346, 0.0
1347, 0.0
1348, 0.0
1349, 0.0
1350, 0.0
1351, 0.0
1352, 0.0
1353, 0.0
1354, 0.0
1355, 0.0
1356, 0.0
1357, 0.0
1358, 0.0
1359, 0.0
1360, 0.0
1361, 0.0
1362, 0.0
1363, 0.0
1364, 0.0
1365, 0.0
1366, 0.0
1367, 0.0
1368, 0.0
1369, 0.0
1370, 0.0
1371, 0.0
1372, 0.0
1373, 0.0
1374, 0.0
1375, 0.0
1376, 0.0
1377, 0.0
1378, 0.0
1379, 0.0
1380, 0.0
1381, 0.0
1382, 0.0
1383, 0.0
1384, 0.0
1385, 0.0
1386, 0.0
1387, 0.0
1388, 0.0
1389, 0.0
1390, 0.0
1391, 0.0
1392, 0.0
1393, 0.0
1394, 0.0
1395, 0.0
1396, 0.0
1397, 0.0
1398, 0.0
1399, 0.0
1400, 0.0
1401, 0.0
1402, 0.0
1403, 0.0
1404, 0.0
1405, 0.0
1406, 0.0
1407, 0.0
1408, 0.0
1409, 0.0
1410, 0.0
1411, 0.0
1412, 0.0
1413, 0.0
1414, 0.0
1415, 0.0
1416, 0.0
1417, 0.0
1418, 0.0
1419, 0.0
1420, 0.0
1421, 0.0
1422, 0.0
1423, 0.0
1424, 0.0
1425, 0.0
1426, 0.0
1427, 0.0
1428, 0.0
1429, 0.0
1430, 0.0
1431, 0.0
1432, 0.0
1433, 0.0
1434, 0.0
1435, 0.0
1436, 0.0
1437, 0.0
1438, 0.0
1439, 0.0
1440, 0.0
1441, 0.0
1442, 0.0
1443, 0.0
1444, 0.0
1445, 0.0
1446, 0.0
1447, 0.0
1448, 0.0
1449, 0.0
1450, 0.0
1451, 0.0
1452, 0.0
1453, 0.0
1454, 0.0
1455, 0.0
1456, 0.0
1457, 0.0
1458, 0.0
1459, 0.0
1460, 0.0
1461, 0.0
1462, 0.0
1463, 0.0
1464, 0.0
1465, 0.0
1466, 0.0
1467, 0.0
1468, 0.0
1469, 0.0
1470, 0.0
1471, 0.0
1472, 0.0
1473, 0.0
1474, 0.0
1475, 0.0
1476, 0.0
1477, 0.0
1478, 0.0
1479, 0.0
1480, 0.0
1481, 0.0
1482, 0.0
1483, 0.0
1484, 0.0
1485, 0.0
1486, 0.0
1487, 0.0
1488, 0.0
1489, 0.0
1490, 0.0
1491, 0.0
1492, 0.0
1493, 0.0
1494, 0.0
1495, 0.0
1496, 0.0
1497, 0.0
1498, 0.0
1499, 0.0
1500, 0.0
1501, 0.0
1502, 0.0
1503, 0.0
1504, 0.0
1505, 0.0
1506, 0.0
1507, 0.0
1508, 0.0
1509, 0.0
1510, 0.0
1511, 0.0
1512, 0.0
1513, 0.0
1514, 0.0
1515, 0.0
1516, 0.0
1517, 0.0
1518, 0.0
1519, 0.0
1520, 0.0
1521, 0.0
1522, 0.0
1523, 0.0
1524, 0.0
1525, 0.0
1526, 0.0
1527, 0.0
1528, 0.0
1529, 0.0
1530, 0.0
1531, 0.0
1532, 0.0
1533, 0.0
1534, 0.0
1535, 0.0
1536, 0.0
1537, 0.0
1538, 0.0
1539, 0.0
1540, 0.0
1541, 0.0
1542, 0.0
1543, 0.0
1544, 0.0
1545, 0.0
1546, 0.0
1547, 0.0
1548, 0.0
1549, 0.0
1550, 0.0
1551, 0.0
1552, 0.0
1553, 0.0
1554, 0.0
1555, 0.0
1556, 0.0
1557, 0.0
1558, 0.0
1559, 0.0
1560, 0.0
1561, 0.0
1562, 0.0
1563, 0.0
1564, 0.0
1565, 0.0
1566, 0.0
1567, 0.0
1568, 0.0
1569, 0.0
1570, 0.0
1571, 0.0
1572, 0.0
1573, 0.0
1574, 0.0
1575, 0.0
1576, 0.0
1577, 0.0
1578, 0.0
1579, 0.0
1580, 0.0
1581, 0.0
1582, 0.0
1583, 0.0
1584, 0.0
1585, 0.0
1586, 0.0
1587, 0.0
1588, 0.0
1589, 0.0
1590, 0.0
1591, 0.0
1592, 0.0
1593, 0.0
1594, 0.0
1595, 0.0
1596, 0.0
1597, 0.0
1598, 0.0
1599, 0.0
