30, 0.0
31, 0.0
32, 0.0
33, 0.0
34, 0.0
35, 0.0
36, 0.0
37, 0.0
38, 0.0
39, 0.0
40, 0.0
41, 0.0
42, 0.0
43, 0.0
44, 0.0
45, 0.0
46, 0.0
47, 0.0
48, 0.0
49, 0.0
50, 0.0
51, 0.0
52, 0.0
53, 0.0
54, 0.0
55, 0.0
56, 0.0
57, 0.0
58, 0.0
59, 0.0
60, 0.0
61, 0.0
62, 0.0
63, 0.0
64, 0.0
65, 0.0
66, 0.0
67, 0.0
68, 0.0
69, 0.0
70, 0.0
71, 0.0
72, 0.0
73, 0.0
74, 0.0
75, 0.0
76, 0.0
77, 0.0
78, 0.0
79, 0.0
80, 0.0
81, 0.0
82, 0.0
83, 0.0
84, 0.0
85, 0.0
86, 0.0
87, 0.0
88, 0.0
89, 0.0
90, 0.0
91, 0.0
92, 0.0
93, 0.0
94, 0.0
95, 0.0
96, 0.0
97, 0.0
98, 0.0
99, 0.0
100, 0.0
101, 0.0
102, 0.0
103, 0.0
104, 0.0
105, 0.0
106, 0.0
107, 0.0
108, 0.0
109, 0.0
110, 0.0
111, 0.0
112, 0.0
113, 0.0
114, 0.0
115, 0.0
116, 0.0
117, 0.0
118, 0.0
119, 0.0
120, 0.0
121, 0.0
122, 0.0
123, 0.0
124, 0.0
125, 0.0
126, 0.0
127, 0.0
128, 0.0
129, 0.0
130, 0.0
131, 0.0
132, 0.0
133, 0.0
134, 0.0
135, 0.0
136, 0.0
137, 0.0
138, 0.0
139, 0.0
140, 0.0
141, 0.0
142, 0.0
143, 0.0
144, 0.0
145, 0.0
146, 0.0
147, 0.0
148, 0.0
149, 0.0
150, 0.0
151, 0.0
152, 0.0
153, 0.0
154, 0.0
155, 0.0
156, 0.0
157, 0.0
158, 0.0
159, 0.0
160, 0.0
161, 0.0
162.0, 0.0005322672182267691
163.0, 0.002134671260756205
164.0, 0.0006926778177263361
165.0, 0.0015790823974751352
166.0, 0.003278717710833504
167.0, 0.021668956851106577
168.0, 0.04034376369890057
169.0, 0.03945901323550965
170.0, 0.06848075736134002
171.0, 0.09371690558519002
172.0, 0.10149143236839522
173.0, 0.10268636462676797
174.0, 0.12837146706383085
175.0, 0.11601322780780239
176.0, 0.13908944258831885
177.0, 0.1922033876892203
178.0, 0.18417900867891548
179.0, 0.2064820278326161
180.0, 0.2237604173455321
181.0, 0.2333528072985538
182.0, 0.24752218731218845
183.0, 0.251120610629841
184.0, 0.28423907502970897
185.0, 0.31525112899431323
186.0, 0.3259012863372779
187.0, 0.3226591620656436
188.0, 0.3412149138740467
189.0, 0.3388404382997135
190.0, 0.34646705733877947
191.0, 0.35763517739561396
192.0, 0.3619689811146759
193.0, 0.3740004235598993
194.0, 0.3816849205694534
195.0, 0.37657275891380065
196.0, 0.3581147072238631
197.0, 0.35280482334377294
198.0, 0.3355715051111473
199.0, 0.31775507981550893
200.0, 0.30373447164581513
201.0, 0.2704002152573651
202.0, 0.23986794017848917
203.0, 0.23596364887849422
204.0, 0.21239435779997948
205.0, 0.19745958538553754
206.0, 0.18305428163100856
207.0, 0.17316405875824
208.0, 0.1598995912600786
209.0, 0.15070055790572903
210.0, 0.1451880487350348
211.0, 0.1389230253507167
212.0, 0.1336155537092367
213.0, 0.12121665714124516
214.0, 0.10212921025922646
215.0, 0.09290740730423357
216.0, 0.08047413891554099
217.0, 0.08397156044850189
218.0, 0.07934417163869045
219.0, 0.07595152638976847
220.0, 0.0755493912872142
221.0, 0.0704665974444081
222.0, 0.07311780246948738
223.0, 0.06593730905082257
224.0, 0.06987075212189812
225.0, 0.06357250465305657
226.0, 0.05741617829122553
227.0, 0.05486611689901931
228.0, 0.05785064750046087
229.0, 0.06798896238143845
230.0, 0.05720665052888377
231.0, 0.05657717425742661
232.0, 0.06449288526338236
233.0, 0.05873162249432566
234.0, 0.05772057843334695
235.0, 0.07224592423735468
236.0, 0.06919711116613612
237.0, 0.07097346380732114
238.0, 0.07366887573465984
239.0, 0.08891559878746659
240.0, 0.1262830758207149
241.0, 0.16430750799391342
242.0, 0.18109430132468016
243.0, 0.1990339531109212
244.0, 0.22826939139297367
245.0, 0.27761184439279246
246.0, 0.31974985756679924
247.0, 0.34125650136917757
248.0, 0.38373757820733134
249.0, 0.4299614567567039
250.0, 0.48385046476785143
251.0, 0.5363493757273459
252.0, 0.5728598709614047
253.0, 0.6192024319266167
254.0, 0.6774371712865531
255.0, 0.7461099585831783
256.0, 0.8158686324334411
257.0, 0.8775288089191527
258.0, 0.958469085108754
259.0, 0.9975362691785431
260.0, 0.9898739447934406
261.0, 0.9632037399846772
262.0, 0.9426530157894337
263.0, 0.8571749927553703
264.0, 0.7381193161547728
265.0, 0.5920500962617661
266.0, 0.43233754752405334
267.0, 0.3271613539107913
268.0, 0.2585854957836971
269.0, 0.197143593704659
270.0, 0.13918641113044875
271.0, 0.0988017766795615
272.0, 0.0759321635996816
273.0, 0.04681895637352212
274.0, 0.026417385208474583
275.0, 0.024243842871916662
276.0, 0.02710482489287311
277.0, 0.01832944218678929
278.0, 0.03810173589778215
279.0, 0.03367409856869233
280.0, 0.006390563013956225
281.0, 0.005800635439863431
282.0, 0.009150643131222432
283.0, 0.023752899165262645
284.0, 0.0184907679248324
285.0, 0.010657517158810595
286.0, 0.024907108125791614
287.0, 0.009528663968257854
288.0, 0.011308880920553916
289.0, 0.007121629083060082
290.0, 0.01900733114018041
291.0, 0.004328155783125624
292.0, 0.009704883689252913
293.0, 0.013678407184830741
294.0, 0.0053449777923127535
295.0, 0.017656780059819462
296.0, 0.021827511170709413
297.0, 0.021150562080752174
298.0, 0.019636019954308803
299.0, 0.013532192753686237
300.0, 0.0049993648920472165
301.0, 0.020830201483550907
302.0, 0.024081828758919323
303.0, 0.009588394937770122
304.0, 0.027240038009696044
305.0, 0.016247153198102573
306.0, 0.012687361928868232
307.0, 0.0032797957094940363
308.0, 0.011910054127602718
309.0, 0.01483143479874888
310.0, 0.0014202115303514908
311.0, 0.0120569724889012
312.0, 0.009620144946625322
313.0, 0.0039025322933311656
314.0, 0.004932236244083477
315.0, 0.007877248687051839
316.0, 0.0022078791145782647
317.0, 0.0062605721678787194
318.0, 0.018282422562205414
319.0, 0.022875452057752405
320.0, 0.012677064657929482
321.0, 0.003592352694429998
322.0, 0.0024409381828460162
323.0, 0.0026728730749848903
324.0, 0.005818394774427103
325.0, 0.01595646171846239
326.0, 0.015590937743494435
327.0, 0.010540998987068496
328.0, 0.006754122194748567
329.0, 0.0019855915914455792
330.0, 0.0009307200136284413
331.0, 0.010017586628806833
332.0, 0.035476596634483167
333.0, 0.03674768718614037
334.0, 0.029437182105303467
335.0, 0.028477826188665307
336.0, 0.02440251012721549
337.0, 0.025732342152357653
338.0, 0.015291950448746452
339.0, 0.00813818107975986
340.0, 0.023237424214674767
341.0, 0.04960884424800076
342.0, 0.030568495210167124
343.0, 0.017779007230771967
344.0, 0.01954822334107581
345.0, 0.022859847336066726
346.0, 0.01606481529551075
347.0, 0.01105128796525655
348.0, 0.02584428375625761
349.0, 0.04568342759019128
350.0, 0.0494510496275104
351.0, 0.032854604881533696
352.0, 0.03750132160932601
353.0, 0.04157999732350616
354.0, 0.03924728976962926
355.0, 0.030461452676777048
356.0, 0.0225509128077798
357.0, 0.029994334421618217
358.0, 0.029370561867814626
359.0, 0.025954389718510135
360.0, 0.02133947059047981
361.0, 0.021036769717476693
362.0, 0.0337883007573381
363.0, 0.015943581210777314
364.0, 0.01946933723619416
365.0, 0.026333683804421512
366.0, 0.02506235430340886
367.0, 0.04674991275701458
368.0, 0.041012355465531926
369.0, 0.009666097220259174
370.0, 0.006965596447188945
371.0, 0.024504760907276994
372.0, 0.015499950355046133
373.0, 0.0026920789119364557
374.0, 0.016946744936191558
375.0, 0.03876808775472827
376.0, 0.050320605151906096
377.0, 0.04628559469291487
378.0, 0.029216828800444863
379.0, 0.030159404762420336
380.0, 0.022419986190750377
381.0, 0.010392541665729574
382.0, 0.010156118750504166
383.0, 0.021678143716020608
384.0, 0.01244070663923826
385.0, 0.036147065327084886
386.0, 0.045554270815534995
387.0, 0.02346879568902672
388.0, 0.04591708383354254
389.0, 0.04755825709670104
390.0, 0.03366212080500647
391.0, 0.03718063786498463
392.0, 0.05272330301813335
393.0, 0.0483262883117361
394.0, 0.029251792847997806
395.0, 0.027906215725581718
396.0, 0.0306964681896211
397.0, 0.029076677317511446
398.0, 0.023949800003349998
399.0, 0.013345654054768955
400.0, 0.024266807731731118
401.0, 0.02392500375538399
402.0, 0.015597187712089743
403.0, 0.013434891915416938
404.0, 0.020664753192466856
405.0, 0.020855971175474133
406.0, 0.01640140151297613
407.0, 0.006773648323861858
408.0, 0.009004025180902792
409.0, 0.012091571561383765
410.0, 0.01209738117657819
411.0, 0.006020735594377887
412.0, 0.015565577788340166
413.0, 0.03228335984205616
414.0, 0.036314331444338856
415.0, 0.014322609898691944
416.0, 0.016931896567205368
417.0, 0.015775141256550454
418.0, 0.01375958427174097
419.0, 0.021423503656224262
420.0, 0.03422198190638507
421.0, 0.03557707172274782
422.0, 0.041869786816722994
423.0, 0.01868234987675852
424.0, 0.0010191912763566943
425.0, 0.015392132173798754
426.0, 0.018955075639168064
427.0, 0.024347383899538597
428.0, 0.024480580710676537
429.0, 0.020734138460192224
430.0, 0.022086541364605566
431.0, 0.0355643019189342
432.0, 0.03582048472413739
433.0, 0.024724525908316648
434.0, 0.011476662370719714
435.0, 0.014213558735806039
436.0, 0.025647457302921794
437.0, 0.018823186967538236
438.0, 0.029839941969185498
439.0, 0.01902510297492192
440.0, 0.005414294332959979
441.0, 0.008708376726886687
442.0, 0.015964884071309266
443.0, 0.005137086407674765
444.0, 0.0032668354582465154
445.0, 0.016000631997446585
446.0, 0.033240476567461964
447.0, 0.04457329284715426
448.0, 0.03385943396520604
449.0, 0.018117488892694517
450.0, 0.011780978573090366
451.0, 0.011709317011254603
452.0, 0.012716932328774836
453.0, 0.016226767305499757
454.0, 0.025487470686746075
455.0, 0.02501076052774771
456.0, 0.01928595539461783
457.0, 0.0095056823443694
458.0, 0.0009575720339271821
459.0, 0.0002122916087591429
460.0, 0.0013806353819853581
461.0, 0.001031200655963524
462.0, 0.004846248359708817
463.0, 0.0059631541321095004
464.0, 0.007359833731271189
465.0, 0.020446975284207893
466.0, 0.021179093449331787
467.0, 0.00874810873366261
468.0, 0.0026967203892611204
469.0, 0.009325126815244254
470.0, 0.014594214795745436
471.0, 0.0009702518637298886
472.0, 0.0056926012855017215
473.0, 0.005947347434856089
474.0, 0.019446428358430266
475.0, 0.028564669424806996
476.0, 0.004262286351280797
477.0, 0.007762927447194592
478.0, 0.005456742273042907
479.0, 0.01678789396920589
480.0, 0.012794589862721936
481.0, 0.00678495030441245
482.0, 0.014634767022689855
483.0, 0.018303334363549292
484.0, 0.01989314286546967
485.0, 0.013041390118012613
486.0, 0.011237044273355512
487.0, 0.017542564872339978
488.0, 0.018626628852517674
489.0, 0.02797515727751317
490.0, 0.026257387790620135
491.0, 0.020189609391795663
492.0, 0.017122661341923872
493.0, 0.010782923073930004
494.0, 0.0011777297891232153
495.0, 0.022376688433584205
496.0, 0.007466318631984696
497.0, 0.005889009792113048
498.0, 0.02610288505023478
499.0, 0.027145167541639835
500.0, 0.0035144945714918915
501.0, 0.02171208686297125
502.0, 0.043245217362791195
503.0, 0.030128681394599482
504.0, 0.0027369282060795636
505.0, 0.004491750203972836
506.0, 0.028440343978827033
507.0, 0.021259384940841616
508.0, 0.013830493598186286
509.0, 0.02478222847921627
510.0, 0.04222010763264116
511.0, 0.049460200402972096
512.0, 0.04627495615579871
513.0, 0.03353721070971054
514.0, 0.021639068418918366
515.0, 0.02749744795339631
516.0, 0.044483199634094694
517.0, 0.047265315339613645
518.0, 0.03202953050924088
519.0, 0.022697404847762268
520.0, 0.02527437639818698
521.0, 0.018621158826492554
522.0, 0.02071546256492285
523.0, 0.04187432962513921
524.0, 0.03235492809403198
525.0, 0.031789411627317694
526.0, 0.029262740194827126
527.0, 0.017197560789843417
528.0, 0.017352010981856153
529.0, 0.03332140250377878
530.0, 0.021071737056750677
531.0, 0.01888868457995215
532.0, 0.010719323135460198
533.0, 0.026403639924496018
534.0, 0.0400286930292019
535.0, 0.028682851866312267
536.0, 0.049573283472598734
537.0, 0.028668449862376134
538.0, 0.004424484434018377
539.0, 0.003497069698448295
540.0, 0.0018179025187664228
541.0, 0.003597140745739636
542.0, 0.012698765640564574
543.0, 0.0033395217152848685
544.0, 0.007493058736098412
545.0, 0.023871268484828425
546.0, 0.021746107136507306
547.0, 0.010080801029487269
548.0, 0.021338233789355822
549.0, 0.032047135709022
550.0, 0.010431991444233998
551.0, 0.006269182846592284
552.0, 0.007984841224933134
553.0, 0.012932361162458708
554.0, 0.029212408232035424
555.0, 0.01160306963490412
556.0, 0.02425290124269744
557.0, 0.012465067329864576
558.0, 0.00763786551984412
559.0, 0.02676142989862805
560.0, 0.03790203885827097
561.0, 0.012028772340981465
562.0, 0.02551968762763899
563.0, 0.020734974236432425
564.0, 0.007228030757038192
565.0, 0.0004968968851017687
566.0, 0.005277390024803187
567.0, 0.02667952656513416
568.0, 0.03286092108234423
569.0, 0.033225564520772966
570.0, 0.02869981019980967
571.0, 0.015729519773608872
572.0, 0.007375411922330907
573.0, 0.023540956704688934
574.0, 0.0362616901096331
575.0, 0.03149543707572358
576.0, 0.009593736549724176
577.0, 0.02351647620065546
578.0, 0.04222377624130246
579.0, 0.018054482180508032
580.0, 0.023542565470404998
581.0, 0.011970629412816769
582.0, 0.012343504377870372
583.0, 0.018182951564149567
584.0, 0.03092260925062666
585.0, 0.046591734783625036
586.0, 0.04293338036434803
587.0, 0.018201664869949976
588.0, 0.0200009605367165
589.0, 0.048460317707533715
590.0, 0.04246489255441786
591.0, 0.025506591239315507
592.0, 0.03748154042206131
593.0, 0.015132038712611545
594.0, 0.003966225682328919
595.0, 0.02232825722661175
596.0, 0.01286688186338795
597.0, 0.005375654334661037
598.0, 0.015980641733671315
599.0, 0.01093735795588739
600.0, 0.02928555902421958
601.0, 0.023376208328478483
602.0, 0.017441760582734226
603.0, 0.02199038276166505
604.0, 0.024098201511272274
605.0, 0.015480241735178132
606.0, 0.00777624577640906
607.0, 0.014123479922424924
608.0, 0.03948682214711788
609.0, 0.049800270400735626
610.0, 0.03551906605094979
611.0, 0.02730873368730427
612.0, 0.04317055093714351
613.0, 0.04866902452271813
614.0, 0.02498498163751118
615.0, 9.432228178658645e-05
616.0, 0.02019316673301158
617.0, 0.040878116585808644
618.0, 0.012045435554286249
619.0, 0.012913466603507345
620.0, 0.008089967325485097
621.0, 0.006581299926309187
622.0, 0.01782831687613184
623.0, 0.02504182752483197
624.0, 0.019182667751193008
625.0, 0.00973602022133147
626.0, 0.007383337661500611
627.0, 0.03028531879143083
628.0, 0.010092474614758894
629.0, 0.008887095903024424
630.0, 0.020176827573470647
631.0, 0.01816272796526033
632.0, 0.012484537200619933
633.0, 0.011582584076629498
634.0, 0.01549966463694673
635.0, 0.009702190674391573
636.0, 0.0021237839233530743
637.0, 0.012214546025842104
638.0, 0.026763217510684778
639.0, 0.017764715791573873
640.0, 0.01931221130613688
641.0, 0.033770000732235746
642.0, 0.04220299680429742
643.0, 0.03819310764087462
644.0, 0.025611510058956777
645.0, 0.019445480021251845
646.0, 0.031431614152118544
647.0, 0.04040550151435937
648.0, 0.010270906920982684
649.0, 0.005367718992773955
650.0, 0.016547772238675148
651.0, 0.04280217469528661
652.0, 0.03563024860127857
653.0, 0.014678289494368661
654.0, 0.03084759832717965
655.0, 0.004425219796520783
656.0, 0.0024382479713491766
657.0, 0.008738013346936637
658.0, 0.014066924337782168
659.0, 0.006914509185311659
660.0, 0.0026847824280021816
661.0, 0.019522149199725426
662.0, 0.02680675835223778
663.0, 0.030352453002241608
664.0, 0.023112845576559054
665.0, 0.0066695101450344975
666.0, 0.003961828827997071
667.0, 0.026765287762521094
668.0, 0.01994511297421498
669.0, 0.025169143712771812
670.0, 0.008699272099170867
671.0, 0.006208518288720872
672.0, 0.019267069724324997
673.0, 0.020870065824586635
674.0, 0.010166651876244668
675.0, 0.009956361800525577
676.0, 0.005039539277011663
677.0, 0.024650055929534505
678.0, 0.010813654283567016
679.0, 0.009954841577243433
680.0, 0.003498793843082848
681.0, 0.008238976986949724
682.0, 0.006045651548917607
683.0, 0.011733624158702247
684.0, 0.020095080789584198
685.0, 0.021942144499992065
686.0, 0.008047322333721775
687.0, 0.009435283195586584
688.0, 0.039688163542174276
689.0, 0.02777971861042157
690.0, 0.018885484313164173
691.0, 0.014160576755604668
692.0, 0.026636416015453183
693.0, 0.03514286017107699
694.0, 0.03557987965598467
695.0, 0.034219378803140486
696.0, 0.02289376761315737
697.0, 0.027148938506612822
698.0, 0.03329507756064315
699.0, 0.03045100101871075
700.0, 0.021633776588584685
701.0, 0.024069174790704164
702.0, 0.032217250071078195
703.0, 0.024070853721451204
704.0, 0.013097398914912114
705.0, 0.012222596843438597
706.0, 0.02776234106896938
707.0, 0.03163899454846563
708.0, 0.03351948463183392
709.0, 0.032513384871308525
710.0, 0.026013973038284434
711.0, 0.03066323197143721
712.0, 0.03758808359973825
713.0, 0.02160446540956827
714.0, 0.016219865299447144
715.0, 0.017880941998594996
716.0, 0.007929907719374367
717.0, 0.011901834445655835
718.0, 0.03622469348985567
719.0, 0.014197107267110726
720.0, 0.014436964840220683
721.0, 0.005104951210095953
722.0, 0.01739655093434104
723.0, 0.02532880730646509
724.0, 0.029198361057539493
725.0, 0.03526047417865342
726.0, 0.013954912069490885
727.0, 0.025329629295089084
728.0, 0.011181366354286636
729.0, 0.016505228220556046
730.0, 0.02506247862588113
731.0, 0.017835278614245328
732.0, 0.015282079465921852
733.0, 0.028570304821085735
734.0, 0.030102888712206927
735.0, 0.021006165237478384
736.0, 0.029408730765889818
737.0, 0.04358240435440523
738.0, 0.025086874303873977
739.0, 0.00635113742942127
740.0, 0.012705907067234514
741.0, 0.026613381652462003
742.0, 0.03092601697402523
743.0, 0.021667240513415086
744.0, 0.012293180295179462
745.0, 0.01149495679758545
746.0, 0.015385331124497787
747.0, 0.007998505283706242
748.0, 0.004829828918814716
749.0, 0.02408675389235052
750.0, 0.03799100557928483
751.0, 0.045601703391824365
752.0, 0.021625470686158256
753.0, 0.014299637777578159
754.0, 0.020089352684526475
755.0, 0.02009485094536491
756.0, 0.01643104491484491
757.0, 0.017309532401568604
758.0, 0.012430334902388606
759.0, 0.001656872298759218
760.0, 0.004755092710124237
761.0, 0.009469416000066299
762.0, 0.016789943601110826
763.0, 0.02122274841852203
764.0, 0.02128513490600805
765.0, 0.018131116503460783
766.0, 0.009201652384710534
767.0, 0.017241786034415722
768.0, 0.02180999652049193
769.0, 0.005626639594977502
770.0, 0.007851253892026145
771.0, 0.018046438562904797
772.0, 0.009301379910013556
773.0, 0.004436788203881596
774.0, 0.008965975502890862
775.0, 0.014520464962083628
776.0, 0.013747770007898672
777.0, 0.000715170124849744
778.0, 0.01782813498064635
779.0, 0.012752365810819222
780.0, 0.008032912617739783
781.0, 0.03682315583828757
782.0, 0.017760819591857394
783.0, 0.016745714666912062
784.0, 0.011650255070771985
785.0, 0.002643051387023878
786.0, 0.010772106817228852
787.0, 0.002934683807065188
788.0, 0.015933673595785208
789.0, 0.020195712167863523
790.0, 0.0164707476930676
791.0, 0.02280634750796647
792.0, 0.043475443820058385
793.0, 0.039025324985170425
794.0, 0.026378043214151506
795.0, 0.04506765502369853
796.0, 0.049510233740759545
797.0, 0.02408541222211185
798.0, 0.021236822762469933
799.0, 0.0394059214493539
800.0, 0.05764653278946737
801.0, 0.02623116159349767
802.0, 0.03036556725822921
803.0, 0.025962463665819842
804.0, 0.018373514679814077
805.0, 0.032423203884382024
806.0, 0.04646678856654759
807.0, 0.02687043541450448
808.0, 0.009375007356243008
809.0, 0.015744354385739994
810.0, 0.048472726910616784
811.0, 0.04765321753488256
812.0, 0.04050530293282009
813.0, 0.02455745166757677
814.0, 0.01009675712336308
815.0, 0.012614722886386435
816.0, 0.019460312330345952
817.0, 0.031379298870198316
818.0, 0.03464556894342483
819.0, 0.0171510335016523
820.0, 0.023198935174194617
821.0, 0.019947038738914895
822.0, 0.02528576040651734
823.0, 0.029417783737608907
824.0, 0.019085560158342084
825.0, 0.026612136374401425
826.0, 0.002808889674733174
827.0, 0.008784079281618526
828.0, 0.015845899261795963
829.0, 0.014113189484480423
830.0, 0.024279158086070153
831.0, 0.03319480545441605
832.0, 0.024378902007018644
833.0, 0.018012465420896996
834.0, 0.02894161046260571
835.0, 0.013744513383109589
836.0, 0.010336679022124986
837.0, 0.03631611641732707
838.0, 0.015200800448793503
839.0, 0.009107563048047128
840.0, 0.01166835239811961
841.0, 0.02147129703419611
842.0, 0.036233162994858674
843.0, 0.016294496746790475
844.0, 0.032004665952890685
845.0, 0.006591995419621443
846.0, 0.03132699967342486
847.0, 0.021566369289493424
848.0, 0.009780673734471505
849.0, 0.0028736170355024146
850.0, 0.013456364973103053
851.0, 0.018037785239327697
852.0, 0.002966754521252094
853.0, 0.014835984020605332
854.0, 0.0195772440807017
855.0, 0.003981998769538045
856.0, 0.011278157129485659
857.0, 0.015005535629821081
858.0, 0.024648537080818295
859.0, 0.0229778642352407
860.0, 0.023054278736736773
861.0, 0.014539764364775441
862.0, 0.022545030397342555
863.0, 0.0345786413871913
864.0, 0.018183304679817183
865.0, 0.021868341703603876
866.0, 0.014081747764111103
867.0, 0.017549584353326174
868.0, 0.035239979358748987
869.0, 0.035540966131220736
870.0, 0.010077496020928136
871.0, 0.0013802969668443082
872.0, 0.032204043620866186
873.0, 0.018521581294789292
874.0, 0.01136231595258669
875.0, 0.017058554064356406
876.0, 0.004907219644358364
877.0, 0.011296148251569124
878.0, 0.03129839268420085
879.0, 0.031524709104434806
880.0, 0.018813725140969913
881.0, 0.011968347267393334
882.0, 0.014958877552355919
883.0, 0.037449445847209176
884.0, 0.012265046696311822
885.0, 0.019641869463550385
886.0, 0.02416666562499997
887.0, 0.010376199806818262
888.0, 0.01608004769936035
889.0, 0.032673346759571266
890.0, 0.026420641206874824
891.0, 0.02562838793117643
892.0, 0.04663863914821334
893.0, 0.04065840209337783
894.0, 0.005082403558862891
895.0, 0.007043219878667174
896.0, 0.020519501158188663
897.0, 0.022347407861695714
898.0, 0.025346304142982005
899.0, 0.01916087674582767
900.0, 0.01700971245092369
901.0, 0.038855285523880186
902.0, 0.03126915677727219
903.0, 0.02572952197747077
904.0, 0.007244328122135455
905.0, 0.017636575192258114
906.0, 0.023964548686170362
907.0, 0.012674552985577677
908.0, 0.01433024510115388
909.0, 0.009114196581065742
910.0, 0.006557305044655824
911.0, 0.006758340575610526
912.0, 0.03034403740960291
913.0, 0.00890438320333154
914.0, 0.02791330112365471
915.0, 0.034774158701588474
916.0, 0.018374879267608907
917.0, 0.010490426726934255
918.0, 0.027135184878631098
919.0, 0.029802720201588064
920.0, 0.02225540982395991
921.0, 0.02300956276845923
922.0, 0.021995838930810745
923.0, 0.050365001325400005
924.0, 0.05709538229246871
925.0, 0.01868682172557764
926.0, 0.03519060501262733
927.0, 0.03681718659722007
928.0, 0.04168564035890505
929.0, 0.03846078116606747
930.0, 0.010870136312852961
931.0, 0.006027786946178412
932.0, 0.012980951742388612
933.0, 0.0019393067981833192
934.0, 0.010766100087008729
935.0, 0.03256661898059816
936.0, 0.031020793625282813
937.0, 0.012520099050142362
938.0, 0.0041475271628775906
939.0, 0.017472845506257183
940.0, 0.03003882066482522
941.0, 0.023950236559053418
942.0, 0.018851562360870468
943.0, 0.038103556754254024
944.0, 0.03964425535417428
945.0, 0.004208982539330964
946.0, 0.025624557978437046
947.0, 0.019566054652628666
948.0, 0.013484185421024308
949.0, 0.03520811468347468
950.0, 0.019229918694245295
951.0, 0.008609085325503888
952.0, 0.030083995412807173
953.0, 0.0413283997265312
954.0, 0.028100245835168108
955.0, 0.023976297465945925
956.0, 0.02439691428712678
957.0, 0.015566171311828171
958.0, 0.00434573844888736
959.0, 0.054702089385632216
960.0, 0.01956337342482825
961.0, 0.014762612492538725
962.0, 0.023773139198226344
963.0, 0.010861887077517559
964.0, 0.005890894408544429
965.0, 0.009867011607071416
966.0, 0.000600859999263347
967.0, 0.01050070057147919
968.0, 0.008510713732069092
969.0, 0.007881268671489135
970.0, 0.027844883842692666
971.0, 0.020504988551325997
972.0, 0.026247978516436194
973.0, 0.02381079946828848
974.0, 0.027962516576262253
975.0, 0.027699594671197026
976.0, 0.01816827295216282
977.0, 0.015133370979762858
978.0, 0.01595408142429702
979.0, 0.014838771954714673
980.0, 0.02735955305940606
981.0, 0.028432229611472213
982.0, 0.02597253966494553
983.0, 0.007783028415373685
984.0, 0.0015718905511149163
985.0, 0.02443290334580143
986.0, 0.02883712045396536
987.0, 0.04372528619730648
988.0, 0.030442640769138128
989.0, 0.005007163888791395
990.0, 0.024503397975123443
991.0, 0.03784289743243465
992.0, 0.03354295316780587
993.0, 0.026574977052963373
994.0, 0.03287086770181835
995.0, 0.03703024140043131
996.0, 0.0442360609789572
997.0, 0.02285301247861335
998.0, 0.00956497985534815
999.0, 0.032638859410343966
1000.0, 0.018156585529445202
1001.0, 0.007599347039825583
1002.0, 0.012504404909685688
1003.0, 0.008779304834954683
1004.0, 0.027237452477280794
1005.0, 0.008126566480782376
1006.0, 0.02584766141398755
1007.0, 0.012901112183688472
1008.0, 0.012260228066871373
1009.0, 0.028858279116563582
1010.0, 0.028046482180894183
1011.0, 0.01591198644823497
1012.0, 0.013800039469992934
1013.0, 0.025768404967573145
1014.0, 0.03756096150931165
1015.0, 0.025496781152252096
1016.0, 0.01040441095496432
1017.0, 0.0204436778582434
1018.0, 0.0077490426978138564
1019.0, 0.01144522573410353
1020.0, 0.023357990993734125
1021.0, 0.004488408039628446
1022.0, 0.026144049222445783
1023.0, 0.03587558988486594
1024.0, 0.023160782246062984
1025.0, 0.00468860586875826
1026.0, 0.010014208150739622
1027.0, 0.014844489090329021
1028.0, 0.034594915970566194
1029.0, 0.019042403364957154
1030.0, 0.018096582753578755
1031.0, 0.03137065599932304
1032.0, 0.02772302521695745
1033.0, 0.023222468839985837
1034.0, 0.03419281096996264
1035.0, 0.014666265509330423
1036.0, 0.023008405798304894
1037.0, 0.012597686363888434
1038.0, 0.020885764335015922
1039.0, 0.007573616866042544
1040.0, 0.013211261418410605
1041.0, 0.02141731107959356
1042.0, 0.01461861260969955
1043.0, 0.025245697662629244
1044.0, 0.01852568962083982
1045.0, 0.0018855847782288213
1046.0, 0.003821312392953118
1047.0, 0.0027766890768163256
1048.0, 0.03492168693109685
1049.0, 0.01252533862081633
1050.0, 0.038138055985344275
1051.0, 0.02203912319598082
1052.0, 0.01245774725491928
1053.0, 0.013608249460308726
1054.0, 0.027757602456425744
1055.0, 0.027362616481297293
1056.0, 0.011669769191736488
1057.0, 0.010190844698014508
1058.0, 0.01087632376522637
1059.0, 0.013764079454423902
1060.0, 0.036889648438489936
1061.0, 0.02622403352997916
1062.0, 0.03148173562834953
1063.0, 0.04368639124127324
1064.0, 0.024681080042079265
1065.0, 0.013809379337142925
1066.0, 0.024840281404653188
1067.0, 0.012811906959914023
1068.0, 0.009241543768877033
1069.0, 0.014679454278033102
1070.0, 0.025049556534662835
1071.0, 0.029155305537362272
1072.0, 0.027008785543459975
1073.0, 0.03498820901733677
1074.0, 0.03803487801675362
1075.0, 0.040518511670070236
1076.0, 0.05776906368296447
1077.0, 0.00867930123910287
1078.0, 0.03127345681717224
1079.0, 0.011032276730245276
1080.0, 0.03577522737439889
1081.0, 0.031177704002099637
1082.0, 0.009810210474009552
1083.0, 0.012240862517159053
1084.0, 0.016176345934784304
1085.0, 0.02826023787826934
1086.0, 0.03752298447418746
1087.0, 0.018127873886714847
1088.0, 0.029591148081272348
1089.0, 0.06197220623482434
1090.0, 0.025917582784810003
1091.0, 0.025981140802657534
1092.0, 0.03745150317975454
1093.0, 0.026505804357048215
1094.0, 0.023353439207692867
1095.0, 0.016889558328745974
1096.0, 0.007417337777035096
1097.0, 0.02066193984321136
1098.0, 0.013775637098030908
1099.0, 0.017278142488637526
1100.0, 0.022924434883394282
1101.0, 0.04005009146565855
1102.0, 0.030802900101517042
1103.0, 0.024846214346846987
1104.0, 0.02114125679869216
1105.0, 0.009085311269771551
1106.0, 0.010512672683204733
1107.0, 0.029521932372972706
1108.0, 0.02129612650798962
1109.0, 0.028288870275931924
1110.0, 0.022355889271340065
1111.0, 0.030860925829153965
1112.0, 0.03228648134319021
1113.0, 0.024486386148453138
1114.0, 0.019316715851538376
1115.0, 0.026019304075514286
1116.0, 0.020174355950213236
1117.0, 0.01970630922276544
1118.0, 0.022533729814781474
1119.0, 0.03378225965490353
1120.0, 0.02755909417786884
1121.0, 0.01368656142880302
1122.0, 0.02135821825780177
1123.0, 0.024306111556921705
1124.0, 0.010661191644190124
1125.0, 0.012030395926809035
1126.0, 0.023589252617656875
1127.0, 0.014761144879260581
1128.0, 0.02273658203753785
1129.0, 0.027758517000950236
1130.0, 0.0333801640037875
1131.0, 0.010809676300864586
1132.0, 0.013152423082129322
1133.0, 0.03609215164874473
1134.0, 0.052624653925490435
1135.0, 0.017341633611102195
1136.0, 0.0058964205960716255
1137.0, 0.026982199184815217
1138.0, 0.01840719175076457
1139.0, 0.03183246160427583
1140.0, 0.04282785690423013
1141.0, 0.018128289255992518
1142.0, 0.0077710049467257505
1143.0, 0.01267196330173359
1144.0, 0.005086518256522635
1145.0, 0.013872838901633442
1146.0, 0.018041288028317486
1147.0, 0.027735162533377607
1148.0, 0.0165945472993653
1149.0, 0.005441100209089066
1150.0, 0.03437114114050715
1151.0, 0.018082939149453692
1152.0, 0.005360691599502694
1153.0, 0.04482901989233019
1154.0, 0.034831163102593064
1155.0, 0.001478231280704647
1156.0, 0.009686893128914117
1157.0, 0.0024563006964912035
1158.0, 0.007721342923541543
1159.0, 0.01503677836471969
1160.0, 0.005505926163506629
1161.0, 0.0050330166938135105
1162.0, 0.007606120720509943
1163.0, 0.011472623566027351
1164.0, 0.03262086910281965
1165.0, 0.020963673731216024
1166.0, 0.010007024042051588
1167.0, 0.021625628046325084
1168.0, 0.03855950146110287
1169.0, 0.03582656235807525
1170.0, 0.027115278113406017
1171.0, 0.0012344639658624797
1172.0, 0.011403684880895978
1173.0, 0.030713337793427675
1174.0, 0.019161310179589653
1175.0, 0.016707526864024998
1176.0, 0.03686260836501431
1177.0, 0.03615226185617455
1178.0, 0.023929374779218075
1179.0, 0.029817801086970065
1180.0, 0.03981037804338667
1181.0, 0.029475617215900796
1182.0, 0.025256863960295778
1183.0, 0.018666967255411043
1184.0, 0.003894886728121339
1185.0, 0.020631755165002586
1186.0, 0.040673408967247124
1187.0, 0.03546295243197711
1188.0, 0.035030132566588275
1189.0, 0.04135255361710279
1190.0, 0.025725732418879006
1191.0, 0.007159163755184273
1192.0, 0.015235524066263202
1193.0, 0.029629054845517477
1194.0, 0.023098059022341803
1195.0, 0.0388720382482815
1196.0, 0.03430403892610244
1197.0, 0.007999182317223111
1198.0, 0.003768994071138338
1199.0, 0.023123730048043523
1200.0, 0.04363137773098361
1201.0, 0.031128594778891874
1202.0, 0.006987623143918852
1203.0, 0.011260291129461765
1204.0, 0.007941468321443077
1205.0, 0.012415076840683825
1206.0, 0.0037279569168786413
1207.0, 0.003000380835507896
1208, 0.0
1209, 0.0
1210, 0.0
1211, 0.0
1212, 0.0
1213, 0.0
1214, 0.0
1215, 0.0
1216, 0.0
1217, 0.0
1218, 0.0
1219, 0.0
1220, 0.0
1221, 0.0
1222, 0.0
1223, 0.0
1224, 0.0
1225, 0.0
1226, 0.0
1227, 0.0
1228, 0.0
1229, 0.0
1230, 0.0
1231, 0.0
1232, 0.0
1233, 0.0
1234, 0.0
1235, 0.0
1236, 0.0
1237, 0.0
1238, 0.0
1239, 0.0
1240, 0.0
1241, 0.0
1242, 0.0
1243, 0.0
1244, 0.0
1245, 0.0
1246, 0.0
1247, 0.0
1248, 0.0
1249, 0.0
1250, 0.0
1251, 0.0
1252, 0.0
1253, 0.0
1254, 0.0
1255, 0.0
1256, 0.0
1257, 0.0
1258, 0.0
1259, 0.0
1260, 0.0
1261, 0.0
1262, 0.0
1263, 0.0
1264, 0.0
1265, 0.0
1266, 0.0
1267, 0.0
1268, 0.0
1269, 0.0
1270, 0.0
1271, 0.0
1272, 0.0
1273, 0.0
1274, 0.0
1275, 0.0
1276, 0.0
1277, 0.0
1278, 0.0
1279, 0.0
1280, 0.0
1281, 0.0
1282, 0.0
1283, 0.0
1284, 0.0
1285, 0.0
1286, 0.0
1287, 0.0
1288, 0.0
1289, 0.0
1290, 0.0
1291, 0.0
1292, 0.0
1293, 0.0
1294, 0.0
1295, 0.0
1296, 0.0
1297, 0.0
1298, 0.0
1299, 0.0
1300, 0.0
1301, 0.0
1302, 0.0
1303, 0.0
1304, 0.0
1305, 0.0
1306, 0.0
1307, 0.0
1308, 0.0
1309, 0.0
1310, 0.0
1311, 0.0
1312, 0.0
1313, 0.0
1314, 0.0
1315, 0.0
1316, 0.0
1317, 0.0
1318, 0.0
1319, 0.0
1320, 0.0
1321, 0.0
1322, 0.0
1323, 0.0
1324, 0.0
1325, 0.0
1326, 0.0
1327, 0.0
1328, 0.0
1329, 0.0
1330, 0.0
1331, 0.0
1332, 0.0
1333, 0.0
1334, 0.0
1335, 0.0
1336, 0.0
1337, 0.0
1338, 0.0
1339, 0.0
1340, 0.0
1341, 0.0
1342, 0.0
1343, 0.0
1344, 0.0
1345, 0.0
1346, 0.0
1347, 0.0
1348, 0.0
1349, 0.0
1350, 0.0
1351, 0.0
1352, 0.0
1353, 0.0
1354, 0.0
1355, 0.0
1356, 0.0
1357, 0.0
1358, 0.0
1359, 0.0
1360, 0.0
1361, 0.0
1362, 0.0
1363, 0.0
1364, 0.0
1365, 0.0
1366, 0.0
1367, 0.0
1368, 0.0
1369, 0.0
1370, 0.0
1371, 0.0
1372, 0.0
1373, 0.0
1374, 0.0
1375, 0.0
1376, 0.0
1377, 0.0
1378, 0.0
1379, 0.0
1380, 0.0
1381, 0.0
1382, 0.0
1383, 0.0
1384, 0.0
1385, 0.0
1386, 0.0
1387, 0.0
1388, 0.0
1389, 0.0
1390, 0.0
1391, 0.0
1392, 0.0
1393, 0.0
1394, 0.0
1395, 0.0
1396, 0.0
1397, 0.0
1398, 0.0
1399, 0.0
1400, 0.0
1401, 0.0
1402, 0.0
1403, 0.0
1404, 0.0
1405, 0.0
1406, 0.0
1407, 0.0
1408, 0.0
1409, 0.0
1410, 0.0
1411, 0.0
1412, 0.0
1413, 0.0
1414, 0.0
1415, 0.0
1416, 0.0
1417, 0.0
1418, 0.0
1419, 0.0
1420, 0.0
1421, 0.0
1422, 0.0
1423, 0.0
1424, 0.0
1425, 0.0
1426, 0.0
1427, 0.0
1428, 0.0
1429, 0.0
1430, 0.0
1431, 0.0
1432, 0.0
1433, 0.0
1434, 0.0
1435, 0.0
1436, 0.0
1437, 0.0
1438, 0.0
1439, 0.0
1440, 0.0
1441, 0.0
1442, 0.0
1443, 0.0
1444, 0.0
1445, 0.0
1446, 0.0
1447, 0.0
1448, 0.0
1449, 0.0
1450, 0.0
1451, 0.0
1452, 0.0
1453, 0.0
1454, 0.0
1455, 0.0
1456, 0.0
1457, 0.0
1458, 0.0
1459, 0.0
1460, 0.0
1461, 0.0
1462, 0.0
1463, 0.0
1464, 0.0
1465, 0.0
1466, 0.0
1467, 0.0
1468, 0.0
1469, 0.0
1470, 0.0
1471, 0.0
1472, 0.0
1473, 0.0
1474, 0.0
1475, 0.0
1476, 0.0
1477, 0.0
1478, 0.0
1479, 0.0
1480, 0.0
1481, 0.0
1482, 0.0
1483, 0.0
1484, 0.0
1485, 0.0
1486, 0.0
1487, 0.0
1488, 0.0
1489, 0.0
1490, 0.0
1491, 0.0
1492, 0.0
1493, 0.0
1494, 0.0
1495, 0.0
1496, 0.0
1497, 0.0
1498, 0.0
1499, 0.0
1500, 0.0
1501, 0.0
1502, 0.0
1503, 0.0
1504, 0.0
1505, 0.0
1506, 0.0
1507, 0.0
1508, 0.0
1509, 0.0
1510, 0.0
1511, 0.0
1512, 0.0
1513, 0.0
1514, 0.0
1515, 0.0
1516, 0.0
1517, 0.0
1518, 0.0
1519, 0.0
1520, 0.0
1521, 0.0
1522, 0.0
1523, 0.0
1524, 0.0
1525, 0.0
1526, 0.0
1527, 0.0
1528, 0.0
1529, 0.0
1530, 0.0
1531, 0.0
1532, 0.0
1533, 0.0
1534, 0.0
1535, 0.0
1536, 0.0
1537, 0.0
1538, 0.0
1539, 0.0
1540, 0.0
1541, 0.0
1542, 0.0
1543, 0.0
1544, 0.0
1545, 0.0
1546, 0.0
1547, 0.0
1548, 0.0
1549, 0.0
1550, 0.0
1551, 0.0
1552, 0.0
1553, 0.0
1554, 0.0
1555, 0.0
1556, 0.0
1557, 0.0
1558, 0.0
1559, 0.0
1560, 0.0
1561, 0.0
1562, 0.0
1563, 0.0
1564, 0.0
1565, 0.0
1566, 0.0
1567, 0.0
1568, 0.0
1569, 0.0
1570, 0.0
1571, 0.0
1572, 0.0
1573, 0.0
1574, 0.0
1575, 0.0
1576, 0.0
1577, 0.0
1578, 0.0
1579, 0.0
1580, 0.0
1581, 0.0
1582, 0.0
1583, 0.0
1584, 0.0
1585, 0.0
1586, 0.0
1587, 0.0
1588, 0.0
1589, 0.0
1590, 0.0
1591, 0.0
1592, 0.0
1593, 0.0
1594, 0.0
1595, 0.0
1596, 0.0
1597, 0.0
1598, 0.0
1599, 0.0
