30, 0.0
31, 0.0
32, 0.0
33, 0.0
34, 0.0
35, 0.0
36, 0.0
37, 0.0
38, 0.0
39, 0.0
40, 0.0
41, 0.0
42, 0.0
43, 0.0
44, 0.0
45, 0.0
46, 0.0
47, 0.0
48, 0.0
49, 0.0
50, 0.0
51, 0.0
52, 0.0
53, 0.0
54, 0.0
55, 0.0
56, 0.0
57, 0.0
58, 0.0
59, 0.0
60, 0.0
61, 0.0
62, 0.0
63, 0.0
64, 0.0
65, 0.0
66, 0.0
67, 0.0
68, 0.0
69, 0.0
70, 0.0
71, 0.0
72, 0.0
73, 0.0
74, 0.0
75, 0.0
76, 0.0
77, 0.0
78, 0.0
79, 0.0
80, 0.0
81, 0.0
82, 0.0
83, 0.0
84, 0.0
85, 0.0
86, 0.0
87, 0.0
88, 0.0
89, 0.0
90, 0.0
91, 0.0
92, 0.0
93, 0.0
94, 0.0
95.0, 0.014902638284568611
96.0, 0.015303616416855155
97.0, 0.004361798281227349
98.0, 0.009828890889905718
99.0, 0.02318621842281306
100.0, 0.017450476662556665
101.0, 0.012597891983661258
102.0, 0.014430129136291167
103.0, 0.02546230661120977
104.0, 0.047643550559787674
105.0, 0.06860717053744617
106.0, 0.0912044383647339
107.0, 0.11248392487669333
108.0, 0.10390063912364547
109.0, 0.06940461981098431
110.0, 0.04355910981372771
111.0, 0.03278526574558458
112.0, 0.024875075548193706
113.0, 0.016666416164992332
114.0, 0.011326547491136622
115.0, 0.007881451797446657
116.0, 0.0036695730622336572
117.0, 0.0009097907586415149
118.0, 0.006902488972514388
119.0, 0.012050676259845364
120.0, 0.009244724724883326
121.0, 0.0013379087537994674
122.0, 0.012841732752356253
123.0, 0.03008557842744996
124.0, 0.04582603039419629
125.0, 0.055893144509200056
126.0, 0.06703019428351503
127.0, 0.07927577317235958
128.0, 0.08859425860130068
129.0, 0.0892982445929698
130.0, 0.09717905610189381
131.0, 0.1087550304884733
132.0, 0.12080105061011051
133.0, 0.13234258024926024
134.0, 0.15711865796218347
135.0, 0.18300581711048694
136.0, 0.21099414546134965
137.0, 0.24953471480377037
138.0, 0.28949178013897625
139.0, 0.35462462181862175
140.0, 0.4456040781121598
141.0, 0.556477967965589
142.0, 0.7023078230519562
143.0, 0.8671533012280245
144.0, 0.9789737768076145
145.0, 0.9749748953941932
146.0, 0.8095146402648999
147.0, 0.6054650675826315
148.0, 0.4335025379409655
149.0, 0.3124218255004015
150.0, 0.23881121098385152
151.0, 0.20389264003943783
152.0, 0.19129871603073098
153.0, 0.18999064582684164
154.0, 0.19305761765124413
155.0, 0.19958910389598916
156.0, 0.21514999907974072
157.0, 0.239115459934713
158.0, 0.267511934909412
159.0, 0.29896627602929354
160.0, 0.33344955744971216
161.0, 0.3762517148664016
162.0, 0.42244338137242526
163.0, 0.4579613406263733
164.0, 0.4669809163402316
165.0, 0.45454397207968245
166.0, 0.42009343363520285
167.0, 0.36222623653742514
168.0, 0.29500435019546817
169.0, 0.23264928821634365
170.0, 0.17886197489526123
171.0, 0.13568870578362904
172.0, 0.10518934860412492
173.0, 0.07979967357895704
174.0, 0.05321033188928313
175.0, 0.028900626357685113
176.0, 0.014417056038667567
177.0, 0.006752365962957871
178.0, 0.0018051773922053282
179.0, 0.0008710975946462746
180.0, 0.0009833108565298287
181.0, 0.0006087205771645597
182.0, 0.004880961569856079
183.0, 0.011883320426004191
184.0, 0.0197693191262308
185.0, 0.027935789202389587
186.0, 0.039241039705399904
187.0, 0.05705105317353799
188.0, 0.07725016759712737
189.0, 0.09135735086912629
190.0, 0.11047275181593455
191.0, 0.1362119687876161
192.0, 0.16443594112878943
193.0, 0.19255068350741936
194.0, 0.22763488130397921
195.0, 0.25403782103365
196.0, 0.2760095961166251
197.0, 0.2961703571229046
198.0, 0.3087028063398704
199.0, 0.31084739324052185
200.0, 0.3044364724680288
201.0, 0.29472993085075305
202.0, 0.2865573892793024
203.0, 0.2757995791016574
204.0, 0.2706629655106075
205.0, 0.2740959711348955
206.0, 0.28533073533689524
207.0, 0.2977977074470462
208.0, 0.32179896122002466
209.0, 0.34260545975548623
210.0, 0.35948714736454745
211.0, 0.3820198483163585
212.0, 0.39393328643177017
213.0, 0.3923913386117304
214.0, 0.38239875535505224
215.0, 0.3659133813115251
216.0, 0.33746384947496905
217.0, 0.30378266058629366
218.0, 0.27183202828117337
219.0, 0.24092817394979366
220.0, 0.2095836281225919
221.0, 0.1897806557200097
222.0, 0.17144978538023115
223.0, 0.15449858994330062
224.0, 0.1430097971473585
225.0, 0.13802858738165824
226.0, 0.13192453711479055
227.0, 0.1275113674813747
228.0, 0.12471878623634182
229.0, 0.12206118460916691
230.0, 0.12955475373006808
231.0, 0.13237547911593064
232.0, 0.13673940899970674
233.0, 0.14745380190123336
234.0, 0.15741958142491097
235.0, 0.16007385752061948
236.0, 0.16266898524096055
237.0, 0.1662707491773
238.0, 0.16747153610161
239.0, 0.17127081294229873
240.0, 0.16950023805226958
241.0, 0.16211772893860069
242.0, 0.15235991680314842
243.0, 0.14621947609513092
244.0, 0.13245082556975446
245.0, 0.12256679787691874
246.0, 0.11565900812141602
247.0, 0.10325995910873989
248.0, 0.09258792007019707
249.0, 0.08712414081770563
250.0, 0.08085322128962195
251.0, 0.06960539086851526
252.0, 0.05888757180296805
253.0, 0.05211770403361232
254.0, 0.04607208148310959
255.0, 0.040741767355872684
256.0, 0.036862696880510734
257.0, 0.032252117297456376
258.0, 0.03278074070054
259.0, 0.03594878038350635
260.0, 0.037861745982839326
261.0, 0.03734159893954708
262.0, 0.04193528718973799
263.0, 0.04640866269413542
264.0, 0.05044938283091553
265.0, 0.054859387330012686
266.0, 0.058751759187448266
267.0, 0.06742748605583097
268.0, 0.07157984745292284
269.0, 0.07093075713986408
270.0, 0.06994269466460423
271.0, 0.06233566789194074
272.0, 0.057189012276214916
273.0, 0.04957425535222647
274.0, 0.03908194316132845
275.0, 0.03333078300465224
276.0, 0.020023921495784087
277.0, 0.011262562514479055
278.0, 0.003592752024823574
279.0, 0.006376188757042978
280.0, 0.005766294152085037
281.0, 0.004845752336904694
282.0, 0.0049165960982336335
283.0, 0.0053987940381308545
284.0, 0.006094270465417867
285.0, 0.005622386924676884
286.0, 0.0070362153997262965
287.0, 0.003301668868271398
288.0, 0.003439670605865045
289.0, 0.0009514895464622754
290.0, 0.000931629686786071
291.0, 0.0010743189110361242
292.0, 0.0023967266771257726
293.0, 0.0014008669423493034
294.0, 0.001348717002342992
295.0, 0.00023148949889161772
296.0, 0.006189020111010485
297.0, 0.0099144892993293
298.0, 0.005188336269119172
299.0, 0.0008973013603370752
300.0, 0.003997878059423207
301.0, 0.003257195662742466
302.0, 0.001075786423549044
303.0, 0.0005602391946438245
304.0, 0.0027050669443212235
305.0, 0.002457565477903143
306.0, 0.00048361725561171917
307.0, 0.0011218353888973183
308.0, 0.0009473728258013428
309.0, 0.00361482963166454
310.0, 0.006390970451128515
311.0, 0.007744366659073058
312.0, 0.0076633941805535006
313.0, 0.009451866491418966
314.0, 0.011936327132373518
315.0, 0.013645245225393836
316.0, 0.015839558467599473
317.0, 0.018650334810188997
318.0, 0.018058594725160977
319.0, 0.023106656368091047
320.0, 0.025445296855787704
321.0, 0.02716263503668084
322.0, 0.03257914651677627
323.0, 0.026843656911145965
324.0, 0.03172332395820964
325.0, 0.03445175966149209
326.0, 0.0304228771335162
327.0, 0.027376180328972398
328.0, 0.025985861520027163
329.0, 0.02544355829399287
330.0, 0.023958787553958406
331.0, 0.022076218384816396
332.0, 0.021542043532717808
333.0, 0.018842895824004502
334.0, 0.012476939327429524
335.0, 0.009301046652072615
336.0, 0.010054332016758651
337.0, 0.005383051089960712
338.0, 0.0014064738767487466
339.0, 0.001765186975073344
340.0, 0.00013068534331205333
341.0, 0.0004830692231603122
342.0, 0.0017497009013851764
343.0, 0.0016271632500915016
344.0, 0.002872831055803889
345.0, 0.004478043866402114
346.0, 0.006898931449997151
347.0, 0.015607570030449247
348.0, 0.015839581135122592
349.0, 0.020903140551582936
350.0, 0.029940176281341692
351.0, 0.03637633685825853
352.0, 0.04104832061089187
353.0, 0.05391778587182523
354.0, 0.06473251664481687
355.0, 0.0742871168698946
356.0, 0.08718306983707695
357.0, 0.09626886223196926
358.0, 0.10976659631680351
359.0, 0.1193528403146586
360.0, 0.1239108227626959
361.0, 0.1264414009095843
362.0, 0.12328165480828164
363.0, 0.13092745425280358
364.0, 0.13436592751783247
365.0, 0.1341875173529432
366.0, 0.13623304750195256
367.0, 0.13168157416643456
368.0, 0.1324532889618059
369.0, 0.13459838591086037
370.0, 0.13667983974073555
371.0, 0.13897217187183028
372.0, 0.1384135920469606
373.0, 0.1326083813220627
374.0, 0.13013119237307563
375.0, 0.12537836727800136
376.0, 0.11042201699839614
377.0, 0.09387712354546429
378.0, 0.08124816336165835
379.0, 0.07088644450142792
380.0, 0.06296706214946778
381.0, 0.0573419284929712
382.0, 0.04605829584994074
383.0, 0.03931369629790475
384.0, 0.034094807711083135
385.0, 0.027036430528373925
386.0, 0.019969686713320216
387.0, 0.018050099602740524
388.0, 0.017056406028507345
389.0, 0.019468998564961006
390.0, 0.018638592707217426
391.0, 0.013556102705044077
392.0, 0.014850741545487859
393.0, 0.01009743814956277
394.0, 0.009340470166624728
395.0, 0.00874485246046853
396.0, 0.004326463837914514
397.0, 0.0028909794072943438
398.0, 0.002910084376684522
399.0, 0.0030051116156679766
400.0, 0.004940440817409199
401.0, 0.008143978499067844
402.0, 0.009295514427636471
403.0, 0.009054569628291782
404.0, 0.00736038546598039
405.0, 0.007489380032229214
406.0, 0.008229268171511437
407.0, 0.005094097331767918
408.0, 0.009885954617739194
409.0, 0.013973067879676376
410.0, 0.01683732851928701
411.0, 0.018032542131480905
412.0, 0.017923289507055355
413.0, 0.028073576357330994
414.0, 0.03353386397759179
415.0, 0.037036802650238586
416.0, 0.04015667845290605
417.0, 0.04137698306753048
418.0, 0.04651092373649168
419.0, 0.05067912969352362
420.0, 0.055523835636618626
421.0, 0.06213898408554084
422.0, 0.0695451510041291
423.0, 0.07526243392643271
424.0, 0.08532246569721576
425.0, 0.09334921709262099
426.0, 0.0990932728598561
427.0, 0.10544578596651098
428.0, 0.1104080250788324
429.0, 0.11427701158834631
430.0, 0.11398020850290606
431.0, 0.1091529031678724
432.0, 0.09957303280628799
433.0, 0.08576348542378842
434.0, 0.07543206525999475
435.0, 0.060412878783462756
436.0, 0.04704770653175249
437.0, 0.0400058420792235
438.0, 0.03614700289894871
439.0, 0.027388536572972633
440.0, 0.02230711209358104
441.0, 0.014731075107109644
442.0, 0.0070814911207941564
443.0, 0.004677793956766939
444.0, 0.0044041863225239225
445.0, 0.005686062766414157
446.0, 0.004106151186549613
447.0, 0.0007722506381749501
448.0, 0.003811679430964955
449.0, 0.006645952892395153
450.0, 0.0028590944348508944
451.0, 0.00327536551329067
452.0, 0.004102050524978776
453.0, 0.0013139578640308759
454.0, 0.0033714453149374327
455.0, 0.0018960623268416662
456.0, 0.004183836344721723
457.0, 0.007019178506295168
458.0, 0.005159808494836759
459.0, 0.0013377117573858427
460.0, 0.004127261200658275
461.0, 0.005674535394915208
462.0, 0.0045337926533359696
463.0, 0.00670328289466559
464.0, 0.0111538167461764
465.0, 0.010321019771420414
466.0, 0.013250962847424752
467.0, 0.01169760043759274
468.0, 0.011654503073504269
469.0, 0.01299317494715286
470.0, 0.010460172747953198
471.0, 0.004770778062379542
472.0, 0.008519881396456304
473.0, 0.004481349466723985
474.0, 0.0006455805894182222
475.0, 0.0035307694274171048
476.0, 0.001408579812343643
477.0, 0.0009349114263255929
478.0, 0.0005346506937582054
479.0, 0.0010180286188134161
480.0, 0.0024827108139689447
481.0, 0.0013338902002733707
482.0, 0.0005071883444812019
483.0, 0.002156617242305145
484.0, 0.002196248020795037
485.0, 0.00011422868663250977
486.0, 0.0009138993673838366
487.0, 0.00015189146201939515
488.0, 0.002477091543893231
489.0, 0.0024161255263474173
490.0, 0.004217906497305492
491.0, 0.006773562896113933
492.0, 0.005649027772215447
493.0, 0.006810385224600605
494.0, 0.0070506387993810975
495.0, 0.010364583613071465
496.0, 0.012890784355211966
497.0, 0.012416407480133052
498.0, 0.012950125187021185
499.0, 0.012973436262177498
500.0, 0.01929804482459103
501.0, 0.02085773715874788
502.0, 0.022414107283396618
503.0, 0.028609786669912263
504.0, 0.02652236564686896
505.0, 0.028388386884181552
506.0, 0.029621222495177575
507.0, 0.03029743873909025
508.0, 0.032093217078499284
509.0, 0.0328173242029712
510.0, 0.03058174070791592
511.0, 0.029048534620682177
512.0, 0.027259046829124188
513.0, 0.02851236056267537
514.0, 0.03319308626392378
515.0, 0.0353194188235387
516.0, 0.0363392656396269
517.0, 0.03354473635574114
518.0, 0.03422022458485023
519.0, 0.03899221921449358
520.0, 0.04328685937698068
521.0, 0.044718386431409345
522.0, 0.05062469719578422
523.0, 0.05322820299475991
524.0, 0.0622377688074422
525.0, 0.07713160793021613
526.0, 0.08358710172461029
527.0, 0.08620640532306037
528.0, 0.08936226774418184
529.0, 0.10171320021079014
530.0, 0.113503056841022
531.0, 0.12173744000485506
532.0, 0.13678012784442095
533.0, 0.14578680123007348
534.0, 0.15351226672752874
535.0, 0.16423458147700498
536.0, 0.17194651983883522
537.0, 0.17417490623582202
538.0, 0.18188011545334942
539.0, 0.1730976903718347
540.0, 0.16766675364121728
541.0, 0.16249603860570025
542.0, 0.153017887059898
543.0, 0.14000946219209526
544.0, 0.1287587630689139
545.0, 0.1184302078453377
546.0, 0.11030788320839706
547.0, 0.10487452877878302
548.0, 0.09643871627219922
549.0, 0.08187802341267907
550.0, 0.0774510241141583
551.0, 0.07312546991540946
552.0, 0.06652638634358449
553.0, 0.061528605921827816
554.0, 0.058821076689619556
555.0, 0.05534883497905687
556.0, 0.057304142089195785
557.0, 0.05183763458158559
558.0, 0.049786274531942516
559.0, 0.05230302027034982
560.0, 0.05516990149142423
561.0, 0.05668571343081279
562.0, 0.051817895043620624
563.0, 0.05291418864512588
564.0, 0.05393217139238375
565.0, 0.05637266509628461
566.0, 0.06086113717267162
567.0, 0.06018336793994677
568.0, 0.06302985622691903
569.0, 0.06457715162643883
570.0, 0.0657783981834081
571.0, 0.07012110800936673
572.0, 0.07561163638552053
573.0, 0.07507658271746362
574.0, 0.07312066927130226
575.0, 0.0823637760777507
576.0, 0.08426601019590858
577.0, 0.08062519062420254
578.0, 0.07793286792678786
579.0, 0.07077257976058302
580.0, 0.06888449630641312
581.0, 0.062004006181859826
582.0, 0.051480908452412724
583.0, 0.043138495816102566
584.0, 0.037934649200262724
585.0, 0.03018749076317472
586.0, 0.025898513114337832
587.0, 0.017475012234063888
588.0, 0.01331574233023488
589.0, 0.009829324252890913
590.0, 0.005322932467947652
591.0, 0.006406166537957982
592.0, 0.0064703959423803
593.0, 0.0006045635162967025
594.0, 0.0013491470131373612
595.0, 0.0016022591092171895
596.0, 0.0027854095150071263
597.0, 0.0027008578691661823
598.0, 0.001604567828817584
599.0, 0.0030488276826231503
600.0, 0.001038214473339924
601.0, 0.0008153858796294003
602.0, 0.0025485238985986326
603.0, 0.0010417031866382237
604.0, 0.0007024170828942305
605.0, 0.0014455155162853934
606.0, 0.0020864698290126
607.0, 0.0013226042337942442
608.0, 0.002415187427567351
609.0, 0.0016624579499381314
610.0, 0.003777408532301719
611.0, 0.0037668725010029467
612.0, 0.004894658968949876
613.0, 0.006114028499896799
614.0, 0.004140476939282623
615.0, 0.0005357587394328404
616.0, 0.00021621518021645324
617.0, 0.002500208073599931
618.0, 0.00677028908196571
619.0, 0.006508737452058798
620.0, 0.005125469994981614
621.0, 0.006206408743056643
622.0, 0.0058092239208792805
623.0, 0.0051331621500859586
624.0, 0.011399824464355068
625.0, 0.013437960307436882
626.0, 0.013802200432739047
627.0, 0.013600929233172838
628.0, 0.011007203808890031
629.0, 0.013669395843325712
630.0, 0.013804079938773915
631.0, 0.013192242881281584
632.0, 0.014316905544299133
633.0, 0.01550930597084808
634.0, 0.016467069855737284
635.0, 0.020988472107809044
636.0, 0.018527526203097187
637.0, 0.02257741622265179
638.0, 0.028260080610792708
639.0, 0.0302209498216084
640.0, 0.03202098556924123
641.0, 0.038961027948229955
642.0, 0.045195637201854745
643.0, 0.051348935262714876
644.0, 0.05410392584141766
645.0, 0.057705597420774864
646.0, 0.06241990263405634
647.0, 0.06715047980635654
648.0, 0.07836177185435768
649.0, 0.0912103709683676
650.0, 0.10016127708313179
651.0, 0.10958645629778219
652.0, 0.12105117231720983
653.0, 0.13149420005939683
654.0, 0.1387265335130982
655.0, 0.1503770616773632
656.0, 0.16290446980558737
657.0, 0.17767650438237428
658.0, 0.188830297217399
659.0, 0.1951959825747715
660.0, 0.2018295413353077
661.0, 0.21047895128779479
662.0, 0.2172213829650051
663.0, 0.22203703966574914
664.0, 0.22273136158052148
665.0, 0.22054020945481434
666.0, 0.21457938008997113
667.0, 0.2029036040652506
668.0, 0.192886365139929
669.0, 0.17644308166851727
670.0, 0.16223807451231873
671.0, 0.14689010244838469
672.0, 0.12791278508649492
673.0, 0.11171000098551792
674.0, 0.1022825957108256
675.0, 0.08594912850427525
676.0, 0.07204030689007426
677.0, 0.06423901006430831
678.0, 0.05627249783782946
679.0, 0.04637458146624348
680.0, 0.040154039963448525
681.0, 0.03438298766344503
682.0, 0.028387595557902136
683.0, 0.025393673379372077
684.0, 0.021158583028047084
685.0, 0.01581320157621223
686.0, 0.012739977230097062
687.0, 0.012867169331657331
688.0, 0.01049840716702361
689.0, 0.010322100953445369
690.0, 0.0075944316101670085
691.0, 0.004949831386870023
692.0, 0.0066129280278213395
693.0, 0.00874115303781585
694.0, 0.0032017607437712964
695.0, 0.00034848029785239956
696.0, 0.0014963283802161113
697.0, 0.0026519541965357232
698.0, 0.0013116856637426441
699.0, 0.00012155833878719661
700.0, 0.00035727047775190545
701.0, 0.002051819851780888
702.0, 0.00026348257709437185
703.0, 0.0043864111908487385
704.0, 0.00349050322032967
705.0, 0.0016102819776707977
706.0, 0.001891883083720342
707.0, 0.0030849767261557333
708.0, 0.0018193671872949462
709.0, 0.00498277920472882
710.0, 0.0031731781501774295
711.0, 0.002981652800485444
712.0, 0.0032238319894547732
713.0, 0.0019696680783586632
714.0, 0.00021534652826086023
715.0, 0.0009260417691775495
716.0, 0.00027756616122224034
717.0, 0.0061504526020734855
718.0, 0.004033528516209486
719.0, 0.0012561791193525925
720.0, 0.0029424853011808857
721.0, 0.005341043594324555
722.0, 0.005400961974243093
723.0, 0.003170488861196894
724.0, 0.004655941160936934
725.0, 0.0012087481127673629
726.0, 0.0035382021261432745
727.0, 0.008873614269739318
728.0, 0.007265426369219492
729.0, 0.004255070978281729
730.0, 0.0090041752355265
731.0, 0.008660391245769299
732.0, 0.0073840598499452185
733.0, 0.00600857552349335
734.0, 0.006613743708513863
735.0, 0.009475970976601113
736.0, 0.00905301837409287
737.0, 0.007779874592734144
738.0, 0.008394129100314238
739.0, 0.00789222209699102
740.0, 0.008804311104256784
741.0, 0.005641929001052736
742.0, 0.0003675768448482612
743.0, 0.004619101540450816
744.0, 0.008065582145915478
745.0, 0.005261708157284484
746.0, 0.006136365559438676
747.0, 0.007185622006367191
748.0, 0.00639002936587986
749.0, 0.004155326084309344
750.0, 0.002589129167742926
751.0, 0.005516640144059707
752.0, 0.0021773037272799123
753.0, 0.0016191184581413054
754.0, 0.007153512106870175
755.0, 0.006473252825411955
756.0, 0.0057511200556110195
757.0, 0.008926234963608306
758.0, 0.003532159452999565
759.0, 0.003632958284518246
760.0, 0.0033860555445301465
761.0, 0.006074404292140112
762.0, 0.008042308737437822
763.0, 0.006497904664739619
764.0, 0.003884404252598639
765.0, 0.003884901748542116
766.0, 0.004733442991126965
767.0, 0.0004562577758382737
768.0, 0.0012284537561968773
769.0, 0.0010290566296984687
770.0, 0.0010480519055734363
771.0, 0.0034098957727000823
772.0, 0.004859319483209562
773.0, 0.0027700845735162396
774.0, 0.0017619247998641818
775.0, 0.005621590350260634
776.0, 0.0017571893803327862
777.0, 0.0007657133738543856
778.0, 0.0007509495591167769
779.0, 0.0007029165053485726
780.0, 0.0004208756571571706
781.0, 0.0010134254173035113
782.0, 0.004452652878345425
783.0, 0.0010837035542563128
784.0, 0.0017970379339248361
785.0, 0.0023986999103157124
786.0, 0.002609619355731797
787.0, 0.0025104197593337685
788.0, 0.002369376146442234
789.0, 0.0021060805152981967
790.0, 0.0004056379343282474
791.0, 0.0008738153635175694
792.0, 0.0024448819445687625
793.0, 0.001266483054063333
794.0, 0.0023633477427210123
795.0, 0.0018445588698145442
796.0, 0.0034737283610901857
797.0, 0.004962359631527318
798.0, 0.003618472986075087
799.0, 0.004658424961947664
800.0, 0.0036699918249170635
801.0, 0.0021622073811948038
802.0, 0.0029183392447727436
803.0, 0.0030146499243072305
804.0, 0.0023719037750123836
805.0, 0.005790106220543089
806.0, 0.0056453875351935075
807.0, 0.002442735422587619
808.0, 0.0014567697310975995
809.0, 0.002424374733457453
810.0, 0.004742049172416488
811.0, 0.007641670760380464
812.0, 0.0008686758378558654
813.0, 0.0043471617585335
814.0, 0.004988339183982894
815.0, 0.0024048780026773085
816.0, 0.005965399878056962
817.0, 0.009760159937855143
818.0, 0.008312368017774952
819.0, 0.007905250549117986
820.0, 0.012168423148705025
821.0, 0.00855802756546564
822.0, 0.01056165131858716
823.0, 0.008039193566814935
824.0, 0.0060255559069723645
825.0, 0.00481580170095524
826.0, 0.004799858036472427
827.0, 0.00797040216093244
828.0, 0.009670379603779583
829.0, 0.007617366630397491
830.0, 0.008242874898223094
831.0, 0.006580771941292816
832.0, 0.007127087782577822
833.0, 0.006495704043950461
834.0, 0.007509537024256703
835.0, 0.013099119963480123
836.0, 0.008658631696308613
837.0, 0.009863349618620133
838.0, 0.014485812112407296
839.0, 0.01534543506409597
840.0, 0.012488210298269247
841.0, 0.009065277660592773
842.0, 0.007048484720583914
843.0, 0.00699179081553838
844.0, 0.009183913267262471
845.0, 0.012141642900144464
846.0, 0.00972662236367889
847.0, 0.011244091441519725
848.0, 0.013716241273990112
849.0, 0.01297307840587232
850.0, 0.010879021894045443
851.0, 0.012891340465073894
852.0, 0.016072905571155555
853.0, 0.011074941432028534
854.0, 0.014149066325013894
855.0, 0.012661386449044852
856.0, 0.01435785799776916
857.0, 0.01480116902437101
858.0, 0.0152865591114343
859.0, 0.016348103167229493
860.0, 0.015174802239749898
861.0, 0.0181816314838007
862.0, 0.009177173932385815
863.0, 0.008448060132543213
864.0, 0.013789240760315905
865.0, 0.016550681237703337
866.0, 0.015768852826803334
867.0, 0.014876246344874266
868.0, 0.016941179666938554
869.0, 0.01960378714561919
870.0, 0.01811162047200059
871.0, 0.017046011808001797
872.0, 0.01782681654837612
873.0, 0.020713890534801143
874.0, 0.024020425478723597
875.0, 0.023700530442539815
876.0, 0.021447616559865837
877.0, 0.022148882201611195
878.0, 0.02498131257886289
879.0, 0.02354582135612142
880.0, 0.029122634895739703
881.0, 0.0281672605625276
882.0, 0.02684678035095875
883.0, 0.025586264203965325
884.0, 0.02801982338293393
885.0, 0.030110603653976817
886.0, 0.029798154908161036
887.0, 0.028764538231146042
888.0, 0.027828848254844493
889.0, 0.029413063329951514
890.0, 0.027125103831018755
891.0, 0.028515668108094857
892.0, 0.02594526526620823
893.0, 0.02286001848693011
894.0, 0.022493721571208755
895.0, 0.021969325395021933
896.0, 0.019933394466180643
897.0, 0.016885223227248152
898.0, 0.013297105206102684
899.0, 0.014200055051663734
900.0, 0.016202639632754253
901.0, 0.011709170755775038
902.0, 0.012398862417914424
903.0, 0.013749472474662183
904.0, 0.006080495493585582
905.0, 0.0008316437468541091
906.0, 0.00731460999484964
907.0, 0.001967511885674056
908.0, 0.0004422355272276491
909.0, 0.001178479129307291
910.0, 0.0013905125973539142
911.0, 0.002775824368198806
912.0, 0.0045599292116568916
913.0, 0.002915718513295615
914.0, 8.153284014433482e-05
915.0, 0.002183849514621429
916.0, 0.004430040842815059
917.0, 0.004477373586293351
918.0, 0.003920604679265177
919.0, 0.0018103110268127428
920.0, 0.0011569672108669741
921.0, 0.0006418709985065451
922.0, 0.0036819390322253716
923.0, 0.010609455213788727
924.0, 0.006091696066150957
925.0, 0.004681482287236932
926.0, 0.002144498235938995
927.0, 0.00027031256940040805
928.0, 0.00014696620862617203
929.0, 0.002113249264269126
930.0, 3.616186633025563e-05
931.0, 0.0033604647021928404
932.0, 0.004629164739276033
933.0, 0.007310567588255492
934.0, 0.005073328499975181
935.0, 0.0021366469872041724
936.0, 0.003274063281346479
937.0, 0.0009272792894873367
938.0, 0.0026017824304923436
939.0, 0.0030668809490722285
940.0, 0.003445778581267744
941.0, 0.004196437492714244
942.0, 0.001633728355178587
943.0, 0.0004601674579740886
944.0, 0.007257782737574195
945.0, 0.012274224893327494
946.0, 0.008558799621612542
947.0, 0.010554175194426802
948.0, 0.010648618492685145
949.0, 0.016498240464378935
950.0, 0.01932190578824707
951.0, 0.019377404855951366
952.0, 0.023580508808991
953.0, 0.027016073617764712
954.0, 0.030212049262654573
955.0, 0.03284356771203393
956.0, 0.03678875938180882
957.0, 0.040809717151542295
958.0, 0.047044539674374324
959.0, 0.055887248577089724
960.0, 0.06286104528558717
961.0, 0.06742220545682526
962.0, 0.07416590468275568
963.0, 0.08285768318198196
964.0, 0.08792628855240965
965.0, 0.09121635408828287
966.0, 0.10158014355840009
967.0, 0.10446846658949611
968.0, 0.10647218905834202
969.0, 0.1065833540315328
970.0, 0.10295223403274947
971.0, 0.09908792070508565
972.0, 0.09328166969742298
973.0, 0.08548809469058624
974.0, 0.08291034483278471
975.0, 0.07697345820973318
976.0, 0.06761716222030788
977.0, 0.06475463223663656
978.0, 0.059788185423276095
979.0, 0.05695614367727394
980.0, 0.05441234778524594
981.0, 0.05032915589208983
982.0, 0.05162118662208817
983.0, 0.053938710923181685
984.0, 0.044615814043415226
985.0, 0.03955413582844991
986.0, 0.04032554281912289
987.0, 0.035225637760307515
988.0, 0.027473998138322426
989.0, 0.025686452485752846
990.0, 0.025780169745555827
991.0, 0.022121613365776137
992.0, 0.019502951287917496
993.0, 0.017714868982756753
994.0, 0.013307140028591749
995.0, 0.012681473423076484
996.0, 0.012423351482393586
997.0, 0.005309520874247994
998.0, 0.005310746925873535
999.0, 0.008770046167981606
1000.0, 0.009521354037623895
1001.0, 0.005085010787880348
1002.0, 0.003689504831944547
1003.0, 0.006261426035846912
1004.0, 0.007090371562655458
1005.0, 0.004846856749044694
1006.0, 0.0029904367513216923
1007.0, 0.0035549414859158465
1008.0, 0.0034169578258703838
1009.0, 0.004912312881544553
1010.0, 0.003770156867695171
1011.0, 0.0014927806528908269
1012.0, 0.00039906186516797755
1013.0, 0.0039681721230650675
1014.0, 0.0026946735979937126
1015.0, 0.0027621367673940763
1016.0, 0.0005078347690013189
1017.0, 0.0004089246888810605
1018.0, 0.0014436612451482502
1019.0, 0.0015943707452313904
1020.0, 0.000609322720193238
1021.0, 0.0031895421356790323
1022.0, 0.004917267348004359
1023.0, 0.00253366481863029
1024.0, 0.002247203533458934
1025.0, 0.0028076399129227333
1026.0, 0.00388113537084683
1027.0, 0.00517799016750647
1028.0, 0.0038535694754363746
1029.0, 0.0017152257023096715
1030.0, 0.001969084987280412
1031.0, 0.010563829155221716
1032.0, 0.00962842003502915
1033.0, 0.006579280673838429
1034.0, 0.0057295139612097805
1035.0, 0.008004772825367023
1036.0, 0.00751530990249641
1037.0, 0.005209413139982604
1038.0, 0.005787683452451483
1039.0, 0.00513439449138175
1040.0, 0.0015465074219127616
1041.0, 0.0058981612100783695
1042.0, 0.005479912536006177
1043.0, 0.0011657511141211115
1044.0, 0.0005698648571840164
1045.0, 0.0027824411040432697
1046.0, 0.003319454432013023
1047.0, 0.0009574504850832771
1048.0, 0.004432829802907684
1049.0, 0.003031896335269566
1050.0, 0.0006195245501167381
1051.0, 9.593592872284362e-05
1052.0, 0.0006843002027482692
1053.0, 0.0007634586943778372
1054.0, 0.006435686700520533
1055.0, 0.002867835394862789
1056.0, 0.005202009075255426
1057.0, 0.002575843419087054
1058.0, 0.001053439231943867
1059.0, 0.0002984002081493512
1060.0, 0.0006297720307413428
1061.0, 0.0022361290231306783
1062.0, 0.0012029709598761176
1063.0, 0.0006520944021218894
1064.0, 0.0028765607173046933
1065.0, 0.0015223078719488765
1066.0, 0.0017355893238654298
1067.0, 0.002262016350807209
1068.0, 0.0008738275696987935
1069.0, 0.0027275432054979835
1070.0, 0.0049327692657587865
1071.0, 0.007869235115773674
1072.0, 0.005285425737799465
1073.0, 0.003832523165160752
1074.0, 0.005557962091851592
1075.0, 0.01079000133243673
1076.0, 0.014623297809272085
1077.0, 0.012955843239670965
1078.0, 0.011477863460800337
1079.0, 0.014536359382250948
1080.0, 0.020307090709473067
1081.0, 0.02470314240165717
1082.0, 0.020461976977919447
1083.0, 0.023272366294521094
1084.0, 0.02146774083425071
1085.0, 0.021569077589351324
1086.0, 0.022028213441876412
1087.0, 0.02142391843586775
1088.0, 0.018448793825474246
1089.0, 0.015275712912624287
1090.0, 0.01205522379414351
1091.0, 0.011241623967157341
1092.0, 0.016370890555053103
1093.0, 0.018338371985938677
1094.0, 0.01642980681835568
1095.0, 0.01187125731326594
1096.0, 0.017377970101910625
1097.0, 0.015725436171233675
1098.0, 0.02008136178701086
1099.0, 0.024031256270004627
1100.0, 0.024105116773831203
1101.0, 0.0231288700221615
1102.0, 0.028063560993081483
1103.0, 0.02988265844116759
1104.0, 0.02891987518205832
1105.0, 0.0343590897888613
1106.0, 0.038871408904048665
1107.0, 0.04097914454381157
1108.0, 0.03419996445782048
1109.0, 0.03939816777162385
1110.0, 0.04446148613877535
1111.0, 0.04613359814420795
1112.0, 0.0439237335805777
1113.0, 0.05475360158253905
1114.0, 0.055671339199227066
1115.0, 0.05395583653392181
1116.0, 0.05584718041676231
1117.0, 0.05702569671577251
1118.0, 0.05778171844976831
1119.0, 0.060852412604548885
1120.0, 0.06565224204010758
1121.0, 0.06870900542328907
1122.0, 0.06683713750652931
1123.0, 0.07126828861609032
1124.0, 0.06330036059123276
1125.0, 0.06347571520321092
1126.0, 0.0643219580561299
1127.0, 0.06503801340360595
1128.0, 0.07121721532121442
1129.0, 0.07221137834659339
1130.0, 0.07257098015805336
1131.0, 0.07027110560661524
1132.0, 0.0656708174712289
1133.0, 0.07053283573558045
1134.0, 0.07430065649426586
1135.0, 0.06268792190429476
1136.0, 0.06327527309063641
1137.0, 0.06598906059650245
1138.0, 0.06366479236199934
1139.0, 0.06272743321834641
1140.0, 0.061909938765917105
1141.0, 0.06349892806944085
1142.0, 0.059321385826493545
1143.0, 0.054450370321714674
1144.0, 0.054717579006672554
1145.0, 0.05357298854354032
1146.0, 0.05024555829951967
1147.0, 0.0506707384804563
1148.0, 0.04804077002731433
1149.0, 0.044357137557953376
1150.0, 0.045846738689469264
1151.0, 0.04327732085142308
1152.0, 0.038677862669335025
1153.0, 0.03925112934598891
1154.0, 0.03526003087520773
1155.0, 0.03278853662313837
1156.0, 0.03591657774715455
1157.0, 0.030768083102949217
1158.0, 0.02404084390009171
1159.0, 0.02482781315456646
1160.0, 0.029680317052972926
1161.0, 0.026341526708683574
1162.0, 0.024394225061345146
1163.0, 0.02975210007452492
1164.0, 0.026937440010587874
1165.0, 0.021721730304644523
1166.0, 0.026580688187809093
1167.0, 0.027231509748670137
1168.0, 0.02003197886733748
1169.0, 0.018164767904052442
1170.0, 0.02138299509581021
1171.0, 0.021177928061193667
1172.0, 0.020822551112981418
1173.0, 0.020326107485647702
1174.0, 0.02213920705883979
1175.0, 0.0164477547619305
1176.0, 0.017659992408143123
1177.0, 0.019184440507463853
1178.0, 0.019424561693387594
1179.0, 0.021668640280335875
1180.0, 0.024671160358812134
1181.0, 0.02203985399160855
1182.0, 0.0206468545641792
1183.0, 0.021243193507426178
1184.0, 0.018111907355449274
1185.0, 0.01545530732991274
1186.0, 0.016614757859813322
1187.0, 0.01756928577809663
1188.0, 0.017360931529493005
1189.0, 0.017081436254693386
1190.0, 0.016509813419344876
1191.0, 0.019045795125723585
1192.0, 0.020516222289381422
1193.0, 0.02122279141837687
1194.0, 0.018396329858684828
1195.0, 0.018947626910031493
1196.0, 0.015551761992008679
1197.0, 0.012956352858530836
1198.0, 0.013172071297122596
1199.0, 0.01629288766712313
1200.0, 0.01342014477016378
1201.0, 0.015018102734537974
1202.0, 0.01717580577699192
1203.0, 0.013691387144721576
1204.0, 0.013061257433029829
1205.0, 0.009054013688267968
1206.0, 0.006985010126952618
1207.0, 0.00818462101200595
1208.0, 0.00911395080216733
1209.0, 0.009948391365453684
1210.0, 0.0092492723812295
1211.0, 0.008161885543423774
1212.0, 0.006403666113242816
1213.0, 0.013011902932146893
1214.0, 0.0015598224146696298
1215.0, 0.0029210910882611235
1216.0, 0.004428520492238755
1217.0, 0.005852345290803838
1218.0, 0.0027609480871565936
1219.0, 9.011621554107425e-05
1220.0, 0.0009578647482478528
1221.0, 0.002629924106564158
1222.0, 0.002432008578238036
1223.0, 0.0045398755996374695
1224.0, 0.005055322095223056
1225.0, 0.0012485406415834188
1226.0, 0.00024261249288641263
1227.0, 0.0014871152308734903
1228.0, 0.002444732101963368
1229.0, 0.001009482828927011
1230.0, 0.0009508747758515301
1231.0, 0.0010233507160839898
1232.0, 0.004514471868735439
1233.0, 0.009448647141102318
1234.0, 0.00146351341853751
1235.0, 0.0031136025393327877
1236.0, 0.0011725533272449132
1237.0, 0.0017788695494025358
1238.0, 0.0030793587255248784
1239.0, 0.0043221462200788725
1240.0, 0.003911098901088575
1241.0, 0.0017736560127041944
1242.0, 0.0039845910040542075
1243.0, 0.0029884623839713403
1244.0, 0.0004621953694930594
1245.0, 0.0007080330333632526
1246.0, 0.0024394571051080975
1247.0, 0.007695364954416589
1248.0, 0.008104121113336192
1249.0, 0.002301833739657201
1250.0, 0.00647808653524355
1251.0, 0.010838468102851273
1252.0, 0.00968225862515898
1253.0, 0.016347800915634578
1254.0, 0.009939982825101546
1255.0, 0.01399883841508989
1256.0, 0.016122449869959116
1257.0, 0.015083269835474797
1258.0, 0.013745430168256531
1259.0, 0.014857178266933193
1260.0, 0.01600279170841363
1261.0, 0.013946157282714347
1262.0, 0.013610301963589816
1263.0, 0.01370763371418139
1264.0, 0.012616405168219257
1265.0, 0.011869495359744606
1266.0, 0.009965019201932676
1267.0, 0.00986834720844094
1268.0, 0.010007239566355654
1269.0, 0.007365645823004087
1270.0, 0.007435131685767494
1271.0, 0.006466124676312065
1272.0, 0.0076790842432171635
1273.0, 0.007189728508830216
1274.0, 0.006178535336987097
1275.0, 0.007623411585930817
1276.0, 0.00482493153139025
1277.0, 0.0010313821132831194
1278.0, 0.0005562946685445137
1279.0, 0.0024963088909835175
1280.0, 0.0022223424979541965
1281.0, 0.001719914134988832
1282.0, 0.0052592360132868755
1283.0, 0.004435953161664407
1284.0, 0.0005739154794794927
1285.0, 0.001988629916340804
1286, 0.0
1287, 0.0
1288, 0.0
1289, 0.0
1290, 0.0
1291, 0.0
1292, 0.0
1293, 0.0
1294, 0.0
1295, 0.0
1296, 0.0
1297, 0.0
1298, 0.0
1299, 0.0
1300, 0.0
1301, 0.0
1302, 0.0
1303, 0.0
1304, 0.0
1305, 0.0
1306, 0.0
1307, 0.0
1308, 0.0
1309, 0.0
1310, 0.0
1311, 0.0
1312, 0.0
1313, 0.0
1314, 0.0
1315, 0.0
1316, 0.0
1317, 0.0
1318, 0.0
1319, 0.0
1320, 0.0
1321, 0.0
1322, 0.0
1323, 0.0
1324, 0.0
1325, 0.0
1326, 0.0
1327, 0.0
1328, 0.0
1329, 0.0
1330, 0.0
1331, 0.0
1332, 0.0
1333, 0.0
1334, 0.0
1335, 0.0
1336, 0.0
1337, 0.0
1338, 0.0
1339, 0.0
1340, 0.0
1341, 0.0
1342, 0.0
1343, 0.0
1344, 0.0
1345, 0.0
1346, 0.0
1347, 0.0
1348, 0.0
1349, 0.0
1350, 0.0
1351, 0.0
1352, 0.0
1353, 0.0
1354, 0.0
1355, 0.0
1356, 0.0
1357, 0.0
1358, 0.0
1359, 0.0
1360, 0.0
1361, 0.0
1362, 0.0
1363, 0.0
1364, 0.0
1365, 0.0
1366, 0.0
1367, 0.0
1368, 0.0
1369, 0.0
1370, 0.0
1371, 0.0
1372, 0.0
1373, 0.0
1374, 0.0
1375, 0.0
1376, 0.0
1377, 0.0
1378, 0.0
1379, 0.0
1380, 0.0
1381, 0.0
1382, 0.0
1383, 0.0
1384, 0.0
1385, 0.0
1386, 0.0
1387, 0.0
1388, 0.0
1389, 0.0
1390, 0.0
1391, 0.0
1392, 0.0
1393, 0.0
1394, 0.0
1395, 0.0
1396, 0.0
1397, 0.0
1398, 0.0
1399, 0.0
1400, 0.0
1401, 0.0
1402, 0.0
1403, 0.0
1404, 0.0
1405, 0.0
1406, 0.0
1407, 0.0
1408, 0.0
1409, 0.0
1410, 0.0
1411, 0.0
1412, 0.0
1413, 0.0
1414, 0.0
1415, 0.0
1416, 0.0
1417, 0.0
1418, 0.0
1419, 0.0
1420, 0.0
1421, 0.0
1422, 0.0
1423, 0.0
1424, 0.0
1425, 0.0
1426, 0.0
1427, 0.0
1428, 0.0
1429, 0.0
1430, 0.0
1431, 0.0
1432, 0.0
1433, 0.0
1434, 0.0
1435, 0.0
1436, 0.0
1437, 0.0
1438, 0.0
1439, 0.0
1440, 0.0
1441, 0.0
1442, 0.0
1443, 0.0
1444, 0.0
1445, 0.0
1446, 0.0
1447, 0.0
1448, 0.0
1449, 0.0
1450, 0.0
1451, 0.0
1452, 0.0
1453, 0.0
1454, 0.0
1455, 0.0
1456, 0.0
1457, 0.0
1458, 0.0
1459, 0.0
1460, 0.0
1461, 0.0
1462, 0.0
1463, 0.0
1464, 0.0
1465, 0.0
1466, 0.0
1467, 0.0
1468, 0.0
1469, 0.0
1470, 0.0
1471, 0.0
1472, 0.0
1473, 0.0
1474, 0.0
1475, 0.0
1476, 0.0
1477, 0.0
1478, 0.0
1479, 0.0
1480, 0.0
1481, 0.0
1482, 0.0
1483, 0.0
1484, 0.0
1485, 0.0
1486, 0.0
1487, 0.0
1488, 0.0
1489, 0.0
1490, 0.0
1491, 0.0
1492, 0.0
1493, 0.0
1494, 0.0
1495, 0.0
1496, 0.0
1497, 0.0
1498, 0.0
1499, 0.0
1500, 0.0
1501, 0.0
1502, 0.0
1503, 0.0
1504, 0.0
1505, 0.0
1506, 0.0
1507, 0.0
1508, 0.0
1509, 0.0
1510, 0.0
1511, 0.0
1512, 0.0
1513, 0.0
1514, 0.0
1515, 0.0
1516, 0.0
1517, 0.0
1518, 0.0
1519, 0.0
1520, 0.0
1521, 0.0
1522, 0.0
1523, 0.0
1524, 0.0
1525, 0.0
1526, 0.0
1527, 0.0
1528, 0.0
1529, 0.0
1530, 0.0
1531, 0.0
1532, 0.0
1533, 0.0
1534, 0.0
1535, 0.0
1536, 0.0
1537, 0.0
1538, 0.0
1539, 0.0
1540, 0.0
1541, 0.0
1542, 0.0
1543, 0.0
1544, 0.0
1545, 0.0
1546, 0.0
1547, 0.0
1548, 0.0
1549, 0.0
1550, 0.0
1551, 0.0
1552, 0.0
1553, 0.0
1554, 0.0
1555, 0.0
1556, 0.0
1557, 0.0
1558, 0.0
1559, 0.0
1560, 0.0
1561, 0.0
1562, 0.0
1563, 0.0
1564, 0.0
1565, 0.0
1566, 0.0
1567, 0.0
1568, 0.0
1569, 0.0
1570, 0.0
1571, 0.0
1572, 0.0
1573, 0.0
1574, 0.0
1575, 0.0
1576, 0.0
1577, 0.0
1578, 0.0
1579, 0.0
1580, 0.0
1581, 0.0
1582, 0.0
1583, 0.0
1584, 0.0
1585, 0.0
1586, 0.0
1587, 0.0
1588, 0.0
1589, 0.0
1590, 0.0
1591, 0.0
1592, 0.0
1593, 0.0
1594, 0.0
1595, 0.0
1596, 0.0
1597, 0.0
1598, 0.0
1599, 0.0
