30, 0.0
31, 0.0
32, 0.0
33, 0.0
34, 0.0
35, 0.0
36, 0.0
37, 0.0
38, 0.0
39, 0.0
40, 0.0
41, 0.0
42, 0.0
43, 0.0
44, 0.0
45, 0.0
46, 0.0
47, 0.0
48, 0.0
49, 0.0
50, 0.0
51, 0.0
52, 0.0
53, 0.0
54, 0.0
55, 0.0
56, 0.0
57, 0.0
58, 0.0
59, 0.0
60, 0.0
61, 0.0
62, 0.0
63, 0.0
64, 0.0
65, 0.0
66, 0.0
67, 0.0
68, 0.0
69, 0.0
70, 0.0
71, 0.0
72, 0.0
73, 0.0
74, 0.0
75, 0.0
76, 0.0
77, 0.0
78, 0.0
79, 0.0
80, 0.0
81, 0.0
82, 0.0
83, 0.0
84, 0.0
85, 0.0
86, 0.0
87, 0.0
88, 0.0
89, 0.0
90, 0.0
91.0, 0.00042022963533962926
92.0, 0.0014521629035083611
93.0, 0.0032290416451299995
94.0, 0.0022292757263797937
95.0, 0.00015931428625388645
96.0, 6.162741114008722e-05
97.0, 0.002556695887686029
98.0, 0.004298782174774032
99.0, 0.004421819919745441
100.0, 0.0033707037210948493
101.0, 0.002442025229094847
102.0, 0.001836390544810059
103.0, 0.0019408227304493696
104.0, 0.0008596776419117164
105.0, 0.0008923415656492535
106.0, 0.00224925102318435
107.0, 0.0031904463320279533
108.0, 0.0026782400474077593
109.0, 0.002520796645049372
110.0, 0.004549617488992802
111.0, 0.004668022553552741
112.0, 0.005822206804089896
113.0, 0.007854807849514693
114.0, 0.008588925446188497
115.0, 0.010319424355171624
116.0, 0.012306808806308883
117.0, 0.014145196021858375
118.0, 0.01635177670968778
119.0, 0.018530884157336575
120.0, 0.021270206875586995
121.0, 0.02657451430024513
122.0, 0.031360218154655096
123.0, 0.036913289659404644
124.0, 0.04384724813689952
125.0, 0.05469436974614232
126.0, 0.06807894260729054
127.0, 0.08470813119057326
128.0, 0.10685239502241213
129.0, 0.13161087459357737
130.0, 0.16092471327903857
131.0, 0.19449573782295057
132.0, 0.22273854600197215
133.0, 0.24694863816149315
134.0, 0.265323444407302
135.0, 0.2744672209279832
136.0, 0.27358511911146405
137.0, 0.2586005490547547
138.0, 0.2318499238650563
139.0, 0.20471078246432076
140.0, 0.17597266380739096
141.0, 0.1498058814815197
142.0, 0.12889128037524156
143.0, 0.11829559192976885
144.0, 0.11407089472234186
145.0, 0.11496918866268463
146.0, 0.1194524408861948
147.0, 0.13194675863595984
148.0, 0.145941494875743
149.0, 0.16010550594352443
150.0, 0.18036199576147616
151.0, 0.20030336152537986
152.0, 0.2182806255421219
153.0, 0.23180248314576685
154.0, 0.23827031845126292
155.0, 0.23864337232007862
156.0, 0.23340738134425598
157.0, 0.22392209548782088
158.0, 0.21211119709468654
159.0, 0.1972026987310614
160.0, 0.17831881584008505
161.0, 0.1567782126906319
162.0, 0.1327533020612964
163.0, 0.10828510554657356
164.0, 0.08791478933049895
165.0, 0.06965470144520347
166.0, 0.055474164009002055
167.0, 0.04574474943742516
168.0, 0.03685849607587559
169.0, 0.030251270854444737
170.0, 0.02525003548346032
171.0, 0.021559505691829232
172.0, 0.0198812704041879
173.0, 0.019467787380939884
174.0, 0.019749970819345805
175.0, 0.018921850033832316
176.0, 0.020305561125628604
177.0, 0.021872432583761443
178.0, 0.02287753824696721
179.0, 0.02560908814457518
180.0, 0.0252733466763318
181.0, 0.023425532616130264
182.0, 0.022043408695620957
183.0, 0.019492879277133116
184.0, 0.017229691360304594
185.0, 0.015188079684341304
186.0, 0.011756608503993708
187.0, 0.010726694329463769
188.0, 0.009944391388905223
189.0, 0.0082133716138074
190.0, 0.00794473081989288
191.0, 0.00919968367584841
192.0, 0.010535203980812008
193.0, 0.009026016869492339
194.0, 0.010170010121107279
195.0, 0.01028692344589672
196.0, 0.00909742447674134
197.0, 0.010424641483879133
198.0, 0.01027544800603524
199.0, 0.00967988502898707
200.0, 0.009297249272245515
201.0, 0.008867709573687455
202.0, 0.008602435208129804
203.0, 0.008528270943246947
204.0, 0.00873514503720264
205.0, 0.009946270529393748
206.0, 0.011110463879846093
207.0, 0.011895203934505563
208.0, 0.01158387107029146
209.0, 0.013570896951875216
210.0, 0.01636199847535824
211.0, 0.018935584636141523
212.0, 0.02068961845766378
213.0, 0.025086453752020614
214.0, 0.030401906552940353
215.0, 0.03231072801399499
216.0, 0.03637383098338616
217.0, 0.04000603340116569
218.0, 0.042853523008789716
219.0, 0.04737786098378612
220.0, 0.048313838971354266
221.0, 0.04824680535320676
222.0, 0.04893469440792864
223.0, 0.04965486609860367
224.0, 0.04882681033286452
225.0, 0.04705144196941979
226.0, 0.04556700850843183
227.0, 0.04189590957803651
228.0, 0.038258374506945116
229.0, 0.035023358126929624
230.0, 0.031499740567354
231.0, 0.026607787734271835
232.0, 0.022899300902552204
233.0, 0.02208670316870996
234.0, 0.018166533747463447
235.0, 0.016104136167442218
236.0, 0.014520271686634039
237.0, 0.010986194687453215
238.0, 0.008956288401298852
239.0, 0.009109238940521012
240.0, 0.010632445346724773
241.0, 0.00888892753188445
242.0, 0.007888008359151587
243.0, 0.007254032390885854
244.0, 0.006824191627568932
245.0, 0.0059876903973172585
246.0, 0.00596929749628351
247.0, 0.005857570793049867
248.0, 0.004491612010035437
249.0, 0.005284979698579034
250.0, 0.005059496751684776
251.0, 0.003956422710068427
252.0, 0.0032951635425016628
253.0, 0.0024581446011800274
254.0, 0.0025207813606715444
255.0, 0.003693647722877586
256.0, 0.004258834200629972
257.0, 0.003002628587582593
258.0, 0.0021920144194654463
259.0, 0.0036529964319516614
260.0, 0.0018595775321248106
261.0, 0.0021916667675581877
262.0, 0.003055445670358639
263.0, 0.0011492573936550397
264.0, 0.0028792778382769895
265.0, 0.003545099938225361
266.0, 0.0025420725438989717
267.0, 0.0007229076156439628
268.0, 0.0008559904552050093
269.0, 0.001328824181798012
270.0, 0.00143798234659382
271.0, 0.0006423270413600588
272.0, 0.001387378056682802
273.0, 0.0021566093157703962
274.0, 0.0013802114928886306
275.0, 0.0036149503038393578
276.0, 0.007172314454086022
277.0, 0.010372092515378982
278.0, 0.009356337958528875
279.0, 0.008135564517168792
280.0, 0.005902712820160262
281.0, 0.003166513644522871
282.0, 0.00399262340396988
283.0, 0.00278723508130569
284.0, 0.001281643002041955
285.0, 0.0003258203716019277
286.0, 0.0007484814888962727
287.0, 0.0017104337005376155
288.0, 0.0021748702289123754
289.0, 0.0009486984677026487
290.0, 0.0009426662990879301
291.0, 0.0015809624049348348
292.0, 0.0020656916465875692
293.0, 0.0005742380565210179
294.0, 0.0021035605611085017
295.0, 0.002737239033631063
296.0, 0.002103442644535655
297.0, 0.002295273818071495
298.0, 0.001388721704315774
299.0, 0.0008392713666313151
300.0, 0.0012274536051482172
301.0, 0.0012725786005396084
302.0, 0.001135342084668009
303.0, 0.0011690320158707053
304.0, 0.0017099454762714234
305.0, 0.0008096831940167183
306.0, 0.0007336641646013499
307.0, 0.0012846004647083286
308.0, 0.0020587096517545476
309.0, 0.00255566853418338
310.0, 0.0018496583439265085
311.0, 0.0004808206060054333
312.0, 0.0008611307769289966
313.0, 0.0010796354843786004
314.0, 0.0008120819057998484
315.0, 0.0001008111040156475
316.0, 0.0002664596349121955
317.0, 0.0007658915503017086
318.0, 0.000834660306727354
319.0, 4.191269048573268e-05
320.0, 0.0007820822757888585
321.0, 0.0008231646941794057
322.0, 0.0004839144269849103
323.0, 8.466947112014057e-05
324.0, 5.474481344809973e-05
325.0, 0.00044566588554485265
326.0, 0.0009429847928896974
327.0, 0.0008870108820304757
328.0, 0.0003872620144517457
329.0, 0.00045466840200088216
330.0, 0.0009176716604360735
331.0, 0.00047788775799320594
332.0, 0.0002946511886033949
333.0, 0.0002204027553247976
334.0, 0.0002343102846151262
335.0, 0.0005193195139304749
336.0, 0.0009773192010532887
337.0, 0.0015463228142463005
338.0, 0.002145600296871776
339.0, 0.0012670247432882496
340.0, 0.001439282620301865
341.0, 0.0016488923846771654
342.0, 0.000890755806872868
343.0, 0.0013051297294667
344.0, 0.002853530084646136
345.0, 0.003904671744512791
346.0, 0.001604277383702683
347.0, 0.0005986337309376182
348.0, 0.000448056288058066
349.0, 0.0011811696449118738
350.0, 0.0031155411483109008
351.0, 0.0031768659037561785
352.0, 0.0024976755026683045
353.0, 0.0017121327617462636
354.0, 0.0027631024691783497
355.0, 0.0023000041395825795
356.0, 0.0013763099027431335
357.0, 0.00047860777366331086
358.0, 0.000666769057145577
359.0, 0.000721187409486029
360.0, 0.0006044701091649071
361.0, 0.00038315838552998964
362.0, 0.0030830703004426315
363.0, 0.0030291307251641853
364.0, 0.0020164259921832983
365.0, 0.0017067178484048702
366.0, 0.002845122301597055
367.0, 0.002073112171694416
368.0, 0.0008856735506840884
369.0, 0.001630886913036372
370.0, 0.0007973319004388094
371.0, 0.0014028529996701223
372.0, 0.002414646365355643
373.0, 0.0009070002976532513
374.0, 0.0015854345155783824
375.0, 0.0019281406246291126
376.0, 0.001576270041430516
377.0, 0.0006501486257840827
378.0, 0.0013014885621436944
379.0, 0.0012222593900326948
380.0, 0.00028219014395979085
381.0, 0.0010809875377228348
382.0, 0.002295588392241824
383.0, 0.0022379436570418645
384.0, 0.0006123024267032793
385.0, 0.0011887925452257544
386.0, 0.0020093813491554504
387.0, 0.0025792516026582474
388.0, 0.0026263316010062075
389.0, 0.0024992859353882946
390.0, 0.0025236546034937963
391.0, 0.0022328646101372096
392.0, 0.0012554170504242128
393.0, 0.0010613838670932578
394.0, 0.0006138244596138279
395.0, 0.00018679604116377357
396.0, 8.716342036664552e-05
397.0, 0.003720290445549266
398.0, 0.0037825347841647437
399.0, 0.002603942262054952
400.0, 0.003977815963223599
401.0, 0.0026119913093542025
402.0, 0.0014227082597680109
403.0, 0.0008922213621670683
404.0, 0.0015992396451539718
405.0, 0.0006367584579746913
406.0, 0.0001402383529621132
407.0, 0.00017884114478143804
408.0, 0.00025130237412355154
409.0, 0.0009356743710499997
410.0, 0.002305338668032275
411.0, 0.003540118907339863
412.0, 0.001675694775306851
413.0, 0.0012527755341162402
414.0, 0.00197934931525387
415.0, 0.0034842462008250964
416.0, 0.0043355283983518
417.0, 0.001862185476049844
418.0, 0.00012400221551588398
419.0, 0.00043083820942887725
420.0, 0.002733293079665207
421.0, 0.0024970908308658895
422.0, 0.0022773777843426326
423.0, 0.0027944803211764377
424.0, 0.0013991953150688215
425.0, 0.0022873868988137125
426.0, 0.0031961052702005836
427.0, 0.003115614478919229
428.0, 0.003423511531028919
429.0, 0.0038405159701027196
430.0, 0.0039606519912997115
431.0, 0.003582806114491282
432.0, 0.0037003435853418705
433.0, 0.0031933997912225336
434.0, 0.0022534306710253983
435.0, 0.0010324215206530588
436.0, 0.0005230412916205594
437.0, 0.00019207063222793016
438.0, 0.00010032614328347985
439.0, 0.0002966269837120025
440.0, 7.69423955289762e-05
441.0, 7.209511555201031e-05
442.0, 0.0003205139049671459
443.0, 0.0008654108595633945
444.0, 0.0009989862458383864
445.0, 0.001169733836683711
446.0, 0.0012835265296372081
447.0, 0.0012338669916713205
448.0, 0.0013954594101774325
449.0, 0.0009175937164352467
450.0, 0.0003846163448492727
451.0, 0.0005265111908687486
452.0, 0.00066373187050937
453.0, 0.000416307551306518
454.0, 0.00015424011652187577
455.0, 0.000387546320902041
456.0, 0.0009191603601206779
457.0, 0.0009920088259353834
458.0, 0.001028870430439274
459.0, 0.0016851887201458525
460.0, 0.0011961916802956433
461.0, 0.0008976455241845348
462.0, 0.0014392098626266128
463.0, 0.0037482388916459854
464.0, 0.0017972437853481502
465.0, 0.0008675647608340208
466.0, 0.0011851644046438174
467.0, 0.0026402676941365937
468.0, 0.001992042942361158
469.0, 0.0009248720570941379
470.0, 0.0005486596980596128
471.0, 0.002538932832468346
472.0, 0.0010266779919174429
473.0, 0.002516628874132812
474.0, 0.004232501855716997
475.0, 0.0007382791512062299
476.0, 0.0016510022025963858
477.0, 0.0019266433512329605
478.0, 0.001889615835832588
479.0, 0.002697918133836345
480.0, 0.001681306460869864
481.0, 0.0015063709395182919
482.0, 0.0018578689046026167
483.0, 0.0019138470196201757
484.0, 0.0023803925996177156
485.0, 0.0026075104911057897
486.0, 0.002545870973166769
487.0, 0.002179874068826395
488.0, 0.002177179666006533
489.0, 0.002741780943347201
490.0, 0.002883855446075243
491.0, 0.001046647700152865
492.0, 0.0021678536897904886
493.0, 0.0015316768108085568
494.0, 0.0010313600314402413
495.0, 0.0037953967070444984
496.0, 0.001704087093842027
497.0, 0.0011117591365138253
498.0, 0.001800148672379402
499.0, 0.00310205540257113
500.0, 0.0018891713590055204
501.0, 0.0014640296580251872
502.0, 0.0017155940391206707
503.0, 0.0023754359312492855
504.0, 0.0009166501148011645
505.0, 0.0015819146996990164
506.0, 0.0028036639120010173
507.0, 0.0027507001712977082
508.0, 0.0013746804131788406
509.0, 0.0010077618357213604
510.0, 0.001361471385807124
511.0, 0.0021335958599893153
512.0, 0.004008997266073626
513.0, 0.006161637501495888
514.0, 0.007821520814891724
515.0, 0.008318303368790312
516.0, 0.007845664856860167
517.0, 0.008697490201566453
518.0, 0.008401233683312418
519.0, 0.005230950950646126
520.0, 0.0022684992858860416
521.0, 0.0021148214014441507
522.0, 0.0023260927942050933
523.0, 0.0015871874085401382
524.0, 0.0032607012614901698
525.0, 0.0017223696660559201
526.0, 0.000448846279052125
527.0, 0.0011473501872783138
528.0, 0.0020913430743649828
529.0, 0.0021294791611306554
530.0, 0.0024556034312375494
531.0, 0.003249101014583611
532.0, 0.0020931468850230945
533.0, 0.0010314879142087376
534.0, 0.0012816639161106072
535.0, 0.0026623501528206025
536.0, 0.0019632882169781274
537.0, 0.0015690911425623104
538.0, 0.0018122671089033605
539.0, 0.0025517730775911573
540.0, 0.0028692767900072103
541.0, 0.00184407594193518
542.0, 0.002776402912139165
543.0, 0.0044763406494803485
544.0, 0.0012899419675838511
545.0, 0.0024255524412958515
546.0, 0.0030865023839882636
547.0, 0.002934192930173986
548.0, 0.002915743252579632
549.0, 0.004208218912062106
550.0, 0.0027821046959550346
551.0, 0.000667066152381728
552.0, 0.0020704539480187857
553.0, 0.0024962379666242755
554.0, 0.0015261045991497336
555.0, 0.000623627126905247
556.0, 0.0017184376404227588
557.0, 0.003666909942903172
558.0, 0.004513991712422562
559.0, 0.004698234733875591
560.0, 0.0046508000901205535
561.0, 0.002472536712906932
562.0, 0.002508757242741971
563.0, 0.002855017823663936
564.0, 0.0021808679811416787
565.0, 0.0014889093996778666
566.0, 0.0024279352392882537
567.0, 0.0025396126152773175
568.0, 0.0012073752031629154
569.0, 0.003680353184691291
570.0, 0.0032924531922359024
571.0, 0.00254593802945815
572.0, 0.0021035924796233133
573.0, 0.0006587163623584886
574.0, 0.0005797417223510748
575.0, 0.0011050738025691561
576.0, 0.0016318110192805524
577.0, 0.0008873680237347636
578.0, 0.00041130524710789723
579.0, 0.0002487072338669884
580.0, 0.000716253831445675
581.0, 0.002478745046002419
582.0, 0.001083531068579383
583.0, 0.002296785244331352
584.0, 0.0042443778292334455
585.0, 0.0035132742812701854
586.0, 0.0012251356547736249
587.0, 0.0015026001094469211
588.0, 0.0024661108487774057
589.0, 0.00222580880654608
590.0, 0.004170766942958354
591.0, 0.002934316478607847
592.0, 0.0012850373158812631
593.0, 0.001015227500325547
594.0, 0.001326529300138697
595.0, 0.0025936471574685813
596.0, 0.0026631991677795244
597.0, 0.0010470040088936374
598.0, 0.0001753622882629359
599.0, 0.0018264114459851802
600.0, 0.0025030276741714063
601.0, 0.0017134702135807138
602.0, 0.0009121915713166948
603.0, 0.0021249853405889453
604.0, 0.0028502532597215985
605.0, 0.0029466594938183724
606.0, 0.00289281619990157
607.0, 0.004207751087601436
608.0, 0.0027186280995190365
609.0, 0.0017273056371995936
610.0, 0.005517533219308
611.0, 0.0014847215711539367
612.0, 0.0022660558752319363
613.0, 0.003595250809690761
614.0, 0.0025362579114597966
615.0, 0.004840365605842595
616.0, 0.0027149431573925153
617.0, 0.0014094123479037849
618.0, 0.0026576276518871797
619.0, 0.0020355319304090494
620.0, 0.003061706651397421
621.0, 0.0024571126262597767
622.0, 0.0011068292005852998
623.0, 0.004451460060482077
624.0, 0.0027462654518961307
625.0, 0.0035238286012107514
626.0, 0.004706859058826098
627.0, 0.0008401618211363901
628.0, 0.004929290181213008
629.0, 0.003521752106595565
630.0, 0.0005522383575456049
631.0, 0.000782331669114567
632.0, 0.004372167302356466
633.0, 0.003719115513660484
634.0, 0.0029449443603458266
635.0, 0.00400410212654247
636.0, 0.002159721307834433
637.0, 0.002772852643785744
638.0, 0.002890069669771513
639.0, 0.00204791742524835
640.0, 0.002263208556438284
641.0, 0.0021742818312460647
642.0, 0.002834657595241471
643.0, 0.003368286696311345
644.0, 0.0017416212168330032
645.0, 0.0026031426701389046
646.0, 0.003292704407211479
647.0, 0.0033120765270217836
648.0, 0.00232600038978805
649.0, 0.000873421777469447
650.0, 0.001439534664962395
651.0, 0.0017414227835444625
652.0, 0.0009982783001321897
653.0, 0.0036296902747703554
654.0, 0.0023515653138348807
655.0, 0.0021341726534050594
656.0, 0.003226518787628972
657.0, 0.0013072921713610487
658.0, 0.0026823649974535156
659.0, 0.0041970806677025995
660.0, 0.004936457076262374
661.0, 0.004184531626079902
662.0, 0.002652879887920385
663.0, 0.003209191097868501
664.0, 0.004447792309319882
665.0, 0.004819217561417741
666.0, 0.0014997158177680915
667.0, 0.001679219877924918
668.0, 0.002940499424159971
669.0, 0.0040546792212587945
670.0, 0.004656528068236043
671.0, 0.004776089886687684
672.0, 0.003835275023714033
673.0, 0.0027338544363005204
674.0, 0.0037159150585019053
675.0, 0.00345523140437946
676.0, 0.0030878358233162964
677.0, 0.0036359723714421976
678.0, 0.005874698091095535
679.0, 0.002752308735510851
680.0, 0.0029977040401160497
681.0, 0.0036978248398318527
682.0, 0.00390592168642877
683.0, 0.008091565637696698
684.0, 0.012391146982504967
685.0, 0.020430439851102277
686.0, 0.03303252030373059
687.0, 0.04977256018274358
688.0, 0.06869804690573586
689.0, 0.0836375892558387
690.0, 0.09123923323284172
691.0, 0.08832957187301867
692.0, 0.0678861405379594
693.0, 0.048428971310280684
694.0, 0.036067459941809564
695.0, 0.03201714246311535
696.0, 0.02190806405655053
697.0, 0.01766093716506326
698.0, 0.015617212680120732
699.0, 0.014660970453606136
700.0, 0.014481298550744984
701.0, 0.010209022949022825
702.0, 0.0077621558890785146
703.0, 0.005497610643764694
704.0, 0.0012739745466194645
705.0, 0.003703811332155313
706.0, 0.005563278045011541
707.0, 0.005742177547365874
708.0, 0.003918489002812308
709.0, 0.0014184338343711095
710.0, 0.0027129032241231927
711.0, 0.002603983228658143
712.0, 0.0015684384598882496
713.0, 0.003029925791832017
714.0, 0.0032708126583172064
715.0, 0.0035877311757656167
716.0, 0.003942277973158884
717.0, 0.004201975005890475
718.0, 0.003953527194698537
719.0, 0.003955734661045495
720.0, 0.0036811972281376366
721.0, 0.0030744116599459442
722.0, 0.002748722570974399
723.0, 0.002444513241463059
724.0, 0.0027474177334660915
725.0, 0.0030568708452530474
726.0, 0.002351408053212492
727.0, 0.004136564872979437
728.0, 0.0023432515396052188
729.0, 0.0007679957759642504
730.0, 0.0017656139202245633
731.0, 0.003303334716758188
732.0, 0.0024269187920303308
733.0, 0.0018269075586815453
734.0, 0.0019163543576977543
735.0, 0.0019136425920874606
736.0, 0.002101021875650217
737.0, 0.0026120728774437466
738.0, 0.003193920147823427
739.0, 0.003580275366630258
740.0, 0.003722201802670562
741.0, 0.0019248635441487614
742.0, 0.000984149076989679
743.0, 0.00152755437048368
744.0, 0.0017036163516375945
745.0, 0.004358408831434986
746.0, 0.003917309855158521
747.0, 0.0020388297851903383
748.0, 0.0019131226641113878
749.0, 0.0014393052924234228
750.0, 0.0008330423108590082
751.0, 0.0011622445113559567
752.0, 0.002314064705095686
753.0, 0.0009077173568019737
754.0, 0.0022864730535852094
755.0, 0.001960405025577212
756.0, 0.0007384545027061522
757.0, 0.0015026234530403667
758.0, 0.003117253031260035
759.0, 0.0028004568866701915
760.0, 0.0023870574455049764
761.0, 0.002870951967734583
762.0, 0.0019638391617106932
763.0, 0.0032239972844279267
764.0, 0.002940064436392692
765.0, 0.0012398493179639843
766.0, 0.00034220742127586985
767.0, 0.0037408653206842035
768.0, 0.0026494490387012626
769.0, 0.0017052985350759385
770.0, 0.004170327904689148
771.0, 0.003260393110913084
772.0, 0.0020932175941265558
773.0, 0.002936640775547147
774.0, 0.004268964557006485
775.0, 0.0011210823947604765
776.0, 0.001871624454807905
777.0, 0.0023573070820333522
778.0, 0.0022926690689889164
779.0, 0.0018082554998956459
780.0, 0.0023048066466074646
781.0, 0.00250964100777547
782.0, 0.002379261394447101
783.0, 0.0018055786760340163
784.0, 0.0005779090859391133
785.0, 0.002997053122290494
786.0, 0.004311496185118946
787.0, 0.0039351168418858525
788.0, 0.002047498948304765
789.0, 0.0020264201628063276
790.0, 0.003394814927734472
791.0, 0.002613493087276798
792.0, 0.0004498214152200315
793.0, 0.001211092854829786
794.0, 0.0008720427554854938
795.0, 0.0020769006527604386
796.0, 0.003103323420295883
797.0, 0.0026878341312133246
798.0, 0.0033477288936929906
799.0, 0.0013921420367838178
800.0, 0.0010651927940251874
801.0, 0.002082502681622887
802.0, 0.0013117901090520855
803.0, 0.0007727942566220071
804.0, 0.0019259159985469264
805.0, 0.0022370067676837297
806.0, 0.0006562828344807727
807.0, 0.0028757584796670925
808.0, 0.0021476905509543237
809.0, 0.001025004824213642
810.0, 0.0004135318302696912
811.0, 0.0007754622690764438
812.0, 0.00043682751009120515
813.0, 0.000400724331320876
814.0, 0.0005312584848283987
815.0, 0.0006550063198130287
816.0, 0.0004267777887243392
817.0, 0.0012585253665283048
818.0, 0.0011069252976382807
819.0, 0.000548149272135726
820.0, 0.0008928932422522483
821.0, 0.001413549857413667
822.0, 0.002544108280490356
823.0, 0.002745412773887927
824.0, 0.0016329697943167204
825.0, 0.00044486012515512264
826.0, 0.0017126306316903545
827.0, 0.0018366320348193945
828.0, 0.0011888720177180051
829.0, 0.0008936423975932676
830.0, 0.004005083722886535
831.0, 0.0044132694362143945
832.0, 0.004334929379062129
833.0, 0.004444375409477649
834.0, 0.004477863935439134
835.0, 0.0040986179011415465
836.0, 0.0031396830206787516
837.0, 0.002489770940416323
838.0, 0.0026241475252983203
839.0, 0.00227878463044254
840.0, 0.0018290081082457592
841.0, 0.0015448031343494974
842.0, 0.0018343541955807815
843.0, 0.0031086505574090782
844.0, 0.0008809499176835396
845.0, 0.001818667339388172
846.0, 0.002606843449711689
847.0, 0.00213924294263683
848.0, 0.0025141075848004366
849.0, 0.0012691211345614629
850.0, 0.002421875359204636
851.0, 0.004624627159307951
852.0, 0.00592897877405421
853.0, 0.005312571710287093
854.0, 0.005692297103822243
855.0, 0.005204127983372414
856.0, 0.0041870107676901325
857.0, 0.0043685014883390995
858.0, 0.0026713360350522535
859.0, 0.0017276148633188462
860.0, 0.0018855729472505081
861.0, 0.0029781331880080076
862.0, 0.0036879615266910614
863.0, 0.0016318021357716308
864.0, 0.0017281940002766658
865.0, 0.002601273159386912
866.0, 0.002154837435214105
867.0, 0.003729390771812304
868.0, 0.004714333076338497
869.0, 0.004447455203184699
870.0, 0.0034147677767197315
871.0, 0.0030674954869950666
872.0, 0.0028380563056295506
873.0, 0.001866048817597386
874.0, 0.001708403641655685
875.0, 0.0024576915028830665
876.0, 0.0004341183911361589
877.0, 0.0018726668496949039
878.0, 0.002558062095107954
879.0, 0.0030461762893033346
880.0, 0.00435498323670108
881.0, 0.00398904741189923
882.0, 0.0018172549189259984
883.0, 0.0014107896220085466
884.0, 0.002326640557358647
885.0, 0.0016784132406308869
886.0, 0.0045639348091386
887.0, 0.0047829322134307125
888.0, 0.004957604174620297
889.0, 0.005397568943525718
890.0, 0.0019733744546822107
891.0, 0.004093759520062431
892.0, 0.004779474390000135
893.0, 0.0038971581596291293
894.0, 0.002421391101074058
895.0, 0.002985969707395784
896.0, 0.0031364790818748604
897.0, 0.0018550050783410952
898.0, 0.0011845060218856438
899.0, 0.003984801503551889
900.0, 0.0008908542249801699
901.0, 0.0027322474654802994
902.0, 0.00352638547336998
903.0, 0.0021674633564021293
904.0, 0.002042808601556081
905.0, 0.0005682268191805201
906.0, 0.0015721369652459405
907.0, 0.003473731924081987
908.0, 0.004393763230176124
909.0, 0.0016110425891256838
910.0, 0.0030632480689065027
911.0, 0.0031276910350212625
912.0, 0.0030590801629128087
913.0, 0.004447780204999801
914.0, 0.0040620782489372
915.0, 0.004339764052969344
916.0, 0.004236989668254075
917.0, 0.003982282333432625
918.0, 0.004253605259144855
919.0, 0.0039902844285041005
920.0, 0.004249195397140966
921.0, 0.004225922134335533
922.0, 0.0037691946009061035
923.0, 0.0032762407339883993
924.0, 0.0032491876265283636
925.0, 0.003669910983020014
926.0, 0.003463396697866867
927.0, 0.0024222097351796097
928.0, 0.0020124231255713343
929.0, 0.001804474996132014
930.0, 0.0032407667116720706
931.0, 0.004040971169291186
932.0, 0.002619857335738061
933.0, 0.0014157593359754592
934.0, 0.0029789926285504554
935.0, 0.006197678867300981
936.0, 0.006840012405800787
937.0, 0.0018372624992054718
938.0, 0.0054868008595072675
939.0, 0.002779026329544308
940.0, 0.0013848894798097725
941.0, 0.0026753967344430294
942.0, 0.005159431149762761
943.0, 0.005394893437883955
944.0, 0.005717427273129785
945.0, 0.0038971087209904447
946.0, 0.0017858647181600122
947.0, 0.00497346142026715
948.0, 0.002322388773942507
949.0, 0.000776584958168071
950.0, 0.0010260250896644055
951.0, 0.0022209865325383683
952.0, 0.0011610230122270323
953.0, 0.00047891745138976686
954.0, 0.000134400055917286
955.0, 0.0009476644767895836
956.0, 0.0027010551808199696
957.0, 0.002478237488102303
958.0, 0.0019639358745174736
959.0, 0.0010689678214590942
960.0, 0.0018488125003700267
961.0, 0.004485266974570643
962.0, 0.000526381330837634
963.0, 0.002018220784033189
964.0, 0.003430015102655073
965.0, 0.0029730118069996514
966.0, 0.0007859863824966422
967.0, 0.004499100392638018
968.0, 0.0035266834077351023
969.0, 0.0020456388852081115
970.0, 0.001904875506093849
971.0, 0.003674564231692932
972.0, 0.0014735643607538995
973.0, 0.0034898935738209135
974.0, 0.0030363272845275345
975.0, 0.0009397270627552791
976.0, 0.0013619518089391207
977.0, 0.0024219069036063704
978.0, 0.002856756875329169
979.0, 0.0037774839002895446
980.0, 0.004094591917816442
981.0, 0.0013768182641219096
982.0, 0.0005283534297779611
983.0, 0.006322208829899268
984.0, 0.006463869233182201
985.0, 0.0015671458316699647
986.0, 0.0035118579576361095
987.0, 0.0039534489362958395
988.0, 0.001986384962044938
989.0, 0.0019063234861452438
990.0, 0.003745279553905274
991.0, 0.0027275500237236034
992.0, 0.003374371513393118
993.0, 0.004599737874406783
994.0, 0.004424662379380085
995.0, 0.0028747957799772736
996.0, 0.0027311700384602265
997.0, 0.002321610695086931
998.0, 0.003870905084434796
999.0, 0.003767884206197884
1000.0, 0.0028962931636022458
1001.0, 0.009854771754755628
1002.0, 0.0035083291863758103
1003.0, 0.0043588903252084026
1004.0, 0.005600916210529956
1005.0, 0.0038377891785730364
1006.0, 0.004079057563364108
1007.0, 0.003896332482811953
1008.0, 0.0022506284421343684
1009.0, 0.00256381477029385
1010.0, 0.005232910477720189
1011.0, 0.004258005027298853
1012.0, 0.006698622193064617
1013.0, 0.005451804639239015
1014.0, 0.004075433998358409
1015.0, 0.004470391504242988
1016.0, 0.0036980556737416345
1017.0, 0.00630550341004376
1018.0, 0.007085559546955188
1019.0, 0.006405743953208992
1020.0, 0.00545136983399492
1021.0, 0.006267026413251731
1022.0, 0.006796089418700217
1023.0, 0.006337398981661189
1024.0, 0.006921311481847212
1025.0, 0.008225471075942202
1026.0, 0.004749195761836602
1027.0, 0.004309557878947315
1028.0, 0.0063064878036091735
1029.0, 0.008618220730585564
1030.0, 0.009193329193467223
1031.0, 0.006141687949015125
1032.0, 0.006985861830961816
1033.0, 0.006300335747408644
1034.0, 0.007233931367262297
1035.0, 0.009891459243095369
1036.0, 0.00836897599012511
1037.0, 0.010801259467191987
1038.0, 0.011769802588677906
1039.0, 0.012048226093394558
1040.0, 0.012149632413739588
1041.0, 0.011761152301340906
1042.0, 0.009094226192409979
1043.0, 0.00815255202936694
1044.0, 0.007463429520348578
1045.0, 0.0072503252871455905
1046.0, 0.01009356033906483
1047.0, 0.007484735874008079
1048.0, 0.008073448058916426
1049.0, 0.010997612267244364
1050.0, 0.01411592001011905
1051.0, 0.014214793727926063
1052.0, 0.01840429255813721
1053.0, 0.021121103543089804
1054.0, 0.02644007219581215
1055.0, 0.040731403568946056
1056.0, 0.0737093972274216
1057.0, 0.18742849049327107
1058.0, 0.44782138227023166
1059.0, 0.7659812281354997
1060.0, 0.9980501175051641
1061.0, 0.9690689464105012
1062.0, 0.5395619841786496
1063.0, 0.2759711701548819
1064.0, 0.13710934730435648
1065.0, 0.07630172494245284
1066.0, 0.04306954223916767
1067.0, 0.026244674235276884
1068.0, 0.01820443051402063
1069.0, 0.012397937188848518
1070.0, 0.00908059260997255
1071.0, 0.009723190592453627
1072.0, 0.011000387381337457
1073.0, 0.00972026367373543
1074.0, 0.0071447677603913365
1075.0, 0.0057866248545373426
1076.0, 0.006894478536328695
1077.0, 0.006120479931653762
1078.0, 0.0038053047559964527
1079.0, 0.005316116324703275
1080.0, 0.00847853141143885
1081.0, 0.009675982443835232
1082.0, 0.00435850387818822
1083.0, 0.0033218724731020463
1084.0, 0.0053591134996338555
1085.0, 0.006434029908409555
1086.0, 0.00520250530445118
1087.0, 0.004738693512273747
1088.0, 0.005167720956602792
1089.0, 0.006391091801106399
1090.0, 0.005494837228359415
1091.0, 0.003629987813111575
1092.0, 0.005582825501580504
1093.0, 0.004965130757188988
1094.0, 0.0033865944285215496
1095.0, 0.003959680313978458
1096.0, 0.004469786040859782
1097.0, 0.0008555774576301395
1098.0, 0.0029565331595096888
1099.0, 0.001962917100273942
1100.0, 0.003217177636595497
1101.0, 0.004322372651483437
1102.0, 0.002036921249114132
1103.0, 0.002351465671850275
1104.0, 0.0033681599948892442
1105.0, 0.0028489920983615497
1106.0, 0.0017643119624404797
1107.0, 0.0015568541544308148
1108.0, 0.003322846677119976
1109.0, 0.0010288703094845188
1110.0, 0.0016964541839386354
1111.0, 0.0032533314931112627
1112.0, 0.0034199115220379644
1113.0, 0.0008126932964734831
1114.0, 0.0021738047932108257
1115.0, 0.003675930680908953
1116.0, 0.004342276535216641
1117.0, 0.004201405206029534
1118.0, 0.003950067004680713
1119.0, 0.002076976033366389
1120.0, 0.0008716427672923932
1121.0, 0.0011194855219715364
1122.0, 0.002386166269136173
1123.0, 0.0036951500691497726
1124.0, 0.0041305629863961375
1125.0, 0.004313180001850922
1126.0, 0.0021324260980362646
1127.0, 0.0005280823287324287
1128.0, 0.0012657366510510424
1129.0, 0.0006181058994656881
1130.0, 0.0038311538919316834
1131.0, 0.002114840478845987
1132.0, 0.0017049136695703605
1133.0, 0.003910826098849556
1134.0, 0.002846178224983837
1135.0, 0.0017532668585362773
1136.0, 0.003820871280054266
1137.0, 0.0032454895351426804
1138.0, 0.0018951092398224096
1139.0, 0.0045331127953206094
1140.0, 0.0015040624203583111
1141.0, 0.0005887784330822364
1142.0, 0.00019992993379487777
1143.0, 0.0012443066441353025
1144.0, 0.003592814574498883
1145.0, 0.0018851598978265498
1146.0, 0.003131661466222018
1147.0, 0.0020034878937565536
1148.0, 0.000999748017264557
1149.0, 0.0012717345893507638
1150.0, 0.001105445953344445
1151.0, 0.001638751065043421
1152.0, 0.0018019585567576463
1153.0, 0.0024215373601034207
1154.0, 0.003087688120452767
1155.0, 0.0029976356130653465
1156.0, 0.004320403322611581
1157.0, 0.0032261640006364875
1158.0, 0.002199644902920315
1159.0, 0.0016140742968526285
1160.0, 0.001615486448074092
1161.0, 0.003205088378543938
1162.0, 0.0015472843994720432
1163.0, 0.000930154717820284
1164.0, 0.0008744840198514798
1165.0, 0.00158690553655711
1166.0, 0.004065409826580036
1167.0, 0.0006857111454022088
1168.0, 0.0023146695854904193
1169.0, 0.0036018301503661274
1170.0, 0.003846296724596448
1171.0, 0.003828696646792807
1172.0, 0.000715413273454635
1173.0, 0.0024431380110141953
1174.0, 0.0023399501880411806
1175.0, 0.0029547549142235133
1176.0, 0.005330590009468851
1177.0, 0.0054698870708584845
1178.0, 0.0016016664801730698
1179.0, 0.0037788247043242743
1180.0, 0.0049566174952560636
1181.0, 0.003968127901059011
1182.0, 0.0036655441409317283
1183.0, 0.003987802979785077
1184.0, 0.004420772489157969
1185.0, 0.004349380950805556
1186.0, 0.004346888885439245
1187.0, 0.00462472450238082
1188.0, 0.003879096781298879
1189.0, 0.004421849430224382
1190.0, 0.004863559901730649
1191.0, 0.004913166553443832
1192.0, 0.00581208851268071
1193.0, 0.008929232632771995
1194.0, 0.0036357893241877673
1195.0, 0.009449524380379166
1196.0, 0.009128272120197352
1197.0, 0.005631507712218603
1198.0, 0.004756551390016485
1199.0, 0.0034705914378747103
1200.0, 0.004307483562913231
1201.0, 0.0037955849200210947
1202.0, 0.005178595358360804
1203.0, 0.00622755401099328
1204.0, 0.0011875604350167581
1205.0, 0.005956123989002919
1206.0, 0.006875049943220724
1207.0, 0.006017865969643077
1208.0, 0.004976859998826941
1209.0, 0.004675040973970037
1210.0, 0.004584331021510917
1211.0, 0.004708374459184993
1212.0, 0.004621472832378077
1213.0, 0.004683018439750531
1214.0, 0.004937726236047539
1215.0, 0.005274154080691049
1216.0, 0.007337129738136681
1217.0, 0.005252674873938516
1218.0, 0.006067597339330538
1219.0, 0.006766413966394602
1220.0, 0.005133497555143831
1221.0, 0.006893660210246338
1222.0, 0.005274441135336282
1223.0, 0.004070543639496713
1224.0, 0.0042435423744442225
1225.0, 0.005357925044692571
1226.0, 0.005897928955771938
1227.0, 0.003327425035060092
1228.0, 0.004237045283233634
1229.0, 0.00618533283910511
1230.0, 0.006834226350083121
1231.0, 0.005548693822050887
1232.0, 0.0045001153569353795
1233.0, 0.002575853029573274
1234.0, 0.004614997395873148
1235.0, 0.0061558534530517985
1236.0, 0.0054992812637458
1237.0, 0.0038862230175950863
1238.0, 0.008044171504806807
1239.0, 0.0052152728009048814
1240.0, 0.005488790355372977
1241.0, 0.007825350659048802
1242.0, 0.009313410796113818
1243.0, 0.007119592951363586
1244.0, 0.005275931165768166
1245.0, 0.005916024571941888
1246.0, 0.006885285794828207
1247.0, 0.007126634629802812
1248.0, 0.006544809415524615
1249.0, 0.0064080928776762205
1250.0, 0.004142840970727778
1251.0, 0.0048866231894668195
1252.0, 0.004671783723084515
1253.0, 0.004200864482994835
1254.0, 0.00609313240878399
1255.0, 0.0050484225998358966
1256.0, 0.002737338549139657
1257.0, 0.0013496547434603868
1258.0, 0.0005477118867341583
1259.0, 4.745671626718906e-05
1260.0, 0.00017568477020442406
1261.0, 0.0022000175764040585
1262.0, 0.0027434592200150138
1263.0, 0.0045767335183765105
1264.0, 0.006425150549720746
1265.0, 0.006839315181777337
1266.0, 0.007196052836232864
1267.0, 0.005603573596075143
1268.0, 0.005159596842006252
1269.0, 0.005172077740985005
1270.0, 0.005119443787377568
1271.0, 0.004974626110747444
1272.0, 0.006034620383897218
1273.0, 0.005066269675500869
1274.0, 0.003814191507807242
1275.0, 0.002526755963704025
1276.0, 0.0027858176734429
1277.0, 0.006312532794027027
1278.0, 0.001946508201873847
1279.0, 0.005832885026570807
1280.0, 0.005528147409692955
1281.0, 0.003909335223876086
1282.0, 0.0035164931349392775
1283.0, 0.0003089397954186093
1284.0, 0.002193040092757969
1285.0, 0.003904686377307484
1286.0, 0.004712577634086146
1287.0, 0.004015118040005032
1288.0, 0.002938269814119681
1289.0, 0.006742502760548208
1290.0, 0.0026165938458906418
1291.0, 0.0028636598137305944
1292.0, 0.0035779397275391535
1293.0, 0.003409689923911974
1294.0, 0.0032692390419143836
1295.0, 0.004366558018930116
1296.0, 0.0011036253872794611
1297.0, 0.0006996992018564196
1298.0, 0.0010048314785344834
1299.0, 0.0021759301210343067
1300.0, 0.006131507742276577
1301.0, 0.00589017580502412
1302.0, 0.003212331567412235
1303.0, 0.0024188287385434647
1304.0, 0.002164882447904031
1305.0, 0.0014805311401122306
1306.0, 0.0011854365924976432
1307.0, 0.0017445641614999316
1308.0, 0.003280753159582333
1309.0, 0.0024399595803464404
1310.0, 0.0024192064137705735
1311.0, 0.004297764288647029
1312.0, 0.0030838330744045305
1313.0, 0.0019162254247111613
1314.0, 0.0010555185099578813
1315.0, 0.00044426956411548535
1316.0, 0.0011029348882831019
1317.0, 0.0029470257940827976
1318.0, 0.00293640524495046
1319.0, 0.0005177770691947557
1320.0, 0.0023442161271579557
1321.0, 0.0022052199466333043
1322.0, 0.0012168150023847066
1323.0, 0.0020157009196661406
1324.0, 0.0017099178149472686
1325.0, 0.0010526408968253513
1326.0, 0.0035517499071561764
1327.0, 0.003859968955047745
1328.0, 0.00199256934521338
1329.0, 0.0009011771221282759
1330.0, 0.002140628093972938
1331.0, 0.0023847646610903987
1332.0, 0.002924855734847687
1333.0, 0.0032740648364875577
1334.0, 0.0025629766138057625
1335.0, 0.0008723739830286185
1336.0, 0.002284990995664246
1337.0, 0.0019149744709913183
1338.0, 0.0016942751849372292
1339.0, 0.0026954926555719373
1340.0, 0.004405252509569021
1341.0, 0.005129458269171517
1342.0, 0.002789896925771342
1343.0, 0.002840605741710778
1344.0, 0.0020888864866010796
1345.0, 0.0022378145772830728
1346.0, 0.003113989904122219
1347.0, 0.003300232841619252
1348.0, 0.0037255906762819384
1349.0, 0.0033575269519028183
1350.0, 0.004001493636948956
1351.0, 0.0045423752784853905
1352.0, 0.004902691283115261
1353.0, 0.005659715854757928
1354.0, 0.005586120683812926
1355.0, 0.0044486518434117646
1356.0, 0.0024180950454284838
1357.0, 0.0028410629914585642
1358.0, 0.004961889716626739
1359.0, 0.00535419232143722
1360.0, 0.003931452069360736
1361.0, 0.005366421018283432
1362.0, 0.00406798252494594
1363.0, 0.00315724516358669
1364.0, 0.004781250444218643
1365.0, 0.007797552641580805
1366.0, 0.003939949999905581
1367.0, 0.004903510235396716
1368.0, 0.006625695905385946
1369.0, 0.007122019091071862
1370.0, 0.006807870117189408
1371.0, 0.006849698728012866
1372.0, 0.005507698901377882
1373.0, 0.005818310597257162
1374.0, 0.0050531977066610315
1375.0, 0.004663704451387183
1376.0, 0.004402963501881214
1377.0, 0.003621483192237398
1378.0, 0.0040143309624469554
1379.0, 0.0014138184039090382
1380.0, 0.005025465185947409
1381.0, 0.004964975871178254
1382.0, 0.002850821869705186
1383.0, 0.003958850794937507
1384.0, 0.006301442937052962
1385.0, 0.006222719705187569
1386.0, 0.007073163201836857
1387.0, 0.007538826433711324
1388.0, 0.007614572028393607
1389.0, 0.007365789104381915
1390.0, 0.005951655106303266
1391.0, 0.006928994789081315
1392.0, 0.005112529931325021
1393.0, 0.0057378973656687475
1394.0, 0.007382624131354594
1395.0, 0.007748305065656362
1396.0, 0.007012260551993841
1397.0, 0.00685049043233394
1398.0, 0.0069615523541864885
1399.0, 0.00710580611951265
1400.0, 0.0071940612290780056
1401.0, 0.007594027638988585
1402.0, 0.008654976851789776
1403.0, 0.006852995579637245
1404.0, 0.005901358206432443
1405.0, 0.005256568640240179
1406.0, 0.005507657002786971
1407.0, 0.005842613298340595
1408.0, 0.004882323982405802
1409.0, 0.005037805261773173
1410.0, 0.007663494925453524
1411.0, 0.0074426486028832655
1412.0, 0.00766037318731241
1413.0, 0.00713698027591905
1414.0, 0.004652809220113634
1415.0, 0.008985609731540398
1416.0, 0.007075412330888914
1417.0, 0.00845879299198378
1418.0, 0.008981950525919258
1419.0, 0.012010711311512656
1420.0, 0.019608380124778862
1421.0, 0.02483294242151652
1422.0, 0.032675863192532496
1423.0, 0.0334290947418918
1424.0, 0.02873271055293168
1425.0, 0.022718223988041547
1426.0, 0.016753780417830745
1427.0, 0.008952080241493125
1428.0, 0.008897192790391485
1429.0, 0.008022706849815979
1430.0, 0.007093854000499974
1431.0, 0.005745581294289603
1432.0, 0.0049872204890674815
1433.0, 0.0060650241754614765
1434.0, 0.006103505310596115
1435.0, 0.0032095554848916236
1436.0, 0.004799092039978505
1437.0, 0.007420700316221364
1438.0, 0.007370530600937821
1439.0, 0.004232813145438104
1440.0, 0.0036818751719168855
1441.0, 0.009118173340036699
1442.0, 0.008116194637600275
1443.0, 0.007289743547779992
1444.0, 0.007229058247544616
1445.0, 0.006695936399227368
1446.0, 0.005254288059747325
1447.0, 0.005862163756221405
1448.0, 0.007405735565024315
1449.0, 0.007009833328491063
1450.0, 0.005389568278237455
1451.0, 0.005108796274676572
1452.0, 0.007440591726492882
1453.0, 0.006318645442067917
1454.0, 0.003376832205863108
1455.0, 0.007389359609003851
1456.0, 0.006807702729357868
1457.0, 0.004016446165943375
1458.0, 0.004620821565161399
1459.0, 0.006772256422558612
1460.0, 0.0044245600578746895
1461.0, 0.006818072204464408
1462.0, 0.006995911340024085
1463.0, 0.004776708415383211
1464.0, 0.0036815379295550557
1465.0, 0.006580387627755352
1466.0, 0.004998915891432399
1467.0, 0.00813183471786205
1468.0, 0.004647887767097948
1469.0, 0.003742259946566666
1470.0, 0.004946805488450722
1471.0, 0.005452799759344541
1472.0, 0.009663390042645426
1473.0, 0.0018615836207499415
1474.0, 0.006548240292378569
1475.0, 0.00582029126195664
1476.0, 0.002938388733546621
1477.0, 0.0025071878365808395
1478.0, 0.0036319719943105544
1479.0, 0.002617715150023413
1480.0, 0.0013507347201064167
1481.0, 0.004747443913370136
1482.0, 0.0037187182742390718
1483.0, 0.002931320515697563
1484.0, 0.006621028166615556
1485.0, 0.0031481775388212865
1486.0, 0.0021889564365297036
1487.0, 0.002098174526102054
1488.0, 0.0035255274190685304
1489.0, 0.002656534377563907
1490.0, 0.0011316699134672416
1491.0, 0.0035551593756960754
1492.0, 0.0011214299928352768
1493.0, 0.006000380883868881
1494.0, 0.004357229683909124
1495.0, 0.002418766353867042
1496.0, 0.002810453536038828
1497.0, 0.0035498105337949328
1498.0, 0.00048213824689998116
1499.0, 0.003446283239559161
1500.0, 0.0024256426412826307
1501.0, 0.003486181560196715
1502.0, 0.002922093253252353
1503.0, 0.0018046341924013681
1504.0, 0.003713033958792604
1505.0, 0.004980431299569134
1506.0, 0.003150081848861928
1507.0, 0.006596557458495895
1508.0, 0.007389715046648318
1509.0, 0.006457761315645717
1510.0, 0.006477683692649143
1511.0, 0.00768565116810356
1512.0, 0.0072246105191453485
1513.0, 0.0092387617176763
1514.0, 0.007335630352425343
1515.0, 0.004048954338216604
1516.0, 0.004858853940555918
1517.0, 0.008348994100396568
1518.0, 0.0018703371919747878
1519.0, 0.003145329832477637
1520.0, 0.0008242858749754294
1521.0, 0.00028708102343286677
1522.0, 0.00024880980801822656
1523, 0.0
1524, 0.0
1525, 0.0
1526, 0.0
1527, 0.0
1528, 0.0
1529, 0.0
1530, 0.0
1531, 0.0
1532, 0.0
1533, 0.0
1534, 0.0
1535, 0.0
1536, 0.0
1537, 0.0
1538, 0.0
1539, 0.0
1540, 0.0
1541, 0.0
1542, 0.0
1543, 0.0
1544, 0.0
1545, 0.0
1546, 0.0
1547, 0.0
1548, 0.0
1549, 0.0
1550, 0.0
1551, 0.0
1552, 0.0
1553, 0.0
1554, 0.0
1555, 0.0
1556, 0.0
1557, 0.0
1558, 0.0
1559, 0.0
1560, 0.0
1561, 0.0
1562, 0.0
1563, 0.0
1564, 0.0
1565, 0.0
1566, 0.0
1567, 0.0
1568, 0.0
1569, 0.0
1570, 0.0
1571, 0.0
1572, 0.0
1573, 0.0
1574, 0.0
1575, 0.0
1576, 0.0
1577, 0.0
1578, 0.0
1579, 0.0
1580, 0.0
1581, 0.0
1582, 0.0
1583, 0.0
1584, 0.0
1585, 0.0
1586, 0.0
1587, 0.0
1588, 0.0
1589, 0.0
1590, 0.0
1591, 0.0
1592, 0.0
1593, 0.0
1594, 0.0
1595, 0.0
1596, 0.0
1597, 0.0
1598, 0.0
1599, 0.0
