30, 0.0
31, 0.0
32, 0.0
33, 0.0
34, 0.0
35, 0.0
36, 0.0
37, 0.0
38, 0.0
39, 0.0
40, 0.0
41, 0.0
42, 0.0
43, 0.0
44, 0.0
45, 0.0
46, 0.0
47, 0.0
48, 0.0
49, 0.0
50, 0.0
51, 0.0
52, 0.0
53, 0.0
54, 0.0
55, 0.0
56, 0.0
57, 0.0
58, 0.0
59, 0.0
60, 0.0
61, 0.0
62, 0.0
63, 0.0
64, 0.0
65, 0.0
66, 0.0
67, 0.0
68, 0.0
69, 0.0
70, 0.0
71, 0.0
72, 0.0
73, 0.0
74, 0.0
75, 0.0
76, 0.0
77, 0.0
78, 0.0
79, 0.0
80, 0.0
81, 0.0
82, 0.0
83, 0.0
84, 0.0
85, 0.0
86, 0.0
87, 0.0
88, 0.0
89, 0.0
90, 0.0
91, 0.0
92, 0.0
93, 0.0
94, 0.0
95, 0.0
96, 0.0
97, 0.0
98, 0.0
99.0, 2.284651643109372e-05
100.0, 0.00045391286418760104
101.0, 0.0003887516159916982
102.0, 0.00024319352527915543
103.0, 0.0005762638918483764
104.0, 0.000657410661653161
105.0, 0.0010013279150705356
106.0, 0.0015784491189787116
107.0, 0.0013170725944878733
108.0, 0.0015257901417931354
109.0, 0.001962379724076825
110.0, 0.0024580132371776007
111.0, 0.0021940612179564786
112.0, 0.002100002910098314
113.0, 0.002452487819405885
114.0, 0.004286228441566868
115.0, 0.005266569876152988
116.0, 0.006399213119029256
117.0, 0.008333002058251352
118.0, 0.00805129577632136
119.0, 0.009211010618519063
120.0, 0.011764562321917195
121.0, 0.01551539875902242
122.0, 0.017947174894675105
123.0, 0.02168042287133935
124.0, 0.02782775968590411
125.0, 0.03594694457797051
126.0, 0.047138990714134146
127.0, 0.06139100531371972
128.0, 0.07959903463754793
129.0, 0.09987850575224531
130.0, 0.1259535904977073
131.0, 0.15784229985290102
132.0, 0.1847440461101482
133.0, 0.20447588971453565
134.0, 0.21317058572017966
135.0, 0.20393658535988454
136.0, 0.18450989625580738
137.0, 0.1592273032389218
138.0, 0.13141040205396398
139.0, 0.1146238610978651
140.0, 0.10227745342518402
141.0, 0.0939984092687791
142.0, 0.09021801315474931
143.0, 0.0973456413824813
144.0, 0.10794557592201073
145.0, 0.12197840909045361
146.0, 0.14054519001140175
147.0, 0.16884181129854234
148.0, 0.20257394810763185
149.0, 0.24063466125977306
150.0, 0.2792735898456315
151.0, 0.30108877105475323
152.0, 0.30711501444374034
153.0, 0.2944078926913682
154.0, 0.267524045008772
155.0, 0.2357975671419662
156.0, 0.20182015155618227
157.0, 0.17306795899805436
158.0, 0.14577914189189278
159.0, 0.11982646740024444
160.0, 0.09533151819059754
161.0, 0.0758585908928402
162.0, 0.06037415843538216
163.0, 0.04765180998544974
164.0, 0.03560087471151424
165.0, 0.02872635359112968
166.0, 0.023991715791202482
167.0, 0.020527752967974097
168.0, 0.01584816845926171
169.0, 0.01326937917709909
170.0, 0.011136218983359805
171.0, 0.007918809980049632
172.0, 0.009559994305887737
173.0, 0.010441331514861244
174.0, 0.010728790898311424
175.0, 0.012684712504233423
176.0, 0.013677964945436097
177.0, 0.014101060763869518
178.0, 0.014081431659039268
179.0, 0.014445947018417168
180.0, 0.01392352285641609
181.0, 0.012402415222007489
182.0, 0.009466697537704748
183.0, 0.007034324916970592
184.0, 0.006305519690772152
185.0, 0.006773703508476971
186.0, 0.004540316048816979
187.0, 0.004593053048347541
188.0, 0.0046294803510539256
189.0, 0.0033336775907132593
190.0, 0.004215386241975048
191.0, 0.005126105846542267
192.0, 0.006108457747268084
193.0, 0.007300463361085
194.0, 0.007771252978535778
195.0, 0.007272881928838501
196.0, 0.006043175540078086
197.0, 0.006470518741025914
198.0, 0.005789947475979346
199.0, 0.005017823512976067
200.0, 0.004861522393526712
201.0, 0.005123305403734249
202.0, 0.004800926439276084
203.0, 0.004169725287878493
204.0, 0.003887554117139756
205.0, 0.004748692637176738
206.0, 0.0056518872070252316
207.0, 0.006281360504287742
208.0, 0.00615099322160869
209.0, 0.008056324349030237
210.0, 0.011082910626741188
211.0, 0.014710917860773203
212.0, 0.015808923377071342
213.0, 0.018353404112084592
214.0, 0.022030445749577597
215.0, 0.02593839204309414
216.0, 0.02949753804655646
217.0, 0.03206646639958367
218.0, 0.03345025574009963
219.0, 0.033563850796658516
220.0, 0.0347898478396379
221.0, 0.036508790611915136
222.0, 0.0383377341714626
223.0, 0.03873491326985999
224.0, 0.037326266373577
225.0, 0.035133677751121035
226.0, 0.03428091730480175
227.0, 0.030561677964049603
228.0, 0.02682107782823401
229.0, 0.023614822856827006
230.0, 0.020659078473328776
231.0, 0.01727312741712639
232.0, 0.01476523260099948
233.0, 0.014044276132053193
234.0, 0.010949003315289554
235.0, 0.009166737950529759
236.0, 0.008196374388678984
237.0, 0.007251776469504907
238.0, 0.006115233163086792
239.0, 0.005397209220232233
240.0, 0.005012233364365737
241.0, 0.004050020565580002
242.0, 0.003661892756182399
243.0, 0.0036998246503746916
244.0, 0.004062186362652594
245.0, 0.002562969722953965
246.0, 0.0016151015286406175
247.0, 0.0011144976245437447
248.0, 0.0010116069127790602
249.0, 0.0023549402274183834
250.0, 0.002192077919526021
251.0, 0.0012634061103337746
252.0, 0.002806193625090188
253.0, 0.0025211040153027236
254.0, 0.001863052515677077
255.0, 0.0013145339127573366
256.0, 0.0014378653641323876
257.0, 0.0014362122177636887
258.0, 0.0013185002277543124
259.0, 0.0010757927731960158
260.0, 0.0011907743864634848
261.0, 0.0020707598468493126
262.0, 0.002656863110334165
263.0, 0.0008017202879955605
264.0, 0.000499217887354638
265.0, 0.00047156924668668277
266.0, 0.0005549719445196838
267.0, 0.0009989410200376813
268.0, 0.0007021761036287471
269.0, 0.0005303449390733802
270.0, 0.0008229692729846736
271.0, 0.000615440753226741
272.0, 0.000515545276948594
273.0, 0.0003970608514845481
274.0, 0.000126091164980422
275.0, 0.0013311604148114053
276.0, 0.0017117457964783227
277.0, 0.0013346335653872299
278.0, 0.0005555348056710504
279.0, 0.0005220809878412175
280.0, 0.0007860854466719474
281.0, 0.0012761404381102929
282.0, 0.002106984583066037
283.0, 0.0025199405123916903
284.0, 0.001996734158954903
285.0, 0.0003314032633211961
286.0, 0.0006065807360812414
287.0, 0.0009484287122125521
288.0, 0.000983469778935141
289.0, 0.0002635149668397984
290.0, 0.001307438032611906
291.0, 0.0015696749767581584
292.0, 0.001306206788490986
293.0, 0.0013982065736268235
294.0, 0.0024534392255202895
295.0, 0.002284723896877232
296.0, 0.0011378699844157936
297.0, 0.0025970564499246517
298.0, 0.00313572989214619
299.0, 0.0026541857909148214
300.0, 0.0011687432008330965
301.0, 0.0007893646835558589
302.0, 0.0005395600271807286
303.0, 0.0007782362595803467
304.0, 0.001883721537195612
305.0, 0.0006716618285981251
306.0, 0.000953254695477863
307.0, 0.0016537394366283713
308.0, 0.000635027555726148
309.0, 0.000942993165169279
310.0, 0.0012816605318586656
311.0, 0.001447821445320931
312.0, 0.0013357209713248347
313.0, 0.0013715508806083482
314.0, 0.000987585537290539
315.0, 0.00024880070520668046
316.0, 0.0012648206687652524
317.0, 0.0008078507594286116
318.0, 0.0004937793650818144
319.0, 0.001240925413935461
320.0, 0.0008706366675790047
321.0, 0.0012737638088181976
322.0, 0.0015835272397028929
323.0, 0.0007990938148818289
324.0, 0.001472343097743461
325.0, 0.0011430935940057274
326.0, 0.0002993474320173618
327.0, 0.0002056387973401041
328.0, 0.001100562844133995
329.0, 0.001189307693204378
330.0, 0.0004903323647387749
331.0, 0.0001687949657445121
332.0, 0.00017822771049304036
333.0, 0.00027982213336376295
334.0, 0.00040529194795969344
335.0, 0.0005897134248248196
336.0, 0.0005255032587562435
337.0, 0.0005839230284711377
338.0, 0.0009748631604087838
339.0, 0.001466710405885176
340.0, 0.0012675473696987603
341.0, 0.001283161504940089
342.0, 0.0024367981690597935
343.0, 0.002235430585142511
344.0, 0.0018396788698845804
345.0, 0.0013148423387705445
346.0, 0.0006922246802698563
347.0, 0.0007260545826335197
348.0, 0.001009711574952248
349.0, 0.0013805373725277624
350.0, 0.0015137786473053804
351.0, 0.0012622507172374477
352.0, 0.0017275342808185411
353.0, 0.002686143371366876
354.0, 0.0017784520842245815
355.0, 0.0029771477068320155
356.0, 0.0031073147020012435
357.0, 0.0012408236397748406
358.0, 0.00046509480909555194
359.0, 0.0005217811028670722
360.0, 0.0012143811749118034
361.0, 0.002432288382174458
362.0, 0.003245804569543793
363.0, 0.0026066548301719246
364.0, 0.001547707588211496
365.0, 0.0010356949951614161
366.0, 0.0024130579116825985
367.0, 0.002479090501678529
368.0, 0.0020441805924299493
369.0, 0.0024039102291252253
370.0, 0.0008672578794725772
371.0, 0.0007450123004065941
372.0, 0.0014074354532137932
373.0, 0.0008381129572456774
374.0, 0.00045980518488933657
375.0, 0.0011763483924548252
376.0, 0.0023857349876522057
377.0, 0.0014929240770023703
378.0, 0.00281502009732983
379.0, 0.0030464293711033414
380.0, 0.00178436252227437
381.0, 0.001574163976412787
382.0, 0.0025885840595583666
383.0, 0.0028249365805834694
384.0, 0.0016486593440722928
385.0, 0.00069371377392353
386.0, 0.0020105810137154108
387.0, 0.003516996060602605
388.0, 0.0039461252384484025
389.0, 0.0012472625409382836
390.0, 0.0010383895262641447
391.0, 0.0014819995710853287
392.0, 0.0011816592079912534
393.0, 0.00131247816508892
394.0, 0.002072339806686944
395.0, 0.00256419840796696
396.0, 0.0017717071612934545
397.0, 0.002150168506254691
398.0, 0.0023226848379150847
399.0, 0.002171469343348485
400.0, 0.001560396436541177
401.0, 0.002384686540801492
402.0, 0.0020497163334449653
403.0, 0.001801353802199115
404.0, 0.004578191885416798
405.0, 0.0026849513182431563
406.0, 0.0025155402520848575
407.0, 0.0037232347840226447
408.0, 0.003301806686420871
409.0, 0.0026509371814121673
410.0, 0.0029875748860023832
411.0, 0.003923497968009104
412.0, 0.0033114754918487687
413.0, 0.0028438153038278734
414.0, 0.0035282959206132396
415.0, 0.004700200507179448
416.0, 0.002029866068751411
417.0, 0.0014145399505640975
418.0, 0.001454066424543212
419.0, 0.0015476652123555521
420.0, 0.0006721369740891619
421.0, 0.0021571962747427374
422.0, 0.00273188776418664
423.0, 0.0014625352096836878
424.0, 0.0018726775655594058
425.0, 0.0032877267836359265
426.0, 0.0037452188239820968
427.0, 0.002555848858581552
428.0, 0.00352646250490211
429.0, 0.0030809574419784326
430.0, 0.0017819656774166115
431.0, 0.00014686480271829659
432.0, 0.0019671450843080167
433.0, 0.004776920448494641
434.0, 0.006274637289332146
435.0, 0.004897648683907916
436.0, 0.004510873727436946
437.0, 0.0032202954892268008
438.0, 0.002382619782826962
439.0, 0.0030977973305691825
440.0, 0.0019207672164178484
441.0, 0.002067857272395139
442.0, 0.0025065420338466924
443.0, 0.0022527233684785986
444.0, 0.0040889376187295936
445.0, 0.003912103666829352
446.0, 0.0028057059056841
447.0, 0.0019543091938064466
448.0, 0.0023946962863406035
449.0, 0.0017231896033824406
450.0, 0.0012137055735024064
451.0, 0.0024808014199831857
452.0, 0.0014128233685709148
453.0, 0.002532079911197523
454.0, 0.003334085204956861
455.0, 0.00026591118331196714
456.0, 0.0013816407866068332
457.0, 0.0013383728090306261
458.0, 0.0006614319291938956
459.0, 0.0004215373544585781
460.0, 0.0027895888626559757
461.0, 0.002856918373310687
462.0, 0.0019589255670657262
463.0, 0.002505742243653924
464.0, 0.003213794088431284
465.0, 0.002403398014681746
466.0, 0.0018998198104334782
467.0, 0.004808593252031484
468.0, 0.002690010339899094
469.0, 0.0015230057461927198
470.0, 0.001769469193629607
471.0, 0.003581271498286541
472.0, 0.0012109683035509077
473.0, 0.0017473899821949326
474.0, 0.0030050538718713183
475.0, 0.0004866992966856209
476.0, 0.0016551195493606776
477.0, 0.002041762669841651
478.0, 0.002424162567131941
479.0, 0.004660041950555711
480.0, 0.002725929478437662
481.0, 0.0013472532219225408
482.0, 0.0010542619612549466
483.0, 0.002193120680347751
484.0, 0.0013618432899117545
485.0, 0.0016513218079023892
486.0, 0.002466289397606464
487.0, 0.0025223714329099312
488.0, 0.0015730520760999125
489.0, 0.002345087114952175
490.0, 0.0031967122038336596
491.0, 0.0013354271252946324
492.0, 0.003027618650306727
493.0, 0.0027633019225228213
494.0, 0.0018494478182452469
495.0, 0.0026114295367193796
496.0, 0.0023170670631551186
497.0, 0.0014926929310804678
498.0, 0.0013756902359459032
499.0, 0.003612524269042217
500.0, 0.0042936507110148394
501.0, 0.0033696861768991735
502.0, 0.0022420462479289167
503.0, 0.002630290044193349
504.0, 0.002018486811600671
505.0, 0.002513966647417799
506.0, 0.0028024939062796864
507.0, 0.0013823212374809847
508.0, 0.0018338905824894583
509.0, 0.00337669020614288
510.0, 0.004351289819543578
511.0, 0.0031443001647532484
512.0, 0.0024525289766240857
513.0, 0.003217503350951984
514.0, 0.003910139927111152
515.0, 0.003238394852940574
516.0, 0.0030306107124085696
517.0, 0.002847360446179873
518.0, 0.0035597018335902448
519.0, 0.005542852831355861
520.0, 0.0030261474242128765
521.0, 0.0039059625944963886
522.0, 0.004733718730732718
523.0, 0.0035727805808840433
524.0, 0.004247671891060428
525.0, 0.004208407952325634
526.0, 0.00413566742621337
527.0, 0.004331592394854739
528.0, 0.004176030714668099
529.0, 0.004862201566232072
530.0, 0.004074051219366574
531.0, 0.0015244545641756647
532.0, 0.002392138439474074
533.0, 0.0016249189801217413
534.0, 0.0012332242177121194
535.0, 0.0017510641607891512
536.0, 0.002173428696266511
537.0, 0.0014418435854102666
538.0, 0.0018285059904468034
539.0, 0.0037293314764656003
540.0, 0.006142916015211153
541.0, 0.003196765737751719
542.0, 0.0025508736778745615
543.0, 0.0038445853707632853
544.0, 0.0010731470065671537
545.0, 0.0023864511752050292
546.0, 0.003119701671633638
547.0, 0.0028685308198815773
548.0, 0.002381048249271696
549.0, 0.0020999652301251902
550.0, 0.0017726571904855795
551.0, 0.002002200331852472
552.0, 0.0038782338283365504
553.0, 0.0024417207778025486
554.0, 0.001046480405682728
555.0, 0.0009866392906455873
556.0, 0.003672795766163049
557.0, 0.0017301709954964132
558.0, 0.001956914685844517
559.0, 0.0022924385124523778
560.0, 0.0007077779142469537
561.0, 0.002250119614479965
562.0, 0.004012948907165587
563.0, 0.004816374372244903
564.0, 0.003848854494523374
565.0, 0.0018616526590397157
566.0, 0.0030735409982438297
567.0, 0.00318784332256096
568.0, 0.0009148529949148747
569.0, 0.0038158530801711355
570.0, 0.004246838342130315
571.0, 0.0033608681538454597
572.0, 0.0020957298563636876
573.0, 0.0028659628252260105
574.0, 0.002440447293991741
575.0, 0.0022977487737735483
576.0, 0.002464424776193178
577.0, 0.0018318079467241938
578.0, 0.0006560648393392183
579.0, 0.00019770079502666989
580.0, 0.001198295476939922
581.0, 0.004815721678497027
582.0, 0.003390076712627684
583.0, 0.003671357739918306
584.0, 0.004657954956301962
585.0, 0.0040609621925425145
586.0, 0.0012204568695505418
587.0, 0.0005151761787856637
588.0, 0.0006649414053598436
589.0, 0.0003028471391728498
590.0, 0.0006820182188579038
591.0, 0.0009044700251029347
592.0, 0.0007568094167766053
593.0, 0.00037740150949975215
594.0, 0.0026190816377116453
595.0, 0.003919553395819013
596.0, 0.004001368310251126
597.0, 0.0030406317255335926
598.0, 0.002636040726296106
599.0, 0.003911195207506527
600.0, 0.004083355910517617
601.0, 0.003017085837713202
602.0, 0.0026692867130138206
603.0, 0.0021991732234214307
604.0, 0.0035852041042219156
605.0, 0.004866196932324261
606.0, 0.0016555674938551828
607.0, 0.003831626141523751
608.0, 0.003205346129135778
609.0, 0.0021043533911548657
610.0, 0.00400632862529108
611.0, 0.0027228295065405256
612.0, 0.0025407577547430396
613.0, 0.002880048886584581
614.0, 0.0033385348011273778
615.0, 0.004799064919196361
616.0, 0.004458482157172449
617.0, 0.0032121447800450382
618.0, 0.0017973666497542633
619.0, 0.0019313485852349471
620.0, 0.0030956955887278524
621.0, 0.0024511372995388754
622.0, 0.001396116039348961
623.0, 0.006553241666977702
624.0, 0.0024932550832534595
625.0, 0.0020787858842648836
626.0, 0.003777581682102569
627.0, 0.0017419076019069718
628.0, 0.0045563477834000814
629.0, 0.004246980517945674
630.0, 0.00229440153790784
631.0, 0.0008186833682823063
632.0, 0.004820263562166624
633.0, 0.003772163011839087
634.0, 0.00293092436533095
635.0, 0.004692218429094666
636.0, 0.002305470722866681
637.0, 0.0026372562844833736
638.0, 0.003136035992038106
639.0, 0.003081715723268063
640.0, 0.0030706064479073336
641.0, 0.003848139818993273
642.0, 0.0033728439105703695
643.0, 0.0018854615956439252
644.0, 0.0005463568918228697
645.0, 0.001515864391208765
646.0, 0.0022588410358806267
647.0, 0.0027580067301479247
648.0, 0.0031246282988508147
649.0, 0.002218893605019993
650.0, 0.003997047164487549
651.0, 0.00413567867617788
652.0, 0.0013040734351142127
653.0, 0.0048007445120847704
654.0, 0.004124087003723478
655.0, 0.0034017559719376742
656.0, 0.0032148555604615946
657.0, 0.0011711053215640434
658.0, 0.001982123341083262
659.0, 0.003484534061496857
660.0, 0.00444721317865818
661.0, 0.0033968748066940755
662.0, 0.0028604842874705673
663.0, 0.0023800526559214553
664.0, 0.003070643018378575
665.0, 0.005427174546776116
666.0, 0.0023930632059463277
667.0, 0.00489344812454369
668.0, 0.005865037943608682
669.0, 0.0035290655233956017
670.0, 0.005164763330957365
671.0, 0.0023027570529457492
672.0, 0.001039373406889971
673.0, 0.00263582074331924
674.0, 0.006845833035980931
675.0, 0.002838846245233515
676.0, 0.0006872991450697981
677.0, 0.0005760277444434179
678.0, 0.0017906480628486383
679.0, 0.00302908692702646
680.0, 0.0042851349452273976
681.0, 0.004102266991501556
682.0, 0.002700490963394831
683.0, 0.006243596324452323
684.0, 0.009397179642319889
685.0, 0.014086643741230741
686.0, 0.02186238333094537
687.0, 0.03526886064863794
688.0, 0.045739495474236
689.0, 0.050206133336050056
690.0, 0.047006591546876815
691.0, 0.03511352856528843
692.0, 0.02673134145018011
693.0, 0.018805963230166242
694.0, 0.01535454708004415
695.0, 0.016859555469048562
696.0, 0.011901646283040985
697.0, 0.014405389279717299
698.0, 0.017156486699566084
699.0, 0.017676575819109256
700.0, 0.014727911974999433
701.0, 0.012349796756927649
702.0, 0.008546079910920346
703.0, 0.004605968371479205
704.0, 0.002312847264081145
705.0, 0.005012937847389987
706.0, 0.006384081366693415
707.0, 0.0050971211673738045
708.0, 0.0014449778634838878
709.0, 0.00043826105340451075
710.0, 0.004720972059950736
711.0, 0.004371846678225566
712.0, 0.001654040015240522
713.0, 0.005878647664572125
714.0, 0.0016872377873026227
715.0, 0.0033640440801082014
716.0, 0.005197603864065938
717.0, 0.0016727592340479058
718.0, 0.0013727752961792512
719.0, 0.0029540054413633083
720.0, 0.0035527021566613116
721.0, 0.0026144936761821644
722.0, 0.0025641976387284038
723.0, 0.003320991446635996
724.0, 0.0029570593946320065
725.0, 0.002097457593583878
726.0, 0.0021321147382837194
727.0, 0.0038029077101909337
728.0, 0.002474212823720878
729.0, 0.0022872980841600033
730.0, 0.004882861802801715
731.0, 0.002087752209154489
732.0, 0.0030770401180278853
733.0, 0.002978638253067045
734.0, 0.0015321896547648107
735.0, 0.0012703288123982403
736.0, 0.001511734850624065
737.0, 0.0029643676200913605
738.0, 0.0036164404538616655
739.0, 0.0019077889774331534
740.0, 0.004037893872724803
741.0, 0.00185437030601343
742.0, 0.0018699140488462776
743.0, 0.004963591477994821
744.0, 0.004860567941919553
745.0, 0.005561532019982782
746.0, 0.004824431035734926
747.0, 0.0027835068981748117
748.0, 0.00016396042416046066
749.0, 0.0011374477495681662
750.0, 0.0016119427040806604
751.0, 0.0022654179978111744
752.0, 0.002996010250687309
753.0, 0.0014603783561112763
754.0, 0.0029495026410376658
755.0, 0.0024134395734936188
756.0, 0.0007514553416623891
757.0, 0.0011934398450383743
758.0, 0.003229544355545802
759.0, 0.0020327743499661947
760.0, 0.0005873626688405884
761.0, 0.0009087438358377283
762.0, 0.0017862735919234323
763.0, 0.002751060350110879
764.0, 0.0025498825402624934
765.0, 0.0014210392977615388
766.0, 0.0005199667361589232
767.0, 0.003209589107530434
768.0, 0.0026450001465337454
769.0, 0.002086250922376204
770.0, 0.003918311908863835
771.0, 0.003906941852391351
772.0, 0.0017022435344389703
773.0, 0.0027993861223580053
774.0, 0.0051484844349349145
775.0, 0.00038679622177548905
776.0, 0.0028757264307538366
777.0, 0.0021360981945137874
778.0, 0.0010036559539121194
779.0, 0.0021442058581885985
780.0, 0.00206658267716203
781.0, 0.0026011662439888437
782.0, 0.0031286724546220404
783.0, 0.0028883727299416104
784.0, 0.0005878858257193579
785.0, 0.0009232368350325986
786.0, 0.0014013293773275923
787.0, 0.001312005028930488
788.0, 0.0005808557374199967
789.0, 0.002855459867545919
790.0, 0.001652416749292647
791.0, 0.0008096220788409646
792.0, 0.0010659494888145867
793.0, 0.0013009550076690506
794.0, 0.0005321843129580332
795.0, 0.0007833000329497068
796.0, 0.0017423681749743948
797.0, 0.002887888275917827
798.0, 0.0031717896353287787
799.0, 0.0012487775462198794
800.0, 0.0001460353459069594
801.0, 0.0004718499415506556
802.0, 0.0016278935652737018
803.0, 0.0008420016824770444
804.0, 0.0036731906705678168
805.0, 0.005638592916739225
806.0, 0.004002679644315785
807.0, 0.003964913864380097
808.0, 0.0025609891119291383
809.0, 0.0015766777360523261
810.0, 0.001065250613283354
811.0, 0.00035011441510872273
812.0, 0.002743294598446637
813.0, 0.0020108261808583763
814.0, 0.001157225382142395
815.0, 0.0017543602646675688
816.0, 0.0018584482055362833
817.0, 0.001165037030326335
818.0, 0.0007907343192822373
819.0, 0.001144024023353182
820.0, 0.0023984540709468052
821.0, 0.0021447463616195983
822.0, 0.0013665376962760161
823.0, 0.0012133163675319889
824.0, 0.0016283916984687638
825.0, 0.00053151906134159
826.0, 0.0021874584686664596
827.0, 0.0027824095638017124
828.0, 0.0027684731326788102
829.0, 0.0031394814312761463
830.0, 0.004138744044894428
831.0, 0.0038070782860748233
832.0, 0.002274874578045054
833.0, 0.0007732010330248791
834.0, 0.001975224186298994
835.0, 0.0011653347835161767
836.0, 0.0018316449147579583
837.0, 0.0033881253252462575
838.0, 0.004602776738673993
839.0, 0.0018212420052562863
840.0, 0.0013160214613126408
841.0, 0.00400987014781798
842.0, 0.0066273256040712625
843.0, 0.004051660229681606
844.0, 0.0029718568375470033
845.0, 0.004386625196075402
846.0, 0.0036131251221612716
847.0, 0.0004130093797483866
848.0, 0.0020003753006677034
849.0, 0.0012205701916415518
850.0, 0.002439833628259145
851.0, 0.004379912792706878
852.0, 0.004962348831322366
853.0, 0.00143503627666919
854.0, 0.0004927333558591952
855.0, 0.001089259703516841
856.0, 0.002250338419691726
857.0, 0.002714701253941273
858.0, 0.0028207677882412896
859.0, 0.0014505021026891734
860.0, 0.0010593944583764234
861.0, 0.0024408524643166657
862.0, 0.0025602715248694034
863.0, 0.0018794769532926789
864.0, 0.0038560996020984657
865.0, 0.0049609153284425
866.0, 0.0015289626074384242
867.0, 0.003258955106044816
868.0, 0.004715368380739824
869.0, 0.004151001114923902
870.0, 0.0019932286348424717
871.0, 0.0003456229810410668
872.0, 0.0020442237403640352
873.0, 0.002603927695616471
874.0, 0.0031830992255787787
875.0, 0.004124706188576327
876.0, 0.003502416830117943
877.0, 0.0017667319779790087
878.0, 0.0027450429157090186
879.0, 0.005102280515133075
880.0, 0.00643514038806736
881.0, 0.003555906359220466
882.0, 0.003943019513467219
883.0, 0.0034005427024778
884.0, 0.0018974582965135495
885.0, 0.0017947252292200824
886.0, 0.005045640263799259
887.0, 0.0038179639937774403
888.0, 0.003246851469989648
889.0, 0.004471965523786519
890.0, 0.0013078981511033443
891.0, 0.003856362801283174
892.0, 0.004568969559362136
893.0, 0.0038743867599529166
894.0, 0.0032157173725345036
895.0, 0.0045586339361125775
896.0, 0.0019702035940329567
897.0, 0.0006081365516805505
898.0, 0.0024650470320509137
899.0, 0.008023523873462638
900.0, 0.005845974237090924
901.0, 0.0051349573824484625
902.0, 0.0038483103359060033
903.0, 0.002563127080303265
904.0, 0.0046225992291225
905.0, 0.003972146095292978
906.0, 0.003830978413115198
907.0, 0.0049546633437211555
908.0, 0.006795170718399767
909.0, 0.005579703156192334
910.0, 0.006870010766318417
911.0, 0.005674962435714283
912.0, 0.0036115125569214437
913.0, 0.0030117151347361527
914.0, 0.003977974596249291
915.0, 0.0024894582914450772
916.0, 0.0026791702060462745
917.0, 0.003389843836051522
918.0, 0.0016660938263125822
919.0, 0.003946304722747627
920.0, 0.007262401125407752
921.0, 0.0080765936120832
922.0, 0.006109401235333075
923.0, 0.003943884476935021
924.0, 0.003422863209285374
925.0, 0.005839636163166186
926.0, 0.005453397992681306
927.0, 0.002153201455788966
928.0, 0.00722643474871681
929.0, 0.004123318574185799
930.0, 0.0038566041007124427
931.0, 0.005813612198137366
932.0, 0.00759339598828071
933.0, 0.004210230283441236
934.0, 0.0039107974831031475
935.0, 0.005511854377039971
936.0, 0.005708469484664426
937.0, 0.002242191497722885
938.0, 0.007432059180320433
939.0, 0.005206157775130855
940.0, 0.0040198384612516
941.0, 0.004907369496103639
942.0, 0.005632916826157503
943.0, 0.004441671230685279
944.0, 0.0028506811747269203
945.0, 0.002921485433690073
946.0, 0.003931280493758017
947.0, 0.0026846553199115185
948.0, 0.004687854453631507
949.0, 0.003948030800042194
950.0, 0.003440445274009289
951.0, 0.004380358030741752
952.0, 0.005430951248799264
953.0, 0.005526671023485512
954.0, 0.005557141114784816
955.0, 0.00565629163672803
956.0, 0.005482232216053512
957.0, 0.0034890631226314863
958.0, 0.004831155657764991
959.0, 0.00363820301095659
960.0, 0.0027911897012662546
961.0, 0.004364493708186579
962.0, 0.0028844838255177373
963.0, 0.0011014772597107735
964.0, 0.0028702594781515943
965.0, 0.004572490857880689
966.0, 0.0027334546937626495
967.0, 0.005894323609070037
968.0, 0.0046466411262973874
969.0, 0.0022290650338663526
970.0, 0.0011354938978364493
971.0, 0.0029650858844786194
972.0, 0.0010731519053339797
973.0, 0.002587720358519302
974.0, 0.004345298165824639
975.0, 0.00499283911390108
976.0, 0.004107074055908822
977.0, 0.004687815984907866
978.0, 0.0024667764233372923
979.0, 0.0032256773249386647
980.0, 0.005310021119666
981.0, 0.0023229709275387023
982.0, 0.0008156343871561591
983.0, 0.005330318367830469
984.0, 0.006196276676183881
985.0, 0.003574674544874101
986.0, 0.006169711003550946
987.0, 0.006179278987675816
988.0, 0.004221252939335727
989.0, 0.004973568223730112
990.0, 0.007353557475313211
991.0, 0.003692263285713282
992.0, 0.0038270518846570656
993.0, 0.005105634986200941
994.0, 0.0058720784565277915
995.0, 0.005532239141475388
996.0, 0.004849593382613188
997.0, 0.006160912703219727
998.0, 0.005788725905310965
999.0, 0.003340495690951516
1000.0, 0.00103196885457869
1001.0, 0.005328584340940055
1002.0, 0.003021654888487508
1003.0, 0.004745464609523234
1004.0, 0.0065949855618073
1005.0, 0.006509990757069599
1006.0, 0.0069157573770526545
1007.0, 0.007174169781558642
1008.0, 0.0067121337396916034
1009.0, 0.005373084200499013
1010.0, 0.00428219897126201
1011.0, 0.007179927392396878
1012.0, 0.005612918070209372
1013.0, 0.007160087704408802
1014.0, 0.0071576469078497166
1015.0, 0.004065871478458664
1016.0, 0.004367337155770101
1017.0, 0.005899389411765185
1018.0, 0.006814754636895957
1019.0, 0.007308139954468571
1020.0, 0.007382283114900702
1021.0, 0.006263953922414023
1022.0, 0.007866521019364851
1023.0, 0.007996750355347589
1024.0, 0.007896706839735243
1025.0, 0.008453170230087516
1026.0, 0.009084809183947813
1027.0, 0.006557341979736704
1028.0, 0.006632791299028045
1029.0, 0.008608239512607058
1030.0, 0.010765965358434784
1031.0, 0.010293793698361739
1032.0, 0.008159992774560917
1033.0, 0.006251747703406499
1034.0, 0.007081058781961126
1035.0, 0.009941198615012189
1036.0, 0.008622739358024684
1037.0, 0.011344849866500391
1038.0, 0.011779166105635201
1039.0, 0.011770418775621369
1040.0, 0.01224097432978997
1041.0, 0.01219118470649303
1042.0, 0.011591776152484018
1043.0, 0.009840362427449716
1044.0, 0.009598052653647311
1045.0, 0.01030609994310209
1046.0, 0.007251973652362208
1047.0, 0.008811323182825565
1048.0, 0.010640032376377461
1049.0, 0.011878608556882476
1050.0, 0.012398044134680316
1051.0, 0.01280341645665099
1052.0, 0.016904280752421452
1053.0, 0.021160908849161154
1054.0, 0.027043459703597367
1055.0, 0.039333112005329476
1056.0, 0.06739634204082222
1057.0, 0.18370328672903916
1058.0, 0.49436789114066476
1059.0, 0.8087327191761238
1060.0, 0.9246752156573413
1061.0, 0.6643791096603829
1062.0, 0.28477344873662647
1063.0, 0.11868249875419394
1064.0, 0.0535391823142846
1065.0, 0.03244343602468651
1066.0, 0.022400357054310392
1067.0, 0.014559806684083257
1068.0, 0.015720254250230825
1069.0, 0.012954791544371805
1070.0, 0.008996234125943959
1071.0, 0.009688758065117941
1072.0, 0.008951002063895312
1073.0, 0.010016268834180662
1074.0, 0.009772173882324934
1075.0, 0.009136552734396248
1076.0, 0.009390226991893142
1077.0, 0.009809753215391065
1078.0, 0.007593432561290365
1079.0, 0.00840146439288838
1080.0, 0.009455080701771085
1081.0, 0.008460369432734644
1082.0, 0.007086864778456252
1083.0, 0.007580363343895856
1084.0, 0.008890252751461701
1085.0, 0.008129640007205454
1086.0, 0.005056111615528287
1087.0, 0.003592285670703738
1088.0, 0.004912929211071004
1089.0, 0.007536794994944247
1090.0, 0.006698944363864276
1091.0, 0.002879769925159736
1092.0, 0.001636080561781477
1093.0, 0.006319540453105645
1094.0, 0.004937607456600009
1095.0, 0.005748789005649182
1096.0, 0.007038828311567775
1097.0, 0.002775734378298895
1098.0, 0.003940012547918229
1099.0, 0.004844744013807592
1100.0, 0.004699292933751889
1101.0, 0.0030843102423070163
1102.0, 0.0009372947185676789
1103.0, 0.005251865782255944
1104.0, 0.0031624857664460868
1105.0, 0.0036151217722214628
1106.0, 0.003509648550946648
1107.0, 0.0009759199099209268
1108.0, 0.0033680818215845298
1109.0, 0.0011465976973413887
1110.0, 0.0014677888336392254
1111.0, 0.0034371897368831363
1112.0, 0.004431682253159881
1113.0, 0.00046616807919812623
1114.0, 0.0030736577002787855
1115.0, 0.002879853977397371
1116.0, 0.0017051686811080187
1117.0, 0.0015554436115264704
1118.0, 0.0038802220700751636
1119.0, 0.0021258960085584456
1120.0, 0.003278993006243193
1121.0, 0.002947120462036603
1122.0, 0.002623721641728279
1123.0, 0.004760930379326754
1124.0, 0.00355790423196528
1125.0, 0.005045055928115064
1126.0, 0.00274762145577747
1127.0, 0.0010762313882615553
1128.0, 0.002704663477433044
1129.0, 0.0004784980992635316
1130.0, 0.002926395962808622
1131.0, 0.004002075177141466
1132.0, 0.004384514774340754
1133.0, 0.0039059589857029986
1134.0, 0.0009303552584766063
1135.0, 0.000379747353277846
1136.0, 0.0019905252388397886
1137.0, 0.002907381051684188
1138.0, 0.00355409379163665
1139.0, 0.005556244922448616
1140.0, 0.003943708812699223
1141.0, 0.002063694767105823
1142.0, 0.0009372353862422889
1143.0, 0.0005009012084411361
1144.0, 0.0004453559425523435
1145.0, 0.0007007873554137757
1146.0, 0.002340284330903888
1147.0, 0.003029690442354676
1148.0, 0.0028402807201134933
1149.0, 0.0020709859576770206
1150.0, 0.0009928856334370383
1151.0, 0.00042665682110735277
1152.0, 0.0006637115999435509
1153.0, 0.0015519612936533008
1154.0, 0.002185048167989082
1155.0, 0.0016080384466655127
1156.0, 0.0018867621052291777
1157.0, 0.002998697564330735
1158.0, 0.0020811622193584885
1159.0, 0.001616621719874463
1160.0, 0.0036079289360692133
1161.0, 0.005114262350094934
1162.0, 0.0031118929247889856
1163.0, 0.003698363314409642
1164.0, 0.00441601700184528
1165.0, 0.004597421425617657
1166.0, 0.006081057242719029
1167.0, 0.004986129137521971
1168.0, 0.003603072812018256
1169.0, 0.00319965733239348
1170.0, 0.002478490633344981
1171.0, 0.00026913610186223274
1172.0, 0.001802069651564927
1173.0, 0.0038576193466537028
1174.0, 0.002843771704746011
1175.0, 0.003141780957739336
1176.0, 0.005540747427017525
1177.0, 0.002576042298249855
1178.0, 0.000993310892097224
1179.0, 0.0035745949370853463
1180.0, 0.0038854331165622796
1181.0, 0.002823818972322008
1182.0, 0.005151042662542761
1183.0, 0.0050101189340352225
1184.0, 0.004549706807613778
1185.0, 0.004038189969136212
1186.0, 0.0035626998280423117
1187.0, 0.0035115338122896603
1188.0, 0.00506008677502833
1189.0, 0.004222756457367711
1190.0, 0.003992804171497017
1191.0, 0.005115669397851398
1192.0, 0.007348523930431705
1193.0, 0.0093992175816577
1194.0, 0.006607050594220816
1195.0, 0.004566735052342794
1196.0, 0.0025242593401792485
1197.0, 0.0028336326606785483
1198.0, 0.006016192652257056
1199.0, 0.0053665572182188285
1200.0, 0.005503476557369659
1201.0, 0.004811485871614601
1202.0, 0.004864240798367353
1203.0, 0.0044476847529211
1204.0, 0.0008572602041691754
1205.0, 0.006084427338576857
1206.0, 0.0076734877420501085
1207.0, 0.007008276776266116
1208.0, 0.004981808702300626
1209.0, 0.0031160042673502395
1210.0, 0.0048187051444255466
1211.0, 0.006440383473994306
1212.0, 0.004903132108933642
1213.0, 0.005112203939102033
1214.0, 0.007802767936827186
1215.0, 0.009495567475818999
1216.0, 0.006035076808840996
1217.0, 0.005007540254954596
1218.0, 0.005328009714178132
1219.0, 0.006965804361262267
1220.0, 0.008981993113092229
1221.0, 0.007951579415343803
1222.0, 0.007043679630730493
1223.0, 0.005255416223197104
1224.0, 0.004983024939210869
1225.0, 0.006716228153387515
1226.0, 0.008944406662523977
1227.0, 0.006965617764132771
1228.0, 0.004394883302136465
1229.0, 0.006689601024704439
1230.0, 0.008078831729241492
1231.0, 0.005808546060588901
1232.0, 0.005956491653122558
1233.0, 0.004495992496446241
1234.0, 0.008612475716250387
1235.0, 0.007649451711510963
1236.0, 0.00420060220997497
1237.0, 0.005533303551684097
1238.0, 0.008749651486289967
1239.0, 0.0071113407510757344
1240.0, 0.00655979139049231
1241.0, 0.008025518404234301
1242.0, 0.009671444767690045
1243.0, 0.007948991488778439
1244.0, 0.0077092595517851276
1245.0, 0.00405495099401889
1246.0, 0.0056433475260407795
1247.0, 0.008999344834643333
1248.0, 0.008277921292051616
1249.0, 0.001541731334929389
1250.0, 0.005722123677153076
1251.0, 0.0075171010168417615
1252.0, 0.006214827177077136
1253.0, 0.004327099233384106
1254.0, 0.004834378454025651
1255.0, 0.0034978863835188286
1256.0, 0.004936653498130945
1257.0, 0.003441965753125798
1258.0, 0.0023049111017767166
1259.0, 0.003576510162466502
1260.0, 0.0057153229690253965
1261.0, 0.004016303304082766
1262.0, 0.004340779408312881
1263.0, 0.005474045958103852
1264.0, 0.005107628605886065
1265.0, 0.003164942369239601
1266.0, 0.005390166935438686
1267.0, 0.004420471163599561
1268.0, 0.005791165039621595
1269.0, 0.006222801835842432
1270.0, 0.004845082847864612
1271.0, 0.0032087394999753723
1272.0, 0.005819053987090345
1273.0, 0.005690147308659785
1274.0, 0.005701522162657687
1275.0, 0.005154446344248923
1276.0, 0.003956413981276424
1277.0, 0.0029217464388032006
1278.0, 0.0013175826331359522
1279.0, 0.003699099536371211
1280.0, 0.0043676519729169095
1281.0, 0.004454854020564662
1282.0, 0.005302202535451009
1283.0, 0.0057697135421086836
1284.0, 0.005250639924731933
1285.0, 0.005309815353103543
1286.0, 0.0052822638480360656
1287.0, 0.005011035555636367
1288.0, 0.004818244486713591
1289.0, 0.005654155238988364
1290.0, 0.004733032339884561
1291.0, 0.00576850829119081
1292.0, 0.005337161170220353
1293.0, 0.0037934485231684956
1294.0, 0.003637660515298491
1295.0, 0.005163448207363239
1296.0, 0.0021139753162286376
1297.0, 0.0020865746758306587
1298.0, 0.0020307655819177596
1299.0, 0.002058947386948077
1300.0, 0.00466661280081674
1301.0, 0.0012242128075904775
1302.0, 0.0027825607311560484
1303.0, 0.0022866453473465373
1304.0, 0.0016128902328306997
1305.0, 0.0017039145764149606
1306.0, 0.0006828341719297449
1307.0, 0.0020084215394028234
1308.0, 0.004648965281529423
1309.0, 0.0027346431468091826
1310.0, 0.001864816304898309
1311.0, 0.004271894976467137
1312.0, 0.0020196550491335162
1313.0, 0.0005665151638080053
1314.0, 0.0020303151780491978
1315.0, 0.002108673321323011
1316.0, 0.001368331498452665
1317.0, 0.001485837493696412
1318.0, 0.002466830397185379
1319.0, 0.0007478264713170436
1320.0, 0.0023592726470057007
1321.0, 0.004076526051085224
1322.0, 0.004411665695901693
1323.0, 0.003743347477828779
1324.0, 0.004716167243158094
1325.0, 0.0017042969578309327
1326.0, 0.0024970465394629684
1327.0, 0.002602653710560733
1328.0, 0.0018476732400997142
1329.0, 0.002406036888504785
1330.0, 0.005035305739255636
1331.0, 0.003803049669717815
1332.0, 0.005426142952574969
1333.0, 0.004171629274458668
1334.0, 0.0016898568124770147
1335.0, 0.0027090999595105235
1336.0, 0.0037113307416022337
1337.0, 0.005607196773062876
1338.0, 0.004046978688792012
1339.0, 0.0019260628895379996
1340.0, 0.0017852436474234466
1341.0, 0.00415863110621832
1342.0, 0.0048650904573872885
1343.0, 0.004835656604440138
1344.0, 0.0031251124813500668
1345.0, 0.003966060252742903
1346.0, 0.00496310271302889
1347.0, 0.0020685101729447583
1348.0, 0.0076125852403541305
1349.0, 0.005533851740538765
1350.0, 0.0034258455917394876
1351.0, 0.004354839914536385
1352.0, 0.006727090849136074
1353.0, 0.006950631951007655
1354.0, 0.00723818067919676
1355.0, 0.008168288196707656
1356.0, 0.0037196886481726523
1357.0, 0.003688758654840535
1358.0, 0.00752356287337566
1359.0, 0.007040753239894596
1360.0, 0.001543198174155734
1361.0, 0.006129479717252017
1362.0, 0.006508474508199308
1363.0, 0.007322474770819163
1364.0, 0.009573984695084305
1365.0, 0.01013756591193916
1366.0, 0.005664855710778435
1367.0, 0.00452637755579886
1368.0, 0.006380025759264371
1369.0, 0.00759576767617246
1370.0, 0.006825391234620213
1371.0, 0.005584155339308155
1372.0, 0.008668390018902688
1373.0, 0.006867338728396334
1374.0, 0.007802769531621353
1375.0, 0.00871205310886851
1376.0, 0.00847709295034107
1377.0, 0.007876904968838073
1378.0, 0.008870969707552767
1379.0, 0.003244653766788737
1380.0, 0.006459581419316813
1381.0, 0.00740825072747471
1382.0, 0.005590121237860461
1383.0, 0.005664670597318489
1384.0, 0.009153562911208724
1385.0, 0.006665519727621032
1386.0, 0.00940738953460216
1387.0, 0.0059155893279805105
1388.0, 0.004021803568672483
1389.0, 0.008827797570605395
1390.0, 0.004598772079006766
1391.0, 0.006764982096873155
1392.0, 0.006304437709485503
1393.0, 0.006158967478613673
1394.0, 0.0073031150354298646
1395.0, 0.008183570087858553
1396.0, 0.005460096623065465
1397.0, 0.007643083187824569
1398.0, 0.005178946829656425
1399.0, 0.006880460522204431
1400.0, 0.008174569828020438
1401.0, 0.007129298990692523
1402.0, 0.008131870321945362
1403.0, 0.00810367153352293
1404.0, 0.004118727754535634
1405.0, 0.0065039691446744045
1406.0, 0.009027544555813739
1407.0, 0.008118902009655515
1408.0, 0.005924457661081928
1409.0, 0.0069454214284502165
1410.0, 0.00902028308164758
1411.0, 0.00473098624415546
1412.0, 0.00623949413803261
1413.0, 0.009144191001920909
1414.0, 0.004776447467817904
1415.0, 0.00801409015769613
1416.0, 0.007964918372613866
1417.0, 0.008723783125060882
1418.0, 0.008021097647710758
1419.0, 0.011825061813491033
1420.0, 0.02126566875148874
1421.0, 0.022254833108762164
1422.0, 0.02687602296662284
1423.0, 0.021018628366147797
1424.0, 0.020838423996858015
1425.0, 0.019050560954241406
1426.0, 0.012844250742989068
1427.0, 0.012122255001890982
1428.0, 0.008058275033595848
1429.0, 0.008780276928294514
1430.0, 0.008217053934282905
1431.0, 0.004965690372659128
1432.0, 0.003615977994228324
1433.0, 0.008872642044644514
1434.0, 0.009074072931469522
1435.0, 0.0055271334248551025
1436.0, 0.00873986803657086
1437.0, 0.010478608470546217
1438.0, 0.008983003944828843
1439.0, 0.006997250043393153
1440.0, 0.0070538533407337005
1441.0, 0.011848128172182164
1442.0, 0.011982763774818455
1443.0, 0.009521926769103208
1444.0, 0.009067563843225804
1445.0, 0.010595047888626837
1446.0, 0.00847660623659399
1447.0, 0.009308127898191854
1448.0, 0.00945330607119803
1449.0, 0.009387924124116763
1450.0, 0.008446769084585392
1451.0, 0.008746339596566425
1452.0, 0.011572286002412231
1453.0, 0.007696097022415121
1454.0, 0.007505084995904197
1455.0, 0.0095113501706936
1456.0, 0.0060498750857702534
1457.0, 0.004544694415147023
1458.0, 0.009257702192125452
1459.0, 0.0074934462287705485
1460.0, 0.007096159266094009
1461.0, 0.010785639242979428
1462.0, 0.006646415859726473
1463.0, 0.0036246396634257963
1464.0, 0.006027850038309094
1465.0, 0.008261544765681413
1466.0, 0.004489220972348986
1467.0, 0.010362698800019554
1468.0, 0.00686494847728133
1469.0, 0.005355997875366334
1470.0, 0.007514568757341466
1471.0, 0.00901149327159984
1472.0, 0.0077520835592377775
1473.0, 0.008413141239768999
1474.0, 0.008575727275723206
1475.0, 0.007999566566265142
1476.0, 0.006510842349332118
1477.0, 0.005433425948811137
1478.0, 0.006550334761516198
1479.0, 0.006875095606762932
1480.0, 0.003478632352177882
1481.0, 0.006973270945608009
1482.0, 0.0060098580774871
1483.0, 0.003757251053898527
1484.0, 0.005361190720187607
1485.0, 0.002734493966160188
1486.0, 0.0039123354602988904
1487.0, 0.0024961999468199004
1488.0, 0.001678389787722622
1489.0, 0.0014502819899919
1490.0, 0.0019016311608280143
1491.0, 0.0030410286892628806
1492.0, 0.0011956540703172399
1493.0, 0.00623333128659991
1494.0, 0.003787033952885495
1495.0, 0.0019834320556832707
1496.0, 0.00454375180563789
1497.0, 0.007444328379189867
1498.0, 0.0019355292907718537
1499.0, 0.009644782290131378
1500.0, 0.0026500278936222345
1501.0, 0.0037480043211428693
1502.0, 0.003388658862214891
1503.0, 0.0015139444842776403
1504.0, 0.00399911987023963
1505, 0.0
1506, 0.0
1507, 0.0
1508, 0.0
1509, 0.0
1510, 0.0
1511, 0.0
1512, 0.0
1513, 0.0
1514, 0.0
1515, 0.0
1516, 0.0
1517, 0.0
1518, 0.0
1519, 0.0
1520, 0.0
1521, 0.0
1522, 0.0
1523, 0.0
1524, 0.0
1525, 0.0
1526, 0.0
1527, 0.0
1528, 0.0
1529, 0.0
1530, 0.0
1531, 0.0
1532, 0.0
1533, 0.0
1534, 0.0
1535, 0.0
1536, 0.0
1537, 0.0
1538, 0.0
1539, 0.0
1540, 0.0
1541, 0.0
1542, 0.0
1543, 0.0
1544, 0.0
1545, 0.0
1546, 0.0
1547, 0.0
1548, 0.0
1549, 0.0
1550, 0.0
1551, 0.0
1552, 0.0
1553, 0.0
1554, 0.0
1555, 0.0
1556, 0.0
1557, 0.0
1558, 0.0
1559, 0.0
1560, 0.0
1561, 0.0
1562, 0.0
1563, 0.0
1564, 0.0
1565, 0.0
1566, 0.0
1567, 0.0
1568, 0.0
1569, 0.0
1570, 0.0
1571, 0.0
1572, 0.0
1573, 0.0
1574, 0.0
1575, 0.0
1576, 0.0
1577, 0.0
1578, 0.0
1579, 0.0
1580, 0.0
1581, 0.0
1582, 0.0
1583, 0.0
1584, 0.0
1585, 0.0
1586, 0.0
1587, 0.0
1588, 0.0
1589, 0.0
1590, 0.0
1591, 0.0
1592, 0.0
1593, 0.0
1594, 0.0
1595, 0.0
1596, 0.0
1597, 0.0
1598, 0.0
1599, 0.0
