30, 0.0
31, 0.0
32, 0.0
33, 0.0
34, 0.0
35, 0.0
36, 0.0
37, 0.0
38, 0.0
39, 0.0
40, 0.0
41, 0.0
42, 0.0
43, 0.0
44, 0.0
45, 0.0
46, 0.0
47, 0.0
48, 0.0
49, 0.0
50, 0.0
51, 0.0
52, 0.0
53, 0.0
54, 0.0
55, 0.0
56, 0.0
57, 0.0
58, 0.0
59, 0.0
60, 0.0
61, 0.0
62, 0.0
63, 0.0
64, 0.0
65, 0.0
66, 0.0
67, 0.0
68, 0.0
69, 0.0
70, 0.0
71, 0.0
72, 0.0
73, 0.0
74, 0.0
75, 0.0
76, 0.0
77, 0.0
78, 0.0
79, 0.0
80, 0.0
81, 0.0
82, 0.0
83, 0.0
84, 0.0
85, 0.0
86, 0.0
87, 0.0
88, 0.0
89, 0.0
90, 0.0
91, 0.0
92, 0.0
93, 0.0
94, 0.0
95, 0.0
96, 0.0
97, 0.0
98, 0.0
99, 0.0
100, 0.0
101, 0.0
102, 0.0
103, 0.0
104, 0.0
105, 0.0
106.0, 3.2487645347699625e-05
107.0, 0.0001801402939893798
108.0, 0.0010827213076774304
109.0, 0.0010533080968510601
110.0, 0.0008306445987572506
111.0, 0.001066979520709946
112.0, 0.0016222960435949485
113.0, 0.0019832179425552615
114.0, 0.00224279400283125
115.0, 0.003333680757741217
116.0, 0.003669169055325823
117.0, 0.00393656583179863
118.0, 0.0046574010944194204
119.0, 0.004786927679515544
120.0, 0.005237535533777138
121.0, 0.005906969313142999
122.0, 0.006036701525513368
123.0, 0.006349898052539343
124.0, 0.006732727193016757
125.0, 0.007131412616921466
126.0, 0.007407134910113743
127.0, 0.007920973493829224
128.0, 0.0086449332696349
129.0, 0.009494553875084922
130.0, 0.010516191321435032
131.0, 0.011409900381537488
132.0, 0.012031683332039871
133.0, 0.013357121888230536
134.0, 0.013645547882320891
135.0, 0.013698830154803759
136.0, 0.01534665709158759
137.0, 0.01547163934572047
138.0, 0.016089624128574707
139.0, 0.017796618355969608
140.0, 0.019810855101424867
141.0, 0.021548100896239868
142.0, 0.023486406676683284
143.0, 0.02642666164112722
144.0, 0.02939649711723031
145.0, 0.031645783872260594
146.0, 0.0331142881704384
147.0, 0.03466259298675934
148.0, 0.036034598183237676
149.0, 0.03748363693419709
150.0, 0.03927471139195464
151.0, 0.043556755632876955
152.0, 0.04844717055961663
153.0, 0.05422422486367004
154.0, 0.06326782728749783
155.0, 0.07303571843188918
156.0, 0.0815031168006029
157.0, 0.0872946862929285
158.0, 0.09331018438597083
159.0, 0.09439532493064907
160.0, 0.09261604404193734
161.0, 0.09314149758306814
162.0, 0.08269467792757267
163.0, 0.07005564280623185
164.0, 0.05781995556236292
165.0, 0.04451538566035841
166.0, 0.034995969057894975
167.0, 0.027716045044160968
168.0, 0.02104097026006531
169.0, 0.017582238058499552
170.0, 0.014876121549246083
171.0, 0.01257765358909715
172.0, 0.011021824978538033
173.0, 0.00930142810890802
174.0, 0.007742242485207655
175.0, 0.006626863520700698
176.0, 0.00649838510131641
177.0, 0.006013558726577435
178.0, 0.0055496288691727486
179.0, 0.006593063527501428
180.0, 0.005781131001887852
181.0, 0.005144844637205565
182.0, 0.005422817963861851
183.0, 0.005464502460774456
184.0, 0.004734004552954902
185.0, 0.004052237891380799
186.0, 0.00471180114841776
187.0, 0.004391459905230695
188.0, 0.004145153317864731
189.0, 0.004104030597110875
190.0, 0.003989513140536546
191.0, 0.003994075762291416
192.0, 0.003990771095858815
193.0, 0.003889357661866267
194.0, 0.0038542714667682055
195.0, 0.0037738396518423615
196.0, 0.0037115391044608794
197.0, 0.0038570823942609108
198.0, 0.003857433616542994
199.0, 0.003957827107009122
200.0, 0.004209740028480314
201.0, 0.0041681698923003345
202.0, 0.004338144231498679
203.0, 0.004578314792114093
204.0, 0.004744292035028864
205.0, 0.004457024320884493
206.0, 0.004863069072677353
207.0, 0.005815536475069089
208.0, 0.0062686279635728575
209.0, 0.007168939252805547
210.0, 0.008295979150694733
211.0, 0.009581164214239428
212.0, 0.011435872904107967
213.0, 0.013263786458930804
214.0, 0.015230360781133575
215.0, 0.017634856505985605
216.0, 0.017614690732267537
217.0, 0.01969093834311446
218.0, 0.023666741438031956
219.0, 0.024174376918419147
220.0, 0.02503604766998011
221.0, 0.026600360410761695
222.0, 0.029161164872055233
223.0, 0.03153276924328279
224.0, 0.03309765556982469
225.0, 0.0337947918111735
226.0, 0.03332751952819073
227.0, 0.032579614949367744
228.0, 0.03017009650759198
229.0, 0.02624600201475611
230.0, 0.02397075067245169
231.0, 0.02059060092344135
232.0, 0.01765957293700678
233.0, 0.016262357811945873
234.0, 0.013870898995525818
235.0, 0.012046842578981165
236.0, 0.010571018619532182
237.0, 0.008986930053348174
238.0, 0.008332540485358978
239.0, 0.00794016573105061
240.0, 0.007520516861530127
241.0, 0.005925952381065379
242.0, 0.006080339184219373
243.0, 0.006168029148809124
244.0, 0.004999138285848483
245.0, 0.00437240065155363
246.0, 0.00431157281025293
247.0, 0.004536737858365875
248.0, 0.004545682925920301
249.0, 0.003781734336794251
250.0, 0.0030947508957727852
251.0, 0.002712881976527569
252.0, 0.003079066385629605
253.0, 0.003223409488443932
254.0, 0.0029505719283161877
255.0, 0.0021134204402664977
256.0, 0.00227107503473234
257.0, 0.0020130980981475422
258.0, 0.0016025284868927923
259.0, 0.0014422043461821792
260.0, 0.002167244437117724
261.0, 0.002705729948842322
262.0, 0.002834368669520775
263.0, 0.0021827580338254797
264.0, 0.001945021406958572
265.0, 0.0018017234163674517
266.0, 0.0016646614107539075
267.0, 0.002554530826617846
268.0, 0.002135270175375945
269.0, 0.0016135515736160984
270.0, 0.0023832009162151543
271.0, 0.00303547946444237
272.0, 0.002581345285969795
273.0, 0.0014916195630050428
274.0, 0.001362040104303893
275.0, 0.0012459066028764287
276.0, 0.0013161791736052174
277.0, 0.0015442378800364998
278.0, 0.0010952808506757914
279.0, 0.0009744599764291289
280.0, 0.0009794211834405705
281.0, 0.0009774491098666625
282.0, 0.0011433491734028217
283.0, 0.001074582967376225
284.0, 0.0008064234626623284
285.0, 0.0003849466456637027
286.0, 0.0009005631251047365
287.0, 0.0010328135596253667
288.0, 0.0007730862525653962
289.0, 0.0010325381147228427
290.0, 0.0007856147971119937
291.0, 0.0008072225823897121
292.0, 0.001343141354835028
293.0, 0.0007231555385830101
294.0, 0.00038356440592562664
295.0, 0.00034980259241869507
296.0, 0.0006923845516973645
297.0, 0.00028529184015637347
298.0, 7.921797731970726e-05
299.0, 6.319225330111728e-05
300.0, 0.00013174457984415196
301.0, 0.0006269829231716594
302.0, 0.0006676952377984227
303.0, 0.0003119260227855291
304.0, 0.0008501731960499788
305.0, 0.0008065100371327956
306.0, 0.0005724371563582268
307.0, 0.00034733938424881934
308.0, 0.0008500420634421628
309.0, 0.0007478450406810302
310.0, 0.0004122704687303124
311.0, 0.00019053262020261714
312.0, 5.932675984056921e-05
313.0, 0.00016081763541297086
314.0, 0.00034545396488074286
315.0, 0.0002782466014730404
316.0, 0.0004397430146346597
317.0, 0.0004378722751476952
318.0, 0.00027909246454346385
319.0, 0.00034389569609663345
320.0, 0.0011275703794072554
321.0, 0.0012823187220645043
322.0, 0.0003858798319939128
323.0, 0.0007687705308248322
324.0, 0.0011011784420542176
325.0, 0.0010047830425331918
326.0, 0.00011780332461609061
327.0, 0.0005741959425997382
328.0, 0.0006162879249174823
329.0, 0.0004401923823981745
330.0, 0.00041286484538285387
331.0, 0.000599026146556708
332.0, 0.0004588660479830242
333.0, 0.00022644054604975257
334.0, 0.0009016636328141733
335.0, 0.000518495833137708
336.0, 0.00020152368982447716
337.0, 0.00030555829809753856
338.0, 0.0011207124850795857
339.0, 0.00070840944373778
340.0, 0.00039146349978291925
341.0, 0.000847545548699457
342.0, 0.0009380926191893301
343.0, 0.0013178098836492862
344.0, 0.0013412163072739358
345.0, 0.00030944557322618385
346.0, 0.0007647829543067174
347.0, 0.0006266342892695941
348.0, 0.00027579740928335996
349.0, 0.0005593117568888642
350.0, 0.00026125397749504045
351.0, 0.0004007733106959691
352.0, 0.0008630510379305358
353.0, 0.000806774135209774
354.0, 0.0005784281479413835
355.0, 0.00032237469095153557
356.0, 9.796030792264825e-05
357.0, 4.292255521231638e-05
358.0, 0.000919279969609467
359.0, 0.001185236862928239
360.0, 0.00017582657183161702
361.0, 5.9636643740292046e-05
362.0, 0.0005020340237096371
363.0, 0.0008086055449400083
364.0, 0.00038988151100304334
365.0, 0.0005020063521426313
366.0, 0.00037756560608958386
367.0, 0.00023322138927654043
368.0, 0.0003930570458010546
369.0, 0.00031097092966196296
370.0, 0.00024073069514324118
371.0, 0.00017741882392145178
372.0, 6.0443044400522325e-05
373.0, 0.0002002907214746597
374.0, 0.00034315265633398537
375.0, 0.000394254508671948
376.0, 0.0001495584249693231
377.0, 0.00017463963400956008
378.0, 0.0007698450604395599
379.0, 0.0016919563203307254
380.0, 0.0005263598116533333
381.0, 0.0005087976921140728
382.0, 0.000609153359122876
383.0, 0.00037639354202039107
384.0, 0.000399479582239628
385.0, 0.00042965227878494065
386.0, 0.00044743348015516894
387.0, 0.00044068013964746616
388.0, 0.0007939122554500549
389.0, 0.0009475545864896713
390.0, 0.0008257073973000771
391.0, 0.0003187526028649158
392.0, 0.0005582053229500403
393.0, 0.0005043460819802958
394.0, 0.00033613386614995305
395.0, 0.0004275955035459832
396.0, 0.00044498263837699695
397.0, 0.00027866088358595063
398.0, 0.00019338781127848585
399.0, 0.0008959396051222059
400.0, 0.000558368373493067
401.0, 0.00033107748036635237
402.0, 0.0003457744596625881
403.0, 0.0003373990364420376
404.0, 0.0002864969676416852
405.0, 0.0002710550822018709
406.0, 0.00030473996995986676
407.0, 0.00034377392399945563
408.0, 0.000419392488719333
409.0, 0.00036186574852793045
410.0, 0.00017860089955189698
411.0, 0.0005600078261382246
412.0, 0.0006818832201767729
413.0, 0.0007667425043003787
414.0, 0.0009124425590801737
415.0, 0.0007855724070476945
416.0, 0.00047916536789645515
417.0, 0.00038701630148969585
418.0, 0.0007972987437862896
419.0, 0.0012046017260659236
420.0, 0.0006688807618724702
421.0, 0.00012377767610895964
422.0, 0.00048148222161126307
423.0, 0.000619040260746618
424.0, 0.0005919008969764205
425.0, 0.0004785101424198828
426.0, 0.00037417981155165144
427.0, 0.0005739161193878898
428.0, 0.0007621140327123341
429.0, 0.0008031029993366996
430.0, 0.0004869934752316894
431.0, 0.0005595896538794116
432.0, 0.00045869476850792786
433.0, 0.000310103983125546
434.0, 0.00047482047629188813
435.0, 0.00023199636956898
436.0, 0.0002793452550824462
437.0, 0.0006646309455244713
438.0, 0.0013042643599384658
439.0, 0.0006382957125255096
440.0, 0.0006738912943441875
441.0, 0.001225382729044613
442.0, 0.0006193868348405305
443.0, 0.00038057532570664646
444.0, 0.0005512835525283866
445.0, 0.0008853331190068431
446.0, 0.00037732457872031804
447.0, 0.0008559566167244763
448.0, 0.001202964167082965
449.0, 0.0011281202316977366
450.0, 0.0006576741664128591
451.0, 0.0005854949968584956
452.0, 0.00046925305306321624
453.0, 0.0002510555384900949
454.0, 0.0004014740066395851
455.0, 0.00036721335445910093
456.0, 0.0004888943432719433
457.0, 0.0007541797311372275
458.0, 0.0001982616586340849
459.0, 6.35967201158134e-05
460.0, 0.0002498956709905537
461.0, 0.0006215702116275502
462.0, 0.00035098766044436297
463.0, 0.0003403097593564814
464.0, 0.0003702980207011842
465.0, 0.00033756952591543015
466.0, 0.00022422004564558534
467.0, 0.0007315341081554482
468.0, 0.0012352003479006995
469.0, 0.0014049940753686778
470.0, 0.0011595986241303997
471.0, 0.000710606644638654
472.0, 0.0006356640306013807
473.0, 0.001129240249866216
474.0, 0.000431689064443931
475.0, 0.0012981010848787638
476.0, 0.00192764516975776
477.0, 0.0013573247543560971
478.0, 0.0011682578290875421
479.0, 0.0008955219991449065
480.0, 0.0005588413308071756
481.0, 0.00018729877714915012
482.0, 6.890017812880681e-05
483.0, 0.00013614096117657928
484.0, 0.00021037871697821472
485.0, 0.00020891876862596316
486.0, 0.0006199197343126828
487.0, 0.0008012621511726607
488.0, 0.0008010766625563866
489.0, 0.0006906942093366571
490.0, 0.0012100461408629294
491.0, 0.001208845330584371
492.0, 0.0010173935096782338
493.0, 0.0008478138641022085
494.0, 0.000775464641463166
495.0, 0.0011104090556918501
496.0, 0.0011835818396742893
497.0, 0.0007060903186021984
498.0, 0.0017352708321842528
499.0, 0.001938072051915676
500.0, 0.001753990365649923
501.0, 0.001425842515972661
502.0, 0.0007716941909165058
503.0, 0.0016241591942522395
504.0, 0.0023512127335449523
505.0, 0.002062781219741545
506.0, 0.0014046090523376939
507.0, 0.0020954417936608835
508.0, 0.002094380561964639
509.0, 0.0006312678622935117
510.0, 0.0012070408460669725
511.0, 0.0009536603917919049
512.0, 0.0007981460494086435
513.0, 0.0011794753265510327
514.0, 0.0018725950126597941
515.0, 0.0009123783117781898
516.0, 0.00037907764920124736
517.0, 0.001033470921676444
518.0, 0.0015098975484440981
519.0, 0.0018759159343807131
520.0, 0.001762099385047883
521.0, 0.0011109987560797866
522.0, 0.0005218430635628667
523.0, 0.0008024836528518903
524.0, 0.0009528538122057494
525.0, 0.0007909538832620069
526.0, 0.0011966306418280518
527.0, 0.0009181503442370154
528.0, 0.0007253840935831889
529.0, 0.000770921279481295
530.0, 0.000717126971291824
531.0, 0.0010908412802443188
532.0, 0.0010975447581843298
533.0, 0.0009269942528320361
534.0, 0.0019543852691116534
535.0, 0.001270183152185245
536.0, 0.001476843738684851
537.0, 0.002175130837731782
538.0, 0.0006882965655728373
539.0, 0.0009755228838835283
540.0, 0.001065562378245767
541.0, 0.0008367466865200737
542.0, 0.0007419055545517555
543.0, 0.0007388291699413328
544.0, 0.00080646445316048
545.0, 0.0011210921874288252
546.0, 0.0020252356538040506
547.0, 0.000872677911538465
548.0, 0.0012328189176995141
549.0, 0.0018814575922158684
550.0, 0.0005643630943839673
551.0, 0.0009848135771031322
552.0, 0.0011390893008992803
553.0, 0.001232991304380057
554.0, 0.0016097208693798357
555.0, 0.0008727330347050408
556.0, 0.000956850529606728
557.0, 0.0012983830202287034
558.0, 0.0013539751701077106
559.0, 0.0011674871904068843
560.0, 0.001367845534686101
561.0, 0.001511362585583557
562.0, 0.0012945658342678654
563.0, 0.0009571252471671589
564.0, 0.0018841672546903278
565.0, 0.0021884855946250562
566.0, 0.0011387809985088733
567.0, 0.001147256276178507
568.0, 0.0006415249524063067
569.0, 0.0008199407524409005
570.0, 0.0016933447712593605
571.0, 0.0008117872637708801
572.0, 0.0009427864149642172
573.0, 0.0012147401641506902
574.0, 0.0012127225772135875
575.0, 0.00034142423998195125
576.0, 0.0013118465404777285
577.0, 0.0013428726680041153
578.0, 0.0007406479539306442
579.0, 0.0015732727896208307
580.0, 0.0012898554292875314
581.0, 0.000758455796509324
582.0, 0.0004335578426938628
583.0, 0.0009251406814585049
584.0, 0.001410107064122525
585.0, 0.0011993967414076895
586.0, 0.0008168660695599834
587.0, 0.0009373659628982172
588.0, 0.0007125289764657001
589.0, 0.0008275136360980901
590.0, 0.0009422270548484333
591.0, 0.0008441877472509931
592.0, 0.002063463155883808
593.0, 0.0016891848234519987
594.0, 0.0011106995009131514
595.0, 0.0011043331122401496
596.0, 0.001435902280822527
597.0, 0.000901967226532921
598.0, 0.0009949887079025793
599.0, 0.001748391673421618
600.0, 0.0007115953308567359
601.0, 0.0004406263371034442
602.0, 0.0003418430506156783
603.0, 0.00034442783688453196
604.0, 0.0006491650609549777
605.0, 0.001234218406363855
606.0, 0.0015272011727029923
607.0, 0.001601321363207961
608.0, 0.0017215364292688254
609.0, 0.0016313368670643222
610.0, 0.001691239648277543
611.0, 0.0016213188154020049
612.0, 0.0011062478391882808
613.0, 0.0016659545412334113
614.0, 0.001330683847138283
615.0, 0.0007324525954761573
616.0, 0.0003751763520059458
617.0, 0.0005961294866542092
618.0, 0.0011231134973049123
619.0, 0.001571988719920941
620.0, 0.001731629013329861
621.0, 0.00141065310082052
622.0, 0.001688846935895792
623.0, 0.0014163747603221464
624.0, 0.0007891161183350333
625.0, 0.0012716379718349618
626.0, 0.0011934665556568092
627.0, 0.0017425451957900448
628.0, 0.0022173569989405325
629.0, 0.001149370548819944
630.0, 0.00110637663072578
631.0, 0.001329235688651304
632.0, 0.0014050206891977187
633.0, 0.000973807136689855
634.0, 0.000841646351717611
635.0, 0.0011247623806089472
636.0, 0.0016100866398717677
637.0, 0.0021242077709240884
638.0, 0.0023731659748413743
639.0, 0.0024339722506404775
640.0, 0.002373461314881716
641.0, 0.0022122317192785506
642.0, 0.001940654907907832
643.0, 0.0017811434333598161
644.0, 0.0014980250185706336
645.0, 0.0012362989929199822
646.0, 0.0013623588649992258
647.0, 0.001106249298378051
648.0, 0.0005282322098066905
649.0, 0.0005184617779715667
650.0, 0.0019433470286635262
651.0, 0.0010295220193897666
652.0, 0.0011836193421816672
653.0, 0.001710540447354408
654.0, 0.002168049020132148
655.0, 0.002628641049157705
656.0, 0.0017724420266555982
657.0, 0.0016702560917194768
658.0, 0.0021593639708621234
659.0, 0.0003228701460577725
660.0, 0.0009378964393084323
661.0, 0.0008195934843822427
662.0, 0.00044653785860301523
663.0, 0.0014960062707986407
664.0, 0.0015541298922922104
665.0, 0.0010989905465424467
666.0, 0.0011874612830257546
667.0, 0.00253534226254827
668.0, 0.000996151994294663
669.0, 0.0011448422533675805
670.0, 0.001048991059834405
671.0, 0.00032634157079806773
672.0, 0.0019409163043524354
673.0, 0.0015376184006309348
674.0, 0.0013787360316501246
675.0, 0.0017389920550045272
676.0, 0.0019921661299272427
677.0, 0.0017878731609467294
678.0, 0.0017128653765672926
679.0, 0.002051155544597491
680.0, 0.0030162462255176156
681.0, 0.0025744524288237028
682.0, 0.002287719102142761
683.0, 0.002972425931904927
684.0, 0.005015565290378813
685.0, 0.007775788446123089
686.0, 0.015031359744838461
687.0, 0.02577298201514277
688.0, 0.03950735169198743
689.0, 0.05568190730205023
690.0, 0.06904237258534686
691.0, 0.07282765872608846
692.0, 0.0668456620591575
693.0, 0.052283107006745176
694.0, 0.03475805163396195
695.0, 0.02290158638676369
696.0, 0.01513008899520319
697.0, 0.010106198908654346
698.0, 0.006599558507879403
699.0, 0.004862503556544313
700.0, 0.0038792692404483638
701.0, 0.003460866601419395
702.0, 0.003888731621064433
703.0, 0.0017905848319636325
704.0, 0.0013114850909779292
705.0, 0.001533561657826349
706.0, 0.0009229590463232331
707.0, 0.002400196528545624
708.0, 0.0022989216450031223
709.0, 0.0023111303013444214
710.0, 0.0029025735836934064
711.0, 0.0011468406414522462
712.0, 0.001255095930263715
713.0, 0.0017356882229560301
714.0, 0.0017975431684076632
715.0, 0.000537046044769583
716.0, 0.0028366683256544276
717.0, 0.002680173323939002
718.0, 0.001586438978876134
719.0, 0.001409737852818236
720.0, 0.0011468998954071337
721.0, 0.0017859549446248438
722.0, 0.0024069580325803953
723.0, 0.0024243244911219246
724.0, 0.0011738119411711656
725.0, 0.002219055297388024
726.0, 0.002267586898095998
727.0, 0.0014699795063937847
728.0, 0.0009285306896142707
729.0, 0.002591355040181477
730.0, 0.0015491536607641053
731.0, 0.0010637024725964651
732.0, 0.002834520701391754
733.0, 0.0023404812823643807
734.0, 0.0009445576795624785
735.0, 0.0007665270502703765
736.0, 0.0014523708492866086
737.0, 0.0007242595451284842
738.0, 0.0007477724326488184
739.0, 0.0008666751436681489
740.0, 0.0011566491527572054
741.0, 0.0017104049299802829
742.0, 0.0022179538795477514
743.0, 0.001177835535847862
744.0, 0.0006602589620408907
745.0, 0.0010740365408645881
746.0, 0.0008255990763822695
747.0, 0.0003006284485576203
748.0, 0.0006629354233392306
749.0, 0.0015390545987873574
750.0, 0.002189273357168016
751.0, 0.0018094748873404717
752.0, 0.001354926548021336
753.0, 0.001171860695273565
754.0, 0.0014685404507758634
755.0, 0.002331712532000791
756.0, 0.0018045270902935808
757.0, 0.0018181594383168671
758.0, 0.0020005037308422477
759.0, 0.0011433652597649293
760.0, 0.0007257556410788972
761.0, 0.0011274173528465856
762.0, 0.0012141210277461375
763.0, 0.0005664274123351161
764.0, 0.001313234192247257
765.0, 0.001323988145429921
766.0, 0.001328071868755272
767.0, 0.0016085183061723962
768.0, 0.0023535674111622162
769.0, 0.0022485528086562076
770.0, 0.0017504657537556405
771.0, 0.0017445717487209222
772.0, 0.0025216602454454385
773.0, 0.0015309832173019651
774.0, 0.0014752331586186929
775.0, 0.0014237251867424993
776.0, 0.0014426428925460439
777.0, 0.0021819557721226134
778.0, 0.001387618796134553
779.0, 0.0005908000381103981
780.0, 0.000707030435744329
781.0, 0.0020612387829253725
782.0, 0.0022058416691462285
783.0, 0.0016765314902151272
784.0, 0.0010856033256486312
785.0, 0.000844885664312887
786.0, 0.0014297373816201998
787.0, 0.0017599116924645992
788.0, 0.0009418516008074679
789.0, 0.0004162959912260515
790.0, 0.0011910876231686824
791.0, 0.002217153082908229
792.0, 0.0008979816381680832
793.0, 0.0001400477971388139
794.0, 0.00045128925680378045
795.0, 0.0012887474244318536
796.0, 0.0012772588388226594
797.0, 0.0010802862620123135
798.0, 0.0011241713751166363
799.0, 0.0015766610664511777
800.0, 0.0017211756463934007
801.0, 0.001815452558799232
802.0, 0.0010906738928118506
803.0, 0.0003301697618165819
804.0, 0.0011148920942385754
805.0, 0.0014218013175488096
806.0, 0.0009046679617545375
807.0, 0.0008855284475316473
808.0, 0.0015985107949480384
809.0, 0.0003870111036623849
810.0, 0.0011808866071729126
811.0, 0.0021208654212202774
812.0, 0.0020919562552886963
813.0, 0.00023453100613601754
814.0, 0.0018476155553389224
815.0, 0.0024172115304055167
816.0, 0.002586159512716797
817.0, 0.002394548328847991
818.0, 0.000886691651690888
819.0, 0.0007973902146089465
820.0, 0.0014877549822267429
821.0, 0.001747297797761157
822.0, 0.0006488020322939349
823.0, 0.0014801175888475584
824.0, 0.0011729967525537068
825.0, 0.0010155512227052388
826.0, 0.0011985063501768964
827.0, 0.0010902534558823375
828.0, 0.0003423249068714848
829.0, 0.0005707309460210201
830.0, 0.0010589709225603359
831.0, 0.0011307373111477134
832.0, 0.0005940093141415369
833.0, 0.0014170858288427603
834.0, 0.0013347656763466156
835.0, 0.0005961302541986275
836.0, 0.00042064798622143065
837.0, 0.0007979031090320976
838.0, 0.0005705551013181533
839.0, 0.0007335259612596616
840.0, 0.0012910323251505533
841.0, 0.00042771906398707515
842.0, 0.0011735558986349587
843.0, 0.001617958503040896
844.0, 0.0014345934208352424
845.0, 0.0007934483695058207
846.0, 0.0022731563541517445
847.0, 0.0015917033522159073
848.0, 0.0010533042266192174
849.0, 0.0012041039939106014
850.0, 0.0016414925525152172
851.0, 0.00038123102846883276
852.0, 0.001051730297303779
853.0, 0.0017729997706255594
854.0, 0.0013585565911551172
855.0, 0.0002707869517098991
856.0, 0.0011988616363861092
857.0, 0.0016679612578517147
858.0, 0.0016699570070117587
859.0, 0.0016229284207766206
860.0, 0.0009895414488301337
861.0, 0.0011341668920881263
862.0, 0.002212656862661615
863.0, 0.0030025768350506084
864.0, 0.0008148662920492483
865.0, 0.0006883183667193899
866.0, 0.0014316402028127415
867.0, 0.0015035455841404999
868.0, 0.0007151722970944033
869.0, 0.0025833077840291463
870.0, 0.0012281794314554987
871.0, 0.001049074577266662
872.0, 0.0015468231725101827
873.0, 0.0014600473149424214
874.0, 0.0018823215930584935
875.0, 0.0016392528505762781
876.0, 0.001427527784875598
877.0, 0.0014246726749369465
878.0, 0.001519981651869202
879.0, 0.0014456235667380587
880.0, 0.0006338067762841072
881.0, 0.00044030697367824546
882.0, 0.0012964029454678647
883.0, 0.0018981581679925073
884.0, 0.0011754704386445101
885.0, 0.0018103256028586786
886.0, 0.0020145202370842495
887.0, 0.0003741482290087731
888.0, 0.0010870876073143338
889.0, 0.0007377554410651532
890.0, 0.0011904194351375398
891.0, 0.001907926651361075
892.0, 0.0014318437376350502
893.0, 0.0007834856896496341
894.0, 0.0012952175214801524
895.0, 0.0017889832877319312
896.0, 0.0017522450035413332
897.0, 0.0012168280894688647
898.0, 0.0025211737647897322
899.0, 0.0021484102494295707
900.0, 0.001124662363223189
901.0, 0.0007361267249832442
902.0, 0.0028252473461276226
903.0, 0.0014771583796369184
904.0, 0.0012536420572544617
905.0, 0.0014983652816449484
906.0, 0.0010798382687863966
907.0, 0.0015488136128800679
908.0, 0.002564029855878633
909.0, 0.001880067617902092
910.0, 0.0010213168955811693
911.0, 0.002808911346053011
912.0, 0.0008625665323125437
913.0, 0.0011258612045054997
914.0, 0.0017392784552989538
915.0, 0.00160144341634769
916.0, 3.585807449053499e-05
917.0, 0.0016173405239989142
918.0, 0.0013341513285076959
919.0, 0.001252621288728971
920.0, 0.002096742092589523
921.0, 0.001849919443497656
922.0, 0.0009951380598990027
923.0, 0.0018314085066140837
924.0, 0.0031271556708712205
925.0, 0.00339644779765318
926.0, 0.0012508693404387323
927.0, 0.002855069556183723
928.0, 0.002000523773782653
929.0, 0.0007233973702119285
930.0, 0.001958954450632256
931.0, 0.0007699362983119609
932.0, 0.0014945963242408355
933.0, 0.0014233313123499616
934.0, 0.0007595729251769142
935.0, 0.0008438846266950867
936.0, 0.0006413627181824136
937.0, 0.0017253776325209054
938.0, 0.00252150724199673
939.0, 0.0028129697042526313
940.0, 0.0033585493053183064
941.0, 0.002377068185629246
942.0, 0.0013514448960599008
943.0, 0.0012305595495384772
944.0, 0.0018433941191118026
945.0, 0.0015284265849204238
946.0, 0.002410515223797436
947.0, 0.002713700203583681
948.0, 0.002121400857571269
949.0, 0.0011173430192376853
950.0, 0.001795188909259679
951.0, 0.0008799675858245028
952.0, 0.00135728008393901
953.0, 0.0016671873557367106
954.0, 0.0009389100914152385
955.0, 0.001898196995110745
956.0, 0.0023413311574377897
957.0, 0.0012743326005527267
958.0, 9.429235361203051e-05
959.0, 0.00028362613611663504
960.0, 0.0018207838431938685
961.0, 0.0007420744959346027
962.0, 0.0009747791518516252
963.0, 0.0013530951341080774
964.0, 9.520004185766798e-05
965.0, 0.00043060714607653244
966.0, 0.00040368042943051124
967.0, 0.00038417037045801987
968.0, 0.000866361957566774
969.0, 0.0021752431416138095
970.0, 0.002214703293754362
971.0, 0.0014923623672340825
972.0, 0.001622351346300906
973.0, 0.001783414519833291
974.0, 0.00024510136092413266
975.0, 0.00025109930404949664
976.0, 0.0011452145421458498
977.0, 0.0013305562837621768
978.0, 0.0009317307902265062
979.0, 0.0010638390285771192
980.0, 0.0012861505189901456
981.0, 0.0011600645139237355
982.0, 0.0013217871697543022
983.0, 0.001410610142475468
984.0, 0.000403192717225834
985.0, 0.0017035867421395438
986.0, 0.0017619648248425063
987.0, 0.0011235397538768635
988.0, 0.0006876703367443129
989.0, 0.001676596686102264
990.0, 0.0016794295564190273
991.0, 0.0015248773436964964
992.0, 0.0015378592130184182
993.0, 0.0015857860373405348
994.0, 0.0010934377341647403
995.0, 0.0019727275298779584
996.0, 0.0020230523010393592
997.0, 0.001933155017327917
998.0, 0.0020999821305841817
999.0, 0.002622325556738923
1000.0, 0.002076425779705326
1001.0, 0.0023774267845816524
1002.0, 0.0026111001654353008
1003.0, 0.0021932217123428114
1004.0, 0.0009009507054256799
1005.0, 0.00112514320630944
1006.0, 0.0018152798863092135
1007.0, 0.0015976650163520437
1008.0, 0.0009257597490588852
1009.0, 0.002215329186184744
1010.0, 0.0013557685548547845
1011.0, 0.0013077666910783691
1012.0, 0.002193019542467546
1013.0, 0.0029438540496156637
1014.0, 0.0013031867072050545
1015.0, 0.0015204144833820849
1016.0, 0.0019988629384538156
1017.0, 0.0020533617443585688
1018.0, 0.001689785395244587
1019.0, 0.0015737193225891575
1020.0, 0.0018544223550060867
1021.0, 0.0017495971268640018
1022.0, 0.001516336394822872
1023.0, 0.0014025011041368023
1024.0, 0.0016426399687442484
1025.0, 0.0022266600451539167
1026.0, 0.002204646059472889
1027.0, 0.0027117107921915736
1028.0, 0.0033486391141075477
1029.0, 0.002732610138834389
1030.0, 0.003178558598835763
1031.0, 0.003694094050859402
1032.0, 0.003055430019845209
1033.0, 0.002024319146642787
1034.0, 0.0023594182744305844
1035.0, 0.002065128338618525
1036.0, 0.0027362143735105903
1037.0, 0.004686351518858663
1038.0, 0.007430057780192165
1039.0, 0.00977025823609842
1040.0, 0.007622008824494056
1041.0, 0.006581045837530553
1042.0, 0.005055987649019302
1043.0, 0.003611209095916225
1044.0, 0.0033592447564334063
1045.0, 0.0036739059929482487
1046.0, 0.004688286922409013
1047.0, 0.0062639331416313735
1048.0, 0.0073984535185542795
1049.0, 0.007590364142474836
1050.0, 0.009938765396590455
1051.0, 0.011025311540085599
1052.0, 0.011542029720559063
1053.0, 0.014204097250041426
1054.0, 0.02094912757847155
1055.0, 0.03031261125469114
1056.0, 0.057042194926025414
1057.0, 0.1489633610928419
1058.0, 0.3822991726920711
1059.0, 0.7377562210410241
1060.0, 0.986800645503463
1061.0, 0.8117309393976796
1062.0, 0.5082846220883894
1063.0, 0.2571337407597519
1064.0, 0.13382426044020268
1065.0, 0.070924308300718
1066.0, 0.04330764952012196
1067.0, 0.0263940840602131
1068.0, 0.015934823457895066
1069.0, 0.010083334939404564
1070.0, 0.008944357998257777
1071.0, 0.008282246158178424
1072.0, 0.006327226281419496
1073.0, 0.006837621724656053
1074.0, 0.007871522939990837
1075.0, 0.0049526302449497935
1076.0, 0.004107830109008236
1077.0, 0.0057648197023472065
1078.0, 0.005055509244785443
1079.0, 0.003433184023186487
1080.0, 0.0036632299709761372
1081.0, 0.0030424611528419715
1082.0, 0.003434990818828584
1083.0, 0.0042549379688372425
1084.0, 0.004928749549728857
1085.0, 0.0051126421796439695
1086.0, 0.005121426859870128
1087.0, 0.005438297025237675
1088.0, 0.004702643675635863
1089.0, 0.0037858206874381147
1090.0, 0.0038240109097635107
1091.0, 0.00599532154135728
1092.0, 0.003880592860550442
1093.0, 0.004158110794350143
1094.0, 0.003797102230375287
1095.0, 0.0029557367678067713
1096.0, 0.00451695955465945
1097.0, 0.004124140320595994
1098.0, 0.00250909707383305
1099.0, 0.002530210981637973
1100.0, 0.0030564046114665354
1101.0, 0.0018351284143372038
1102.0, 0.00211400486532155
1103.0, 0.0031738023678156454
1104.0, 0.003747241242605471
1105.0, 0.0030848808272783113
1106.0, 0.0015812484803243983
1107.0, 0.002622103686909801
1108.0, 0.002106281075148021
1109.0, 0.0029796436726928686
1110.0, 0.003322286517273152
1111.0, 0.0022601151720123354
1112.0, 0.0011316457713150035
1113.0, 0.0025602848503590587
1114.0, 0.0016856111292958798
1115.0, 0.001380021280658993
1116.0, 0.0017641788654780644
1117.0, 0.0011154029342819558
1118.0, 0.0005818953324810909
1119.0, 0.001315739249854404
1120.0, 0.0015417117388609421
1121.0, 0.0018146690930714404
1122.0, 0.002878055496988143
1123.0, 0.003108060848881191
1124.0, 0.0011647630711743675
1125.0, 0.0023341672604692393
1126.0, 0.0027523553185427618
1127.0, 0.0009915999067894841
1128.0, 0.0017823046059879083
1129.0, 0.0026296898992020355
1130.0, 0.0012865952808198623
1131.0, 0.0009342046621090409
1132.0, 0.002226636281724376
1133.0, 0.0035229003226255272
1134.0, 0.0010725052310271868
1135.0, 0.0028226039180808808
1136.0, 0.0022277586303392754
1137.0, 0.0014092327712533575
1138.0, 0.003061377825613769
1139.0, 0.0018562441998446913
1140.0, 0.0017513039366192109
1141.0, 0.0027948364117811888
1142.0, 0.0031429097752406995
1143.0, 0.0022423159699067764
1144.0, 0.001654457224858322
1145.0, 0.004041015734091662
1146.0, 0.0020567821851952685
1147.0, 0.001021372961774737
1148.0, 0.0019462017667401356
1149.0, 0.003107588671291071
1150.0, 0.0024761639387928806
1151.0, 0.0030254137208168565
1152.0, 0.0023758968524703354
1153.0, 0.0018783704542421234
1154.0, 0.0026084051406730807
1155.0, 0.0032306504497681297
1156.0, 0.0019839259990785006
1157.0, 0.0018289181326706246
1158.0, 0.0024564302847681946
1159.0, 0.0024348742238310067
1160.0, 0.00028107425027459844
1161.0, 0.0029516580740404936
1162.0, 0.003165219707136474
1163.0, 0.002865296886875008
1164.0, 0.0028026160181576247
1165.0, 0.002728827894319244
1166.0, 0.0005032284369252593
1167.0, 0.0011457621530756637
1168.0, 0.002480207986772513
1169.0, 0.0022793679449309412
1170.0, 0.001555344193918281
1171.0, 0.004075126709632342
1172.0, 0.0017953350260397779
1173.0, 0.0008130414714681869
1174.0, 0.0027373370656822694
1175.0, 0.0036997042788735335
1176.0, 0.0008409243012776282
1177.0, 0.0020082671762440686
1178.0, 0.001973291125585777
1179.0, 0.0014249005543047262
1180.0, 0.0016330232320545368
1181.0, 0.0023651359026437427
1182.0, 0.0017663770992311799
1183.0, 0.0005451542481543766
1184.0, 0.0020902869225251012
1185.0, 0.001993667709708656
1186.0, 0.00194378037025136
1187.0, 0.004082029074907743
1188.0, 0.0040228670709935585
1189.0, 0.0010433818384502575
1190.0, 0.0020158067185151226
1191.0, 0.0024694088795290114
1192.0, 0.0011169679610737028
1193.0, 0.0010540788356658518
1194.0, 0.0030751067678850023
1195.0, 0.002594800120390016
1196.0, 0.0020474687826446173
1197.0, 0.0018460382196395489
1198.0, 0.0016191611311872306
1199.0, 0.0007463086084100744
1200.0, 0.004702212155231711
1201.0, 0.004634670124700564
1202.0, 0.0029792943966654994
1203.0, 0.002792343041823575
1204.0, 0.0055904798704548495
1205.0, 0.0013414973898342652
1206.0, 0.0023892528739645922
1207.0, 0.003387539614298197
1208.0, 0.0028520436302216794
1209.0, 0.0016305182459986616
1210.0, 0.0031206923763658274
1211.0, 0.0030799195464890614
1212.0, 0.0020284823395723866
1213.0, 0.0030096321844558928
1214.0, 0.004091123862302259
1215.0, 0.0021199190763509738
1216.0, 0.002803363167724312
1217.0, 0.002446413007093005
1218.0, 0.002871258575437394
1219.0, 0.003827065239716168
1220.0, 0.00436881314713973
1221.0, 0.0033066887239527627
1222.0, 0.0023755610848438706
1223.0, 0.003898241269154458
1224.0, 0.0032267464621392023
1225.0, 0.0024988827429084214
1226.0, 0.004039592879770719
1227.0, 0.004337748747600786
1228.0, 0.0016328140945633311
1229.0, 0.004013950465860627
1230.0, 0.004844569723473818
1231.0, 0.0030210216606769177
1232.0, 0.001958593249874169
1233.0, 0.004394973928938475
1234.0, 0.003316058623159714
1235.0, 0.0035705292496754724
1236.0, 0.0035912103186711035
1237.0, 0.0028342529887841767
1238.0, 0.0033582357736901946
1239.0, 0.005546829312599184
1240.0, 0.003918826591727073
1241.0, 0.0025675920505602145
1242.0, 0.0028718849027682776
1243.0, 0.0038672146949945696
1244.0, 0.0015894447299766754
1245.0, 0.00267945352780308
1246.0, 0.0036152682121357036
1247.0, 0.003945202990791943
1248.0, 0.003583539451496945
1249.0, 0.0029425062748430143
1250.0, 0.0037459489566512563
1251.0, 0.0034308226128080643
1252.0, 0.004004281113748055
1253.0, 0.0030866824789918678
1254.0, 0.00176659960011963
1255.0, 0.0039094958286435754
1256.0, 0.003668681494989448
1257.0, 0.00307900587106836
1258.0, 0.0036133366860684724
1259.0, 0.004564030340075833
1260.0, 0.0049970390352600865
1261.0, 0.004595125213505673
1262.0, 0.005758432692904772
1263.0, 0.004897040876930327
1264.0, 0.0034502194171121586
1265.0, 0.0027029853749699568
1266.0, 0.0029822014878209567
1267.0, 0.002643618200687263
1268.0, 0.0037066154232614323
1269.0, 0.0037943924002755767
1270.0, 0.0025852435684003937
1271.0, 0.0019636182712067045
1272.0, 0.0031545560295169013
1273.0, 0.0010306330644058305
1274.0, 0.0018782036012932246
1275.0, 0.002239488812380414
1276.0, 0.0014790610851005202
1277.0, 0.0012790934267888877
1278.0, 0.003472449713715979
1279.0, 0.0024107181433281034
1280.0, 0.0020704001965408904
1281.0, 0.001926391644070455
1282.0, 0.0015596622290353272
1283.0, 0.001080757817722095
1284.0, 0.0010671318096965262
1285.0, 0.001697606643921761
1286.0, 0.0017165200710876983
1287.0, 0.0011345508775518745
1288.0, 0.0018294146490050495
1289.0, 0.0030643615125122503
1290.0, 0.001148930839003038
1291.0, 0.0018525514002086622
1292.0, 0.0010915715643733186
1293.0, 0.00038779501925693114
1294.0, 0.0015878255951292763
1295.0, 0.0033360624748491443
1296.0, 0.00011226186954638593
1297.0, 0.00024104698361258954
1298.0, 0.001588621665887603
1299.0, 0.0014725231339539479
1300.0, 0.0017689864239421454
1301.0, 0.003161721227098873
1302.0, 0.0017343358998814715
1303.0, 0.0006255872534993172
1304.0, 0.0020709084613528854
1305.0, 0.0024121996394937647
1306.0, 0.0016006127686341396
1307.0, 0.0014293745070671701
1308.0, 0.004156932093417243
1309.0, 0.0008507241175828868
1310.0, 0.0006653508158628255
1311.0, 0.002422415814291591
1312.0, 0.0029619246905598167
1313.0, 0.0015232547999459612
1314.0, 0.004020565964156017
1315.0, 0.002462047757662968
1316.0, 0.0014860949103558461
1317.0, 0.002497292549832513
1318.0, 0.0029154615329195638
1319.0, 0.0008581699944806509
1320.0, 4.2668200876522764e-05
1321.0, 0.002606568517303058
1322.0, 0.0016286649308074677
1323.0, 0.0007827052331350088
1324.0, 0.001673435266722007
1325.0, 0.0031994681605188573
1326.0, 0.0009194526778073774
1327.0, 0.00267021307598959
1328.0, 0.0016886419265221347
1329.0, 0.0016610750162807566
1330.0, 0.0027713413315251408
1331.0, 0.00312094837000127
1332.0, 0.0002524755125480736
1333.0, 0.0005798797752763538
1334.0, 0.0012156812097979242
1335.0, 0.0008027258144456616
1336.0, 0.001351857926246289
1337.0, 0.003038060215951357
1338.0, 5.382046866757111e-05
1339.0, 0.0007679750962873041
1340.0, 0.0024883137345996773
1341.0, 0.0018122000397811247
1342.0, 0.0007973381942813948
1343.0, 0.0018106051543374207
1344.0, 0.0037360205837515758
1345.0, 0.0007475247833575544
1346.0, 0.002316692112389207
1347.0, 0.003193406444209739
1348.0, 0.0022336706179040327
1349.0, 0.0008660790554964635
1350.0, 0.001785610939705567
1351.0, 0.0016071207918587778
1352.0, 0.0023715593948084026
1353.0, 0.002978002784586956
1354.0, 0.0023944769077761286
1355.0, 0.0012751212390480953
1356.0, 0.001977705991780424
1357.0, 0.0038440999287286037
1358.0, 0.0012869359355774036
1359.0, 0.0015649988167756284
1360.0, 0.002557689420577962
1361.0, 0.0025002469651901737
1362.0, 0.0021163562944591574
1363.0, 0.002723092723256344
1364.0, 0.002032523101241927
1365.0, 0.0021262066947893518
1366.0, 0.0019087028234532463
1367.0, 0.0009860479723989254
1368.0, 0.00040749163044513106
1369.0, 0.0032277254767020228
1370.0, 0.0017024361000808374
1371.0, 0.0005152866936020003
1372.0, 0.0021778250075773463
1373.0, 0.003174874501438927
1374.0, 0.00035222063713301365
1375.0, 0.0012562870248826667
1376.0, 0.0031328528190183273
1377.0, 0.0018728971812309355
1378.0, 0.0020094864324828833
1379.0, 0.0032571786612586927
1380.0, 0.003404498890402778
1381.0, 0.0014755554522610434
1382.0, 0.0038370799139014825
1383.0, 0.00460482737384635
1384.0, 0.0033160104566330945
1385.0, 0.0037905310410348897
1386.0, 0.005878134251163574
1387.0, 0.00400537408892439
1388.0, 0.00446950228249112
1389.0, 0.004086117010539248
1390.0, 0.0034874211505535506
1391.0, 0.003409806870443928
1392.0, 0.003923192017777018
1393.0, 0.004244045239698459
1394.0, 0.00264490254306692
1395.0, 0.004492390404786861
1396.0, 0.003884462569861064
1397.0, 0.0030593303021015632
1398.0, 0.003623458615471076
1399.0, 0.0046571624274657445
1400.0, 0.0014750282686756067
1401.0, 0.0020774913140271505
1402.0, 0.0029435618203891498
1403.0, 0.0029674464791460886
1404.0, 0.0026989328830301115
1405.0, 0.0029496648235270502
1406.0, 0.003603254247214408
1407.0, 0.000999754365059483
1408.0, 0.002197355004835908
1409.0, 0.00247259675433599
1410.0, 0.0020921919652007242
1411.0, 0.0031975183740338645
1412.0, 0.006156630251248111
1413.0, 0.0009484215007682724
1414.0, 0.0009476435844760429
1415.0, 0.0029800352294510044
1416.0, 0.002838889797931056
1417.0, 0.0019360336815658283
1418.0, 0.0024476802449441646
1419.0, 0.0014354770994344497
1420.0, 0.0006976924822035003
1421.0, 0.002134361057301035
1422.0, 0.0036224970775168568
1423.0, 0.003085804027147364
1424.0, 0.0026497003039322497
1425.0, 0.006432650129948874
1426.0, 0.0006514818896243371
1427.0, 0.0018805424848459319
1428.0, 0.003881641931473144
1429.0, 0.0035943519207027527
1430.0, 0.002030806921914228
1431.0, 0.0020120703207983284
1432.0, 0.004134323090745564
1433.0, 0.0008322017484756225
1434.0, 0.0027515409413732027
1435.0, 0.0029081394375384253
1436.0, 0.0014295003343552948
1437.0, 0.0010722038020323488
1438.0, 0.0034179822369012503
1439.0, 0.003059597628487733
1440.0, 0.0019709969588040067
1441.0, 0.0023240262947268604
1442.0, 0.002257247748632514
1443.0, 0.0014534699373414933
1444.0, 0.001179033476982023
1445.0, 0.00268811849152597
1446.0, 0.0016599292639558321
1447.0, 0.0038104466316314306
1448.0, 0.003547920272959978
1449.0, 0.0018044769426017987
1450.0, 0.0020903650467437385
1451.0, 0.005931007447654668
1452.0, 0.0020468773449690467
1453.0, 0.0021545102222432417
1454.0, 0.0033003117360568884
1455.0, 0.0026065945544641723
1456.0, 0.002110336991454213
1457.0, 0.004158351067168385
1458.0, 0.004925213697234008
1459.0, 0.0010134774206783921
1460.0, 0.005693689995047673
1461.0, 0.004779727004613026
1462.0, 0.0027665092193877535
1463.0, 0.0036346870671104025
1464.0, 0.005007779656859737
1465.0, 0.003336450639437938
1466.0, 0.003976068179786294
1467.0, 0.004465781717710215
1468.0, 0.003966138917348158
1469.0, 0.0036567115746447983
1470.0, 0.004564862721018405
1471.0, 0.005742848571031436
1472.0, 0.0043738743732258676
1473.0, 0.005775158053001357
1474.0, 0.004713394912975213
1475.0, 0.0036125182372115485
1476.0, 0.004206930551731115
1477.0, 0.005736838732314905
1478.0, 0.005178857178156749
1479.0, 0.0030456040919082184
1480.0, 0.0046908810310359724
1481.0, 0.003409599661937559
1482.0, 0.0018934736214029602
1483.0, 0.0034822110855381
1484.0, 0.006657773464239215
1485.0, 0.00024189041233406514
1486.0, 0.0028892738116040213
1487.0, 0.004613379113979984
1488.0, 0.0024397946353503456
1489.0, 0.00227270100236344
1490.0, 0.00518185146336017
1491.0, 0.0023280334774381534
1492.0, 0.0002003415614044142
1493.0, 0.00491050136461416
1494.0, 0.0034342173554739288
1495.0, 0.002494372675018091
1496.0, 0.00431390103716328
1497.0, 0.005593647993381254
1498.0, 0.0018882675336858066
1499.0, 0.003487671296498185
1500.0, 0.00452256916889075
1501.0, 0.0032813080628973784
1502.0, 0.00429972803641301
1503.0, 0.005904689752668479
1504.0, 0.003884474638859513
1505.0, 0.001628007180053034
1506.0, 0.0058424009382324026
1507.0, 0.00579896902025133
1508.0, 0.003940002386825755
1509.0, 0.00621958746736135
1510.0, 0.008823945185846411
1511.0, 0.004750689740171342
1512.0, 0.006184475315838943
1513.0, 0.006064734487937067
1514.0, 0.0017704757073301045
1515.0, 1.171194615684552e-05
1516, 0.0
1517, 0.0
1518, 0.0
1519, 0.0
1520, 0.0
1521, 0.0
1522, 0.0
1523, 0.0
1524, 0.0
1525, 0.0
1526, 0.0
1527, 0.0
1528, 0.0
1529, 0.0
1530, 0.0
1531, 0.0
1532, 0.0
1533, 0.0
1534, 0.0
1535, 0.0
1536, 0.0
1537, 0.0
1538, 0.0
1539, 0.0
1540, 0.0
1541, 0.0
1542, 0.0
1543, 0.0
1544, 0.0
1545, 0.0
1546, 0.0
1547, 0.0
1548, 0.0
1549, 0.0
1550, 0.0
1551, 0.0
1552, 0.0
1553, 0.0
1554, 0.0
1555, 0.0
1556, 0.0
1557, 0.0
1558, 0.0
1559, 0.0
1560, 0.0
1561, 0.0
1562, 0.0
1563, 0.0
1564, 0.0
1565, 0.0
1566, 0.0
1567, 0.0
1568, 0.0
1569, 0.0
1570, 0.0
1571, 0.0
1572, 0.0
1573, 0.0
1574, 0.0
1575, 0.0
1576, 0.0
1577, 0.0
1578, 0.0
1579, 0.0
1580, 0.0
1581, 0.0
1582, 0.0
1583, 0.0
1584, 0.0
1585, 0.0
1586, 0.0
1587, 0.0
1588, 0.0
1589, 0.0
1590, 0.0
1591, 0.0
1592, 0.0
1593, 0.0
1594, 0.0
1595, 0.0
1596, 0.0
1597, 0.0
1598, 0.0
1599, 0.0
