30, 0.0
31, 0.0
32, 0.0
33, 0.0
34, 0.0
35, 0.0
36, 0.0
37, 0.0
38, 0.0
39, 0.0
40, 0.0
41, 0.0
42, 0.0
43, 0.0
44, 0.0
45, 0.0
46, 0.0
47, 0.0
48, 0.0
49, 0.0
50, 0.0
51, 0.0
52, 0.0
53, 0.0
54, 0.0
55, 0.0
56.0, 0.00013133465588216036
57.0, 0.00024440785881392284
58.0, 0.00015346680140018834
59.0, 0.0003351395088232109
60.0, 0.0004807445656050961
61.0, 0.000526214066944369
62.0, 0.00031476659579452685
63.0, 0.0004556396208196315
64.0, 0.0006084093533071457
65.0, 0.0004917650807122495
66.0, 0.00023316934023964514
67.0, 0.00012704898228860467
68.0, 0.0001487957316354097
69.0, 0.00010782379661204333
70.0, 7.91619860848654e-05
71.0, 0.00015118366054174673
72.0, 0.0003900850734939778
73.0, 0.00021464337855885737
74.0, 0.0001555652396358316
75.0, 0.0002319903478394891
76.0, 0.0004987091005752511
77.0, 0.0010471303164766423
78.0, 0.0017378301248899245
79.0, 0.002577121411555026
80.0, 0.005073025162421835
81.0, 0.008737489254472059
82.0, 0.013811287139965787
83.0, 0.021142667762421238
84.0, 0.02890309551037933
85.0, 0.03531455345655029
86.0, 0.039838025240307745
87.0, 0.041138127843293175
88.0, 0.04338985685042979
89.0, 0.04509540076809053
90.0, 0.044570219533449945
91.0, 0.04046881940044629
92.0, 0.03539119865904959
93.0, 0.02987013295457302
94.0, 0.025175709142501716
95.0, 0.021285005379580443
96.0, 0.018120292287194688
97.0, 0.015757478173437516
98.0, 0.014685474868974832
99.0, 0.013406763698771081
100.0, 0.012163944821926483
101.0, 0.011697767002768191
102.0, 0.011154648865302956
103.0, 0.010899682430987316
104.0, 0.01104364776658243
105.0, 0.011097760734854089
106.0, 0.011052019417284712
107.0, 0.010923659539468595
108.0, 0.010712882649283325
109.0, 0.010944018932183079
110.0, 0.01074246160113261
111.0, 0.010248334800253337
112.0, 0.011207200671735928
113.0, 0.011368983636079574
114.0, 0.011179560434642457
115.0, 0.01087839708211482
116.0, 0.011443091386462729
117.0, 0.01132358356171122
118.0, 0.010776247731345188
119.0, 0.010630589836876663
120.0, 0.010299603320525619
121.0, 0.01014556493059448
122.0, 0.010268454668367115
123.0, 0.009933555448442046
124.0, 0.010103814846801047
125.0, 0.01031497730006794
126.0, 0.009944843671962755
127.0, 0.010209577704210245
128.0, 0.010640621969264586
129.0, 0.011077955832378424
130.0, 0.010965435515820606
131.0, 0.01121056941010252
132.0, 0.011648386878327094
133.0, 0.012208904364605786
134.0, 0.012919716039391656
135.0, 0.013347119686773894
136.0, 0.013834666534857267
137.0, 0.015239506291960912
138.0, 0.017395452823933844
139.0, 0.01969169930163019
140.0, 0.022214217349985754
141.0, 0.02777953596676024
142.0, 0.03465655262287793
143.0, 0.04495948708745246
144.0, 0.06158227689456822
145.0, 0.08852072689903272
146.0, 0.12628659392136776
147.0, 0.17501240774012222
148.0, 0.23719366693491728
149.0, 0.3194572508368874
150.0, 0.4182933439985461
151.0, 0.5320592091705618
152.0, 0.6073448958724221
153.0, 0.6342464087093297
154.0, 0.6152243465076572
155.0, 0.542442162668876
156.0, 0.4234075991386743
157.0, 0.30486886293898274
158.0, 0.19864859216605066
159.0, 0.13427848061296954
160.0, 0.09384648724071948
161.0, 0.06714120875042404
162.0, 0.05031002488340019
163.0, 0.040090218060606884
164.0, 0.03291639297342021
165.0, 0.02792896416459901
166.0, 0.02397481069378217
167.0, 0.020902073621783254
168.0, 0.018153130944606726
169.0, 0.015689594655871546
170.0, 0.013925659956053082
171.0, 0.012430815114074577
172.0, 0.011177302559056518
173.0, 0.010182352129015507
174.0, 0.010171393241888045
175.0, 0.009676044190789544
176.0, 0.009018530058738814
177.0, 0.008909498349943333
178.0, 0.009901880135349612
179.0, 0.010714791405821166
180.0, 0.0112590180287421
181.0, 0.012960957094767455
182.0, 0.01407363929044853
183.0, 0.014776623899478468
184.0, 0.01513069055389366
185.0, 0.014957884597244895
186.0, 0.014656708324527546
187.0, 0.013993514555823343
188.0, 0.012363059752199281
189.0, 0.012033164882105063
190.0, 0.012017984751111224
191.0, 0.012218649172713529
192.0, 0.013402743579341148
193.0, 0.014471735859659
194.0, 0.015821735040535658
195.0, 0.017751620225338566
196.0, 0.01687927879008886
197.0, 0.015894007707176857
198.0, 0.014762764055507718
199.0, 0.013301478691402432
200.0, 0.01233172755636006
201.0, 0.01182623798359542
202.0, 0.011763038620065449
203.0, 0.012020574748875287
204.0, 0.012932299974991629
205.0, 0.01439804706688334
206.0, 0.016418247940936107
207.0, 0.018631568483122578
208.0, 0.02337614264766363
209.0, 0.030766631671256886
210.0, 0.04149287090688749
211.0, 0.0595172350161051
212.0, 0.09154085137550733
213.0, 0.14028619236420484
214.0, 0.21539505604543224
215.0, 0.3007770833205229
216.0, 0.4068226828175915
217.0, 0.5426756040175339
218.0, 0.7864433402185064
219.0, 0.932127299234534
220.0, 0.9385234517001404
221.0, 0.7301283727175573
222.0, 0.4555648321939032
223.0, 0.2524372712306833
224.0, 0.12767983135531585
225.0, 0.07749456886654674
226.0, 0.05248721344707583
227.0, 0.0382503768837469
228.0, 0.030671793403940856
229.0, 0.02701310000823893
230.0, 0.024878927156386444
231.0, 0.023957002742950016
232.0, 0.024169372107957953
233.0, 0.02368488890027576
234.0, 0.024095837598838814
235.0, 0.024834581606543695
236.0, 0.02472014994596376
237.0, 0.023470033903819354
238.0, 0.02296869620244341
239.0, 0.023687212831151692
240.0, 0.02638366137590228
241.0, 0.03105937444611577
242.0, 0.03691584327853184
243.0, 0.043861986538464945
244.0, 0.05703112364143124
245.0, 0.06880938670219057
246.0, 0.07668935648830903
247.0, 0.07712179350895595
248.0, 0.07175385059981625
249.0, 0.06384277951967277
250.0, 0.05377776016482967
251.0, 0.04161994842004554
252.0, 0.029778574510179335
253.0, 0.020137320164965992
254.0, 0.013268722708140824
255.0, 0.009571000857862165
256.0, 0.007313097448066964
257.0, 0.005907033708872546
258.0, 0.005080169293143581
259.0, 0.004157060930758661
260.0, 0.0037626021351373456
261.0, 0.0036498599885409926
262.0, 0.0035233073151011334
263.0, 0.0031650073009580884
264.0, 0.0028833206668092922
265.0, 0.0027056013310106093
266.0, 0.0026379758382841546
267.0, 0.00253830995502466
268.0, 0.0023507636363861973
269.0, 0.0021193318658457054
270.0, 0.0023242807714488533
271.0, 0.0021703874400547628
272.0, 0.0019921187316875094
273.0, 0.0019860018550983956
274.0, 0.0021527569082237592
275.0, 0.0021930429340648564
276.0, 0.002154346467323333
277.0, 0.002088138333474002
278.0, 0.001968017587062476
279.0, 0.001997566248032852
280.0, 0.002098276058715395
281.0, 0.0020131249069961685
282.0, 0.0019281048288962244
283.0, 0.0017777449381285732
284.0, 0.0015823267291426035
285.0, 0.0015754722399911436
286.0, 0.0017459545482850958
287.0, 0.00185663131442597
288.0, 0.0018024883250640856
289.0, 0.002029699062050557
290.0, 0.0020328743652040055
291.0, 0.0020403049624848598
292.0, 0.0022872028828012244
293.0, 0.0023105290014783526
294.0, 0.0023471065236081922
295.0, 0.0024318571982714582
296.0, 0.0026204919608004136
297.0, 0.0026039474108374636
298.0, 0.0026398242880488563
299.0, 0.0026602921989081914
300.0, 0.002206081990295938
301.0, 0.002251501648049998
302.0, 0.00225698638926424
303.0, 0.0020791123219235214
304.0, 0.0021512099569282253
305.0, 0.0018410785379125974
306.0, 0.0015804655375682118
307.0, 0.0016504965817204838
308.0, 0.0015082124743376543
309.0, 0.0013913216318473091
310.0, 0.0013157686370603011
311.0, 0.0013066156187035334
312.0, 0.0009564224978682243
313.0, 0.000977711193683644
314.0, 0.001249548766275921
315.0, 0.001400206449023334
316.0, 0.0014661997232637124
317.0, 0.001389758414893449
318.0, 0.0012491033163889462
319.0, 0.0014389194971799893
320.0, 0.0011923946630869639
321.0, 0.000895861985689354
322.0, 0.0007125918558241416
323.0, 0.0009220751725403397
324.0, 0.0008035420770345931
325.0, 0.0006150003680473518
326.0, 0.0005096353268388816
327.0, 0.00028940410847304657
328.0, 0.00013415947167150533
329.0, 9.518042232506462e-05
330.0, 0.00024211850358831259
331.0, 0.0003657249362072453
332.0, 0.0003005524592853525
333.0, 0.00024498938068416045
334.0, 0.0006023763885704121
335.0, 0.0005062320074000342
336.0, 0.0004920259129551013
337.0, 0.0005809601772682188
338.0, 0.0006061319910539504
339.0, 0.000712730237921527
340.0, 0.0007237181185384878
341.0, 0.0006243507665749776
342.0, 0.0006107470258431864
343.0, 0.0006030859148278705
344.0, 0.0005744738353923906
345.0, 0.0005213321699153331
346.0, 0.0005668159825775064
347.0, 0.0005145441312835609
348.0, 0.0004938254718260872
349.0, 0.0005965082542591699
350.0, 0.0005052272176503332
351.0, 0.0003881953529127339
352.0, 0.0003177131677848296
353.0, 0.0003832944790651725
354.0, 0.0003742116853734408
355.0, 0.0002197308489217969
356.0, 8.554077171440543e-05
357.0, 0.0002886835966087362
358.0, 0.0001387976340502902
359.0, 5.810131568244495e-05
360.0, 9.849917861221557e-05
361.0, 0.0002698856225040552
362.0, 0.0002553931976156627
363.0, 0.00034474993142235406
364.0, 0.0005627544640351171
365.0, 0.0007304425020037271
366.0, 0.0008352985036449995
367.0, 0.0010036711703999357
368.0, 0.0012336589555413371
369.0, 0.0011456301127895556
370.0, 0.0011164718935881748
371.0, 0.001272548288220166
372.0, 0.0016470438734862368
373.0, 0.0015195748110448137
374.0, 0.0015027011417237948
375.0, 0.001497375444622512
376.0, 0.001431571719957418
377.0, 0.0017559326368275724
378.0, 0.0017954740007637944
379.0, 0.0017793285664306224
380.0, 0.001966323536301738
381.0, 0.0023047351588881895
382.0, 0.0023340694641097296
383.0, 0.0022782491155695288
384.0, 0.002524181881007481
385.0, 0.00255306279066362
386.0, 0.002529482796516336
387.0, 0.0025256389392526233
388.0, 0.002673665974071209
389.0, 0.0026485178789626943
390.0, 0.002642093040283827
391.0, 0.002650093868654582
392.0, 0.0025623016864151442
393.0, 0.002756194636319952
394.0, 0.002866327483220661
395.0, 0.002807938053882486
396.0, 0.002582554941477117
397.0, 0.0027057970661278526
398.0, 0.0027839760243801703
399.0, 0.0027386628822214194
400.0, 0.0029130191722543716
401.0, 0.002946374288608504
402.0, 0.0030631452543136086
403.0, 0.0033497753099605934
404.0, 0.0036366378137042076
405.0, 0.0035754346994970637
406.0, 0.003636574443061811
407.0, 0.00406503565211533
408.0, 0.004174594349794579
409.0, 0.004603310302525008
410.0, 0.005010154535922485
411.0, 0.005141902653453142
412.0, 0.005409474156292441
413.0, 0.006040624990725124
414.0, 0.006741704941301758
415.0, 0.007226094099864671
416.0, 0.00852793433231889
417.0, 0.009968259334777432
418.0, 0.011178136945124371
419.0, 0.0116922120231497
420.0, 0.01350335374446635
421.0, 0.01522900838119791
422.0, 0.016816873067830175
423.0, 0.01826981821784634
424.0, 0.020205345005884605
425.0, 0.021710915522581514
426.0, 0.023299854843563266
427.0, 0.026098370460899335
428.0, 0.02812532048124948
429.0, 0.03050052619409574
430.0, 0.032972201034312754
431.0, 0.03467037049487093
432.0, 0.03725804676576512
433.0, 0.040479187048799506
434.0, 0.043880445452869184
435.0, 0.04630892622935965
436.0, 0.051370808953631004
437.0, 0.05502576748036922
438.0, 0.05687771523336706
439.0, 0.05800839205053727
440.0, 0.05452224599071633
441.0, 0.04716098450865767
442.0, 0.037051817796985895
443.0, 0.027955205884537614
444.0, 0.020425578989236876
445.0, 0.015074419595227104
446.0, 0.011890312626702638
447.0, 0.010046967421397927
448.0, 0.00912029790572182
449.0, 0.008742816733524695
450.0, 0.00874206427659901
451.0, 0.008759165570364576
452.0, 0.009830690003239542
453.0, 0.010695704551071054
454.0, 0.011262847825391624
455.0, 0.013668706919378533
456.0, 0.01609186991703481
457.0, 0.019291567973430988
458.0, 0.02372807085256958
459.0, 0.030453886277154132
460.0, 0.03816538676768199
461.0, 0.04804473601626931
462.0, 0.06049746403603385
463.0, 0.07438406507268273
464.0, 0.09294129780045624
465.0, 0.11768700692016588
466.0, 0.14989551225786443
467.0, 0.19317917887583602
468.0, 0.25721101139200503
469.0, 0.3350496840275347
470.0, 0.4259068802621539
471.0, 0.5510928229916007
472.0, 0.6545275835666141
473.0, 0.7011532278262987
474.0, 0.6698850502801523
475.0, 0.5448245558834388
476.0, 0.3981986199255815
477.0, 0.272267776406557
478.0, 0.18893537558881443
479.0, 0.1367929662137624
480.0, 0.10268582497791073
481.0, 0.0795052463705831
482.0, 0.06351575420904867
483.0, 0.05236056278819691
484.0, 0.04405882814333923
485.0, 0.03733464489043195
486.0, 0.03162695191552267
487.0, 0.027902766737330838
488.0, 0.024827289708893134
489.0, 0.022146205192296275
490.0, 0.019733785442871014
491.0, 0.01760529079322418
492.0, 0.016255415594813333
493.0, 0.014995642236698165
494.0, 0.013499564175475045
495.0, 0.012167110570015424
496.0, 0.011496421418593493
497.0, 0.010961706254993512
498.0, 0.01032571539812042
499.0, 0.009888134848273857
500.0, 0.009445158132736806
501.0, 0.008784101730805415
502.0, 0.007914042546525217
503.0, 0.007893592695859573
504.0, 0.007463864126678346
505.0, 0.0070791989779476075
506.0, 0.0069265221755078835
507.0, 0.006807078921564226
508.0, 0.006384904743967372
509.0, 0.006062198013015453
510.0, 0.005972914406164584
511.0, 0.0058174796113291335
512.0, 0.005574630147679639
513.0, 0.005547962257107015
514.0, 0.00573412805142209
515.0, 0.005343395443892309
516.0, 0.005358876051400491
517.0, 0.0052622275199272
518.0, 0.0049499727743059965
519.0, 0.004871021568911569
520.0, 0.004984610906281111
521.0, 0.005014941320386673
522.0, 0.004886057815010728
523.0, 0.004655146977106691
524.0, 0.004621208368620181
525.0, 0.004403329883944849
526.0, 0.003986423291459862
527.0, 0.0037356606081691826
528.0, 0.003618874994720778
529.0, 0.0034461684716375457
530.0, 0.003195338572372548
531.0, 0.0029444761028967156
532.0, 0.0030187458423141817
533.0, 0.002998779804728947
534.0, 0.0028802595769541034
535.0, 0.002888927549832116
536.0, 0.0028624046997494483
537.0, 0.0028969853293751785
538.0, 0.0028911174712379344
539.0, 0.00256069594291115
540.0, 0.0026606865974459363
541.0, 0.002648448343321067
542.0, 0.0025567948525077734
543.0, 0.002585716564109276
544.0, 0.002798789549218256
545.0, 0.002823902109504224
546.0, 0.0027450828701802454
547.0, 0.0027534775618683113
548.0, 0.002837689657892989
549.0, 0.0028386267984723134
550.0, 0.002797023121898428
551.0, 0.00277920093239397
552.0, 0.0027018184257425505
553.0, 0.0026359954392096156
554.0, 0.00254019342967216
555.0, 0.002368371961753794
556.0, 0.002236316010429834
557.0, 0.0021179023500644024
558.0, 0.0018918440879123484
559.0, 0.0014634072402492696
560.0, 0.0011510930136983232
561.0, 0.0009665916773122952
562.0, 0.0008653861496606257
563.0, 0.0008067136579504906
564.0, 0.000654444966456163
565.0, 0.0005767163240035393
566.0, 0.0005333362266775301
567.0, 0.00048412369073825407
568.0, 0.0002723578260117001
569.0, 0.00027809663584410933
570.0, 0.0002737961150846006
571.0, 0.00018355859784940375
572.0, 0.00010174318702756933
573.0, 0.00019927220879373305
574.0, 0.00034328545512645977
575.0, 0.00045132931089417335
576.0, 0.00035864794744664254
577.0, 0.00020042005033908623
578.0, 0.00014562611456427725
579.0, 0.00017402017497304334
580.0, 0.00012741366135728583
581.0, 0.00019994278606056643
582.0, 0.00014212149734585085
583.0, 3.686805952321499e-05
584.0, 0.0001230590119525207
585.0, 6.711610818432758e-05
586.0, 3.3319366339150805e-05
587.0, 3.828984536115801e-05
588.0, 8.60159209213888e-05
589.0, 6.8419716420137e-05
590.0, 3.4359822895958854e-05
591.0, 1.4053766482740571e-05
592.0, 3.713074623788697e-05
593.0, 6.937646662060917e-05
594.0, 5.642054222132466e-05
595.0, 5.806503572374908e-05
596.0, 0.00011632827388522224
597.0, 0.00016997796049454303
598.0, 0.00019286636353520195
599.0, 0.00019713868499177779
600.0, 0.00018609858617728777
601.0, 0.000136387228622434
602.0, 0.00011489903325936862
603.0, 9.487598433765879e-05
604.0, 6.421099087909015e-05
605.0, 1.2893403154416497e-05
606.0, 3.3803216768491464e-05
607.0, 3.703114934705111e-05
608.0, 1.9453841385899583e-05
609.0, 3.458712912289014e-05
610.0, 9.968538120989243e-05
611.0, 0.00013293820513316236
612.0, 0.00016341117289308524
613.0, 0.00026876058951960863
614.0, 0.00022415804128222248
615.0, 0.00026071695723981826
616.0, 0.00030720443200273
617.0, 0.00025363374423414465
618.0, 0.0003382509011725279
619.0, 0.0003948213863413024
620.0, 0.0004323062868853467
621.0, 0.00046211818227778376
622.0, 0.0005272178085588614
623.0, 0.0005180712102929535
624.0, 0.0004900946190691767
625.0, 0.0004861120906035141
626.0, 0.000592407889057509
627.0, 0.0005059855325443408
628.0, 0.0004563022461608202
629.0, 0.0004751078943900402
630.0, 0.0003596949646456787
631.0, 0.0005005943187344033
632.0, 0.0004798827463401174
633.0, 0.0003366104625436544
634.0, 0.00038090385536410494
635.0, 0.0003515364467208529
636.0, 0.0003150659828135002
637.0, 0.00025540035912880414
638.0, 0.00013810296101952053
639.0, 0.00013885083033632746
640.0, 0.00018273412645764317
641.0, 0.0002044727396053973
642.0, 0.00015544081236318127
643.0, 0.0003003518467852338
644.0, 0.0002250387905481926
645.0, 0.00024346871091542635
646.0, 0.0004714124578267118
647.0, 0.00037390317877539073
648.0, 0.0004367401621157772
649.0, 0.00041435698488264755
650.0, 0.0002979299764583987
651.0, 0.000382268331552508
652.0, 0.0005014570498816283
653.0, 0.0005038083180390217
654.0, 0.00040150375220972907
655.0, 0.0002838857605347931
656.0, 0.000429841318686619
657.0, 0.00036941714762658997
658.0, 0.00030953191756374817
659.0, 0.00055569082562368
660.0, 0.0004990826182866507
661.0, 0.0004285645630550904
662.0, 0.0003596417131078289
663.0, 0.0003092130420975308
664.0, 0.0003338335591497586
665.0, 0.0003429887033900222
666.0, 0.0003474672514559736
667.0, 0.0003520141516866931
668.0, 0.00035662697201294135
669.0, 0.0004123335671259591
670.0, 0.0004562610702050128
671.0, 0.0004721678621520331
672.0, 0.0004567395447229232
673.0, 0.0004970482309442696
674.0, 0.0004930631881400218
675.0, 0.0004757711432756063
676.0, 0.0005009373260578148
677.0, 0.00048580104234668443
678.0, 0.0005819877328999383
679.0, 0.0006129335868934529
680.0, 0.0004857171051744023
681.0, 0.0007339215640766501
682.0, 0.0006239017742780674
683.0, 0.000593010336546917
684.0, 0.0007518053036848139
685.0, 0.0007565503889285334
686.0, 0.0005371875314884448
687.0, 0.0006202247387770324
688.0, 0.0007870973936993773
689.0, 0.0003046760119779416
690.0, 0.0003145008728738831
691.0, 0.00029592695969245524
692.0, 0.0002789077454027374
693.0, 0.0003428324748675585
694.0, 0.00032702369746721367
695.0, 0.0002387603815647598
696.0, 0.00021265380871567807
697.0, 0.00031217549418526664
698.0, 0.00035716046856448596
699.0, 0.0002559026422620414
700.0, 0.0002087143586726778
701.0, 0.00025361690801048697
702.0, 0.0002985144575647984
703.0, 0.0002891805360019215
704.0, 0.0002849462107762188
705.0, 0.0003177739413116886
706.0, 0.0004235240320002726
707.0, 0.0004695403008495422
708.0, 0.0005417406823900462
709.0, 0.000615551685854824
710.0, 0.0006664843673989534
711.0, 0.0006721753198096404
712.0, 0.0006990054621877629
713.0, 0.0007090935070614684
714.0, 0.0006759896028603296
715.0, 0.000557811643516367
716.0, 0.0005798957824659685
717.0, 0.0005901713113398037
718.0, 0.0005367151327325214
719.0, 0.0003776324068193801
720.0, 0.00031601627778672956
721.0, 0.00027033529136436424
722.0, 0.0002249453153898125
723.0, 0.000171275709480785
724.0, 0.00015554046352673904
725.0, 0.00016964112887410556
726.0, 0.00016574825357763462
727.0, 0.00014727887330249156
728.0, 0.00023192342596217583
729.0, 0.00011842830210057693
730.0, 6.58610809975579e-05
731.0, 0.00012585763593289561
732.0, 0.000292300501135647
733.0, 0.00012784709159371725
734.0, 3.467059520448532e-05
735.0, 1.2376384829737956e-05
736.0, 3.5090249777896545e-05
737.0, 5.042158670005101e-05
738.0, 3.955896751721437e-05
739.0, 5.623237375461005e-05
740.0, 9.46838747601551e-05
741.0, 2.612938177594361e-05
742.0, 6.95908139319407e-05
743.0, 9.606278519819947e-05
744.0, 9.601948358909251e-05
745.0, 9.69784303659549e-05
746.0, 7.518138649976519e-05
747.0, 6.52085492743224e-05
748.0, 4.6236618599442255e-05
749.0, 9.498912102116677e-06
750.0, 6.514028904565386e-05
751.0, 4.532223947928704e-05
752.0, 4.9989674947785886e-05
753.0, 8.41792776593945e-05
754.0, 3.172324192803777e-05
755.0, 3.4584145669944436e-05
756.0, 5.837209468912285e-05
757.0, 7.820008209278914e-05
758.0, 6.595895422458754e-05
759.0, 0.00013457837196102567
760.0, 0.0001445349309538469
761.0, 0.00012420216451968692
762.0, 9.133436586045874e-05
763.0, 2.553492419538685e-05
764.0, 7.358098983323619e-05
765.0, 7.41844399069427e-05
766.0, 4.32882378615455e-05
767.0, 0.00013046824545990862
768.0, 0.00011788267157314954
769.0, 7.860618207980089e-05
770.0, 7.326577765432015e-05
771.0, 0.00014649176902975096
772.0, 8.318983456422424e-05
773.0, 3.6288688395914676e-05
774.0, 2.2035335849013085e-05
775.0, 3.433599905974143e-05
776.0, 2.038774255505677e-05
777.0, 3.354359888217599e-05
778.0, 6.854820478275198e-05
779.0, 0.00010320345710848184
780.0, 0.00010494442891890502
781.0, 0.00010668540072932822
782.0, 0.00013716875206473073
783.0, 0.00011755965441185355
784.0, 2.2962762754799763e-05
785.0, 4.1765258307370276e-05
786.0, 0.00012407018923328407
787.0, 0.0002461540524595934
788.0, 0.000342094762875832
789.0, 0.00028222047217184217
790.0, 0.0002806433249530628
791.0, 0.00033611803369579707
792.0, 0.0003897894080522906
793.0, 0.0003951610160092156
794.0, 0.0004474710830319261
795.0, 0.0005149599929732395
796.0, 0.0005519969974154457
797.0, 0.0005737529131525012
798.0, 0.0006770170723035423
799.0, 0.0006875718085021912
800.0, 0.0007138776553000738
801.0, 0.0007692769263674904
802.0, 0.0008530411990517275
803.0, 0.0009408259991570734
804.0, 0.001068489651976319
805.0, 0.0012019735884555138
806.0, 0.0013442180753584674
807.0, 0.0015714608144524781
808.0, 0.0017626575551881905
809.0, 0.001973323557227731
810.0, 0.0022256457036183602
811.0, 0.002534633610111469
812.0, 0.0028033111520397863
813.0, 0.0029523743898309212
814.0, 0.003316959406056597
815.0, 0.003919330054891982
816.0, 0.003961769057458758
817.0, 0.004287446024840781
818.0, 0.004470329072458516
819.0, 0.004512715231887405
820.0, 0.004555071988325173
821.0, 0.005089840182513438
822.0, 0.005363003471613551
823.0, 0.005172722456760982
824.0, 0.004594862082913301
825.0, 0.004657767526635878
826.0, 0.004319486290600949
827.0, 0.00402451780106119
828.0, 0.0038084358192634455
829.0, 0.0035626169017920735
830.0, 0.0032962423940857246
831.0, 0.0033042799997545103
832.0, 0.0033518440878599408
833.0, 0.003256560055159452
834.0, 0.002929342454808999
835.0, 0.003140499137119314
836.0, 0.0031971356942948545
837.0, 0.0031555250885415575
838.0, 0.003383021590760399
839.0, 0.003447795237388674
840.0, 0.003510563516050998
841.0, 0.003694032295435514
842.0, 0.003993066260903431
843.0, 0.003952754008822718
844.0, 0.003737181291297971
845.0, 0.0038867015331635916
846.0, 0.0041789874053278515
847.0, 0.0040559351540676945
848.0, 0.004179791370078405
849.0, 0.004392744449326598
850.0, 0.004588603234656496
851.0, 0.004657043599218458
852.0, 0.004390146897528077
853.0, 0.0046944675793883315
854.0, 0.004896736921674425
855.0, 0.00500180785368727
856.0, 0.005208715139054807
857.0, 0.00539519192196824
858.0, 0.005793080886196453
859.0, 0.006250064534482011
860.0, 0.006595011217874653
861.0, 0.006492383445967177
862.0, 0.007138439152142203
863.0, 0.007472405557260219
864.0, 0.007548315488655502
865.0, 0.007665106248332018
866.0, 0.008099836814634519
867.0, 0.008064537126983053
868.0, 0.007948040738751294
869.0, 0.007967809526182814
870.0, 0.008237148969676653
871.0, 0.00831884077284119
872.0, 0.008539214209923415
873.0, 0.008711193484439012
874.0, 0.008636592290291893
875.0, 0.008657716822998193
876.0, 0.008268513611637532
877.0, 0.00813280063405411
878.0, 0.008295985807796568
879.0, 0.008316220668704268
880.0, 0.007724904656135156
881.0, 0.00704777987442754
882.0, 0.006401037912424224
883.0, 0.005835086643036441
884.0, 0.005212657713087778
885.0, 0.004763523184696358
886.0, 0.0043027378083014085
887.0, 0.003799575389954145
888.0, 0.003280718965248436
889.0, 0.0028642812006674954
890.0, 0.0026277714895323093
891.0, 0.0024317063898193496
892.0, 0.002217788054409102
893.0, 0.0020955879400712334
894.0, 0.001983711072563867
895.0, 0.0018638990989033937
896.0, 0.0018834830190150881
897.0, 0.0021697178391837466
898.0, 0.002044829700721523
899.0, 0.0018876469040287648
900.0, 0.001970141181133968
901.0, 0.002173933653772094
902.0, 0.0019452485818984737
903.0, 0.0019125991515817086
904.0, 0.002046075579617991
905.0, 0.002073577566713174
906.0, 0.0018537433168443927
907.0, 0.0018537018070426063
908.0, 0.0017648133816540084
909.0, 0.001542278067690908
910.0, 0.001357401401708252
911.0, 0.0014718707283891234
912.0, 0.0012014507457744226
913.0, 0.0011269508402544628
914.0, 0.0011113783548342326
915.0, 0.0010824630454588453
916.0, 0.0010415645935217999
917.0, 0.0008665346750428965
918.0, 0.0009738352615891604
919.0, 0.00106842549696899
920.0, 0.0008976292991208952
921.0, 0.0010856105092934185
922.0, 0.001086037484197415
923.0, 0.001055772148722118
924.0, 0.0010499777697678134
925.0, 0.0010861479904578709
926.0, 0.001354846116287049
927.0, 0.0015346055372829188
928.0, 0.0017085495853055147
929.0, 0.0019125405383720495
930.0, 0.002100274143982856
931.0, 0.002042766601475734
932.0, 0.0021450432667897775
933.0, 0.0023389888769317414
934.0, 0.002478712493319737
935.0, 0.0023390773026216415
936.0, 0.0023823158661162337
937.0, 0.00244323304235315
938.0, 0.0024593983620173313
939.0, 0.002408283977659692
940.0, 0.0023567343558994255
941.0, 0.002343613265239105
942.0, 0.0023445381821296397
943.0, 0.0023258232107179044
944.0, 0.0022227656402949952
945.0, 0.0018133922613055675
946.0, 0.00147091165649709
947.0, 0.0012290980564330831
948.0, 0.0010675057990830867
949.0, 0.0008960418389112062
950.0, 0.0007484765930152225
951.0, 0.0006750057918093503
952.0, 0.0006487902721429458
953.0, 0.0006051548134502931
954.0, 0.00045997653695925735
955.0, 0.00036204354356600296
956.0, 0.0004215560298718257
957.0, 0.0005539102911510756
958.0, 0.00040861761097486446
959.0, 0.0003820102263145199
960.0, 0.00030582863276267376
961.0, 0.00016845377755796256
962.0, 3.771557831943744e-05
963.0, 0.00024736770689342934
964.0, 0.00021967833748191539
965.0, 0.00015777268804046172
966.0, 9.586703859900616e-05
967.0, 4.419399200197145e-05
968.0, 0.0001284683831950435
969.0, 0.00012902403025905632
970.0, 0.00012004200406129881
971.0, 0.00014312517990802665
972.0, 0.00022757059766691538
973.0, 0.00020752526211474353
974.0, 0.0001722044820715766
975.0, 0.00016044357643884834
976.0, 0.00016956727281174794
977.0, 0.0001284199112693672
978.0, 3.732783208162519e-05
979.0, 0.00016798543014262562
980.0, 0.00033924989211639727
981.0, 0.0003662159150165206
982.0, 0.00015755299957738247
983.0, 7.62644485998486e-05
984.0, 2.7131967738406515e-05
985.0, 1.3659120083770218e-05
986.0, 5.40638977387884e-05
987.0, 0.00010093820973519957
988.0, 4.4584986509391434e-05
989.0, 1.9235090608893223e-05
990.0, 4.672678038558592e-05
991.0, 8.85547199477092e-05
992.0, 6.825228902998592e-05
993.0, 6.360623799681525e-05
994.0, 7.480144677638704e-05
995.0, 9.203483736301616e-05
996.0, 9.073581701533945e-05
997.0, 0.00013300216777934382
998.0, 0.00010847708265402868
999.0, 9.54124106369549e-05
1000.0, 0.00011432271612246014
1001.0, 1.0442992190506607e-05
1002.0, 3.7396304071402774e-05
1003.0, 3.53005414231128e-05
1004.0, 3.256735084500438e-05
1005.0, 6.237936412380077e-05
1006.0, 3.365247786138461e-05
1007.0, 1.2001422087473994e-05
1008.0, 1.6226113168572346e-05
1009.0, 6.505854659722495e-05
1010.0, 0.0001626171656631808
1011.0, 0.00014217763400890194
1012.0, 0.00020580041892571195
1013.0, 0.00018845273201002088
1014.0, 9.568059544548997e-05
1015.0, 3.461409541753209e-05
1016.0, 5.616192898752854e-05
1017.0, 6.202783313496321e-05
1018.0, 8.344054120672371e-05
1019.0, 9.66296635088305e-05
1020.0, 1.3168561552528436e-05
1021.0, 3.3713181756078274e-05
1022.0, 3.923681977905857e-05
1023.0, 3.9566968655753326e-05
1024.0, 3.663747942669903e-05
1025.0, 9.103303127453867e-06
1026.0, 1.970751312159205e-05
1027.0, 2.0558087966230713e-05
1028.0, 2.6278918095026874e-05
1029.0, 5.101111815620493e-05
1030.0, 9.355247146129823e-05
1031.0, 7.989019458473458e-05
1032.0, 5.939636337493311e-05
1033.0, 3.4355616264701425e-05
1034.0, 7.91317091549232e-06
1035.0, 2.9053496417819687e-05
1036.0, 7.954542032037375e-05
1037.0, 0.00010214258534908447
1038.0, 9.552488499910544e-05
1039.0, 7.838866212045223e-05
1040.0, 9.994577787934685e-05
1041.0, 6.954315017882651e-05
1042.0, 2.8715046576901307e-05
1043.0, 2.0031136583671353e-05
1044.0, 8.898221615878813e-05
1045.0, 0.00027910166188002076
1046.0, 0.0001522836379101984
1047.0, 9.998837701831412e-05
1048.0, 0.00016724526456270727
1049.0, 0.0001871119245974187
1050.0, 0.00012442505137000507
1051.0, 7.24622268594682e-05
1052.0, 7.383902189793088e-05
1053.0, 0.00011658168390441483
1054.0, 0.00013824022379211806
1055.0, 6.542215474188735e-05
1056.0, 5.4566825147859124e-05
1057.0, 9.120760771623798e-05
1058.0, 0.00015507235373561564
1059.0, 0.00021889783818208278
1060.0, 9.817076199532577e-05
1061.0, 6.292412600162655e-05
1062.0, 5.540364167532815e-05
1063.0, 4.1337932023204695e-05
1064.0, 3.83836248554261e-05
1065.0, 0.00025980658363469674
1066.0, 0.00028749525780548694
1067.0, 0.00021614799449663473
1068.0, 0.00015612773408203416
1069.0, 0.00019899934866389213
1070.0, 0.00010379479766140816
1071.0, 0.00015678918184986403
1072.0, 0.00021215113511433633
1073.0, 0.0001741726862075632
1074.0, 0.00015364974990502448
1075.0, 0.00015256964349999962
1076.0, 0.00011370799436432627
1077.0, 8.697821195844445e-05
1078.0, 0.00011693060262487376
1079.0, 0.00020491925744202437
1080.0, 0.00011803829165240828
1081.0, 0.00010971766569513426
1082.0, 0.00011034261325649021
1083.0, 7.260650482672655e-05
1084.0, 0.00017900487967086073
1085.0, 0.0001259337933537824
1086.0, 0.00014733920031864854
1087.0, 0.0002001289086189852
1088.0, 0.00019628348923209977
1089.0, 3.655901041541759e-05
1090.0, 4.903542691734478e-05
1091.0, 3.891925635247968e-05
1092.0, 7.222626798164284e-05
1093.0, 0.00017526966771541367
1094.0, 2.7577859375037343e-05
1095.0, 8.761352519057454e-05
1096.0, 9.297177962977463e-05
1097.0, 0.00012419215814443637
1098.0, 0.00023639640674156154
1099.0, 0.00010980645482164354
1100.0, 5.385704355629026e-05
1101.0, 9.37157808225844e-05
1102.0, 0.00014131341206504385
1103.0, 0.000134730636893107
1104.0, 0.00022003258164117668
1105.0, 0.0002303396442838241
1106.0, 0.00021737636856076744
1107.0, 0.00026199195731328257
1108.0, 0.00036482059982750713
1109.0, 0.00017447619067925422
1110.0, 4.8133917610093203e-05
1111.0, 0.00010847400594206584
1112.0, 0.00016587445537380802
1113.0, 8.117702897266e-05
1114.0, 0.00012404255152895504
1115.0, 0.00012900816156765334
1116.0, 0.00011574531424206737
1117.0, 0.00014553044779290822
1118.0, 0.00021711315024873726
1119.0, 9.019300648180626e-05
1120.0, 0.00013558767447579417
1121.0, 0.00010237400865619434
1122.0, 5.243352894727987e-05
1123.0, 4.942119159196516e-05
1124.0, 2.858713247209714e-05
1125.0, 8.534026534310921e-05
1126.0, 0.00013528692920444248
1127.0, 0.00013352410087762745
1128.0, 7.010584813554408e-05
1129.0, 6.512032252007971e-06
1130.0, 0.0001796642396824033
1131.0, 0.00016857541722564232
1132.0, 0.0001645435574165204
1133.0, 0.00023183971514120658
1134.0, 4.090948516737615e-05
1135.0, 2.435389359668915e-05
1136.0, 5.5864987503017034e-05
1137.0, 6.067370819514492e-05
1138.0, 2.9962748892751566e-05
1139.0, 6.029617824829692e-05
1140.0, 8.218117319270827e-05
1141.0, 0.0001037506664371154
1142.0, 0.00012266438437995574
1143.0, 0.0001511266437469039
1144.0, 0.000221422225087901
1145.0, 0.00011787244828207513
1146.0, 4.344684187138016e-05
1147.0, 5.519433627273114e-05
1148.0, 9.837732489301722e-05
1149.0, 1.3436085864842402e-05
1150.0, 0.0001414633348755072
1151.0, 0.00023664389242630224
1152.0, 0.00020933243532134335
1153.0, 0.0001340197296279782
1154.0, 0.00019248069153917315
1155.0, 0.00012628321064782095
1156.0, 0.0001127974180810442
1157.0, 0.00014815614805243477
1158.0, 0.00017910104086001029
1159.0, 0.00014524435483957877
1160.0, 0.00023068589826446493
1161.0, 0.000192819835301137
1162.0, 0.00014141878276424395
1163.0, 0.00016456271552794472
1164.0, 0.0002927326750118102
1165.0, 0.00022877593781714693
1166.0, 9.153075506814825e-05
1167.0, 0.00016635014323422624
1168.0, 0.00025132231717865254
1169.0, 0.00012726182843438114
1170.0, 2.8605840429400018e-05
1171.0, 0.00016384264932092156
1172.0, 0.00014935405964924603
1173.0, 9.487904070905995e-05
1174.0, 0.00010902958993652287
1175.0, 8.758669755435309e-05
1176.0, 0.00010603668328205744
1177.0, 0.00021620973076706928
1178.0, 0.0002493854089016239
1179.0, 0.00015176044766765918
1180.0, 8.770941753406635e-05
1181.0, 0.0002317976156277653
1182.0, 0.00013005970700232398
1183.0, 0.00011771744211781616
1184.0, 0.00021149064583304934
1185.0, 8.664272351881004e-05
1186.0, 0.00015079722866069377
1187.0, 0.00014823895364099023
1188.0, 0.00014998944664380197
1189.0, 0.00019081179896984453
1190.0, 0.0002722054475124216
1191.0, 0.0002935546292835453
1192.0, 0.00015543573415184396
1193.0, 7.020383216307595e-05
1194.0, 6.149109601372231e-05
1195.0, 8.784431023232107e-05
1196.0, 0.00015195603144279975
1197.0, 0.0001786041323349059
1198.0, 0.00018163095198098198
1199.0, 0.00015434185392771985
1200.0, 0.00011415002208730251
1201.0, 0.00015897442856394045
1202.0, 0.0001819666063455708
1203.0, 0.00021812936063315988
1204.0, 0.00023588428232666054
1205.0, 0.00020977599394626832
1206.0, 0.0001339473254372853
1207.0, 0.0001961118350082787
1208.0, 0.00016418134475260882
1209.0, 0.00014367396639748382
1210.0, 0.0001768547814598807
1211.0, 0.00023917144213346633
1212.0, 0.0002585781987759435
1213.0, 0.00024488646391555255
1214.0, 0.00012802723132761848
1215.0, 6.613610368849493e-05
1216.0, 0.0002330393251389451
1217.0, 0.0002114063271097341
1218.0, 0.0001897885159706337
1219.0, 0.00024952967880332563
1220.0, 0.0002797686611675809
1221.0, 0.0002007731076617633
1222.0, 0.0001576788020638826
1223.0, 0.00015446261051164516
1224.0, 9.981789560071365e-05
1225.0, 0.00011369535672137348
1226.0, 0.00020674849368287613
1227.0, 0.00020649095799205212
1228.0, 0.0001848190229892693
1229.0, 0.00011391269982159713
1230.0, 9.82850027875511e-05
1231.0, 0.00014276294381596424
1232.0, 0.00017890131528529492
1233.0, 0.00017860061329863129
1234.0, 0.00022748289338571078
1235.0, 0.0002511888446873489
1236.0, 0.00024334980163958947
1237.0, 0.00021551469838508033
1238.0, 0.000149457037567225
1239.0, 0.00014276543267168507
1240.0, 0.00011334331654771794
1241.0, 8.987357781787779e-05
1242.0, 7.843586722128856e-05
1243.0, 1.6605752945748727e-05
1244.0, 0.00022228186396734808
1245.0, 0.0002752364094798091
1246.0, 0.0003081959910017375
1247.0, 0.00029846359753631254
1248.0, 0.00011619818160413325
1249.0, 0.0001349302389858945
1250.0, 0.0001734210858049424
1251.0, 0.00028023687508185946
1252.0, 0.00035173377925637684
1253.0, 0.0002837845545011654
1254.0, 0.000197251061837604
1255.0, 0.000110634254957559
1256.0, 9.147305007073011e-05
1257.0, 0.00011171864614378328
1258.0, 0.0001436200846062451
1259.0, 0.00018529511499342131
1260.0, 0.00016399441222063132
1261.0, 0.00024022222323098595
1262.0, 0.0002673660856085066
1263.0, 0.00024216711890228263
1264.0, 0.00025506232660588016
1265.0, 0.0002155421581828806
1266.0, 0.00022729964033998195
1267.0, 0.00020836769404285841
1268.0, 0.00017310840189915127
1269.0, 0.00015104121960316194
1270.0, 0.00012915155971486686
1271.0, 0.0001686957565825916
1272.0, 0.00018104657908180177
1273.0, 0.00018149972164327783
1274.0, 0.00019897222646519328
1275.0, 0.00026035136169445393
1276.0, 0.0002169896205686859
1277.0, 0.00024193611155582745
1278.0, 0.0002348032044505026
1279.0, 0.00019104636759689991
1280.0, 0.00017081525863178574
1281.0, 0.00032138345479572675
1282.0, 0.00018213630807790241
1283.0, 0.0002816788464491738
1284.0, 0.0003455547666659917
1285.0, 0.00019791813100929336
1286.0, 6.481005587124394e-05
1287.0, 0.0001313093713871758
1288.0, 0.00017987036662501135
1289.0, 0.00022264689602575504
1290.0, 0.0001903389697499525
1291.0, 1.6834132040474317e-05
1292.0, 5.9804509107394465e-05
1293.0, 6.493851586514351e-05
1294.0, 0.00010556510464651541
1295.0, 0.0001483462908891273
1296.0, 0.00015495754087695051
1297.0, 0.00013204433377026956
1298.0, 0.0001517148568834878
1299.0, 0.00015654532443721102
1300.0, 0.00015594212353955045
1301.0, 0.00017477015183820096
1302.0, 0.00022602068853190904
1303.0, 0.0001170777215994516
1304.0, 0.00015574916174699473
1305.0, 0.0002200489205748969
1306.0, 0.00026676429586173405
1307.0, 0.00026783538554847445
1308.0, 0.0001805251007797071
1309.0, 0.00019730121411356332
1310.0, 0.00012225741723596316
1311.0, 0.00010272021841077303
1312.0, 0.00017342976851192067
1313.0, 0.00024847915887124956
1314.0, 0.0001824553883757882
1315.0, 0.0001535847526908713
1316.0, 0.00021305135454445566
1317.0, 0.00027583912293841775
1318.0, 0.00026162324658200845
1319.0, 0.0001958163741499478
1320.0, 6.717565104069753e-05
1321.0, 8.160388373573231e-05
1322.0, 0.00014604921710095154
1323.0, 0.00020388474352012835
1324.0, 0.00024255642888097533
1325.0, 0.00023702099473947412
1326.0, 0.0002639881971762696
1327.0, 0.00028374162183985674
1328.0, 0.000291523313448394
1329.0, 0.0002920101277466579
1330.0, 0.0002909898712578322
1331.0, 0.0003018946864176696
1332.0, 0.0002616641693214559
1333.0, 0.0002828558221317141
1334.0, 0.00034075737279783586
1335.0, 0.00034906389310389497
1336.0, 0.00043521056841129313
1337.0, 0.0003285903273951538
1338.0, 0.000269975218248139
1339.0, 0.0002278417139956375
1340.0, 0.00015666442596120312
1341.0, 7.24735106614935e-05
1342.0, 0.00026718413089821605
1343.0, 0.0002199790360574027
1344.0, 0.00013547230034912356
1345.0, 0.000170818985708378
1346.0, 0.0003233489052949741
1347.0, 8.604415603387963e-05
1348.0, 0.00014493934308654118
1349.0, 0.00024559783757190887
1350.0, 0.0002148600722001696
1351.0, 8.73835732389902e-05
1352.0, 8.40445507055979e-05
1353.0, 3.9826004121595705e-05
1354.0, 0.00012328396636270686
1355.0, 0.00020410580343996148
1356.0, 0.00023339423683087858
1357.0, 0.00019480750263157077
1358.0, 8.495427002104953e-05
1359.0, 0.00016608474397900906
1360.0, 0.00023571273893795527
1361.0, 0.00024026561531068186
1362.0, 0.00022382527709965285
1363.0, 0.0002528200585454371
1364.0, 0.00016330012250620625
1365.0, 0.00021185523884418976
1366.0, 0.00018705727929390682
1367.0, 0.0001308430316568981
1368.0, 0.00010272932581597926
1369.0, 0.00012768064782434335
1370.0, 0.0002574376917107911
1371.0, 0.0002761676296907768
1372.0, 0.0002735302335872347
1373.0, 0.0002816215874343697
1374.0, 0.0002837049512560717
1375.0, 0.00019542016783325475
1376.0, 8.578373395054421e-05
1377.0, 5.782795110856518e-05
1378.0, 0.00013927495004262865
1379.0, 0.0002125876041871762
1380.0, 0.00012198566472083166
1381.0, 1.1904408045372827e-05
1382.0, 0.00019675649160852664
1383.0, 0.0001585707967612688
1384.0, 9.809484442538217e-05
1385.0, 0.00015210044846205087
1386.0, 0.0002254449232547167
1387.0, 5.913795733813207e-05
1388.0, 0.00020643322484355592
1389.0, 0.00032330585484524117
1390.0, 0.00032332016716461016
1391.0, 0.0002478338075197901
1392.0, 0.0002243684639622906
1393.0, 0.00022233827591806228
1394.0, 0.0002555163784956437
1395.0, 0.00032346309092169136
1396.0, 0.00030848288557511997
1397.0, 0.00015597166743953433
1398.0, 0.00026450708223531267
1399.0, 0.00025033205671787104
1400.0, 0.00019602644030045096
1401.0, 0.00018606127135641692
1402.0, 0.0002224593297337483
1403.0, 0.00023948740515020224
1404.0, 0.00021690003518904323
1405.0, 0.00015557269930612934
1406.0, 0.00013350254110067338
1407.0, 0.00014295739053898186
1408.0, 0.00016970679157122306
1409.0, 0.00020554454798471413
1410.0, 9.52743260500547e-05
1411.0, 0.00013185582597672352
1412.0, 0.00022120013755303673
1413.0, 0.0002534172673926502
1414.0, 0.00016823791543916147
1415.0, 1.3772343284969783e-05
1416.0, 1.412282472139308e-05
1417.0, 4.7129141996267353e-05
1418.0, 4.8152649591263025e-05
1419.0, 6.57177551943795e-05
1420.0, 0.00012315857288221945
1421.0, 1.277514442812972e-05
1422.0, 2.8949421502748324e-05
1423.0, 0.00013286979341553434
1424.0, 0.00023960119154873291
1425.0, 0.0002369620815771121
1426.0, 9.567857551658079e-05
1427.0, 0.0001826542317149963
1428.0, 8.679069030998664e-05
1429.0, 5.497359073641052e-05
1430.0, 5.3582862568431845e-05
1431.0, 8.605555365137522e-05
1432.0, 0.0001937167867601924
1433.0, 0.0002807645620765317
1434.0, 9.298586535750853e-05
1435.0, 0.00014456891889387354
1436.0, 0.00015012469264639793
1437.0, 7.675284234109877e-05
1438.0, 0.00025503834692641394
1439.0, 0.00018833571249231363
1440.0, 0.00015956283231336564
1441.0, 0.0002092457246636844
1442.0, 0.00020336270615122905
1443.0, 0.00013172308393449763
1444.0, 0.00018875399405360874
1445.0, 7.781004063572573e-05
1446.0, 0.00028109974190773304
1447.0, 0.00023591484448988147
1448.0, 0.0001671707428289704
1449.0, 0.0002480143496361201
1450.0, 0.0001602057202122333
1451.0, 0.00011531847668146498
1452.0, 0.0001246381317348271
1453.0, 0.0001728923353767238
1454.0, 0.0002043608988109835
1455.0, 0.0001991804838292981
1456.0, 0.00023561410992405002
1457.0, 0.00023455742150351206
1458.0, 0.0002511825645959427
1459.0, 0.0002715857650499497
1460.0, 0.00023054682664640062
1461.0, 0.00010613747721454952
1462.0, 1.7191641490841145e-05
1463.0, 0.00014256846774199526
1464.0, 0.00022066384446131417
1465.0, 0.0001561522251898338
1466.0, 6.078111761688121e-05
1467.0, 7.635355541666662e-05
1468.0, 0.0001636469418762486
1469.0, 0.0002510118493119124
1470.0, 0.00021756001595953068
1471.0, 0.00024026103758792298
1472.0, 0.00024381124892837273
1473.0, 0.0001382427600324253
1474.0, 0.00015925280784061173
1475.0, 0.00035316505709637094
1476.0, 0.0003271790095523156
1477.0, 0.00019760124311686268
1478.0, 0.00013792429890860193
1479.0, 0.0002309084807349266
1480.0, 0.00027250925817026163
1481.0, 0.00016464376100053078
1482.0, 0.00017319206971684774
1483.0, 0.00024126330117054672
1484.0, 0.00021603237376472786
1485.0, 6.3473378994866e-05
1486.0, 0.00017174769830408852
1487.0, 0.00019337488617203003
1488.0, 0.0002827464795602316
1489.0, 0.00022489499389916623
1490.0, 0.00018182835961106115
1491.0, 0.00028408879839604236
1492.0, 6.144393127303888e-05
1493.0, 0.00023092948330346772
1494.0, 0.00016278541919914115
1495.0, 9.378796651413491e-05
1496.0, 6.154845181207705e-05
1497.0, 4.5685491384874414e-05
1498.0, 0.00015464705791018988
1499.0, 0.0002857132643943587
1500.0, 0.00011033016270784726
1501.0, 0.00018457666170984148
1502.0, 0.0003047681091266834
1503.0, 0.0002018467077261717
1504.0, 0.00022164716186306893
1505.0, 0.000175545043242897
1506.0, 0.00014740764767607928
1507.0, 0.000191591016273466
1508.0, 0.00020402373294070884
1509.0, 0.00012869698702909355
1510.0, 0.00010966104138798796
1511.0, 0.00026244904257873047
1512.0, 0.00028723975935629763
1513.0, 0.00025788184483335557
1514.0, 0.00027059286447409577
1515.0, 0.0002926797097369366
1516.0, 0.00011842867748599372
1517.0, 2.6457545946334447e-05
1518.0, 0.00022044097338826417
1519.0, 0.00023939394094156456
1520.0, 0.00017644561858149777
1521.0, 0.00015869408210842148
1522.0, 0.00014893760365436776
1523.0, 3.650576764690965e-05
1524.0, 4.118580658903427e-05
1525.0, 0.00012265268617255446
1526.0, 0.000155524569933027
1527.0, 0.00012423782201633816
1528.0, 0.00013811664385127522
1529.0, 0.00024156546672339692
1530.0, 9.890394133068496e-05
1531.0, 7.488056692591451e-05
1532.0, 5.114018287807917e-05
1533.0, 1.798152978394751e-05
1534.0, 7.248715329763465e-05
1535.0, 0.00014731567504412473
1536.0, 3.147942032487336e-05
1537, 0.0
1538, 0.0
1539, 0.0
1540, 0.0
1541, 0.0
1542, 0.0
1543, 0.0
1544, 0.0
1545, 0.0
1546, 0.0
1547, 0.0
1548, 0.0
1549, 0.0
1550, 0.0
1551, 0.0
1552, 0.0
1553, 0.0
1554, 0.0
1555, 0.0
1556, 0.0
1557, 0.0
1558, 0.0
1559, 0.0
1560, 0.0
1561, 0.0
1562, 0.0
1563, 0.0
1564, 0.0
1565, 0.0
1566, 0.0
1567, 0.0
1568, 0.0
1569, 0.0
1570, 0.0
1571, 0.0
1572, 0.0
1573, 0.0
1574, 0.0
1575, 0.0
1576, 0.0
1577, 0.0
1578, 0.0
1579, 0.0
1580, 0.0
1581, 0.0
1582, 0.0
1583, 0.0
1584, 0.0
1585, 0.0
1586, 0.0
1587, 0.0
1588, 0.0
1589, 0.0
1590, 0.0
1591, 0.0
1592, 0.0
1593, 0.0
1594, 0.0
1595, 0.0
1596, 0.0
1597, 0.0
1598, 0.0
1599, 0.0
