30, 0.0
31, 0.0
32, 0.0
33, 0.0
34, 0.0
35, 0.0
36, 0.0
37, 0.0
38, 0.0
39, 0.0
40, 0.0
41, 0.0
42, 0.0
43, 0.0
44, 0.0
45, 0.0
46, 0.0
47, 0.0
48, 0.0
49, 0.0
50, 0.0
51, 0.0
52, 0.0
53, 0.0
54, 0.0
55, 0.0
56, 0.0
57, 0.0
58, 0.0
59, 0.0
60, 0.0
61, 0.0
62, 0.0
63, 0.0
64, 0.0
65, 0.0
66, 0.0
67, 0.0
68, 0.0
69, 0.0
70, 0.0
71, 0.0
72, 0.0
73, 0.0
74, 0.0
75, 0.0
76, 0.0
77, 0.0
78, 0.0
79, 0.0
80, 0.0
81, 0.0
82, 0.0
83, 0.0
84, 0.0
85, 0.0
86, 0.0
87, 0.0
88, 0.0
89, 0.0
90, 0.0
91, 0.0
92, 0.0
93, 0.0
94, 0.0
95, 0.0
96, 0.0
97, 0.0
98, 0.0
99, 0.0
100, 0.0
101, 0.0
102, 0.0
103, 0.0
104, 0.0
105, 0.0
106, 0.0
107, 0.0
108, 0.0
109, 0.0
110, 0.0
111, 0.0
112, 0.0
113, 0.0
114, 0.0
115, 0.0
116, 0.0
117, 0.0
118, 0.0
119, 0.0
120, 0.0
121, 0.0
122, 0.0
123, 0.0
124, 0.0
125, 0.0
126, 0.0
127, 0.0
128, 0.0
129, 0.0
130, 0.0
131, 0.0
132, 0.0
133, 0.0
134, 0.0
135, 0.0
136, 0.0
137, 0.0
138, 0.0
139, 0.0
140, 0.0
141, 0.0
142, 0.0
143, 0.0
144, 0.0
145, 0.0
146, 0.0
147.0, 0.00018324742547153608
148.0, 0.000853616370580268
149.0, 0.002657688479060273
150.0, 0.009565140307767193
151.0, 0.009790608628502777
152.0, 0.011933361200692584
153.0, 0.019022459917447197
154.0, 0.029780677949863252
155.0, 0.03336697493745524
156.0, 0.03461205565636909
157.0, 0.03933060723173141
158.0, 0.04528472808978824
159.0, 0.05261750000277297
160.0, 0.06801617975362276
161.0, 0.07070413865717493
162.0, 0.0839744591376488
163.0, 0.09918021678368887
164.0, 0.10975436496167204
165.0, 0.11303371388375281
166.0, 0.11844852314821445
167.0, 0.12454959743700611
168.0, 0.12286128082414242
169.0, 0.11968660280583096
170.0, 0.12286232276530398
171.0, 0.11998631127896456
172.0, 0.11671181358064169
173.0, 0.11037258691916897
174.0, 0.10542044544964711
175.0, 0.10126526560163535
176.0, 0.08610284364496486
177.0, 0.07839029914894609
178.0, 0.06633137895271482
179.0, 0.05985007576075959
180.0, 0.05612438769009068
181.0, 0.043472084017130964
182.0, 0.03340688510056096
183.0, 0.022292207803573903
184.0, 0.01661430738802821
185.0, 0.016984258061670136
186.0, 0.020644171535260932
187.0, 0.02077149245345575
188.0, 0.009322033895079188
189.0, 0.011209317364137272
190.0, 0.015607498024939149
191.0, 0.016482241291825822
192.0, 0.019835974244717506
193.0, 0.023552895510166684
194.0, 0.028242681301920227
195.0, 0.03343373669206005
196.0, 0.037598318807494105
197.0, 0.0403596313275181
198.0, 0.051869290612496795
199.0, 0.0518285881962317
200.0, 0.06318721269564315
201.0, 0.07611897895109875
202.0, 0.08145352407336287
203.0, 0.08487010678913083
204.0, 0.09067421229605566
205.0, 0.08708279247023569
206.0, 0.09373408539975757
207.0, 0.10502839016526463
208.0, 0.09964834488157479
209.0, 0.10080794417844005
210.0, 0.11290367106401862
211.0, 0.11620338574222379
212.0, 0.11441711965111237
213.0, 0.11553432068582656
214.0, 0.12103913556390664
215.0, 0.1308039922448246
216.0, 0.13881005433728444
217.0, 0.14596489399329252
218.0, 0.15319700792705995
219.0, 0.1608939336846749
220.0, 0.1679913380590119
221.0, 0.17675265454751882
222.0, 0.18626665854996427
223.0, 0.19649743797930938
224.0, 0.20716153433179435
225.0, 0.2165213304169611
226.0, 0.22628387713802275
227.0, 0.23834024939531184
228.0, 0.24871416643171312
229.0, 0.25699788328114614
230.0, 0.26628818645529256
231.0, 0.27364990806307476
232.0, 0.2797200071563304
233.0, 0.2862725865370179
234.0, 0.2933919183567543
235.0, 0.29986809767884953
236.0, 0.3024812487258307
237.0, 0.30013285078929164
238.0, 0.3053464084017181
239.0, 0.3092140136168064
240.0, 0.3071005106346133
241.0, 0.3000104925107828
242.0, 0.2897181568144938
243.0, 0.28044838054417176
244.0, 0.26900982037097193
245.0, 0.2552483232651632
246.0, 0.24028869923148174
247.0, 0.22601611156449328
248.0, 0.20961674341211778
249.0, 0.1936962197911144
250.0, 0.1786496245812318
251.0, 0.16400014505003144
252.0, 0.1490624843650876
253.0, 0.13565595790433863
254.0, 0.1216794351857131
255.0, 0.10863749340594553
256.0, 0.09674528440744792
257.0, 0.0886897779333191
258.0, 0.0910931593601331
259.0, 0.0896371062865824
260.0, 0.08386045908888412
261.0, 0.07144943816144061
262.0, 0.058478700594442004
263.0, 0.0521093037379983
264.0, 0.04674097635930809
265.0, 0.04441503144509173
266.0, 0.04143569969183281
267.0, 0.03999702191271018
268.0, 0.03968430246638186
269.0, 0.03714114344469437
270.0, 0.03723880013367482
271.0, 0.038053580119130175
272.0, 0.033716390339592325
273.0, 0.03146783837135312
274.0, 0.03525079900338842
275.0, 0.03224785967525438
276.0, 0.0248345247457926
277.0, 0.017987628745805877
278.0, 0.015436962295119577
279.0, 0.01742767679068238
280.0, 0.02054541533228338
281.0, 0.01459562036081873
282.0, 0.014304483164767371
283.0, 0.00975564404044318
284.0, 0.006474450949088017
285.0, 0.007060593754966454
286.0, 0.007639108323592321
287.0, 0.004218199158208098
288.0, 0.006916889373506364
289.0, 0.004126333279519368
290.0, 0.0008512887708833103
291.0, 0.0026901156145235027
292.0, 0.004158257835394618
293.0, 0.001531362488057083
294.0, 0.0017038911452522483
295.0, 0.0020842117061271852
296.0, 0.0029305203158950877
297.0, 0.005651813422003318
298.0, 0.008434843905625647
299.0, 0.004213265252178854
300.0, 0.002723688308914523
301.0, 0.0016586521654504936
302.0, 0.00032181789323806675
303.0, 0.0007223471314271951
304.0, 0.0016389886890596085
305.0, 0.0017370599088186336
306.0, 0.002312543654478202
307.0, 0.00422271571551117
308.0, 0.006336471579813958
309.0, 0.004882670170995406
310.0, 0.0029832570973523636
311.0, 0.004406347537654517
312.0, 0.005173871782331617
313.0, 0.004056266182999459
314.0, 0.0020768739928380855
315.0, 0.002775525851680461
316.0, 0.001830736687167974
317.0, 0.006031521164114929
318.0, 0.006609165997230851
319.0, 0.003574308782015116
320.0, 0.0018010539758615382
321.0, 0.0007711677813642697
322.0, 0.0033834070227686313
323.0, 0.003064136892552111
324.0, 0.005886219744609292
325.0, 0.009549555344407852
326.0, 0.0060089198162265895
327.0, 0.008072781897955864
328.0, 0.01606125525342485
329.0, 0.017187794916888023
330.0, 0.018806406422910572
331.0, 0.0247413944415219
332.0, 0.02963349061673837
333.0, 0.029361753351460546
334.0, 0.036000105350300154
335.0, 0.045417794588691586
336.0, 0.04919597941444999
337.0, 0.04873521596146536
338.0, 0.061765654641183214
339.0, 0.0633013151346051
340.0, 0.06995343331116323
341.0, 0.077669932703017
342.0, 0.0839421380844174
343.0, 0.0886616999176221
344.0, 0.09530374739279553
345.0, 0.10238877552340327
346.0, 0.1059010747790776
347.0, 0.1096350230074544
348.0, 0.11366438929621114
349.0, 0.11777121254726339
350.0, 0.1262600882036603
351.0, 0.12505139095271958
352.0, 0.12908575817260565
353.0, 0.13164451101247612
354.0, 0.13340728263610233
355.0, 0.13735697656329696
356.0, 0.13718440036748158
357.0, 0.1345817296567491
358.0, 0.13853199336784944
359.0, 0.14304753010056462
360.0, 0.1427039871655789
361.0, 0.13676123534560847
362.0, 0.13729226229986663
363.0, 0.12842708718732385
364.0, 0.12365544834897499
365.0, 0.11820698188985458
366.0, 0.11271417596263635
367.0, 0.11073653209583573
368.0, 0.10391015086064934
369.0, 0.10424028432065477
370.0, 0.10447201704741929
371.0, 0.10084079664808279
372.0, 0.0961122038039858
373.0, 0.09597409716158016
374.0, 0.09518084157326512
375.0, 0.09328012540269698
376.0, 0.0891677910946108
377.0, 0.09348902207824406
378.0, 0.09924726160481726
379.0, 0.09154073585251445
380.0, 0.10033637354806335
381.0, 0.10427255372699325
382.0, 0.10322072795227111
383.0, 0.10698123024939149
384.0, 0.11370095591289138
385.0, 0.11255718585189171
386.0, 0.10507202772247033
387.0, 0.10473051465990846
388.0, 0.10614951527867154
389.0, 0.10216837372403939
390.0, 0.09688132016354001
391.0, 0.09929089753651589
392.0, 0.09432358365168722
393.0, 0.08903751515270814
394.0, 0.08140431805977892
395.0, 0.07834716304426324
396.0, 0.07732743985203167
397.0, 0.07083185824195058
398.0, 0.0667018130805779
399.0, 0.0628838990335489
400.0, 0.06138065292437441
401.0, 0.057783438752635696
402.0, 0.05321588425533346
403.0, 0.05133737315310032
404.0, 0.048025994483654084
405.0, 0.048516091882886525
406.0, 0.047620289014351995
407.0, 0.045202966747869784
408.0, 0.0422686174948045
409.0, 0.03945907715710099
410.0, 0.03473181528841894
411.0, 0.03555761881754895
412.0, 0.038981388909784365
413.0, 0.038006790474518735
414.0, 0.0363839612160407
415.0, 0.038863133542702134
416.0, 0.03701593906270574
417.0, 0.04312503640562251
418.0, 0.0399450948493771
419.0, 0.03954119642174665
420.0, 0.04088731837469508
421.0, 0.03972571054841074
422.0, 0.03855855807418362
423.0, 0.03791636040772576
424.0, 0.035613555852158
425.0, 0.03510028268879951
426.0, 0.03260555734144672
427.0, 0.02728159446670287
428.0, 0.025974689829626495
429.0, 0.019664353400711116
430.0, 0.02014552835613943
431.0, 0.01805002424517955
432.0, 0.014890365829240335
433.0, 0.01242038312511512
434.0, 0.009281895231028816
435.0, 0.005715442440321232
436.0, 0.006215745650719329
437.0, 0.0058975038813814775
438.0, 0.00513534896296676
439.0, 0.0036103129211513467
440.0, 0.0007010507757816026
441.0, 0.0012529510248238491
442.0, 0.0030895395963374908
443.0, 0.00574390456497176
444.0, 0.005058754319075797
445.0, 0.0029285067950125
446.0, 0.004018259797712798
447.0, 0.00813107180282699
448.0, 0.002915511218125918
449.0, 0.003792980800035535
450.0, 0.00548119662726622
451.0, 0.004351193161826193
452.0, 0.0013619597268808776
453.0, 0.0033086385833318546
454.0, 0.007015488684691107
455.0, 0.009563404157250526
456.0, 0.012364999278494231
457.0, 0.015287943309418859
458.0, 0.01838979247422845
459.0, 0.022798102770273478
460.0, 0.03168284620478189
461.0, 0.03034357600269248
462.0, 0.03564718462983612
463.0, 0.044974535937309726
464.0, 0.04965212812425001
465.0, 0.04504090451518977
466.0, 0.050350717181503385
467.0, 0.06345750959487921
468.0, 0.06406011092917441
469.0, 0.06374859558148681
470.0, 0.06589097136243542
471.0, 0.06771219420352133
472.0, 0.06689380489095678
473.0, 0.0680090580498119
474.0, 0.07033385875480402
475.0, 0.06994040627468097
476.0, 0.06710263643033725
477.0, 0.0658189045990787
478.0, 0.07021741710397475
479.0, 0.06270847153928383
480.0, 0.06413905802514727
481.0, 0.0658216637296552
482.0, 0.06408715817527888
483.0, 0.062753730486561
484.0, 0.06565102206361079
485.0, 0.057957536223161354
486.0, 0.05713617000201041
487.0, 0.05962339932568193
488.0, 0.060041420442864105
489.0, 0.05784441566331458
490.0, 0.053854304018871396
491.0, 0.04755405521948792
492.0, 0.05053683307477086
493.0, 0.044179170048528726
494.0, 0.037289648241125226
495.0, 0.03222058416283968
496.0, 0.030688755900295947
497.0, 0.033026046675086115
498.0, 0.029510314494835856
499.0, 0.02524566513151196
500.0, 0.02170889293090023
501.0, 0.0164846433355776
502.0, 0.012380868557735724
503.0, 0.010772337738131308
504.0, 0.0043588192804280695
505.0, 0.003023869918831487
506.0, 0.006286999140256382
507.0, 0.00799377657123872
508.0, 0.0066520750742198875
509.0, 0.0035649145968671917
510.0, 0.0014967848719858708
511.0, 0.0029054953094404695
512.0, 0.004054994945033866
513.0, 0.006950718090353276
514.0, 0.007471594855785693
515.0, 0.007512470388098983
516.0, 0.010019711138981306
517.0, 0.011979835361533322
518.0, 0.0050090252319227105
519.0, 0.01004197797555592
520.0, 0.009928631616001547
521.0, 0.011211068009632811
522.0, 0.015980379540928596
523.0, 0.0173751478807588
524.0, 0.017459170525107433
525.0, 0.012900868222905594
526.0, 0.008707116571022761
527.0, 0.01141426363072447
528.0, 0.013473023544378394
529.0, 0.009577540616085334
530.0, 0.00964838321304854
531.0, 0.009725895171894176
532.0, 0.004663981304476459
533.0, 0.002270249497638747
534.0, 0.0020843692471469817
535.0, 0.004212521292194378
536.0, 0.008906701906302928
537.0, 0.011530711811097626
538.0, 0.011062074381619854
539.0, 0.017676564270762002
540.0, 0.025113422027197088
541.0, 0.03413271458342988
542.0, 0.04346878339766273
543.0, 0.04854667062396006
544.0, 0.061945073433753245
545.0, 0.0768602314324691
546.0, 0.09104350908315584
547.0, 0.10989181292339022
548.0, 0.13259041794043333
549.0, 0.15417228524318002
550.0, 0.17084013372585413
551.0, 0.18944904070197785
552.0, 0.2129784371396848
553.0, 0.23994092535885964
554.0, 0.2655119085152726
555.0, 0.28916514597959825
556.0, 0.31185540623787616
557.0, 0.3259869723214353
558.0, 0.3455123094060361
559.0, 0.3537291632215731
560.0, 0.3615384126510768
561.0, 0.36576113201732696
562.0, 0.36024557520530553
563.0, 0.34603686566254277
564.0, 0.34494118840045374
565.0, 0.32479852815180543
566.0, 0.3052740646541202
567.0, 0.2865779795013246
568.0, 0.2680763410398563
569.0, 0.24945647600432738
570.0, 0.2304915648928545
571.0, 0.20934320364498815
572.0, 0.19196652735345274
573.0, 0.1791693881217389
574.0, 0.16584399979279657
575.0, 0.1523763916335981
576.0, 0.14187138681691627
577.0, 0.13422396419663357
578.0, 0.12543123367035847
579.0, 0.11895782020209698
580.0, 0.11020928193703142
581.0, 0.10200243327205392
582.0, 0.09564339158323129
583.0, 0.09087939774807238
584.0, 0.08954755927799143
585.0, 0.09147540547802843
586.0, 0.08802199559862327
587.0, 0.08764622978265846
588.0, 0.09103398655881889
589.0, 0.09412708640610645
590.0, 0.09252700515897376
591.0, 0.087832634248933
592.0, 0.08951074020891758
593.0, 0.08948638768350413
594.0, 0.09189845362502487
595.0, 0.09448479884891296
596.0, 0.09444903238899056
597.0, 0.09206907888464191
598.0, 0.09212718502608253
599.0, 0.08846715095753513
600.0, 0.08722483003371424
601.0, 0.08448446680861228
602.0, 0.08202015432406681
603.0, 0.08051022211902906
604.0, 0.0790538342239879
605.0, 0.0855394727492426
606.0, 0.07827621909863841
607.0, 0.08028745712551288
608.0, 0.07978464375160624
609.0, 0.0796343791077024
610.0, 0.08250845153966643
611.0, 0.08431252273110747
612.0, 0.08537703565884344
613.0, 0.09331940903767796
614.0, 0.09536898651378896
615.0, 0.09825184409683176
616.0, 0.10163136892803615
617.0, 0.10572587398296857
618.0, 0.11228598193074314
619.0, 0.11060892901929238
620.0, 0.1153849536758456
621.0, 0.11605770528261539
622.0, 0.12303521834919885
623.0, 0.13059020372795083
624.0, 0.13365601948650335
625.0, 0.13580881376575943
626.0, 0.14026392652727818
627.0, 0.14887361106554636
628.0, 0.15598651914115902
629.0, 0.1640423231531289
630.0, 0.1717415726426171
631.0, 0.177421479958021
632.0, 0.184340753321632
633.0, 0.20800945096059897
634.0, 0.21167937764708067
635.0, 0.22861322365089612
636.0, 0.2418162685952341
637.0, 0.25672783755305173
638.0, 0.27501866998435565
639.0, 0.2929031314993512
640.0, 0.3223952119051059
641.0, 0.34792875189088296
642.0, 0.36696516680623215
643.0, 0.39165330280424293
644.0, 0.42879234894023066
645.0, 0.47110256292925984
646.0, 0.5089886393437633
647.0, 0.5520625257666553
648.0, 0.5945343847556371
649.0, 0.6426357071781789
650.0, 0.6882129215876966
651.0, 0.7300400335000325
652.0, 0.7668743666811989
653.0, 0.7949029345890665
654.0, 0.8090001480985292
655.0, 0.818933039340442
656.0, 0.8213935365601388
657.0, 0.805548989148025
658.0, 0.7766132892512517
659.0, 0.7466905075961624
660.0, 0.7140939303646563
661.0, 0.6617424862785726
662.0, 0.625171245759968
663.0, 0.5810249916984872
664.0, 0.5548271635453008
665.0, 0.52491345216835
666.0, 0.5038256776870031
667.0, 0.49400697675518485
668.0, 0.4790661842809014
669.0, 0.48717128907652585
670.0, 0.4801596039891301
671.0, 0.4750948894445329
672.0, 0.47482329588859057
673.0, 0.4842336383591391
674.0, 0.49862498655588616
675.0, 0.5109160448178488
676.0, 0.5293221740136396
677.0, 0.5490929498689496
678.0, 0.5726710166756425
679.0, 0.5913667213553759
680.0, 0.6049265788925001
681.0, 0.6168506578098217
682.0, 0.63231186014792
683.0, 0.6557473407328507
684.0, 0.6857858404741898
685.0, 0.699599116257501
686.0, 0.7206036876794701
687.0, 0.7373503798588936
688.0, 0.7535099495052688
689.0, 0.7738359777162603
690.0, 0.795476824681702
691.0, 0.815949488894591
692.0, 0.8288079098906058
693.0, 0.8405435752451275
694.0, 0.8549564096651947
695.0, 0.8755092575518174
696.0, 0.8933649076169736
697.0, 0.9014063642991081
698.0, 0.9131916580031281
699.0, 0.935053645350453
700.0, 0.9404457388735123
701.0, 0.9438792697779225
702.0, 0.9485596127634421
703.0, 0.9543736825912073
704.0, 0.9623834128720344
705.0, 0.9753070095544405
706.0, 0.9916064631902839
707.0, 0.9808327416816168
708.0, 0.9944965450856476
709.0, 0.994002765404641
710.0, 0.986411550889764
711.0, 0.9832302718926303
712.0, 0.9822731262908203
713.0, 0.9705323992830182
714.0, 0.9579282035168242
715.0, 0.9595197599500365
716.0, 0.9414964608488666
717.0, 0.9262293572222281
718.0, 0.9160558546319629
719.0, 0.9008962520944365
720.0, 0.8765133439437298
721.0, 0.8579066172749461
722.0, 0.8401138554652098
723.0, 0.8221714700277704
724.0, 0.7988961022835511
725.0, 0.7682322239792754
726.0, 0.7409831367081031
727.0, 0.7215321076196959
728.0, 0.6952898082682417
729.0, 0.670832474224412
730.0, 0.6496437122510401
731.0, 0.6227350231321164
732.0, 0.5957918018960573
733.0, 0.5711812400726618
734.0, 0.5458314095154425
735.0, 0.5191333153891352
736.0, 0.5018978086009246
737.0, 0.48504947749738025
738.0, 0.47099097037188575
739.0, 0.4501003810636169
740.0, 0.4323354784715806
741.0, 0.4140093241043792
742.0, 0.3942694088973374
743.0, 0.3810975313329577
744.0, 0.3721668302832575
745.0, 0.35906564986309486
746.0, 0.35158529798942184
747.0, 0.34630650403422664
748.0, 0.3387594464855228
749.0, 0.32776320665517017
750.0, 0.3180313350229282
751.0, 0.3152878694358331
752.0, 0.30856772243944236
753.0, 0.29290955736596097
754.0, 0.29431852693997557
755.0, 0.2918280364465208
756.0, 0.2854785069110081
757.0, 0.27876509355086593
758.0, 0.27218688501182886
759.0, 0.2646715462495709
760.0, 0.25935784467457573
761.0, 0.24882855705329573
762.0, 0.2405757360662292
763.0, 0.23278670885495778
764.0, 0.22893049166917329
765.0, 0.22567175070205198
766.0, 0.21973271269288852
767.0, 0.21826871061882958
768.0, 0.2126830389918461
769.0, 0.2001035316979158
770.0, 0.19649779263115127
771.0, 0.1896832023482138
772.0, 0.18301403851678513
773.0, 0.17796434119188168
774.0, 0.17153697269542745
775.0, 0.16613623537868405
776.0, 0.1696086222243369
777.0, 0.15786654494030555
778.0, 0.16601056897369582
779.0, 0.16151708428338551
780.0, 0.15437184363736675
781.0, 0.15402484247195591
782.0, 0.15226187287299545
783.0, 0.14161435350397716
784.0, 0.14662889717638938
785.0, 0.14085517505674766
786.0, 0.13771082000727394
787.0, 0.13328313312988985
788.0, 0.12775494720065445
789.0, 0.12347388874571118
790.0, 0.12125062641995066
791.0, 0.1188024883872018
792.0, 0.11623529992059521
793.0, 0.11716721307662173
794.0, 0.11594398247982499
795.0, 0.1150148597867262
796.0, 0.11106430237179607
797.0, 0.10477984591809505
798.0, 0.09950324198494033
799.0, 0.09382129604448453
800.0, 0.08240476067394463
801.0, 0.08357705494670561
802.0, 0.07857617802218977
803.0, 0.07776235508728475
804.0, 0.07548005471372699
805.0, 0.07088553835538847
806.0, 0.06777543496704767
807.0, 0.0652660444825061
808.0, 0.05868506290317883
809.0, 0.05210916192806066
810.0, 0.051350380875376855
811.0, 0.04960562410727883
812.0, 0.04349471378053802
813.0, 0.03412900936274382
814.0, 0.028886064424021297
815.0, 0.03323736583468756
816.0, 0.030589689325826723
817.0, 0.027720137831347233
818.0, 0.027482562901385385
819.0, 0.028974829621098222
820.0, 0.028036815180782822
821.0, 0.025348955257644044
822.0, 0.022416945665000926
823.0, 0.02034527802193935
824.0, 0.022453021926276504
825.0, 0.015600490686934199
826.0, 0.015147830516145107
827.0, 0.011014478680450869
828.0, 0.009605012909977378
829.0, 0.011671978076942029
830.0, 0.012195463655685048
831.0, 0.010365730994031108
832.0, 0.013619898035133844
833.0, 0.008558146746344465
834.0, 0.013112689555518732
835.0, 0.011588220094159647
836.0, 0.007643649361946072
837.0, 0.006307600812641438
838.0, 0.008089616875348735
839.0, 0.009583874900498567
840.0, 0.007131501432618377
841.0, 0.0007742870944936614
842.0, 0.0036054645480296573
843.0, 0.0034695907671370117
844.0, 0.001342013626647829
845.0, 0.001934645878550952
846.0, 0.0019789027928720144
847.0, 0.002499145855438528
848.0, 0.005143300523480424
849.0, 0.0011317556560492608
850.0, 0.0005974110245945156
851.0, 9.836932515937903e-05
852.0, 0.005530079215883764
853.0, 0.00395758930077375
854.0, 0.005976151014645681
855.0, 0.007422305846222694
856.0, 0.003408507193373089
857.0, 0.0034141614326866953
858.0, 0.008231554950004218
859.0, 0.0010072438008108327
860.0, 0.0011968282793236452
861.0, 0.002774528849148602
862.0, 0.0019609091772606253
863.0, 0.0025275812110916985
864.0, 0.004681127574498249
865.0, 0.005996055626911499
866.0, 0.008747823464988808
867.0, 0.012878097139643408
868.0, 0.008149477397764617
869.0, 0.012991898365097315
870.0, 0.010646976933405626
871.0, 0.01408841097024653
872.0, 0.01781632521009056
873.0, 0.014937783508678337
874.0, 0.012037096087691468
875.0, 0.015391733090153698
876.0, 0.010279409003311087
877.0, 0.005732367556212474
878.0, 0.0022509421834113947
879.0, 0.0006489437620015213
880.0, 0.0010717735449485525
881.0, 0.002975573289627439
882.0, 0.004576414156655631
883.0, 0.004920639403898833
884.0, 0.008017931989477872
885.0, 0.011722413310558717
886.0, 0.012477758765795502
887.0, 0.015311529363782866
888.0, 0.020655176539340587
889.0, 0.02075542022033004
890.0, 0.027458293020442906
891.0, 0.040433338044385085
892.0, 0.03519292506573939
893.0, 0.0388350288479208
894.0, 0.051084458231591606
895.0, 0.05516431977353493
896.0, 0.060566893581225856
897.0, 0.0602268043343781
898.0, 0.064536610129416
899.0, 0.06967164435381715
900.0, 0.06724749205268174
901.0, 0.06836711663653633
902.0, 0.08438982777101489
903.0, 0.08153463652869122
904.0, 0.0955023022803947
905.0, 0.09714625135822505
906.0, 0.10184247822095055
907.0, 0.10881331517226317
908.0, 0.11777852430394317
909.0, 0.12488382905581444
910.0, 0.12080106279815854
911.0, 0.12974959143861184
912.0, 0.13110955913021038
913.0, 0.13926380780771289
914.0, 0.1379313902526864
915.0, 0.1399211088178246
916.0, 0.1440386776449935
917.0, 0.14627499338952824
918.0, 0.14786953798064206
919.0, 0.15026181909051012
920.0, 0.14505101811166105
921.0, 0.14492797525547624
922.0, 0.14263393518366596
923.0, 0.14353238089765524
924.0, 0.1395557411661103
925.0, 0.13761206664841283
926.0, 0.13592458662548207
927.0, 0.13209483603845404
928.0, 0.13243464979247782
929.0, 0.13433760163232886
930.0, 0.13100337216163857
931.0, 0.1289816302055236
932.0, 0.1255131286857214
933.0, 0.12240073304961895
934.0, 0.11932550123079774
935.0, 0.11556526441794436
936.0, 0.11124329354532773
937.0, 0.10702166185166155
938.0, 0.10274180792990756
939.0, 0.09695752241770336
940.0, 0.09295378071639052
941.0, 0.0882267072933127
942.0, 0.07861430107632499
943.0, 0.07114565998726884
944.0, 0.07215695570274795
945.0, 0.07468932391286116
946.0, 0.06656558740107256
947.0, 0.05280298885697009
948.0, 0.06211756677449319
949.0, 0.05238046329257298
950.0, 0.04386243574624222
951.0, 0.046619695107154725
952.0, 0.038630367000836385
953.0, 0.034441375993661066
954.0, 0.03785883054166963
955.0, 0.037444662892453844
956.0, 0.02816743226777514
957.0, 0.016132900236251017
958.0, 0.015641570068719076
959.0, 0.011464786511782956
960.0, 0.013490316862622156
961.0, 0.016609890481014414
962.0, 0.015407579319082324
963.0, 0.010402995568032869
964.0, 0.007083700141385852
965.0, 0.007907365472679919
966.0, 0.00848493546871802
967.0, 0.010590885530385999
968.0, 0.0059654347848798585
969.0, 0.003507190733939818
970.0, 0.003157124780088664
971.0, 0.003918499978088325
972.0, 0.0020857269802003124
973.0, 0.0007859549756141155
974.0, 0.0026899993514207157
975.0, 0.0050003932629576735
976.0, 0.006304897561651146
977.0, 0.0019171915750142697
978.0, 0.006401039905086039
979.0, 0.007201014513692842
980.0, 0.0027302788079811716
981.0, 0.001810976975461496
982.0, 0.004944438868718439
983.0, 0.008303430705331568
984.0, 0.007504530165439696
985.0, 0.0022662791274995937
986.0, 0.002662772430918701
987.0, 0.007151104334837884
988.0, 0.00473174208251962
989.0, 0.010642482326848147
990.0, 0.01339482500364212
991.0, 0.017526324103952957
992.0, 0.022229647904600486
993.0, 0.026866950585344437
994.0, 0.03212627011332388
995.0, 0.03870827938366755
996.0, 0.05440894775051921
997.0, 0.0650825461812083
998.0, 0.07308258589009062
999.0, 0.08003022404987796
1000.0, 0.08708578981937376
1001.0, 0.0959957259778273
1002.0, 0.10021695495979112
1003.0, 0.09828435692994927
1004.0, 0.09082719276719001
1005.0, 0.07471107176655296
1006.0, 0.062157245465294914
1007.0, 0.06224277973873221
1008.0, 0.06605879707348607
1009.0, 0.06093451342377723
1010.0, 0.05564589058461028
1011.0, 0.060906807184046986
1012.0, 0.06665754637714111
1013.0, 0.07119114883744382
1014.0, 0.07933913554369079
1015.0, 0.08508432598435944
1016.0, 0.08839532955314842
1017.0, 0.09316114518276558
1018.0, 0.10222470391463409
1019.0, 0.0998869755094768
1020.0, 0.10907115906763629
1021.0, 0.1233150747478343
1022.0, 0.1282977844621429
1023.0, 0.12606887124780833
1024.0, 0.12706036832081005
1025.0, 0.1309837668941028
1026.0, 0.13094963791563732
1027.0, 0.14104381745484462
1028.0, 0.13561136336909138
1029.0, 0.14177487049466786
1030.0, 0.14853913710696037
1031.0, 0.1513587492121379
1032.0, 0.14640756302439964
1033.0, 0.14448527220571367
1034.0, 0.14907433459484595
1035.0, 0.15125212026320362
1036.0, 0.15036784579308565
1037.0, 0.13524437910287765
1038.0, 0.1392967481681485
1039.0, 0.13078621670708165
1040.0, 0.12877001901826357
1041.0, 0.13077589007375615
1042.0, 0.12307614906658801
1043.0, 0.11585016720265683
1044.0, 0.10873334362126572
1045.0, 0.09854915138323342
1046.0, 0.09940989797507592
1047.0, 0.09985517519855475
1048.0, 0.08812329209310767
1049.0, 0.08307896452899458
1050.0, 0.07672951111528716
1051.0, 0.07398045715289982
1052.0, 0.07282323603296226
1053.0, 0.07028190010727464
1054.0, 0.06717375255890505
1055.0, 0.06492234849060467
1056.0, 0.062179585171451356
1057.0, 0.05757833541976795
1058.0, 0.054547301380193675
1059.0, 0.051121409732483594
1060.0, 0.054948102040855415
1061.0, 0.050288025537952676
1062.0, 0.049142607782929344
1063.0, 0.045014941647302915
1064.0, 0.04411797673296541
1065.0, 0.04742540907722541
1066.0, 0.04704798661112743
1067.0, 0.04234081943188569
1068.0, 0.04320542945362028
1069.0, 0.043075679113162034
1070.0, 0.047343347716558286
1071.0, 0.049529890233606474
1072.0, 0.04406797279777354
1073.0, 0.043018730597985784
1074.0, 0.04454533945345711
1075.0, 0.046683528301845446
1076.0, 0.047230746327483454
1077.0, 0.04609973013971979
1078.0, 0.04749825927744791
1079.0, 0.05165867503018383
1080.0, 0.047592435584931835
1081.0, 0.051780417751283246
1082.0, 0.05499132513966175
1083.0, 0.05916823065317544
1084.0, 0.05848474498421899
1085.0, 0.052373185045215584
1086.0, 0.04995088326306727
1087.0, 0.047463943506566963
1088.0, 0.040934601702964715
1089.0, 0.04038250355309893
1090.0, 0.044483885876368784
1091.0, 0.03685157189437363
1092.0, 0.036534609776571664
1093.0, 0.0393470662776867
1094.0, 0.03627532271967337
1095.0, 0.027535027188418847
1096.0, 0.03591691829078678
1097.0, 0.04194095243571344
1098.0, 0.03940367162334713
1099.0, 0.03445615680101064
1100.0, 0.028508719370085138
1101.0, 0.03523491005436872
1102.0, 0.044197139466263406
1103.0, 0.05304010960821336
1104.0, 0.05506452002232064
1105.0, 0.054237238112594885
1106.0, 0.058440675989611134
1107.0, 0.06251007082808237
1108.0, 0.06666557791528532
1109.0, 0.07131241272901967
1110.0, 0.07461373946221844
1111.0, 0.07556239894357279
1112.0, 0.07490529890326741
1113.0, 0.07167484522352678
1114.0, 0.06621496608759893
1115.0, 0.05987344981609927
1116.0, 0.05319121712643643
1117.0, 0.046609825964827684
1118.0, 0.03755793642848754
1119.0, 0.03158801019225688
1120.0, 0.026341277155793583
1121.0, 0.02049177032401884
1122.0, 0.017084278216260556
1123.0, 0.016745400648036417
1124.0, 0.016103040710064864
1125.0, 0.01391370153743416
1126.0, 0.010291326091049458
1127.0, 0.012571593782634748
1128.0, 0.013768151832887428
1129.0, 0.013703475518846969
1130.0, 0.008242677049071584
1131.0, 0.008278508575024652
1132.0, 0.007842513495393494
1133.0, 0.006388198695252279
1134.0, 0.0073409983765191835
1135.0, 0.00478481205700447
1136.0, 0.004999787638430374
1137.0, 0.002793503876787759
1138.0, 0.0035340258235246748
1139.0, 0.0027258448044278826
1140.0, 0.0016887863166657189
1141.0, 0.004531754241226375
1142.0, 0.0036807708065300674
1143.0, 0.003141350198926927
1144.0, 0.0057140662460812225
1145.0, 0.009240092135143946
1146.0, 0.00880226395307307
1147.0, 0.003458105845876441
1148.0, 0.0025498873008141954
1149.0, 0.001962576570949752
1150.0, 0.006399274940126717
1151.0, 0.0024101833528306846
1152.0, 0.0014201166999940785
1153.0, 0.009090301436059555
1154.0, 0.01070635523584799
1155.0, 0.013509574415437967
1156.0, 0.010085739652324184
1157.0, 0.0037894924214925563
1158.0, 0.004561100169554427
1159.0, 0.00588096575726471
1160.0, 0.006747098043250058
1161.0, 0.011222413830856232
1162.0, 0.008978128525387407
1163.0, 0.008693781152002505
1164.0, 0.001706512401204098
1165.0, 0.003433963577765036
1166.0, 0.003283528996735821
1167.0, 0.0018910105381978921
1168.0, 0.0031646834991622
1169.0, 0.0033301591594630635
1170.0, 0.002343598669230545
1171.0, 0.0034930956739877114
1172.0, 0.0019657166273502336
1173.0, 0.005043484750392865
1174.0, 0.01277977222124838
1175.0, 0.009776654395356396
1176.0, 0.011105864783014377
1177.0, 0.010197975390836205
1178.0, 0.01277724365600523
1179.0, 0.020671795677161892
1180.0, 0.02324110533492752
1181.0, 0.027984361116888942
1182.0, 0.035012935676924754
1183.0, 0.039371572867224806
1184.0, 0.04620713117380555
1185.0, 0.04782253174832226
1186.0, 0.045927133928222744
1187.0, 0.041335472455760205
1188.0, 0.03826196388376497
1189.0, 0.030090515443904235
1190.0, 0.029814776675218712
1191.0, 0.01688073332963441
1192.0, 0.015881728512512384
1193.0, 0.013469755895520378
1194.0, 0.010227018091602601
1195.0, 0.013221926736110421
1196.0, 0.013016313526515373
1197.0, 0.00491637735649142
1198.0, 0.0011247952444225517
1199.0, 0.005360782418156158
1200.0, 0.0007934284450556587
1201.0, 0.0054057787954935555
1202.0, 0.0031720334728676516
1203.0, 0.0020266464608067257
1204.0, 0.0007465839070049209
1205.0, 0.00214586556273525
1206.0, 0.0036258550559604553
1207.0, 0.006856631809380219
1208.0, 0.011325844490218787
1209.0, 0.012535649689149457
1210.0, 0.011557057854799886
1211.0, 0.01457021173193536
1212.0, 0.02194243435106518
1213.0, 0.02509288499302193
1214.0, 0.023104596412064436
1215.0, 0.026695885630928486
1216.0, 0.02922903636751309
1217.0, 0.033074418385144626
1218.0, 0.035303980325902956
1219.0, 0.038093718750444906
1220.0, 0.041332337485880215
1221.0, 0.044412884284268914
1222.0, 0.04705506672295104
1223.0, 0.04913633035472782
1224.0, 0.05140749938442297
1225.0, 0.05137450617665735
1226.0, 0.050142386579720116
1227.0, 0.05217590449480749
1228.0, 0.04709860598267893
1229.0, 0.050350153496507115
1230.0, 0.05409922738705357
1231.0, 0.05073956103141054
1232.0, 0.04860391331127829
1233.0, 0.05011885124031422
1234.0, 0.051000817187246285
1235.0, 0.04969938069186164
1236.0, 0.0451667860120351
1237.0, 0.039615269332301126
1238.0, 0.041845707006064214
1239.0, 0.04182383981394499
1240.0, 0.04808594595214697
1241.0, 0.04609861810197787
1242.0, 0.04289973230661922
1243.0, 0.049191047653200426
1244.0, 0.0492474667656769
1245.0, 0.05092141915653521
1246.0, 0.05604540367342713
1247.0, 0.05267682759581048
1248.0, 0.04805004735304604
1249.0, 0.04808188203832472
1250.0, 0.05173875091739119
1251.0, 0.05603503423807637
1252.0, 0.05134493435374389
1253.0, 0.05646514120009216
1254.0, 0.055993935488870133
1255.0, 0.05042063986385347
1256.0, 0.05749877505881688
1257.0, 0.04818670280861952
1258.0, 0.05629378338734295
1259.0, 0.045847824767042536
1260.0, 0.0533786259722607
1261.0, 0.05192300659560387
1262.0, 0.04291935172780084
1263.0, 0.04137971966836634
1264.0, 0.041093901641015444
1265.0, 0.03725384131948888
1266.0, 0.03700979591951562
1267.0, 0.03849757947091498
1268.0, 0.04107735131987058
1269.0, 0.04139443658262071
1270.0, 0.03862733967827934
1271.0, 0.03930904466583624
1272.0, 0.04309252772942826
1273.0, 0.0411257675133583
1274.0, 0.036478630871324476
1275.0, 0.038367606260554334
1276.0, 0.03377785504173735
1277.0, 0.03556412189498535
1278.0, 0.04525934547763222
1279.0, 0.046349732804076386
1280.0, 0.04425496230862032
1281.0, 0.051072742213424546
1282.0, 0.053287946432932484
1283.0, 0.05006778669817229
1284.0, 0.05474946634943306
1285.0, 0.05056611884129212
1286.0, 0.05561907735934578
1287.0, 0.05716467362955019
1288.0, 0.05420151063469737
1289.0, 0.058048871182131576
1290.0, 0.06052287693766487
1291.0, 0.057752110007547285
1292.0, 0.05631152051402776
1293.0, 0.058196605684064616
1294.0, 0.05834301437559472
1295.0, 0.054820141199249495
1296.0, 0.05120345378711149
1297.0, 0.04876176917050577
1298.0, 0.04376534876649502
1299.0, 0.045373583165236105
1300.0, 0.04073987978239003
1301.0, 0.0430047459663697
1302.0, 0.0466976585557624
1303.0, 0.04829148968040213
1304.0, 0.0385194640632676
1305.0, 0.039410851839509264
1306.0, 0.03708444519223143
1307.0, 0.04112972844196366
1308.0, 0.043749302044942186
1309.0, 0.03690394142156225
1310.0, 0.03664316281174308
1311.0, 0.044421218751524376
1312.0, 0.040469846093174604
1313.0, 0.03433869339221157
1314.0, 0.034372213716776845
1315.0, 0.028773886339739624
1316.0, 0.02807465686084324
1317.0, 0.027685524010254273
1318.0, 0.025444290859926836
1319.0, 0.026768906740973642
1320.0, 0.0247722372062404
1321.0, 0.0176954222344785
1322.0, 0.017574933372709153
1323.0, 0.016478938623699955
1324.0, 0.010429119160952334
1325.0, 0.011188820824454453
1326.0, 0.013878993677800582
1327.0, 0.008986829941741915
1328.0, 0.009365490492992725
1329.0, 0.008898866875560556
1330.0, 0.011044160761284286
1331.0, 0.008001725371150238
1332.0, 0.006994515846050503
1333.0, 0.010399492812770979
1334.0, 0.007059997778778256
1335.0, 0.005030606434588546
1336.0, 0.0043942694626978515
1337.0, 0.003332595251152423
1338.0, 0.005544596459529292
1339.0, 0.008547333129524073
1340.0, 0.007912503342905287
1341.0, 0.01105704576797097
1342.0, 0.01693045475089427
1343.0, 0.01650785177415121
1344.0, 0.013490906826164967
1345.0, 0.012815669287935918
1346.0, 0.010302573012109965
1347.0, 0.007604523682256175
1348.0, 0.011365030223271996
1349.0, 0.0053823845677377575
1350.0, 0.009326752576841693
1351.0, 0.006281944034633172
1352.0, 0.006766796028029213
1353.0, 0.0015925041326497187
1354.0, 0.0006248962844406689
1355.0, 0.003890261140430811
1356.0, 0.003026310158530503
1357.0, 0.0020706282101034383
1358.0, 0.004038736777365474
1359.0, 0.005374626483360358
1360.0, 0.003692072125620345
1361.0, 0.0016373844549114223
1362.0, 0.0016808143701178677
1363.0, 0.0007450979325326813
1364.0, 0.0002801034507870133
1365.0, 0.0019497723350834952
1366.0, 0.006070878657459084
1367.0, 0.004974337553913824
1368.0, 0.010055124009909095
1369.0, 0.00267512457764666
1370.0, 0.0039806876071486535
1371.0, 0.004671605556387161
1372.0, 0.006698636384606908
1373.0, 0.002584802972505494
1374.0, 0.0008279431585928048
1375.0, 0.0012188740896155743
1376.0, 0.0016388695502629615
1377.0, 0.001857210613032322
1378.0, 0.0015825521538985721
1379.0, 0.0012377474729684766
1380.0, 0.0012262925997834945
1381.0, 0.0026979410566866672
1382.0, 0.0043959951496292515
1383.0, 0.009717955224027791
1384.0, 0.010415480740488182
1385.0, 0.004404498655657236
1386.0, 0.001657116445350724
1387.0, 0.008582647222482823
1388.0, 0.0021959083197549724
1389.0, 0.005140061636663771
1390.0, 0.008535372517677308
1391.0, 0.004375809763565131
1392.0, 0.0024450774195014058
1393.0, 0.0049379570556952815
1394.0, 0.004243389156736321
1395.0, 0.0013834139534013492
1396.0, 0.0031567910671811148
1397.0, 0.004853603546214631
1398.0, 0.0030877521998445554
1399.0, 0.006260113767110924
1400.0, 0.008014631612458405
1401.0, 0.002261807107910521
1402.0, 0.0028147145498962577
1403.0, 0.002231715463916251
1404.0, 0.007432673357043973
1405.0, 0.005819902188552421
1406.0, 0.011713223560002654
1407.0, 0.012147029806249075
1408.0, 0.010430867387658898
1409.0, 0.005662573273468441
1410.0, 0.005564493150749945
1411.0, 0.008001649194079495
1412.0, 0.008389386907268325
1413.0, 0.011950153738272127
1414.0, 0.013447211326873567
1415.0, 0.011234631086343608
1416.0, 0.01154390147647124
1417.0, 0.012972880901458645
1418.0, 0.011947173913921557
1419.0, 0.012850155289140703
1420.0, 0.013966978734272
1421.0, 0.008540393333873901
1422.0, 0.014513290498209645
1423.0, 0.0185861946042461
1424.0, 0.025446128088407696
1425.0, 0.0259750175264407
1426.0, 0.03048131458982789
1427.0, 0.027525050622055073
1428.0, 0.0253379711041224
1429.0, 0.025548540094497862
1430.0, 0.02630703419477456
1431.0, 0.02616244879330647
1432.0, 0.02508936535269308
1433.0, 0.027221444928592884
1434.0, 0.030556961480395415
1435.0, 0.03495095770173121
1436.0, 0.04033244080033243
1437.0, 0.04640601539378159
1438.0, 0.051831644062740025
1439.0, 0.055498791624358036
1440.0, 0.05973063706897845
1441.0, 0.06265473620774266
1442.0, 0.06538663660053838
1443.0, 0.06608968889063113
1444.0, 0.0661215510310572
1445.0, 0.06782628385016756
1446.0, 0.06918379343293296
1447.0, 0.06165777100308591
1448.0, 0.0721457936067684
1449.0, 0.08167678054955561
1450.0, 0.06885378713062412
1451.0, 0.08000719235209529
1452.0, 0.07032500880796005
1453.0, 0.07913316338753495
1454.0, 0.0826484114166375
1455.0, 0.07610259397517327
1456.0, 0.07361090571936629
1457.0, 0.06949653684597498
1458.0, 0.06524287837771028
1459.0, 0.06746639486827467
1460.0, 0.06460942059756297
1461.0, 0.05668196192477025
1462.0, 0.05745480918761631
1463.0, 0.056949525408175834
1464.0, 0.05467585598394973
1465.0, 0.04889712538742643
1466.0, 0.046419656438808805
1467.0, 0.043290713773659645
1468.0, 0.05028085945150315
1469.0, 0.042811664326535576
1470.0, 0.040902580721638805
1471.0, 0.03658452783204719
1472.0, 0.027194657524817104
1473.0, 0.030972848600234727
1474.0, 0.02840231719097581
1475.0, 0.03327738526457917
1476.0, 0.03747360716754581
1477.0, 0.03628761009668151
1478.0, 0.027160493303677407
1479.0, 0.02893803623636625
1480.0, 0.025111923308254416
1481.0, 0.02167702502726991
1482.0, 0.021399601109972948
1483.0, 0.01925236372582147
1484.0, 0.02192178942162829
1485.0, 0.02239540006932533
1486.0, 0.020287708546067883
1487.0, 0.023227475414730483
1488.0, 0.021923487042117364
1489.0, 0.01666242394192763
1490.0, 0.010712582715191463
1491.0, 0.008126923713377367
1492.0, 0.005500071624607421
1493.0, 0.0021491157362022026
1494.0, 0.005778658203555295
1495.0, 0.010878085810593623
1496.0, 0.015853069844064278
1497.0, 0.00502007533101818
1498.0, 0.01344472167296686
1499.0, 0.0077919089230043675
1500.0, 0.00892096060020522
1501.0, 0.006022068972548299
1502.0, 0.008169638685636825
1503.0, 0.011227172885985444
1504.0, 0.0096306383047527
1505.0, 0.006868980738360849
1506.0, 0.005146954439811005
1507.0, 0.00349339670747715
1508.0, 0.004437811915082226
1509.0, 0.00464571932879463
1510.0, 0.002356965119518159
1511.0, 0.004003960369590653
1512.0, 0.005950921731834458
1513.0, 0.003962902253219776
1514.0, 0.0035859635992577838
1515.0, 0.007648214298987334
1516.0, 0.006374259707018708
1517.0, 0.011531760602826962
1518.0, 0.007114060200528091
1519.0, 0.004054285044768438
1520.0, 0.0005502132544786026
1521.0, 0.005880482587142599
1522.0, 0.0015696036797610865
1523.0, 0.0033415923521596357
1524.0, 0.0010105019115407821
1525.0, 0.0005630170648720385
1526.0, 0.0026347154810765303
1527.0, 0.0009508530508970309
1528.0, 0.00211426576839691
1529.0, 0.009148480662713235
1530.0, 0.004199212818724728
1531.0, 0.0058468702583322225
1532.0, 0.0041138475393939855
1533.0, 0.0040625050953660095
1534.0, 0.011433187166193882
1535.0, 0.012687512326401506
1536.0, 0.012814846462430562
1537.0, 0.010251783489036279
1538.0, 0.003319162277513598
1539.0, 0.0025728601913078703
1540.0, 0.001665221271848249
1541.0, 0.0031866665359872744
1542.0, 0.005151089789565899
1543.0, 0.003783944686090739
1544.0, 0.010095819098574783
1545.0, 0.012530843529598178
1546.0, 0.004565948337216679
1547.0, 0.0008254306233119084
1548.0, 0.005732668679529762
1549.0, 0.01920117367696434
1550.0, 0.011936913844198375
1551.0, 0.012428790234571463
1552.0, 0.009803024572624807
1553.0, 0.005592978477629868
1554.0, 0.008415852344587412
1555.0, 0.00853542132261968
1556.0, 0.012621872023753223
1557.0, 0.0062275364067529895
1558.0, 0.008181844873242167
1559.0, 0.006467896710494232
1560.0, 0.004435206734538705
1561.0, 0.0012152615536218355
1562.0, 8.831829659674621e-06
1563, 0.0
1564, 0.0
1565, 0.0
1566, 0.0
1567, 0.0
1568, 0.0
1569, 0.0
1570, 0.0
1571, 0.0
1572, 0.0
1573, 0.0
1574, 0.0
1575, 0.0
1576, 0.0
1577, 0.0
1578, 0.0
1579, 0.0
1580, 0.0
1581, 0.0
1582, 0.0
1583, 0.0
1584, 0.0
1585, 0.0
1586, 0.0
1587, 0.0
1588, 0.0
1589, 0.0
1590, 0.0
1591, 0.0
1592, 0.0
1593, 0.0
1594, 0.0
1595, 0.0
1596, 0.0
1597, 0.0
1598, 0.0
1599, 0.0
