30, 0.0
31, 0.0
32, 0.0
33, 0.0
34, 0.0
35, 0.0
36, 0.0
37, 0.0
38, 0.0
39, 0.0
40, 0.0
41, 0.0
42, 0.0
43, 0.0
44, 0.0
45, 0.0
46, 0.0
47, 0.0
48, 0.0
49, 0.0
50, 0.0
51, 0.0
52, 0.0
53, 0.0
54, 0.0
55, 0.0
56, 0.0
57, 0.0
58, 0.0
59, 0.0
60, 0.0
61, 0.0
62, 0.0
63, 0.0
64, 0.0
65, 0.0
66, 0.0
67, 0.0
68, 0.0
69, 0.0
70, 0.0
71, 0.0
72, 0.0
73, 0.0
74, 0.0
75, 0.0
76, 0.0
77, 0.0
78, 0.0
79, 0.0
80, 0.0
81, 0.0
82, 0.0
83, 0.0
84.0, 0.004473316697844022
85.0, 0.016809935708502786
86.0, 0.034780282691064576
87.0, 0.04141284731734272
88.0, 0.04752255307551885
89.0, 0.055509396879942115
90.0, 0.0635482096112984
91.0, 0.06468281506990403
92.0, 0.06900044295258814
93.0, 0.0698083853904811
94.0, 0.06931863399553373
95.0, 0.06585505168444167
96.0, 0.056158977563845
97.0, 0.06230612693552657
98.0, 0.05735299210279659
99.0, 0.05250613188225779
100.0, 0.05041065096973185
101.0, 0.04948873199415689
102.0, 0.04463575994514553
103.0, 0.030502672116163622
104.0, 0.022219293681920733
105.0, 0.020385524436938807
106.0, 0.022468966762492583
107.0, 0.02548866539729807
108.0, 0.031007848056435163
109.0, 0.04190981132408695
110.0, 0.053272705622727005
111.0, 0.051701379598509914
112.0, 0.017954103675614744
113.0, 0.007911493066517169
114.0, 0.0034235133419109848
115.0, 0.016802043772532173
116.0, 0.052377385921096246
117.0, 0.10106863069493617
118.0, 0.09519037795151085
119.0, 0.08667161857419994
120.0, 0.07236479491673146
121.0, 0.05651057304032639
122.0, 0.043904986852863793
123.0, 0.03593514299437225
124.0, 0.04041924021792997
125.0, 0.04567084859405263
126.0, 0.047500288343681966
127.0, 0.04579157247757255
128.0, 0.04448347327740377
129.0, 0.04033349324646779
130.0, 0.038407161362599654
131.0, 0.03604507664656914
132.0, 0.03021496452210548
133.0, 0.01924204674205266
134.0, 0.010240072963881849
135.0, 0.006352005245217924
136.0, 0.0033882009510474162
137.0, 0.0011399227923701099
138.0, 0.0006566877883823978
139.0, 0.0040986816163662235
140.0, 0.007906904000206324
141.0, 0.008544012277400679
142.0, 0.009766048434973123
143.0, 0.011260095982204517
144.0, 0.009151262862189799
145.0, 0.015866422299683394
146.0, 0.01933258301786808
147.0, 0.02354207258319864
148.0, 0.025512846454207212
149.0, 0.021843575699735173
150.0, 0.019173171384343334
151.0, 0.023724637080278
152.0, 0.030642751146353463
153.0, 0.04261825991901757
154.0, 0.05709410087554836
155.0, 0.06218297364956081
156.0, 0.069507885631983
157.0, 0.07741050807290291
158.0, 0.08685659809306058
159.0, 0.0990478016361382
160.0, 0.11515877742323784
161.0, 0.13627293959185757
162.0, 0.1480743251973901
163.0, 0.1613897983037748
164.0, 0.1737864690908244
165.0, 0.18197290446280948
166.0, 0.1876617523899502
167.0, 0.1936097960466835
168.0, 0.1960038379468103
169.0, 0.1969299442712218
170.0, 0.1973448433968755
171.0, 0.19594578900130477
172.0, 0.17929018052532478
173.0, 0.16845921237885772
174.0, 0.15343271524450944
175.0, 0.13925755091503048
176.0, 0.13170043598040582
177.0, 0.12456529732374083
178.0, 0.10309036297005636
179.0, 0.09350693203527419
180.0, 0.08566464383877546
181.0, 0.07655608052007912
182.0, 0.07299265720113313
183.0, 0.06864731640532198
184.0, 0.06344643669021982
185.0, 0.06157239550157909
186.0, 0.06406414757984948
187.0, 0.06774873488302606
188.0, 0.05967367959503518
189.0, 0.06467185814794622
190.0, 0.0727654157681335
191.0, 0.07692453842054998
192.0, 0.0791444390842501
193.0, 0.08965432272805733
194.0, 0.09365244971245287
195.0, 0.10746693639143703
196.0, 0.11988140419752003
197.0, 0.13073856875816087
198.0, 0.14237276720164593
199.0, 0.15117125604276274
200.0, 0.15821576033913048
201.0, 0.16535528840582409
202.0, 0.17651766711673497
203.0, 0.18742894576726032
204.0, 0.18678742153243572
205.0, 0.18427106624320377
206.0, 0.16672452221218997
207.0, 0.15657571253675592
208.0, 0.15491999771606865
209.0, 0.15667152027687645
210.0, 0.1610688446138387
211.0, 0.15714750704733246
212.0, 0.16273395565123533
213.0, 0.17373366705809606
214.0, 0.18440937141876124
215.0, 0.1901021960716109
216.0, 0.19423440782742005
217.0, 0.20618644749544138
218.0, 0.21594162799563185
219.0, 0.22397227838134134
220.0, 0.23323555086535064
221.0, 0.2456750109642069
222.0, 0.251147495995755
223.0, 0.2573361037257024
224.0, 0.2707053973986157
225.0, 0.29281263154250836
226.0, 0.31803154750906554
227.0, 0.3183296514382645
228.0, 0.33295729379902145
229.0, 0.34190071001352623
230.0, 0.3487784384105407
231.0, 0.3557907919706736
232.0, 0.35713262580178223
233.0, 0.37491846662019557
234.0, 0.3780815128025459
235.0, 0.38337872749450785
236.0, 0.38884946600786036
237.0, 0.3876189088449772
238.0, 0.3868658727841367
239.0, 0.3851106622427174
240.0, 0.37789382479462913
241.0, 0.36334499349809496
242.0, 0.34589165530613775
243.0, 0.3337938455800994
244.0, 0.31760172972520795
245.0, 0.29535185078215703
246.0, 0.2750984480513525
247.0, 0.25670700551706926
248.0, 0.23960105006086685
249.0, 0.22661602601945885
250.0, 0.20061712808083523
251.0, 0.18346739876385992
252.0, 0.1685324043645627
253.0, 0.15520726317697056
254.0, 0.14593322264576272
255.0, 0.14028441377163095
256.0, 0.11677362548599614
257.0, 0.10735447445716037
258.0, 0.0998068113601408
259.0, 0.09334070894767674
260.0, 0.10131085819771993
261.0, 0.09722068130204681
262.0, 0.08293624796028896
263.0, 0.06917094384151917
264.0, 0.06002200482297953
265.0, 0.05504788549850066
266.0, 0.04890404551643323
267.0, 0.04071690845781188
268.0, 0.04078895496453193
269.0, 0.03810081491207079
270.0, 0.032300171541697294
271.0, 0.02775361590090089
272.0, 0.02396954435424846
273.0, 0.02074454759340646
274.0, 0.019562275102741822
275.0, 0.013540630119140681
276.0, 0.005926717491398427
277.0, 0.006645820323149799
278.0, 0.0030776595593275113
279.0, 0.007983932007223875
280.0, 0.005629082680259173
281.0, 0.0024754141651896384
282.0, 0.004580285593652072
283.0, 0.009863920970047424
284.0, 0.004824153162751736
285.0, 0.007093572109045678
286.0, 0.007085038292207855
287.0, 0.005807446535401429
288.0, 0.006114661651659887
289.0, 0.0057085300525197185
290.0, 0.005622088075495594
291.0, 0.004879536251938915
292.0, 0.005239808034439553
293.0, 0.006078351699872572
294.0, 0.005339012185682161
295.0, 0.0010407148843965906
296.0, 0.005377678761738923
297.0, 0.006703833011700416
298.0, 0.008218362163202826
299.0, 0.009410166445754799
300.0, 0.006448432166933656
301.0, 0.002731149977832918
302.0, 0.0010515376229703925
303.0, 0.0008076056107694435
304.0, 0.0008475282882719473
305.0, 0.0005991764921068723
306.0, 0.000458399774087406
307.0, 0.0015480142131877135
308.0, 0.003150427484322012
309.0, 0.004812760050685194
310.0, 0.005818785562724251
311.0, 0.005338070115521157
312.0, 0.0027147545520276924
313.0, 0.004158335791901703
314.0, 0.0032213112611546753
315.0, 0.0036907845522350003
316.0, 0.005550156783494574
317.0, 0.008131549537938945
318.0, 0.01297974354968487
319.0, 0.012722569208924388
320.0, 0.013516259367932583
321.0, 0.014384743019936379
322.0, 0.016309458245656376
323.0, 0.020170023127393046
324.0, 0.0231286496082552
325.0, 0.02654656811179951
326.0, 0.03024694716777554
327.0, 0.027997258396352472
328.0, 0.027907895785534594
329.0, 0.03997190691862005
330.0, 0.0410986853813692
331.0, 0.04219283213189668
332.0, 0.051220822551941735
333.0, 0.05701126061732235
334.0, 0.05877299302693783
335.0, 0.06367485561143972
336.0, 0.06523045667224982
337.0, 0.07411053425669929
338.0, 0.08333175999566773
339.0, 0.08597182504478888
340.0, 0.08536614554457322
341.0, 0.09185856129686584
342.0, 0.0961828677230228
343.0, 0.10053045764507575
344.0, 0.10661299098201987
345.0, 0.10984960842929561
346.0, 0.1111401735949908
347.0, 0.11636700590567685
348.0, 0.1117729700571693
349.0, 0.11191717571709985
350.0, 0.11843083828131898
351.0, 0.12410920766689398
352.0, 0.1231486522624046
353.0, 0.1163056650636279
354.0, 0.12658592252998854
355.0, 0.1294253361324191
356.0, 0.12767501801604883
357.0, 0.12759773915344944
358.0, 0.13018259943613972
359.0, 0.12922640127942195
360.0, 0.128035990901468
361.0, 0.12371425147219064
362.0, 0.12307316020624698
363.0, 0.12216944668505088
364.0, 0.11836677470886105
365.0, 0.11455818490675597
366.0, 0.11335221145505636
367.0, 0.10984874230978245
368.0, 0.10721039698671575
369.0, 0.10380683066896147
370.0, 0.0989056591910941
371.0, 0.09445618081147553
372.0, 0.08982387397813266
373.0, 0.09205776520929053
374.0, 0.09701076028406756
375.0, 0.09825045743690378
376.0, 0.0955728502301808
377.0, 0.09709690124669322
378.0, 0.1042013939212058
379.0, 0.10393634272868392
380.0, 0.10641110706034007
381.0, 0.10890963837090414
382.0, 0.10620855385258451
383.0, 0.09651492656046569
384.0, 0.10220433024864148
385.0, 0.10737222874078896
386.0, 0.10204288590687714
387.0, 0.09289418503986466
388.0, 0.08741706921546816
389.0, 0.08746737678463842
390.0, 0.08067406711090482
391.0, 0.07313059143342349
392.0, 0.07008208041586174
393.0, 0.06732455032734569
394.0, 0.06295755581764022
395.0, 0.05900889023330195
396.0, 0.0544580938466775
397.0, 0.05726237121197099
398.0, 0.05506212396388042
399.0, 0.04868403130964804
400.0, 0.0415784377446413
401.0, 0.038052724212967855
402.0, 0.045220187326271664
403.0, 0.037907993686171836
404.0, 0.03783813994424662
405.0, 0.03535351542666742
406.0, 0.03190647660463755
407.0, 0.03488872477917011
408.0, 0.031173326053842113
409.0, 0.029415007361208792
410.0, 0.026570459136175704
411.0, 0.02392146806232021
412.0, 0.02329544818363061
413.0, 0.02408566678384137
414.0, 0.018638584005008736
415.0, 0.020128025008822888
416.0, 0.021013627324469018
417.0, 0.0234534989390066
418.0, 0.02331656647069987
419.0, 0.01886878285099451
420.0, 0.020129815409344862
421.0, 0.017319085774111342
422.0, 0.01401201310302896
423.0, 0.012816617015906836
424.0, 0.013102497410066515
425.0, 0.01221260485605698
426.0, 0.007313514185751801
427.0, 0.00927755322213544
428.0, 0.005212572992053457
429.0, 0.002874424513198021
430.0, 0.0027124698134270066
431.0, 0.004724493683545305
432.0, 0.009349079142982239
433.0, 0.005646151082861256
434.0, 0.006153590367824947
435.0, 0.007014721235646824
436.0, 0.0074824678435326955
437.0, 0.006305138894405862
438.0, 0.0025567949403572385
439.0, 0.0003819331942885879
440.0, 0.0037590210723974756
441.0, 0.006549042088183688
442.0, 0.009687898422504029
443.0, 0.011687519226913615
444.0, 0.010300149524197767
445.0, 0.006493518286322896
446.0, 0.0032277130972788734
447.0, 0.0010739871247140496
448.0, 0.0032427733103780835
449.0, 0.004749338866736006
450.0, 0.0037039625684716373
451.0, 0.009026880538773362
452.0, 0.00927454253166484
453.0, 0.014564101545473825
454.0, 0.016272271679892078
455.0, 0.018692266032971857
456.0, 0.022124546432468275
457.0, 0.020124564252776207
458.0, 0.021169338298081673
459.0, 0.03419498929639879
460.0, 0.04397423113656234
461.0, 0.051566628783293524
462.0, 0.05802400332294217
463.0, 0.06301214834280151
464.0, 0.06759192171482711
465.0, 0.07384333383085252
466.0, 0.07380694312887193
467.0, 0.07530875386223225
468.0, 0.07641999548923893
469.0, 0.07631207209439562
470.0, 0.08502871944971532
471.0, 0.08318419945208223
472.0, 0.08213511950766429
473.0, 0.07901581244578548
474.0, 0.07331982302536001
475.0, 0.06930074161350509
476.0, 0.07285591020061326
477.0, 0.07218196373779215
478.0, 0.06492051219500751
479.0, 0.0618529258379941
480.0, 0.05827513643468398
481.0, 0.05756101485859361
482.0, 0.06219658486513707
483.0, 0.05256580107413244
484.0, 0.04763614297360455
485.0, 0.04981207789910152
486.0, 0.04496076301765138
487.0, 0.0388727599465996
488.0, 0.03739284625605145
489.0, 0.034232127056848964
490.0, 0.033592271963570126
491.0, 0.03222376038780935
492.0, 0.03111979368937637
493.0, 0.028532254806073958
494.0, 0.023752978160327273
495.0, 0.01805102630568264
496.0, 0.014629153358887311
497.0, 0.00931837600994833
498.0, 0.007995662628889991
499.0, 0.007447415064289319
500.0, 0.00735350435805187
501.0, 0.008187140800928652
502.0, 0.008668717566230352
503.0, 0.004464412074699903
504.0, 0.003415536903339663
505.0, 0.0014421100841633817
506.0, 0.0023020937901179644
507.0, 0.004858466734381447
508.0, 0.004622069730635238
509.0, 0.008789926786301434
510.0, 0.008535703059666304
511.0, 0.0034940082060644136
512.0, 0.0047780186535940575
513.0, 0.009057682366636708
514.0, 0.008069760470772236
515.0, 0.0005564743418770648
516.0, 0.00785121624163515
517.0, 0.010365452835221408
518.0, 0.007411554745956714
519.0, 0.007579934436225842
520.0, 0.008014240609941603
521.0, 0.0011048687685117822
522.0, 0.005131731374091045
523.0, 0.0030335615782855607
524.0, 0.0024245417062630707
525.0, 0.0044828059298257
526.0, 0.006084444847249709
527.0, 0.006009176142712515
528.0, 0.007746402917479666
529.0, 0.005558779244986477
530.0, 0.011003302711152291
531.0, 0.01472078771680763
532.0, 0.02122724972794408
533.0, 0.027915796948041482
534.0, 0.030759137416809308
535.0, 0.04026266825920664
536.0, 0.036318520443184496
537.0, 0.037897353289506566
538.0, 0.04398871055404376
539.0, 0.051941609377083316
540.0, 0.06457423947071472
541.0, 0.08602384684956113
542.0, 0.09076768708253795
543.0, 0.10908598400990067
544.0, 0.12942425817710942
545.0, 0.1434881612989262
546.0, 0.15610395693989731
547.0, 0.17532849856906282
548.0, 0.2008638614897278
549.0, 0.22387489338443894
550.0, 0.2445619306183875
551.0, 0.2670316575613976
552.0, 0.28974598277850516
553.0, 0.31008445919373256
554.0, 0.32682535500166765
555.0, 0.3422764001887778
556.0, 0.34892303036568795
557.0, 0.35844931738532815
558.0, 0.36125771640012616
559.0, 0.3623023580218812
560.0, 0.3622598783767163
561.0, 0.3528256092129288
562.0, 0.3334411152503031
563.0, 0.3274658696499248
564.0, 0.3118622945811777
565.0, 0.29606825751900717
566.0, 0.2828584009067884
567.0, 0.2710120650598119
568.0, 0.2600431046146278
569.0, 0.24835779572435804
570.0, 0.23783143910117147
571.0, 0.22703978696098545
572.0, 0.214941036960871
573.0, 0.2031910441238095
574.0, 0.19452334663452472
575.0, 0.18942126692966627
576.0, 0.1746651527405398
577.0, 0.17340326794842814
578.0, 0.1644572386704945
579.0, 0.16238378848338925
580.0, 0.1657437284206067
581.0, 0.16049107452501518
582.0, 0.15385231813395564
583.0, 0.15989154038435524
584.0, 0.1604159968456298
585.0, 0.15948962531164865
586.0, 0.1611173397744681
587.0, 0.16432925054765246
588.0, 0.16558500456218803
589.0, 0.16994423231509168
590.0, 0.1663631895358482
591.0, 0.17407029616950653
592.0, 0.1725830989498746
593.0, 0.17211482244754917
594.0, 0.17629848134235337
595.0, 0.17159466297236592
596.0, 0.16895524722180355
597.0, 0.17700286520105224
598.0, 0.17871443887460764
599.0, 0.1798400450640405
600.0, 0.18128490685207635
601.0, 0.1803879988842456
602.0, 0.17598054538547758
603.0, 0.1806821550689579
604.0, 0.17368071053114065
605.0, 0.17329911395442174
606.0, 0.17029108514885477
607.0, 0.1716983333465523
608.0, 0.180799171090401
609.0, 0.18418463097909468
610.0, 0.1832445287414068
611.0, 0.18541515221012383
612.0, 0.18717403010145142
613.0, 0.18378917277650533
614.0, 0.18367805662863937
615.0, 0.1898385814054347
616.0, 0.18897946728098886
617.0, 0.1873934211524542
618.0, 0.19174233961823842
619.0, 0.1991383459332034
620.0, 0.20612075816710115
621.0, 0.21384992103198652
622.0, 0.2226750934367983
623.0, 0.22809550692720582
624.0, 0.22864330744779174
625.0, 0.2404826204275645
626.0, 0.2458721290576149
627.0, 0.25100273260474315
628.0, 0.2595886299325812
629.0, 0.2690732462360043
630.0, 0.27474308725591234
631.0, 0.29250465148937116
632.0, 0.2985483660370054
633.0, 0.3064231662034321
634.0, 0.3176724656743827
635.0, 0.3358610059308071
636.0, 0.3560392654684782
637.0, 0.36591955072041515
638.0, 0.39195419879972915
639.0, 0.41200501669088047
640.0, 0.43183589466052325
641.0, 0.4601232111300532
642.0, 0.49003039415656224
643.0, 0.5179856406562428
644.0, 0.5542799491669226
645.0, 0.6090810312609759
646.0, 0.6546415954517396
647.0, 0.6896106922411056
648.0, 0.7347088878400717
649.0, 0.7820407370069322
650.0, 0.8233480443067167
651.0, 0.8607115723881706
652.0, 0.8834197579937084
653.0, 0.8883384238326698
654.0, 0.8938239400201143
655.0, 0.884565490066251
656.0, 0.8596387001007469
657.0, 0.8265317270538334
658.0, 0.7906331568968245
659.0, 0.7432004657081779
660.0, 0.7069831458128433
661.0, 0.6800242761001227
662.0, 0.6528795420281017
663.0, 0.6256976907305581
664.0, 0.6056998099978693
665.0, 0.5938753658318997
666.0, 0.572634583744338
667.0, 0.570672851155044
668.0, 0.5702466865056095
669.0, 0.576234973445376
670.0, 0.5821988083456631
671.0, 0.5896782743635441
672.0, 0.6004136261263244
673.0, 0.6076066955027265
674.0, 0.6198696997447684
675.0, 0.6402130446611877
676.0, 0.6537226181840265
677.0, 0.6688178724976677
678.0, 0.6839357463281126
679.0, 0.6989002119651702
680.0, 0.7196329450128921
681.0, 0.737673313792695
682.0, 0.755059551072105
683.0, 0.7672645111865113
684.0, 0.7810392378831429
685.0, 0.7914983675569007
686.0, 0.8068492009819155
687.0, 0.8360073701192904
688.0, 0.8484286576382309
689.0, 0.8558266648030577
690.0, 0.878626530174659
691.0, 0.8909054929998792
692.0, 0.8998753158780328
693.0, 0.914017353478796
694.0, 0.9303417070564972
695.0, 0.9358383392958503
696.0, 0.9398660808767005
697.0, 0.9519880506733326
698.0, 0.9580830432586843
699.0, 0.9621057200769858
700.0, 0.9661838978803449
701.0, 0.971334933327243
702.0, 0.9788965395649022
703.0, 0.9891201105039138
704.0, 0.9919235058770908
705.0, 0.9950053705329034
706.0, 0.9974648336620273
707.0, 0.9976484676811247
708.0, 0.9977889131903066
709.0, 0.9989906630035091
710.0, 0.9947163837653908
711.0, 0.9929518918001231
712.0, 0.9822793037275214
713.0, 0.977248537504521
714.0, 0.9710201439163881
715.0, 0.9565224176618089
716.0, 0.9405382640473426
717.0, 0.9358867624190996
718.0, 0.917210638696272
719.0, 0.9115818537462581
720.0, 0.890784612777405
721.0, 0.8739331002843852
722.0, 0.8568482577214
723.0, 0.8363686534383714
724.0, 0.8139172858167594
725.0, 0.7883578256413737
726.0, 0.7700451013020497
727.0, 0.7506928860665285
728.0, 0.7254948221044207
729.0, 0.7053114346348229
730.0, 0.68381952189538
731.0, 0.6616214748087018
732.0, 0.6471017703062357
733.0, 0.6141500275395289
734.0, 0.6017573071136525
735.0, 0.5806414333146113
736.0, 0.5633090305941363
737.0, 0.5440702252921272
738.0, 0.5270273726190043
739.0, 0.5161338164400997
740.0, 0.5005771057959725
741.0, 0.4788581310877639
742.0, 0.46730545014316266
743.0, 0.4512727317330462
744.0, 0.4429307564490268
745.0, 0.43577490849580164
746.0, 0.4297779994739453
747.0, 0.42809022905414107
748.0, 0.41471653047471685
749.0, 0.40956757236864877
750.0, 0.4051088005628606
751.0, 0.3947782830682666
752.0, 0.3941193278863849
753.0, 0.3927438365310056
754.0, 0.38246289903356084
755.0, 0.37444615747424753
756.0, 0.37712729709818604
757.0, 0.3622162282690795
758.0, 0.34763646422646066
759.0, 0.34121844225388365
760.0, 0.33504327226028024
761.0, 0.324404297167014
762.0, 0.3119477266365236
763.0, 0.3019703681032765
764.0, 0.28579679623286686
765.0, 0.27239951041611005
766.0, 0.26563910900063104
767.0, 0.2548414922747297
768.0, 0.2422476169952691
769.0, 0.23018865666596483
770.0, 0.21880529093561737
771.0, 0.20878896316963588
772.0, 0.19924820693838274
773.0, 0.18833035126676081
774.0, 0.1825204150979919
775.0, 0.17699469711730942
776.0, 0.16729239335631088
777.0, 0.155615109854635
778.0, 0.1494430677974849
779.0, 0.15174722130805338
780.0, 0.13483943832636086
781.0, 0.12868277040446136
782.0, 0.13046880095434563
783.0, 0.12808867000467597
784.0, 0.1217603161741662
785.0, 0.11505500471922235
786.0, 0.1091342804213446
787.0, 0.10351453043881233
788.0, 0.10132612894830778
789.0, 0.09964483523832075
790.0, 0.09233218373543882
791.0, 0.08747660270255421
792.0, 0.08342421296817243
793.0, 0.07888477110612033
794.0, 0.07622681763295973
795.0, 0.07539529223773611
796.0, 0.0688136197651605
797.0, 0.0685270168101665
798.0, 0.062156009440533434
799.0, 0.05809708708582494
800.0, 0.05456940594431967
801.0, 0.05140633324444729
802.0, 0.04987399275409012
803.0, 0.04366638246694299
804.0, 0.037279758910092435
805.0, 0.033771950092230864
806.0, 0.032947226721836774
807.0, 0.031843370695224665
808.0, 0.029866725465093707
809.0, 0.02748096085654368
810.0, 0.025048956462670774
811.0, 0.022672881122359993
812.0, 0.021160393496617615
813.0, 0.01730379754245232
814.0, 0.01942226627243101
815.0, 0.013428329755128808
816.0, 0.005740521006522837
817.0, 0.004498487454184878
818.0, 0.008215150104893725
819.0, 0.008368820287386117
820.0, 0.007526197734998961
821.0, 0.005155112308433744
822.0, 0.0015567307355082516
823.0, 0.003791645587386632
824.0, 0.003452342342277384
825.0, 0.0028888165315593822
826.0, 0.006209524380817049
827.0, 0.006766485936481822
828.0, 0.004081676031851892
829.0, 0.010531577678564788
830.0, 0.005520298409807211
831.0, 0.008804593146891707
832.0, 0.009968325216314335
833.0, 0.007225645088269356
834.0, 0.0047673134482283065
835.0, 0.005118264860214338
836.0, 0.01218594561003945
837.0, 0.01314573738344636
838.0, 0.011490974787470404
839.0, 0.0048957915278962745
840.0, 0.0016892322611967753
841.0, 0.005500477118704869
842.0, 0.009345382485368283
843.0, 0.010161874357605436
844.0, 0.021939519365553564
845.0, 0.014011712166481217
846.0, 0.014788507481213548
847.0, 0.01888873850951652
848.0, 0.014311740215273129
849.0, 0.008853582475483278
850.0, 0.004718766131853402
851.0, 0.0040033159580429006
852.0, 0.011991527128313629
853.0, 0.0001523185427914557
854.0, 0.0067718840623033644
855.0, 0.00804591012245692
856.0, 0.005192528156327188
857.0, 0.001897302496081934
858.0, 0.0021175369379434123
859.0, 0.003600304007002556
860.0, 0.002012878843130364
861.0, 0.0030945468248950534
862.0, 0.005840456054339292
863.0, 0.00798219751159515
864.0, 0.010794160598121678
865.0, 0.014288152741177836
866.0, 0.013016872730008731
867.0, 0.009000632986686295
868.0, 0.008229832070441433
869.0, 0.011767102991247468
870.0, 0.01928652200697918
871.0, 0.01089017757269074
872.0, 0.010744094396126653
873.0, 0.02264017747969363
874.0, 0.029949255412002142
875.0, 0.03540018586483916
876.0, 0.03991853687867061
877.0, 0.03716571337944697
878.0, 0.034354162019377715
879.0, 0.04199077559369108
880.0, 0.04498798261608899
881.0, 0.04489664310207672
882.0, 0.04830193909421258
883.0, 0.0488481497666058
884.0, 0.051020661674063154
885.0, 0.05728710969600207
886.0, 0.060933151502180836
887.0, 0.0698854212986443
888.0, 0.06875774675513052
889.0, 0.07386874522600566
890.0, 0.07819435134377462
891.0, 0.0818253353872666
892.0, 0.08525124475468081
893.0, 0.08903427946010849
894.0, 0.09294972034887951
895.0, 0.09668044545447
896.0, 0.10457684717191994
897.0, 0.10843547777564704
898.0, 0.12429218758080625
899.0, 0.11878226233249799
900.0, 0.12013766862477776
901.0, 0.12884230874891242
902.0, 0.1308625601081688
903.0, 0.12803463202171428
904.0, 0.13988075249215468
905.0, 0.14767594376086082
906.0, 0.1453696957334227
907.0, 0.14954203369992594
908.0, 0.1548837045081835
909.0, 0.1565208829325757
910.0, 0.15331652274427765
911.0, 0.15254360525345265
912.0, 0.15894796939239839
913.0, 0.16128640689862223
914.0, 0.1608697583770152
915.0, 0.16536835849651116
916.0, 0.16850483277001374
917.0, 0.1779768133595377
918.0, 0.17801573170300838
919.0, 0.17857867401745361
920.0, 0.1819349395433991
921.0, 0.17752710434420835
922.0, 0.1761085847869687
923.0, 0.1781602519087089
924.0, 0.1669636900834801
925.0, 0.1714055678896427
926.0, 0.16444236905833495
927.0, 0.16094213433722424
928.0, 0.16473577057535352
929.0, 0.16861422199830714
930.0, 0.16821538986681558
931.0, 0.1656854173193994
932.0, 0.15734655750856977
933.0, 0.15766396383870804
934.0, 0.15155325344689102
935.0, 0.1464098367755011
936.0, 0.13818577874817153
937.0, 0.13399277131433537
938.0, 0.1330046931338608
939.0, 0.12801211605326202
940.0, 0.12388783220404152
941.0, 0.1244248714251272
942.0, 0.12612047780957905
943.0, 0.1219510042545031
944.0, 0.12125021300794132
945.0, 0.11375425603877583
946.0, 0.103139604258267
947.0, 0.0969305879004515
948.0, 0.09569994142530722
949.0, 0.09339910632976206
950.0, 0.08664993881568979
951.0, 0.08953678012157172
952.0, 0.08478280287203699
953.0, 0.07828800708465383
954.0, 0.07812892375821294
955.0, 0.07521269714200458
956.0, 0.06904861156942792
957.0, 0.06573507259403345
958.0, 0.06493858433753796
959.0, 0.061014408972962425
960.0, 0.056678199182425795
961.0, 0.059081874878976794
962.0, 0.048230806301329684
963.0, 0.04130200976830215
964.0, 0.040149070708541915
965.0, 0.03887080873646285
966.0, 0.03425265633405505
967.0, 0.03279397244195826
968.0, 0.0419583673467453
969.0, 0.03606708058442956
970.0, 0.044459610993318424
971.0, 0.03505093935900722
972.0, 0.03198150808730993
973.0, 0.028458660525659395
974.0, 0.02062118278533406
975.0, 0.015183672181871345
976.0, 0.01334919645540938
977.0, 0.007545508802266451
978.0, 0.007414231838943081
979.0, 0.017351481793425147
980.0, 0.0076246687246298486
981.0, 0.013806889129151966
982.0, 0.01922677827849896
983.0, 0.0163450774110634
984.0, 0.015179329675906393
985.0, 0.015490120986807894
986.0, 0.011620554364323691
987.0, 0.013684196829403241
988.0, 0.01570505198161163
989.0, 0.01254619757597002
990.0, 0.018500577663277427
991.0, 0.01558130646751447
992.0, 0.017977308847514063
993.0, 0.02218851455527708
994.0, 0.023611120285091245
995.0, 0.02592519973557224
996.0, 0.03214459485503283
997.0, 0.034558714098530514
998.0, 0.0392115234660522
999.0, 0.04472089579583674
1000.0, 0.05064552292308346
1001.0, 0.047982466753452746
1002.0, 0.05102338823584
1003.0, 0.05624744395572122
1004.0, 0.05796561601207983
1005.0, 0.05964396482561351
1006.0, 0.06799546424389867
1007.0, 0.07985285900494725
1008.0, 0.08302215534003574
1009.0, 0.09162055349818456
1010.0, 0.10332441498990276
1011.0, 0.1123183866034182
1012.0, 0.12106624868029166
1013.0, 0.13083853045949645
1014.0, 0.13573954859868295
1015.0, 0.13809516620115125
1016.0, 0.1481800351562487
1017.0, 0.1575962862996269
1018.0, 0.18179128800764482
1019.0, 0.17788562005944525
1020.0, 0.18026557888261951
1021.0, 0.1909879428335338
1022.0, 0.19401720430543387
1023.0, 0.1980509156098407
1024.0, 0.20103013998791308
1025.0, 0.2028027031410018
1026.0, 0.21187841054271558
1027.0, 0.20806339920858388
1028.0, 0.20650924570201626
1029.0, 0.20734494619293942
1030.0, 0.2060302280451842
1031.0, 0.1997913402130695
1032.0, 0.20126074958726234
1033.0, 0.20051050201894827
1034.0, 0.19340036714737605
1035.0, 0.1844370524742668
1036.0, 0.17746753183181574
1037.0, 0.17475201490807407
1038.0, 0.1639167431246809
1039.0, 0.17114872671399955
1040.0, 0.15773287960512836
1041.0, 0.15134582416766817
1042.0, 0.1376997626159229
1043.0, 0.12755302042780756
1044.0, 0.1220037922309699
1045.0, 0.11641526032747374
1046.0, 0.1114454059717408
1047.0, 0.10919208949263168
1048.0, 0.1127022142313801
1049.0, 0.09933814609788084
1050.0, 0.08512537407611158
1051.0, 0.09322548997317931
1052.0, 0.0918069225557827
1053.0, 0.0887534015093567
1054.0, 0.08404304687055236
1055.0, 0.08049206118435105
1056.0, 0.07855274220074365
1057.0, 0.07056561120230574
1058.0, 0.06698703667891359
1059.0, 0.07703115066563239
1060.0, 0.06649860876306377
1061.0, 0.07037104375170768
1062.0, 0.07293527994507625
1063.0, 0.07118462551550231
1064.0, 0.0731136088820883
1065.0, 0.07611581141058789
1066.0, 0.07500674362582462
1067.0, 0.07191575793379927
1068.0, 0.07027778781967504
1069.0, 0.06860276122643243
1070.0, 0.059641701233496144
1071.0, 0.06595154984837105
1072.0, 0.07509624031674436
1073.0, 0.0742454606898498
1074.0, 0.0702227261982446
1075.0, 0.0701461040029381
1076.0, 0.07322022694145977
1077.0, 0.07275661644042751
1078.0, 0.06832425403116121
1079.0, 0.07156910917675974
1080.0, 0.07752202334115561
1081.0, 0.06791408428950689
1082.0, 0.0652115589230918
1083.0, 0.058543467403334395
1084.0, 0.0571284947211586
1085.0, 0.05592057679624749
1086.0, 0.053258520607162206
1087.0, 0.050857601735933705
1088.0, 0.050424812746928324
1089.0, 0.05078574557153517
1090.0, 0.047605929354494654
1091.0, 0.04764525454795847
1092.0, 0.0445823319966303
1093.0, 0.04236589273582136
1094.0, 0.04410470977683024
1095.0, 0.03815451200982737
1096.0, 0.02870292025775882
1097.0, 0.03190340977203084
1098.0, 0.03490325105937931
1099.0, 0.02761712028606197
1100.0, 0.02590700106280474
1101.0, 0.02371953780153629
1102.0, 0.019332669013595045
1103.0, 0.015266597332463955
1104.0, 0.02008129979578358
1105.0, 0.02089774484192701
1106.0, 0.01374804283449943
1107.0, 0.01752179288365844
1108.0, 0.02047246719374956
1109.0, 0.016706177787468017
1110.0, 0.013999524737754258
1111.0, 0.013080469106397867
1112.0, 0.00741840573849309
1113.0, 0.003299192774238037
1114.0, 0.012153807679274185
1115.0, 0.001758050859404981
1116.0, 0.005104024796412504
1117.0, 0.007860971435315911
1118.0, 0.0034266510411694786
1119.0, 0.0026441132977705504
1120.0, 0.006257178721970179
1121.0, 0.009681723146145418
1122.0, 0.009855836001429455
1123.0, 0.005326342356480776
1124.0, 0.007095795944527428
1125.0, 0.004521131757759308
1126.0, 0.0007609437291301723
1127.0, 0.008433671691532254
1128.0, 0.0023649887017760446
1129.0, 0.0036838475951823883
1130.0, 0.005024147433044161
1131.0, 0.005532936210247974
1132.0, 0.00609329939690391
1133.0, 0.004439679708446128
1134.0, 0.001724703090557186
1135.0, 0.0016899606994588711
1136.0, 0.0012769332861356023
1137.0, 0.004555032478365172
1138.0, 0.0007014658103207997
1139.0, 0.001242466366471137
1140.0, 0.005707901342160964
1141.0, 0.003452252959432416
1142.0, 0.004155067575713986
1143.0, 0.004727646016149781
1144.0, 0.002769955221722085
1145.0, 0.002629613765413047
1146.0, 0.0042683735604207166
1147.0, 0.006178882160385029
1148.0, 0.0016884270989147249
1149.0, 0.002647789524491741
1150.0, 0.0017688938190726323
1151.0, 0.005932712307690671
1152.0, 0.00442740629449165
1153.0, 0.005052724275593071
1154.0, 0.00686519131157185
1155.0, 0.007941735418334806
1156.0, 0.00630696928622017
1157.0, 0.005129938019281109
1158.0, 0.007267601167804927
1159.0, 0.000750959957148686
1160.0, 0.0018232189093512477
1161.0, 0.0037241473003884785
1162.0, 0.0032878299139168714
1163.0, 0.0009353755293651884
1164.0, 0.0003943508717798869
1165.0, 0.00435721761906176
1166.0, 0.00480577801186679
1167.0, 0.006596065024910141
1168.0, 0.0069212803651939395
1169.0, 0.0058406686054362274
1170.0, 0.009942148044732434
1171.0, 0.004610813933546317
1172.0, 0.005883607340886757
1173.0, 0.0005782117895141265
1174.0, 0.0022865348603638316
1175.0, 0.005205439793951083
1176.0, 0.0036699298960462035
1177.0, 0.004042316235016994
1178.0, 0.0019369310358179008
1179.0, 0.0004691862462174966
1180.0, 0.0009704952996834699
1181.0, 0.003741996080495723
1182.0, 0.007777987944352897
1183.0, 0.007704923027708301
1184.0, 0.00908569929884519
1185.0, 0.01000905500445107
1186.0, 0.008270091295639631
1187.0, 0.008322872050550009
1188.0, 0.00590395669755659
1189.0, 0.0034477683766068936
1190.0, 0.002696582788070245
1191.0, 0.007470997360496767
1192.0, 0.00566796697600554
1193.0, 0.0032660859222693557
1194.0, 0.00744270154356938
1195.0, 0.006229305155308842
1196.0, 0.0036201653421987444
1197.0, 0.0042052059082768305
1198.0, 0.007412551219852035
1199.0, 0.004263914058227994
1200.0, 0.006276520123268405
1201.0, 0.002467704179138542
1202.0, 0.009630691559797292
1203.0, 0.012460889300549265
1204.0, 0.009987162319492284
1205.0, 0.004291496722949526
1206.0, 0.005953143216816625
1207.0, 0.01077009453762771
1208.0, 0.005843490665230246
1209.0, 0.010728730561104896
1210.0, 0.008051944669936046
1211.0, 0.012482162494006042
1212.0, 0.02069460215173634
1213.0, 0.015820960613438132
1214.0, 0.01167838995193919
1215.0, 0.00879127705000118
1216.0, 0.0051481710141621385
1217.0, 0.0032925221941880727
1218.0, 0.00725585096128452
1219.0, 0.007652853511177218
1220.0, 0.003996387452194469
1221.0, 0.006701684237535117
1222.0, 0.006254069523765659
1223.0, 0.002983152977597189
1224.0, 0.012138078981354893
1225.0, 0.014900275567048418
1226.0, 0.016938703494868583
1227.0, 0.01340778531220487
1228.0, 0.01672720017875415
1229.0, 0.018486102688656903
1230.0, 0.012699230673799997
1231.0, 0.013236259002328667
1232.0, 0.011238748917653085
1233.0, 0.00666853482692791
1234.0, 0.01130455557212377
1235.0, 0.013403271605330551
1236.0, 0.009442078817454982
1237.0, 0.01307132452126492
1238.0, 0.011386878108474703
1239.0, 0.01370767814062393
1240.0, 0.016480328995565702
1241.0, 0.016897821608202152
1242.0, 0.01781250632291637
1243.0, 0.020279445725028784
1244.0, 0.020065285595450184
1245.0, 0.018130723981591743
1246.0, 0.018088380944268175
1247.0, 0.015887055355435675
1248.0, 0.012189247151378643
1249.0, 0.014722515659077628
1250.0, 0.011132783424497644
1251.0, 0.008505626183920707
1252.0, 0.021436792228032426
1253.0, 0.0104481027537085
1254.0, 0.01843632272536357
1255.0, 0.0174263073662637
1256.0, 0.015021317024852345
1257.0, 0.012208528891909098
1258.0, 0.015055857125482873
1259.0, 0.014095391836488296
1260.0, 0.01475540601436146
1261.0, 0.016549089627800224
1262.0, 0.014819251495502018
1263.0, 0.016073776417537697
1264.0, 0.013356290484038373
1265.0, 0.023074543382413146
1266.0, 0.028195602792764903
1267.0, 0.01849706848857058
1268.0, 0.03063660408892739
1269.0, 0.040229401808989124
1270.0, 0.023338293558471508
1271.0, 0.012904106878944272
1272.0, 0.014423329096787021
1273.0, 0.01776891284747985
1274.0, 0.014094599532891421
1275.0, 0.011673340772751095
1276.0, 0.016136771174515712
1277.0, 0.018614992162914807
1278.0, 0.017670307577422627
1279.0, 0.019234766381241015
1280.0, 0.016404684081666183
1281.0, 0.02001412740318186
1282.0, 0.020634193596595688
1283.0, 0.020595593844832286
1284.0, 0.011338668435763331
1285.0, 0.011920577740828293
1286.0, 0.014781050557019709
1287.0, 0.012391743177629677
1288.0, 0.017413819324713874
1289.0, 0.021091650277159684
1290.0, 0.02162732629925261
1291.0, 0.019790696406129994
1292.0, 0.014523353202004478
1293.0, 0.02031715135474898
1294.0, 0.027367847292277068
1295.0, 0.01270930698437303
1296.0, 0.01351913690936489
1297.0, 0.018508740176114785
1298.0, 0.012522915157358228
1299.0, 0.008849673795288887
1300.0, 0.018833278660805145
1301.0, 0.012617661055290337
1302.0, 0.01520632154234337
1303.0, 0.019517393888018632
1304.0, 0.018637843283120018
1305.0, 0.015764293517110027
1306.0, 0.013802389357347134
1307.0, 0.012994574935799827
1308.0, 0.015467074667685408
1309.0, 0.01931957564145078
1310.0, 0.012394106140794368
1311.0, 0.01594894849403998
1312.0, 0.0077233071244527385
1313.0, 0.013731639779886546
1314.0, 0.014275820994668785
1315.0, 0.013715554609178764
1316.0, 0.015148460694950122
1317.0, 0.01384255443091907
1318.0, 0.014908735587317722
1319.0, 0.017143769425428057
1320.0, 0.016459350812819483
1321.0, 0.01845029316009755
1322.0, 0.017983118579657193
1323.0, 0.011622221586260766
1324.0, 0.007862761378503853
1325.0, 0.005399246126727332
1326.0, 0.011637571752900866
1327.0, 0.008168349905805916
1328.0, 0.011685747463423067
1329.0, 0.012611060357737975
1330.0, 0.01837364948826847
1331.0, 0.009082008532229666
1332.0, 0.007860965648344367
1333.0, 0.006138481844719183
1334.0, 0.0085538633182658
1335.0, 0.014037136127370238
1336.0, 0.015580280822109875
1337.0, 0.009006563111715462
1338.0, 0.004887151142086782
1339.0, 0.004249007766469756
1340.0, 0.005390824106254635
1341.0, 0.013370018707628294
1342.0, 0.013451928594299537
1343.0, 0.015678787383921457
1344.0, 0.015945795307558262
1345.0, 0.01477440606335775
1346.0, 0.011870842337655584
1347.0, 0.004855721536759628
1348.0, 0.013861772129710709
1349.0, 0.0074222485015854964
1350.0, 0.007169429229383241
1351.0, 0.009705414571239664
1352.0, 0.006596339120822964
1353.0, 0.006118953629260001
1354.0, 0.004119298446870091
1355.0, 0.002263674978888753
1356.0, 0.007916018746582498
1357.0, 0.012496647486167644
1358.0, 0.010074424556132076
1359.0, 0.009804420433400626
1360.0, 0.005919508754509462
1361.0, 0.013087934635598951
1362.0, 0.012127668942601023
1363.0, 0.004813201701268928
1364.0, 0.0012014400228024778
1365.0, 0.007830841937124716
1366.0, 0.010507626720996735
1367.0, 0.005040376667013334
1368.0, 0.0029964874446912087
1369.0, 0.008218232809211398
1370.0, 0.007036066447991037
1371.0, 0.012104192069752596
1372.0, 0.018321812054945076
1373.0, 0.01739210227951333
1374.0, 0.017947762152387962
1375.0, 0.016250543635780306
1376.0, 0.006994364673348192
1377.0, 0.007238967813770552
1378.0, 0.00851910406882473
1379.0, 0.005860551789328923
1380.0, 0.007565372940170361
1381.0, 0.007342719506827187
1382.0, 0.011164013051751846
1383.0, 0.005924148111077339
1384.0, 0.0050948259379619875
1385.0, 0.00553560437129524
1386.0, 0.004235848563067124
1387.0, 0.009838510974185413
1388.0, 0.009270105424018883
1389.0, 0.0037752601427850432
1390.0, 0.0009856994984227983
1391.0, 0.003469802650456949
1392.0, 0.004890872210330675
1393.0, 0.003127486853505631
1394.0, 0.004087821595700614
1395.0, 0.007684054324681741
1396.0, 0.007467508605069601
1397.0, 0.006776417919892725
1398.0, 0.014526070961843347
1399.0, 0.019881018962433793
1400.0, 0.03541927117811301
1401.0, 0.008550172325294352
1402.0, 0.0004793012915754848
1403.0, 0.0005384380896903266
1404.0, 0.000825397930138983
1405.0, 0.0004850530690493878
1406.0, 0.0001353290121458882
1407.0, 0.0011971510040886188
1408.0, 0.002455010690577566
1409.0, 0.0031434179145856944
1410.0, 0.005307122462075989
1411.0, 0.006594748461893598
1412.0, 0.006841763745826565
1413.0, 0.0092907919364445
1414.0, 0.015567238438033464
1415.0, 0.016555315833237137
1416.0, 0.008650313270603675
1417.0, 0.010193003169392909
1418.0, 0.004620382646212565
1419.0, 0.004460119848920321
1420.0, 0.005253878306790645
1421.0, 0.00887864193793422
1422.0, 0.012528776350106496
1423.0, 0.008944023687489918
1424.0, 0.01734653807051649
1425.0, 0.01002906096080074
1426.0, 0.010745332283758555
1427.0, 0.01862753693328472
1428.0, 0.009852602049101078
1429.0, 0.004321286273475695
1430.0, 0.0032592381723493932
1431.0, 0.011386692788496232
1432.0, 0.00884713861528455
1433.0, 0.0022253837522486046
1434.0, 0.0016625379802546164
1435.0, 0.0008778363258923842
1436.0, 0.006976268513237925
1437.0, 0.01236243755887379
1438.0, 0.006819721985650897
1439.0, 0.01653352518401103
1440.0, 0.01675337261055662
1441.0, 0.004897982203248451
1442.0, 0.009644800235779164
1443.0, 0.01301950155806026
1444.0, 0.012232121620391063
1445.0, 0.011966080413380608
1446.0, 0.01404143196880284
1447.0, 0.008287150090587817
1448.0, 0.008435244274267435
1449.0, 0.015495781213711503
1450.0, 0.019892658735819004
1451.0, 0.018010472388718172
1452.0, 0.015828557814916527
1453.0, 0.014078289888332709
1454.0, 0.01229306843072877
1455.0, 0.011435997268393037
1456.0, 0.010104314798921859
1457.0, 0.009973980377054813
1458.0, 0.0107027958247646
1459.0, 0.009676660499378324
1460.0, 0.009862027009608023
1461.0, 0.011334514764062777
1462.0, 0.0162272561529445
1463.0, 0.01643338164204452
1464.0, 0.007451686829015788
1465.0, 0.008635863515897318
1466.0, 0.023772400995890206
1467.0, 0.01581453478813044
1468.0, 0.009668215780353925
1469.0, 0.024243648015411418
1470.0, 0.00532289492250098
1471.0, 0.006415731509392926
1472.0, 0.005089345802676129
1473.0, 0.006620487845773794
1474.0, 0.012052555376297161
1475.0, 0.01270382897704178
1476.0, 0.013427112588819007
1477.0, 0.014798498594216943
1478.0, 0.011582165446729364
1479.0, 0.01543462349421647
1480.0, 0.012956637425440176
1481.0, 0.009233936672953816
1482.0, 0.013069850621646695
1483.0, 0.013176500376911095
1484.0, 0.010114594440274202
1485.0, 0.0036089933911634393
1486.0, 0.005874866440761555
1487.0, 0.008505195264530955
1488.0, 0.0033267433221658912
1489.0, 0.013008271645698843
1490.0, 0.006525155573614631
1491.0, 0.013352340335919397
1492.0, 0.019330977693380862
1493.0, 0.020459943848385932
1494.0, 0.015910419871754195
1495.0, 0.010303031352261648
1496.0, 0.0030734307013430984
1497.0, 0.003365026419833842
1498.0, 0.008094108448310442
1499.0, 0.004181095663488051
1500.0, 0.009973407929645389
1501.0, 0.005342397869612953
1502.0, 0.009190270851246421
1503.0, 0.013672568683298433
1504.0, 0.011292959570270706
1505.0, 0.013843115557770597
1506.0, 0.01449577802802833
1507.0, 0.011147047809250613
1508.0, 0.01140242596844031
1509.0, 0.01282877043597432
1510.0, 0.011464299441234633
1511.0, 0.011720452747606299
1512.0, 0.011098130428676658
1513.0, 0.003989428546626484
1514.0, 0.003751725850679974
1515.0, 0.00405602423833826
1516.0, 0.004922305790339432
1517.0, 0.008336216343022236
1518.0, 0.01175130168410083
1519.0, 0.008774619164547926
1520.0, 0.008761967471541886
1521.0, 0.022356337138487926
1522.0, 0.01690930133963306
1523.0, 0.005855142053438629
1524.0, 0.016289428716392614
1525.0, 0.006921155754767357
1526.0, 0.0009487248087754279
1527.0, 0.007453049189142849
1528.0, 0.012157466602057977
1529.0, 0.004433873696829044
1530.0, 0.016439045606421853
1531.0, 0.014752876804053915
1532.0, 0.015613644682681928
1533.0, 0.013585362007076768
1534.0, 0.016176326182700592
1535.0, 0.013448110165066602
1536.0, 0.010335593475810017
1537.0, 0.010318827396809631
1538.0, 0.00620222752641614
1539.0, 0.0020749686085520676
1540.0, 0.0038342219350151184
1541.0, 0.010268844434117047
1542.0, 0.012385612101606087
1543.0, 0.010424421923193915
1544.0, 0.015576668161511296
1545.0, 0.012859833859370137
1546.0, 0.009266176703014028
1547.0, 0.0198763669379994
1548.0, 0.016903272496744243
1549.0, 0.012642938204924488
1550.0, 0.004229837993005519
1551.0, 0.01151301422770338
1552.0, 0.008314706834949026
1553.0, 0.011302306012215317
1554.0, 0.024828965320686555
1555.0, 0.016908834326290516
1556.0, 0.02288960071726472
1557.0, 0.013465696760088453
1558.0, 0.010707557529005663
1559.0, 0.013835208141739674
1560.0, 0.019208575224236628
1561.0, 0.01490203278048719
1562.0, 0.009869672175998356
1563.0, 0.015570273242357633
1564.0, 0.01457379187098057
1565.0, 0.006943721957854698
1566.0, 0.015093721167936098
1567.0, 0.005878075395828507
1568.0, 0.01086696892642095
1569.0, 0.018164110867237133
1570.0, 0.01683155169027914
1571.0, 0.0061080684696945935
1572, 0.0
1573, 0.0
1574, 0.0
1575, 0.0
1576, 0.0
1577, 0.0
1578, 0.0
1579, 0.0
1580, 0.0
1581, 0.0
1582, 0.0
1583, 0.0
1584, 0.0
1585, 0.0
1586, 0.0
1587, 0.0
1588, 0.0
1589, 0.0
1590, 0.0
1591, 0.0
1592, 0.0
1593, 0.0
1594, 0.0
1595, 0.0
1596, 0.0
1597, 0.0
1598, 0.0
1599, 0.0
