30, 0.0
31, 0.0
32, 0.0
33, 0.0
34, 0.0
35, 0.0
36, 0.0
37, 0.0
38, 0.0
39, 0.0
40, 0.0
41, 0.0
42, 0.0
43, 0.0
44, 0.0
45, 0.0
46, 0.0
47, 0.0
48, 0.0
49, 0.0
50, 0.0
51, 0.0
52, 0.0
53, 0.0
54, 0.0
55, 0.0
56, 0.0
57, 0.0
58, 0.0
59, 0.0
60, 0.0
61, 0.0
62, 0.0
63, 0.0
64, 0.0
65, 0.0
66, 0.0
67, 0.0
68, 0.0
69, 0.0
70, 0.0
71, 0.0
72, 0.0
73, 0.0
74, 0.0
75, 0.0
76, 0.0
77, 0.0
78, 0.0
79, 0.0
80, 0.0
81, 0.0
82, 0.0
83, 0.0
84, 0.0
85, 0.0
86, 0.0
87, 0.0
88, 0.0
89, 0.0
90, 0.0
91, 0.0
92, 0.0
93, 0.0
94, 0.0
95, 0.0
96, 0.0
97, 0.0
98, 0.0
99, 0.0
100, 0.0
101, 0.0
102, 0.0
103, 0.0
104, 0.0
105, 0.0
106, 0.0
107, 0.0
108, 0.0
109, 0.0
110, 0.0
111, 0.0
112, 0.0
113, 0.0
114, 0.0
115, 0.0
116, 0.0
117, 0.0
118, 0.0
119, 0.0
120, 0.0
121, 0.0
122, 0.0
123, 0.0
124, 0.0
125, 0.0
126, 0.0
127, 0.0
128, 0.0
129, 0.0
130, 0.0
131, 0.0
132, 0.0
133, 0.0
134, 0.0
135, 0.0
136, 0.0
137, 0.0
138, 0.0
139, 0.0
140, 0.0
141, 0.0
142, 0.0
143, 0.0
144, 0.0
145, 0.0
146, 0.0
147, 0.0
148.0, 0.001299690277989529
149.0, 0.0024047074196469915
150.0, 0.00010374007390187448
151.0, 0.0008514036183609957
152.0, 0.0015618434751907802
153.0, 0.0013470566492575036
154.0, 0.0008639358753225555
155.0, 0.001180174363450036
156.0, 0.002546145280371409
157.0, 0.001959458053660761
158.0, 0.0008215871913647957
159.0, 0.0005252924107355675
160.0, 0.0013394287886344678
161.0, 0.0015589912720007854
162.0, 0.0015094721700937522
163.0, 0.0011403405903738014
164.0, 0.0015368678742114902
165.0, 0.001985416755702564
166.0, 0.000803839244046129
167.0, 0.001082195471085211
168.0, 0.002770758670910522
169.0, 0.0023420412179431375
170.0, 0.0016338883969564835
171.0, 0.002528010352439204
172.0, 0.0012707669860165104
173.0, 0.0005498176143351298
174.0, 0.002988441193051969
175.0, 0.004978519484924265
176.0, 0.0054096517989396554
177.0, 0.007172487962083436
178.0, 0.008063426224596371
179.0, 0.009559358743666533
180.0, 0.011903577959396509
181.0, 0.01504836360087022
182.0, 0.018658370590349273
183.0, 0.02175587410575694
184.0, 0.025592285158554287
185.0, 0.03260346650908503
186.0, 0.0398659841454821
187.0, 0.04577565195560056
188.0, 0.05322420762409088
189.0, 0.06538367998641069
190.0, 0.07830952237944719
191.0, 0.09042779922342148
192.0, 0.10247698544793164
193.0, 0.11635672531827335
194.0, 0.12947850398116986
195.0, 0.14537342286318383
196.0, 0.1628066365750109
197.0, 0.1816846661460177
198.0, 0.20233032156693354
199.0, 0.22554790427042734
200.0, 0.251758060774353
201.0, 0.281772321559324
202.0, 0.31551566891062816
203.0, 0.3521566340409249
204.0, 0.3906926177781024
205.0, 0.4352097575478466
206.0, 0.48320138289603504
207.0, 0.5410582690410413
208.0, 0.6074702866450304
209.0, 0.6803281910253255
210.0, 0.7629697296169273
211.0, 0.8496404661448805
212.0, 0.9228269734294963
213.0, 0.9744927822068402
214.0, 0.9970025760903969
215.0, 0.9832631684167966
216.0, 0.9221517456577707
217.0, 0.831013234230353
218.0, 0.7230075207609237
219.0, 0.6105611448826617
220.0, 0.5035921422946794
221.0, 0.4048813504632024
222.0, 0.32565769803005484
223.0, 0.2608585810554175
224.0, 0.20918922119222394
225.0, 0.1685122438219962
226.0, 0.136411443870697
227.0, 0.11578641530329445
228.0, 0.0992019204696361
229.0, 0.082768375628991
230.0, 0.0706915362590657
231.0, 0.06517249519754781
232.0, 0.059418731220448266
233.0, 0.0520432007016378
234.0, 0.04884764174319074
235.0, 0.04486187232786417
236.0, 0.040930399773877815
237.0, 0.0409379706579123
238.0, 0.03903172721999258
239.0, 0.04259453524328003
240.0, 0.044952724445580815
241.0, 0.04493128421373491
242.0, 0.04438340058605724
243.0, 0.04798194557707868
244.0, 0.04959627883233305
245.0, 0.04967594692042932
246.0, 0.05067225359794258
247.0, 0.05083461338368168
248.0, 0.04791841697898054
249.0, 0.0466571560399023
250.0, 0.04629310411886154
251.0, 0.04671950316796488
252.0, 0.04933504593525811
253.0, 0.05452548125914161
254.0, 0.06143100362407456
255.0, 0.0708678133216717
256.0, 0.08095074288426915
257.0, 0.08333220856334299
258.0, 0.08121765356280988
259.0, 0.07807693829289952
260.0, 0.06858032289378137
261.0, 0.05823034641702973
262.0, 0.04705886289458929
263.0, 0.03807606675503599
264.0, 0.03277928969990742
265.0, 0.03095826951402489
266.0, 0.030258138653139248
267.0, 0.029224506213471887
268.0, 0.02713603619934121
269.0, 0.026479659914132387
270.0, 0.027762392529741862
271.0, 0.028473461928316512
272.0, 0.0313353107763843
273.0, 0.033362243124482265
274.0, 0.033463414114483996
275.0, 0.0335549870436858
276.0, 0.03428733823094817
277.0, 0.030544589876340972
278.0, 0.030847752421941634
279.0, 0.033063780619119555
280.0, 0.03446288647490893
281.0, 0.03606022164231758
282.0, 0.039878703069111725
283.0, 0.04016340627798018
284.0, 0.041274067307816166
285.0, 0.043832024152325316
286.0, 0.047511829396506076
287.0, 0.05151114059367585
288.0, 0.05450200285009445
289.0, 0.05182179672914453
290.0, 0.05357160520997528
291.0, 0.05194816699890543
292.0, 0.045511157407387176
293.0, 0.03579684392235543
294.0, 0.026144545946274512
295.0, 0.019662781726573993
296.0, 0.01273447874518053
297.0, 0.006909201211835907
298.0, 0.004021897525401102
299.0, 0.0043019923078116635
300.0, 0.0029279931898526235
301.0, 0.004485623970967881
302.0, 0.006774314204811377
303.0, 0.009085411284942741
304.0, 0.010072800989623047
305.0, 0.00865253942047326
306.0, 0.007500676938610941
307.0, 0.006153668208974079
308.0, 0.005642322859285838
309.0, 0.005416648158913948
310.0, 0.004728846911120135
311.0, 0.003029425780951266
312.0, 0.0005975131832708944
313.0, 0.003415133637628952
314.0, 0.006738214617501126
315.0, 0.008758476173884089
316.0, 0.00907805574099613
317.0, 0.008458730209367805
318.0, 0.009248247071530803
319.0, 0.008571425996341309
320.0, 0.008422121017079804
321.0, 0.010477451954339198
322.0, 0.015356864399434206
323.0, 0.02177032460616197
324.0, 0.02595275927366975
325.0, 0.027608806695685082
326.0, 0.030730752354602847
327.0, 0.035486838796789565
328.0, 0.040276082834330124
329.0, 0.04464901645222629
330.0, 0.043769772782094506
331.0, 0.046234903241536285
332.0, 0.04789794086594888
333.0, 0.05086963702642886
334.0, 0.05995434638632185
335.0, 0.07225555267186139
336.0, 0.08907107625540621
337.0, 0.09980150533875465
338.0, 0.10188090159837336
339.0, 0.09600855755729107
340.0, 0.08512613200384794
341.0, 0.07255237684650519
342.0, 0.06444116770891384
343.0, 0.05777869774308264
344.0, 0.05552885109420258
345.0, 0.05535157113233245
346.0, 0.05084612918457407
347.0, 0.048470061093860546
348.0, 0.04335168341095428
349.0, 0.03881402072927258
350.0, 0.034205782169224375
351.0, 0.029707536511568516
352.0, 0.02640909090852861
353.0, 0.01783279579984795
354.0, 0.01579152548627377
355.0, 0.014042287014172124
356.0, 0.014297425587888784
357.0, 0.015467936758305597
358.0, 0.012228086494169512
359.0, 0.013267274617240062
360.0, 0.015995245659878938
361.0, 0.016156566089453473
362.0, 0.014014860918770557
363.0, 0.012205584462557893
364.0, 0.014025974406013044
365.0, 0.012646624583451593
366.0, 0.01654080830108267
367.0, 0.017417554068346476
368.0, 0.016343179986382024
369.0, 0.015190300742106415
370.0, 0.013471066463310259
371.0, 0.012409680233442162
372.0, 0.013966689602316252
373.0, 0.015375123264063746
374.0, 0.01827380740703397
375.0, 0.023657389671815195
376.0, 0.029923999678343693
377.0, 0.03619671085466459
378.0, 0.04584677920286372
379.0, 0.053095082236188425
380.0, 0.0584983063355137
381.0, 0.0625159648580526
382.0, 0.06332869531262555
383.0, 0.06160272477714653
384.0, 0.062198955549226546
385.0, 0.06083941084509694
386.0, 0.06221388653949662
387.0, 0.06665323436017427
388.0, 0.06684761105327693
389.0, 0.06543201599096221
390.0, 0.07007891985140102
391.0, 0.07777873710726181
392.0, 0.08382248357570388
393.0, 0.08465383643068788
394.0, 0.0799741266124656
395.0, 0.07829257024570996
396.0, 0.06996987774070412
397.0, 0.06556695745188022
398.0, 0.06461897879901103
399.0, 0.06744468151173967
400.0, 0.07611781529775502
401.0, 0.08446657088991187
402.0, 0.09784245651321057
403.0, 0.1198879273560588
404.0, 0.1438912277850765
405.0, 0.16848116456246898
406.0, 0.19705833471660397
407.0, 0.22352158951761408
408.0, 0.2435652094031428
409.0, 0.2547923580777842
410.0, 0.2604811668871074
411.0, 0.2669418202923259
412.0, 0.2792284804726572
413.0, 0.29234067231975863
414.0, 0.3169442763759988
415.0, 0.3512347832101271
416.0, 0.39532976819355176
417.0, 0.4445291279614372
418.0, 0.4922643210451437
419.0, 0.5351061336394429
420.0, 0.5486043536325791
421.0, 0.5329877382161701
422.0, 0.49214155421487366
423.0, 0.4306398329870099
424.0, 0.35851237882197184
425.0, 0.2954596031995037
426.0, 0.2387539756616433
427.0, 0.1962079534279537
428.0, 0.16328697291848088
429.0, 0.138858946020513
430.0, 0.12196806759529545
431.0, 0.11026670103217417
432.0, 0.1036669097893358
433.0, 0.10121530606931127
434.0, 0.10131111726083757
435.0, 0.1036322805854538
436.0, 0.10842326338250895
437.0, 0.11510093546236677
438.0, 0.11509122900816546
439.0, 0.1155253594441558
440.0, 0.11301300583224465
441.0, 0.1067780844250086
442.0, 0.09873287933271392
443.0, 0.09144235762137144
444.0, 0.08296587026836388
445.0, 0.0776987870240789
446.0, 0.07454362372026467
447.0, 0.07414580304604779
448.0, 0.07677461371835716
449.0, 0.08028637520643958
450.0, 0.07799311513422455
451.0, 0.07782316599634095
452.0, 0.07794481489630847
453.0, 0.07682305299567355
454.0, 0.07527572477658205
455.0, 0.07409275015689347
456.0, 0.07256777301723694
457.0, 0.06961244613167178
458.0, 0.06649907172371444
459.0, 0.0631368363790138
460.0, 0.06022119322491175
461.0, 0.05745196851189421
462.0, 0.05417652107304639
463.0, 0.05380241727601806
464.0, 0.05328873617707188
465.0, 0.05495036503421021
466.0, 0.05805808192517783
467.0, 0.06360858125798143
468.0, 0.07247560943315105
469.0, 0.08196355329198193
470.0, 0.09348723668218684
471.0, 0.10910418085474262
472.0, 0.12680453755764548
473.0, 0.14605053239546667
474.0, 0.16657565230892207
475.0, 0.18758310877091508
476.0, 0.2079635052911501
477.0, 0.22741294767535986
478.0, 0.24221660988210789
479.0, 0.25567043245689225
480.0, 0.2680234954654213
481.0, 0.27720296725225607
482.0, 0.28795815312465856
483.0, 0.3001438143915556
484.0, 0.3132173101845756
485.0, 0.32362141523316
486.0, 0.3309740395165993
487.0, 0.33669813098703033
488.0, 0.34199110591673504
489.0, 0.3475306280158643
490.0, 0.3557772364795842
491.0, 0.36312463283224156
492.0, 0.3654030254350231
493.0, 0.35767771200368775
494.0, 0.3363700729796128
495.0, 0.3058915323197288
496.0, 0.26790486447151635
497.0, 0.22760669704406045
498.0, 0.1916498954547087
499.0, 0.1603009684121798
500.0, 0.1316303796672032
501.0, 0.1080914286252556
502.0, 0.09202236814007787
503.0, 0.07578478141147968
504.0, 0.0664024425725616
505.0, 0.060507837526579795
506.0, 0.05391798355624298
507.0, 0.046556659397551825
508.0, 0.04446442834595545
509.0, 0.04160490183066818
510.0, 0.04068535469600322
511.0, 0.04026339180624241
512.0, 0.0415037367806634
513.0, 0.04438596114385191
514.0, 0.04319190263911115
515.0, 0.04678403407035838
516.0, 0.05321955223043236
517.0, 0.054548305643865806
518.0, 0.05565834497319849
519.0, 0.05972321918586663
520.0, 0.06461049424905646
521.0, 0.07041578324087307
522.0, 0.0836719480201833
523.0, 0.09070290656774334
524.0, 0.09880870882344793
525.0, 0.11280066970241731
526.0, 0.129792548910629
527.0, 0.13958746846818565
528.0, 0.15838523606981653
529.0, 0.17411400587796516
530.0, 0.18814799860158282
531.0, 0.20330931986986917
532.0, 0.21907427922271855
533.0, 0.23301872379927327
534.0, 0.24670938807426232
535.0, 0.25343460674681656
536.0, 0.25169048711080116
537.0, 0.24902851201197984
538.0, 0.2446913404853648
539.0, 0.2361051509108925
540.0, 0.2235160346479498
541.0, 0.21079561793204088
542.0, 0.1973002724283712
543.0, 0.1839369361003731
544.0, 0.17299380498057615
545.0, 0.16239498660444257
546.0, 0.15043019413011083
547.0, 0.14095151968946745
548.0, 0.12877145949097418
549.0, 0.1219703606307956
550.0, 0.1127273081882387
551.0, 0.1031627188570841
552.0, 0.09514538271872018
553.0, 0.08823962781682693
554.0, 0.08177124608305109
555.0, 0.07503416880425436
556.0, 0.06727131360417239
557.0, 0.0611677231399288
558.0, 0.05476046163552174
559.0, 0.04792699092424561
560.0, 0.043806617503714916
561.0, 0.04108643676068473
562.0, 0.033141258804421
563.0, 0.02932313474368826
564.0, 0.02581359338395196
565.0, 0.02340694991415521
566.0, 0.022766335100060122
567.0, 0.020442743679519742
568.0, 0.0164517893053787
569.0, 0.013516116847164491
570.0, 0.012270775904680615
571.0, 0.011131345758634396
572.0, 0.009336805155832423
573.0, 0.0072512909905413795
574.0, 0.005895720806184691
575.0, 0.006465267581548349
576.0, 0.0047899582798491555
577.0, 0.004204155823372053
578.0, 0.003081931373876936
579.0, 0.002104448198533264
580.0, 0.0027690924076214742
581.0, 0.002029433229071189
582.0, 0.00034586297356178474
583.0, 0.0010341462952989326
584.0, 0.0013648625056201164
585.0, 0.0013301409182521764
586.0, 0.002283640650547769
587.0, 0.004216157338547594
588.0, 0.0014256072706087487
589.0, 0.0002615402094220897
590.0, 2.0303605571951825e-05
591.0, 0.0012624384597653146
592.0, 0.0032493246838868678
593.0, 0.004094643803328469
594.0, 0.0027963526650015133
595.0, 0.004053952303625751
596.0, 0.0038838093976149403
597.0, 0.002983159397146139
598.0, 0.002373146395329291
599.0, 0.0034441577765441014
600.0, 0.004346222544994419
601.0, 0.0022994674842387926
602.0, 0.006507382191427283
603.0, 0.0063304179016289005
604.0, 0.004538216730511219
605.0, 0.0046711666093822435
606.0, 0.0042486027208484866
607.0, 0.002290447530209536
608.0, 0.001858250059110545
609.0, 0.0022613050593597492
610.0, 0.0008471440459737584
611.0, 0.0012903358317381136
612.0, 0.0027787738678962354
613.0, 0.005613558355496433
614.0, 0.009075372031328657
615.0, 0.011558498258040988
616.0, 0.01605282583352005
617.0, 0.021243743050342736
618.0, 0.02909806464221681
619.0, 0.03693829766298585
620.0, 0.044371621523128554
621.0, 0.05070460437221653
622.0, 0.05389133626336735
623.0, 0.052944256134942885
624.0, 0.04818452430692856
625.0, 0.04340418396570414
626.0, 0.03894960266210072
627.0, 0.03375601880118759
628.0, 0.0284923661167523
629.0, 0.025060486858652618
630.0, 0.02059179873659819
631.0, 0.0152299340071676
632.0, 0.015360655601124113
633.0, 0.012506414828525485
634.0, 0.008772109474442244
635.0, 0.007068948772249731
636.0, 0.006767602849866515
637.0, 0.006280221254665904
638.0, 0.005681728178462981
639.0, 0.005288408626187949
640.0, 0.005004887120722885
641.0, 0.0051962017272422015
642.0, 0.005527793565013997
643.0, 0.005940444448345201
644.0, 0.00879605159775305
645.0, 0.009829504145281436
646.0, 0.009560992612667525
647.0, 0.008750536819994544
648.0, 0.009188219171580128
649.0, 0.010471814456395735
650.0, 0.011096464047418007
651.0, 0.011175207708677267
652.0, 0.00992396379408205
653.0, 0.012055161060248775
654.0, 0.01255082855005341
655.0, 0.011582135291179772
656.0, 0.011265232914539736
657.0, 0.012235014107607243
658.0, 0.012210635043574303
659.0, 0.013819783417965054
660.0, 0.014490904071270941
661.0, 0.014721416460956841
662.0, 0.01565422827400087
663.0, 0.016934655094554323
664.0, 0.018523336426738462
665.0, 0.02147972098666719
666.0, 0.025563362955814947
667.0, 0.026283223547430526
668.0, 0.026329940779718983
669.0, 0.03123976028986484
670.0, 0.036894303213520954
671.0, 0.04242423558374453
672.0, 0.05061334693050335
673.0, 0.056056790050012816
674.0, 0.06284234874641813
675.0, 0.07273155553241413
676.0, 0.08192882351956413
677.0, 0.09245543490001817
678.0, 0.10341254830870747
679.0, 0.11490365743367728
680.0, 0.1327006210451931
681.0, 0.14459768698857256
682.0, 0.1530877209766546
683.0, 0.16071271287112712
684.0, 0.1649153918270556
685.0, 0.16531151544209113
686.0, 0.16147728725057084
687.0, 0.15280885010101034
688.0, 0.1455344275042363
689.0, 0.13408794921401992
690.0, 0.12593399917363063
691.0, 0.11889899154960273
692.0, 0.11512845067819343
693.0, 0.11443695478280445
694.0, 0.1157733884166687
695.0, 0.12362777689136283
696.0, 0.13611985917798758
697.0, 0.14959989730997203
698.0, 0.1759126791844449
699.0, 0.2068500374237023
700.0, 0.2389409009011659
701.0, 0.2684817545725491
702.0, 0.28808493521465467
703.0, 0.3082110997155214
704.0, 0.3363946506168622
705.0, 0.3500375438772244
706.0, 0.3569152290823043
707.0, 0.3529261952349007
708.0, 0.33619071111507626
709.0, 0.311859857089809
710.0, 0.28545453853914804
711.0, 0.24994590412205192
712.0, 0.21972804923710204
713.0, 0.1889062942104228
714.0, 0.16201409073621523
715.0, 0.13930361118066673
716.0, 0.11942728419550598
717.0, 0.10289623999133296
718.0, 0.08712517260599462
719.0, 0.07707465047863779
720.0, 0.06606358444304876
721.0, 0.057849996732390295
722.0, 0.051336270829327284
723.0, 0.04573419037132052
724.0, 0.04095573514744789
725.0, 0.035656836225866274
726.0, 0.03418585392582703
727.0, 0.030826185855646792
728.0, 0.028429629834403003
729.0, 0.025970722025966408
730.0, 0.0231414296127019
731.0, 0.020237032474925472
732.0, 0.017898746914256764
733.0, 0.017439085311979442
734.0, 0.01611197142042531
735.0, 0.01264312078159696
736.0, 0.012255522547197936
737.0, 0.011911968926396772
738.0, 0.010390369675908636
739.0, 0.008944105527389187
740.0, 0.008489945913179607
741.0, 0.007040948124258287
742.0, 0.005149751963560879
743.0, 0.004935835841305865
744.0, 0.003451507382227878
745.0, 0.0020814081660965995
746.0, 0.001548759493872533
747.0, 0.0010555669000089922
748.0, 0.00035176912713438607
749.0, 0.001267257822881551
750.0, 0.0010213769716137463
751.0, 0.0009574530775204558
752.0, 0.0005613030409769315
753.0, 0.0004508219637132658
754.0, 0.0005826775876339311
755.0, 0.0004296762916345726
756.0, 0.0008525613655866131
757.0, 0.0009239456107612602
758.0, 0.0010208740878631883
759.0, 0.0008313740634611726
760.0, 0.000515038699982619
761.0, 0.00022818511162882614
762.0, 0.000239954565475036
763.0, 0.0007608213569789237
764.0, 0.0013386609842752258
765.0, 0.00020714167900209813
766.0, 0.000581162207054314
767.0, 0.0006827068324700148
768.0, 0.0005537568936462005
769.0, 0.0015633874447035657
770.0, 0.002813868309559714
771.0, 0.0016809084823176611
772.0, 0.0008995601450585542
773.0, 0.0027013147677039523
774.0, 0.0009679485036524944
775.0, 0.0012697597736719237
776.0, 0.00428634503994382
777.0, 0.006513308563470931
778.0, 0.006196873812877611
779.0, 0.006336920486602108
780.0, 0.009755445530315031
781.0, 0.01053307632436418
782.0, 0.011752948199689587
783.0, 0.01174197615938364
784.0, 0.011831912894576867
785.0, 0.0139914058434791
786.0, 0.017147707119935393
787.0, 0.01829588281749413
788.0, 0.020779530373920427
789.0, 0.019559830531003478
790.0, 0.01848173757947963
791.0, 0.02153976944087635
792.0, 0.02301288115269485
793.0, 0.022501639502126268
794.0, 0.02111013493543815
795.0, 0.018424384602659792
796.0, 0.018491938807699528
797.0, 0.019853103235318817
798.0, 0.020840191985542007
799.0, 0.021327301015051685
800.0, 0.020583061374587
801.0, 0.02027050818540379
802.0, 0.02228759860123899
803.0, 0.02573740180704302
804.0, 0.026178240166516917
805.0, 0.029280213007167724
806.0, 0.031968447715667536
807.0, 0.0337643370962067
808.0, 0.035561511394648346
809.0, 0.0361533204799197
810.0, 0.03690120540970944
811.0, 0.03965892210124093
812.0, 0.040075115346101094
813.0, 0.041551710772612806
814.0, 0.04015216584103927
815.0, 0.04220994733597162
816.0, 0.04337758873911813
817.0, 0.043952475550349576
818.0, 0.04497155938189782
819.0, 0.04703782686702142
820.0, 0.05079382001615039
821.0, 0.050358027421104894
822.0, 0.05391055187698122
823.0, 0.048778707741081846
824.0, 0.04551362039124059
825.0, 0.04450512474693691
826.0, 0.043867347893717615
827.0, 0.042682433741714786
828.0, 0.04091881900953288
829.0, 0.03933009932728466
830.0, 0.03695260061439376
831.0, 0.03543678176452116
832.0, 0.032765377320604326
833.0, 0.031034856064266692
834.0, 0.02953580277692548
835.0, 0.026616781789005426
836.0, 0.02376388741578272
837.0, 0.026117067458687825
838.0, 0.02277459618572728
839.0, 0.01950341588427166
840.0, 0.018767177575996163
841.0, 0.017195964824092705
842.0, 0.015749832472015227
843.0, 0.014654336282214547
844.0, 0.012788156079104959
845.0, 0.010664557624486808
846.0, 0.01007815266746477
847.0, 0.007690484520358868
848.0, 0.007727227780216882
849.0, 0.007538693830885913
850.0, 0.00771401713778404
851.0, 0.007594626537564633
852.0, 0.006591964904132626
853.0, 0.005556069276925078
854.0, 0.005085203152899665
855.0, 0.00545223255891913
856.0, 0.005020373219557014
857.0, 0.004500263452680606
858.0, 0.005802642803624163
859.0, 0.006724498458604531
860.0, 0.005607977423474555
861.0, 0.0035304907827042728
862.0, 0.0031089004051560697
863.0, 0.006320234887407191
864.0, 0.002687243658486835
865.0, 0.005811240176233721
866.0, 0.005430551547563116
867.0, 0.004730775866755833
868.0, 0.0045778558936498
869.0, 0.00325782966340424
870.0, 0.0015508533858065103
871.0, 0.004127486020722188
872.0, 0.002637200441888246
873.0, 0.004842689757492314
874.0, 0.00439326028448094
875.0, 0.004565464095225186
876.0, 0.005161206412421119
877.0, 0.0062515856773385226
878.0, 0.008431614248949495
879.0, 0.011704459670727018
880.0, 0.01592710448372186
881.0, 0.019339976979905592
882.0, 0.01965488602663877
883.0, 0.021542736231714214
884.0, 0.0224307611429633
885.0, 0.02139005668985778
886.0, 0.02125014920464755
887.0, 0.022361755884468502
888.0, 0.01973290029079207
889.0, 0.017130980610190465
890.0, 0.016939663135362798
891.0, 0.012558439356227682
892.0, 0.012452268483956454
893.0, 0.00970506672344485
894.0, 0.006436042147217389
895.0, 0.005429962350795371
896.0, 0.005665766236000216
897.0, 0.006301635451983409
898.0, 0.0069947989341463
899.0, 0.0020170411499818718
900.0, 0.0011349039257498193
901.0, 0.0012366931696541593
902.0, 0.0034441186990888414
903.0, 0.003687842705402025
904.0, 0.0019786236660532044
905.0, 0.002096466348225475
906.0, 0.0022614707546630302
907.0, 0.00016766295225961953
908.0, 0.0030086328773521933
909.0, 0.0018647382121857255
910.0, 0.0020234807695335274
911.0, 0.0012394399644163425
912.0, 0.00046507400826006326
913.0, 0.0005667382314712383
914.0, 0.0009017166811580047
915.0, 0.00170772118763498
916.0, 0.0010188838171770074
917.0, 0.0021258394533086103
918.0, 0.0020770250804190006
919.0, 0.0011332835996957379
920.0, 0.001465072770089938
921.0, 0.0022344484808595045
922.0, 0.0016267576428961525
923.0, 0.0003161384510858213
924.0, 0.0010568570091552668
925.0, 0.0007503832016547401
926.0, 0.004615941268962786
927.0, 0.004016350117743351
928.0, 0.004662592036783908
929.0, 0.007214618247398925
930.0, 0.010025369035729401
931.0, 0.013082127547552048
932.0, 0.01573043059681403
933.0, 0.015906658560607165
934.0, 0.02041350289181124
935.0, 0.02868669987426837
936.0, 0.029092267357702616
937.0, 0.03026320261298771
938.0, 0.03507907033537209
939.0, 0.03597244590227423
940.0, 0.03363266451371744
941.0, 0.031557846795971886
942.0, 0.02806039503401271
943.0, 0.02705590894451356
944.0, 0.02677643150604759
945.0, 0.028275584111505204
946.0, 0.02689424408117897
947.0, 0.026669829586563512
948.0, 0.028567118691558775
949.0, 0.03134519786294578
950.0, 0.03526991191879827
951.0, 0.0408140041171884
952.0, 0.044541535923379366
953.0, 0.047185239116075
954.0, 0.05138316385353378
955.0, 0.0517568796902434
956.0, 0.05076196191318346
957.0, 0.04967707640715378
958.0, 0.04973714898890887
959.0, 0.0506501957769688
960.0, 0.051916583867593756
961.0, 0.05377657831488096
962.0, 0.054038508830407374
963.0, 0.06086795969223002
964.0, 0.0664026919729393
965.0, 0.07656801296535241
966.0, 0.08778649057322714
967.0, 0.10045158552231866
968.0, 0.11250480669137701
969.0, 0.1231579431567106
970.0, 0.13293551929796002
971.0, 0.13767066862504
972.0, 0.13825228934588238
973.0, 0.13834551827292882
974.0, 0.14108419320262827
975.0, 0.13987437160912022
976.0, 0.14136082528695218
977.0, 0.1451716057030746
978.0, 0.1482804678315128
979.0, 0.15198539350408516
980.0, 0.15864481868690095
981.0, 0.16062545995391006
982.0, 0.15821186842298487
983.0, 0.15418358114420797
984.0, 0.14316421266787463
985.0, 0.12973095455772293
986.0, 0.11571753454321843
987.0, 0.10296999680376132
988.0, 0.09136912856211916
989.0, 0.08016613509178
990.0, 0.07030225171062145
991.0, 0.06056552785203108
992.0, 0.05395653070145099
993.0, 0.047366128033554084
994.0, 0.04166928670459753
995.0, 0.03940739921880214
996.0, 0.037212032190217674
997.0, 0.03605270699958294
998.0, 0.036121780715059774
999.0, 0.03607216148499467
1000.0, 0.038108072625937045
1001.0, 0.04062631614048896
1002.0, 0.0452500868894875
1003.0, 0.050686515396226914
1004.0, 0.0530591325415271
1005.0, 0.05593898626252433
1006.0, 0.06142155638306724
1007.0, 0.06696356396818265
1008.0, 0.07300700993785035
1009.0, 0.08350273238788554
1010.0, 0.09661348767077566
1011.0, 0.1039772307010273
1012.0, 0.11676319820996399
1013.0, 0.12233543241015037
1014.0, 0.12417660167537825
1015.0, 0.12266405643170936
1016.0, 0.12116843460162244
1017.0, 0.11343299884592581
1018.0, 0.1016848537989443
1019.0, 0.0934221525503077
1020.0, 0.0822590783344426
1021.0, 0.07018021005618498
1022.0, 0.05684032663817125
1023.0, 0.04904777777972205
1024.0, 0.041470232621431555
1025.0, 0.033339036778326975
1026.0, 0.028573994337881787
1027.0, 0.024778978103916702
1028.0, 0.01970919535635335
1029.0, 0.015913108249591763
1030.0, 0.015376970359443437
1031.0, 0.013517379674708311
1032.0, 0.013537985091463114
1033.0, 0.013672938451962458
1034.0, 0.013063033788997877
1035.0, 0.012800545016624275
1036.0, 0.011668449955796592
1037.0, 0.010755024563317728
1038.0, 0.010007478123849509
1039.0, 0.008075905142001667
1040.0, 0.006053789442507183
1041.0, 0.007545927371382222
1042.0, 0.006780336026175707
1043.0, 0.008537141753818745
1044.0, 0.008384773033562321
1045.0, 0.007566776941578246
1046.0, 0.007103550092303083
1047.0, 0.006640059756632672
1048.0, 0.006231087595214396
1049.0, 0.00592631700805155
1050.0, 0.005670588397687603
1051.0, 0.005694324295514354
1052.0, 0.004679977003132044
1053.0, 0.004529220605019418
1054.0, 0.004234827983904357
1055.0, 0.004881355902482041
1056.0, 0.004179359645054071
1057.0, 0.003138452767737592
1058.0, 0.003711413182145624
1059.0, 0.003503579907054525
1060.0, 0.0024587728145687247
1061.0, 0.0045559698981992676
1062.0, 0.005738599548454254
1063.0, 0.004235863157319083
1064.0, 0.003969479232355674
1065.0, 0.001831374662507507
1066.0, 0.0035717009691650543
1067.0, 0.003312063034517583
1068.0, 0.0044027213070096825
1069.0, 0.005458218267698683
1070.0, 0.005187216440058322
1071.0, 0.0045854038427340545
1072.0, 0.0038597235600666196
1073.0, 0.0060164906420996835
1074.0, 0.004405021759800055
1075.0, 0.002247820792982189
1076.0, 0.0034662979975628684
1077.0, 0.005380959271845732
1078.0, 0.005774231290405785
1079.0, 0.006428665325554326
1080.0, 0.008115120548293674
1081.0, 0.007881856539323287
1082.0, 0.0050526438415985165
1083.0, 0.004540296063941199
1084.0, 0.0052218678444249855
1085.0, 0.00631567437887868
1086.0, 0.007253773506569525
1087.0, 0.0060002813648386425
1088.0, 0.004661705407329909
1089.0, 0.002908278442507543
1090.0, 0.004885229521824131
1091.0, 0.005044187159563412
1092.0, 0.002539328874976786
1093.0, 0.003043485866499601
1094.0, 0.003909052784575618
1095.0, 0.0017914885336962915
1096.0, 0.0004249297955584109
1097.0, 0.0013886972684351733
1098.0, 0.0013786731164373183
1099.0, 0.0016725534991974592
1100.0, 0.002395139071746901
1101.0, 0.0019194033802794929
1102.0, 0.0013395545788846745
1103.0, 0.0009370356489146019
1104.0, 0.0005659434193255331
1105.0, 0.001309135784710687
1106.0, 0.0010968245160686706
1107.0, 0.0027621206309324828
1108.0, 0.002791438800270576
1109.0, 0.0030419642087708915
1110.0, 0.0013093284749162784
1111.0, 0.0018540924005566524
1112.0, 0.002313222797030182
1113.0, 0.0013274488503374128
1114.0, 0.00027602364155021527
1115.0, 0.0011463252414064885
1116.0, 0.0029084083161330376
1117.0, 0.001831070744270602
1118.0, 0.0021022660996803397
1119.0, 0.0009620891565258394
1120.0, 0.004601766035438208
1121.0, 0.001366241064812398
1122.0, 0.0005593598732947569
1123.0, 0.0028727426380591734
1124.0, 0.004130062895688421
1125.0, 0.0022890701673089287
1126.0, 0.000590216238250114
1127.0, 0.0013888643354299387
1128.0, 0.0015375248513552677
1129.0, 0.0009433057368576317
1130.0, 0.0017772672627125894
1131.0, 0.0010088658361551914
1132.0, 0.0032450761333444557
1133.0, 0.0008451219115715135
1134.0, 0.0020726145612256254
1135.0, 0.00203561871114783
1136.0, 0.001434409449461621
1137.0, 0.0010071352992225221
1138.0, 0.0008281867960549886
1139.0, 0.0016055535980262976
1140.0, 0.0015434924710127143
1141.0, 0.0009836755407512804
1142.0, 0.0005341008161948327
1143.0, 0.00236658670481295
1144.0, 0.0008816772025514806
1145.0, 0.002020759859982585
1146.0, 0.0016504802489993706
1147.0, 0.001241936069601595
1148.0, 0.0008946275590341232
1149.0, 0.0004468252370456626
1150.0, 0.0008537447094841852
1151.0, 0.0018701326122708933
1152.0, 0.0015564177205021088
1153.0, 0.0011625362772709137
1154.0, 0.0010164543579691324
1155.0, 0.0017750869434632463
1156.0, 0.0012245941537727164
1157.0, 0.0025308008136484456
1158.0, 0.0017079757184068553
1159.0, 0.0009377960400694308
1160.0, 0.00149141167388588
1161.0, 0.0018876853703440554
1162.0, 0.002166066575092925
1163.0, 0.0033460522801871772
1164.0, 0.003726650626323187
1165.0, 0.003598088285120564
1166.0, 0.0004241432836789799
1167.0, 0.0038176279421435547
1168.0, 0.002168620000892084
1169.0, 0.000588164714003156
1170.0, 0.002286806797356458
1171.0, 0.001931999922234334
1172.0, 0.001636012259348175
1173.0, 0.0024688786182447305
1174.0, 0.0021438037650529573
1175.0, 0.0012524471740558297
1176.0, 0.002768919104103576
1177.0, 0.0037947860272648354
1178.0, 0.002468684099644235
1179.0, 0.0023468275291286004
1180.0, 0.0018361101688741306
1181.0, 0.0011217550999666635
1182.0, 0.00314057269074525
1183.0, 0.0016488329994761744
1184.0, 0.0023946410060489095
1185.0, 0.002571522169160105
1186.0, 0.0012717398327035778
1187.0, 0.0015097420387293673
1188.0, 0.0028830929421307583
1189.0, 0.003990868276291265
1190.0, 0.0027726396539534018
1191.0, 0.001854672427735943
1192.0, 0.0014915646412143233
1193.0, 0.002263513186149829
1194.0, 0.0007208454093965374
1195.0, 0.0008858208487633173
1196.0, 0.0011179430062688387
1197.0, 0.0023765715779448973
1198.0, 0.0024990303961814724
1199.0, 0.0017001180379367987
1200.0, 0.0016546628158944372
1201.0, 0.0018385772666570798
1202.0, 0.0031230891932049897
1203.0, 0.0026687168199046145
1204.0, 0.003987405749355865
1205.0, 0.003101326090842828
1206.0, 0.0036090595492559887
1207.0, 0.002321535879763487
1208.0, 0.0007372262402678736
1209.0, 0.0003344630425965341
1210.0, 0.0007003937410564094
1211.0, 0.0015885975032083588
1212.0, 0.0018913152151685858
1213.0, 0.0011382467317796938
1214.0, 0.0015154014235513125
1215.0, 0.0036612769887312126
1216.0, 0.0026302305280434075
1217.0, 0.0028962241748828766
1218.0, 0.004039322138593908
1219.0, 0.003452915933838928
1220.0, 0.0023774631533251614
1221.0, 0.001740645205882703
1222.0, 0.0022471175059414817
1223.0, 0.0033539473209864843
1224.0, 0.0036938554035075475
1225.0, 0.0034817258096846064
1226.0, 0.00322541048300399
1227.0, 0.002980632361893458
1228.0, 0.0038877027749746125
1229.0, 0.005502029491408803
1230.0, 0.0029755146798581948
1231.0, 0.0026027184323159673
1232.0, 0.006621651144904426
1233.0, 0.0021813588673615892
1234.0, 0.0047659441639963775
1235.0, 0.00499804299843968
1236.0, 0.005215989453629074
1237.0, 0.0053459477467492625
1238.0, 0.00394881310476218
1239.0, 0.003163286191759136
1240.0, 0.0038870098629506977
1241.0, 0.004027000169174302
1242.0, 0.004754620248280733
1243.0, 0.005813928759888466
1244.0, 0.005638904255573854
1245.0, 0.005552560617930206
1246.0, 0.006023503892058472
1247.0, 0.006447777727131588
1248.0, 0.006600345244662627
1249.0, 0.006788785687942304
1250.0, 0.006274374318089455
1251.0, 0.0065740255027522026
1252.0, 0.005669479119215129
1253.0, 0.004981094693485798
1254.0, 0.007263105546177569
1255.0, 0.008579701936656683
1256.0, 0.006814858845076722
1257.0, 0.008452639979229903
1258.0, 0.0054549498647213646
1259.0, 0.006769575721911236
1260.0, 0.006611377614667926
1261.0, 0.007161913817646322
1262.0, 0.005914123438800426
1263.0, 0.006080042177154879
1264.0, 0.006468894012869733
1265.0, 0.006508546026588713
1266.0, 0.007929098242091164
1267.0, 0.008556934137215684
1268.0, 0.00771827937681408
1269.0, 0.008136955768327365
1270.0, 0.009059180842089573
1271.0, 0.010630624488250091
1272.0, 0.008292136558634956
1273.0, 0.005631730470543764
1274.0, 0.007288847642737926
1275.0, 0.006642840720036048
1276.0, 0.009531667007470884
1277.0, 0.008724207204423353
1278.0, 0.007191853811668405
1279.0, 0.006762337291987918
1280.0, 0.0075161948951253475
1281.0, 0.007576828504218726
1282.0, 0.008084635127749365
1283.0, 0.008618202764403681
1284.0, 0.00637502464573611
1285.0, 0.004640865470914032
1286.0, 0.0039687542928665605
1287.0, 0.007545910280892709
1288.0, 0.006361110787240437
1289.0, 0.0054872670386694085
1290.0, 0.006241647252855496
1291.0, 0.005608740774550452
1292.0, 0.006044127217704564
1293.0, 0.004863722722589299
1294.0, 0.003538972110951517
1295.0, 0.005701738370209369
1296.0, 0.007036588836356023
1297.0, 0.006744382733257566
1298.0, 0.007048231886617879
1299.0, 0.006253119663201693
1300.0, 0.006029290909923139
1301.0, 0.007642508792112007
1302.0, 0.008366907506467824
1303.0, 0.00671319263753295
1304.0, 0.008482927474801005
1305.0, 0.005837259413592891
1306.0, 0.010285300630952402
1307.0, 0.007881288054288189
1308.0, 0.008989722129622516
1309.0, 0.011717839650440699
1310.0, 0.011125353188562184
1311.0, 0.011054508661134346
1312.0, 0.01044131431261651
1313.0, 0.008177829266976779
1314.0, 0.007747243698673616
1315.0, 0.008564871295880237
1316.0, 0.009305967461893456
1317.0, 0.009292520071484432
1318.0, 0.01025311653321417
1319.0, 0.008143851859973074
1320.0, 0.010189233343960744
1321.0, 0.010994403020657514
1322.0, 0.009456225466107148
1323.0, 0.009122799085891801
1324.0, 0.009163451597254294
1325.0, 0.007580841955556907
1326.0, 0.007310355502580444
1327.0, 0.006903192880393421
1328.0, 0.006978537868427196
1329.0, 0.007962014953805316
1330.0, 0.007936393624589986
1331.0, 0.007026928411089236
1332.0, 0.0053521940933075485
1333.0, 0.00560424935514476
1334.0, 0.0057216765545234916
1335.0, 0.0061533218532234275
1336.0, 0.004311766952247731
1337.0, 0.004658152593082852
1338.0, 0.0060554821257775
1339.0, 0.0047400522742962825
1340.0, 0.004549721349073735
1341.0, 0.004662575976132768
1342.0, 0.0055761082383813405
1343.0, 0.005025941351241947
1344.0, 0.0044722676994807375
1345.0, 0.004473819309033279
1346.0, 0.004020622629022942
1347.0, 0.004376255310445467
1348.0, 0.005437968443747997
1349.0, 0.005576978350230385
1350.0, 0.005394803757973635
1351.0, 0.006013943488896272
1352.0, 0.0037824560022041063
1353.0, 0.0026300397359558156
1354.0, 0.0011233175508924323
1355.0, 0.0009420173966138811
1356.0, 0.0009968577336106341
1357.0, 0.001840331887989426
1358.0, 0.0020445931126535847
1359.0, 0.003023141642717674
1360.0, 0.003362631761013876
1361.0, 0.004012883214588634
1362.0, 0.005229417642134793
1363.0, 0.005119767269161157
1364.0, 0.0029022406722238906
1365.0, 0.0012335606070355003
1366.0, 0.002988521004551281
1367.0, 0.0016223200046876524
1368.0, 0.002482732017094584
1369.0, 0.004991890867114532
1370.0, 0.0015913511625603694
1371.0, 0.004815050350432628
1372.0, 0.005990510811975487
1373.0, 0.00458842765759424
1374.0, 0.004613863528063967
1375.0, 0.004197013214489204
1376.0, 0.0041965176765220704
1377.0, 0.004162173258191065
1378.0, 0.003967889136720823
1379.0, 0.003659750403203941
1380.0, 0.003382655832613814
1381.0, 0.003069881732276423
1382.0, 0.0024094475061516817
1383.0, 0.002217994851295183
1384.0, 0.002787423512177559
1385.0, 0.0020633473231385646
1386.0, 0.004391942356424355
1387.0, 0.0025155080655996642
1388.0, 0.0029346958998971635
1389.0, 0.003394917009029088
1390.0, 0.0045576953687005315
1391.0, 0.004379835009462006
1392.0, 0.003485030896879247
1393.0, 0.00350619742423365
1394.0, 0.0034405446808857577
1395.0, 0.002381278369980678
1396.0, 0.0026657210864498813
1397.0, 0.002273747397998039
1398.0, 0.0015616935761634573
1399.0, 0.0009697810193816804
1400.0, 0.0007323768679645818
1401.0, 0.0023116349256702795
1402.0, 0.004127321720458882
1403.0, 0.005309684197236805
1404.0, 0.00162041166669184
1405.0, 0.0025124246970712437
1406.0, 0.0007567244517987204
1407.0, 0.0019180727252839094
1408.0, 0.002380686488838839
1409.0, 0.005258093334975504
1410.0, 0.0024745561390532946
1411.0, 0.0008389661613294523
1412.0, 0.0009124443329198154
1413.0, 0.003428398756268408
1414.0, 0.001974506079017251
1415.0, 0.0017134515296054393
1416.0, 0.001246400265888945
1417.0, 0.0006919894092978201
1418.0, 0.001237660688839442
1419.0, 0.0017724717236558803
1420.0, 0.0021271402406911723
1421.0, 0.0018470859828766467
1422.0, 0.0010707554169084713
1423.0, 0.0015753742970218913
1424.0, 0.0019652289844960774
1425.0, 0.0005591968923894684
1426.0, 0.0007761266346330598
1427.0, 0.0028737773512432026
1428.0, 0.002830030044293135
1429.0, 0.0003121116966188636
1430.0, 0.003335628047309974
1431.0, 0.0007672600906204947
1432.0, 0.002358637394869244
1433.0, 0.004210768268335951
1434.0, 0.005083004890887958
1435.0, 0.005768792304060593
1436.0, 0.004912066347994067
1437.0, 0.0050515322201161094
1438.0, 0.005197281734877446
1439.0, 0.005108491900175293
1440.0, 0.006749928225148999
1441.0, 0.00758831535710299
1442.0, 0.007278263477880193
1443.0, 0.00977155507012622
1444.0, 0.01181608142188514
1445.0, 0.01076138084504472
1446.0, 0.010873110463634776
1447.0, 0.010470264073064993
1448.0, 0.011145057677820668
1449.0, 0.010543774648399734
1450.0, 0.013098558001099235
1451.0, 0.012167483604821578
1452.0, 0.01389475289052922
1453.0, 0.012308548440055658
1454.0, 0.011389676443065462
1455.0, 0.013669704346455338
1456.0, 0.013844722291538922
1457.0, 0.013439609940836957
1458.0, 0.01298940199334204
1459.0, 0.012153456296080391
1460.0, 0.012287334124156031
1461.0, 0.013639173382473141
1462.0, 0.01356412049588023
1463.0, 0.011150426533464272
1464.0, 0.010054994002388812
1465.0, 0.010910266651491798
1466.0, 0.00959262318730611
1467.0, 0.00794609642476742
1468.0, 0.0075656071272687435
1469.0, 0.007011774238220421
1470.0, 0.004586195758078609
1471.0, 0.00809020685811624
1472.0, 0.006622396518672913
1473.0, 0.005075924062122983
1474.0, 0.004361653576707549
1475.0, 0.006758184694677132
1476.0, 0.006359194584826377
1477.0, 0.006003257192489447
1478.0, 0.005805770198178155
1479.0, 0.004541950229726239
1480.0, 0.0049254778176965105
1481.0, 0.004753613978945089
1482.0, 0.0050602125430724365
1483.0, 0.004301802555684846
1484.0, 0.003451985319356561
1485.0, 0.003583830158671217
1486.0, 0.0024364219410887293
1487.0, 0.002671050640255266
1488.0, 0.00324449573895867
1489.0, 0.0005964333402836443
1490.0, 0.0009732710594967924
1491.0, 0.001239697075140053
1492.0, 0.0009278906987453651
1493.0, 0.0023796590640676667
1494.0, 0.0004046578531753045
1495.0, 0.001006336621112276
1496.0, 0.002841921396138372
1497.0, 0.0005697525522209467
1498.0, 0.0012628307174722237
1499.0, 0.0022547999896664027
1500.0, 0.0014427198144612084
1501.0, 0.0027534532524943296
1502.0, 0.0016750106819105278
1503.0, 0.0007572056096311714
1504.0, 0.0014812186047273356
1505.0, 0.001401113812714629
1506.0, 0.004742197790059406
1507.0, 0.005167409011185258
1508.0, 0.0074396474234593845
1509.0, 0.006009262790118273
1510.0, 0.0001589648235618178
1511.0, 0.00014057369651639248
1512.0, 0.0009293346252727563
1513.0, 0.0019209492716349727
1514.0, 0.002220607766560822
1515.0, 0.002322468280212859
1516.0, 2.612038615889438e-05
1517.0, 0.00025093508592561724
1518.0, 0.001251535831612022
1519.0, 0.001890057120499884
1520.0, 0.0006186722888517297
1521.0, 0.0024692111006001404
1522.0, 0.0024310690115615435
1523.0, 0.0006546857574638667
1524.0, 0.0029942291164874344
1525.0, 0.0031779183378938553
1526.0, 0.0024215328216749656
1527.0, 0.0037525667996891584
1528.0, 0.004718099984118211
1529.0, 0.0043990858930042995
1530.0, 0.0028620536691163464
1531.0, 0.00476387352337762
1532.0, 0.0036715102436007223
1533.0, 0.004438265330661446
1534.0, 0.003652633455506712
1535.0, 0.0022428439912245877
1536.0, 0.003456154653075317
1537.0, 0.003941125597405752
1538.0, 0.0029141881818338907
1539.0, 0.0026745170125354865
1540.0, 0.004394439296336095
1541.0, 0.005693097316101595
1542.0, 0.0036418903049711673
1543.0, 0.003885208080442671
1544.0, 0.003983457309449986
1545.0, 0.002138259228904546
1546.0, 0.003721137197240377
1547.0, 0.002546986030842771
1548.0, 0.0017800305592416453
1549.0, 0.0012170567381134757
1550.0, 0.003269441863752772
1551.0, 0.003381213926354751
1552.0, 0.0044281959523145165
1553.0, 0.00739601227395132
1554.0, 0.003748319546140342
1555.0, 0.005543237096495045
1556.0, 0.003613213935421618
1557.0, 0.0036787649382569346
1558.0, 0.0024336134672368224
1559.0, 0.0009036784093709132
1560.0, 0.0008696330298746548
1561.0, 0.003669406574218109
1562.0, 0.0016623972906273244
1563.0, 0.0011793885781661401
1564.0, 0.0007459171452401426
1565, 0.0
1566, 0.0
1567, 0.0
1568, 0.0
1569, 0.0
1570, 0.0
1571, 0.0
1572, 0.0
1573, 0.0
1574, 0.0
1575, 0.0
1576, 0.0
1577, 0.0
1578, 0.0
1579, 0.0
1580, 0.0
1581, 0.0
1582, 0.0
1583, 0.0
1584, 0.0
1585, 0.0
1586, 0.0
1587, 0.0
1588, 0.0
1589, 0.0
1590, 0.0
1591, 0.0
1592, 0.0
1593, 0.0
1594, 0.0
1595, 0.0
1596, 0.0
1597, 0.0
1598, 0.0
1599, 0.0
