30, 0.0
31, 0.0
32, 0.0
33, 0.0
34, 0.0
35, 0.0
36, 0.0
37, 0.0
38, 0.0
39, 0.0
40, 0.0
41, 0.0
42, 0.0
43, 0.0
44, 0.0
45, 0.0
46, 0.0
47, 0.0
48, 0.0
49, 0.0
50, 0.0
51, 0.0
52, 0.0
53, 0.0
54, 0.0
55, 0.0
56, 0.0
57, 0.0
58, 0.0
59, 0.0
60, 0.0
61, 0.0
62, 0.0
63, 0.0
64, 0.0
65, 0.0
66, 0.0
67, 0.0
68, 0.0
69, 0.0
70, 0.0
71, 0.0
72, 0.0
73, 0.0
74, 0.0
75, 0.0
76, 0.0
77, 0.0
78, 0.0
79, 0.0
80, 0.0
81, 0.0
82, 0.0
83, 0.0
84, 0.0
85, 0.0
86, 0.0
87, 0.0
88, 0.0
89, 0.0
90, 0.0
91, 0.0
92, 0.0
93, 0.0
94, 0.0
95.0, 0.00020432924647475226
96.0, 0.00033479001373413006
97.0, 0.00018723997643914136
98.0, 0.0005340887433148684
99.0, 0.0029581339992467166
100.0, 0.007300807155792523
101.0, 0.01129495147388995
102.0, 0.014529971490460848
103.0, 0.02201916871719422
104.0, 0.02269525978335232
105.0, 0.025287590367355797
106.0, 0.029169952374199812
107.0, 0.03225110367545368
108.0, 0.03150211935847122
109.0, 0.027619801849451186
110.0, 0.023481763286165584
111.0, 0.02151748898694132
112.0, 0.023937525134909717
113.0, 0.03173225289843245
114.0, 0.032543064339856854
115.0, 0.03695099618693192
116.0, 0.04177517138619616
117.0, 0.0445272966928086
118.0, 0.04361615393463097
119.0, 0.04047715877130762
120.0, 0.0398372817842455
121.0, 0.03959612622814184
122.0, 0.04055060842322742
123.0, 0.043055413325532976
124.0, 0.04486462801500675
125.0, 0.04421342887523104
126.0, 0.04443771959507546
127.0, 0.04598901379603155
128.0, 0.048988119855464855
129.0, 0.05341610128699732
130.0, 0.057699014293168746
131.0, 0.06377642163996823
132.0, 0.07061476135591209
133.0, 0.07593032689358546
134.0, 0.07714987704360608
135.0, 0.07643963792120571
136.0, 0.06928198200277536
137.0, 0.06879749317716193
138.0, 0.07097232498970847
139.0, 0.07097483798340681
140.0, 0.08373807247936514
141.0, 0.08785046716543742
142.0, 0.09785312589273196
143.0, 0.10884748798818149
144.0, 0.11828600096559923
145.0, 0.13242149653208757
146.0, 0.155062654926198
147.0, 0.1794658210338882
148.0, 0.20525905813224524
149.0, 0.231117609890564
150.0, 0.2542797338791109
151.0, 0.26256257680744854
152.0, 0.2541485498383525
153.0, 0.2341487038308654
154.0, 0.2077139603758806
155.0, 0.1797320198993459
156.0, 0.15258598864618178
157.0, 0.13416788703757915
158.0, 0.1213238055610998
159.0, 0.11320965379952985
160.0, 0.10846108939152785
161.0, 0.10465180513012164
162.0, 0.10603949165376916
163.0, 0.11027960882051871
164.0, 0.11839044858261392
165.0, 0.1292051579094325
166.0, 0.14050936152087973
167.0, 0.15736503089340234
168.0, 0.1799238978434637
169.0, 0.20447218964188565
170.0, 0.2313607069931509
171.0, 0.2624201799325219
172.0, 0.3007484797558116
173.0, 0.3253396626662033
174.0, 0.346451432760453
175.0, 0.36788656072682213
176.0, 0.38967041964814864
177.0, 0.4077655348533032
178.0, 0.42133960465806103
179.0, 0.43237815913350147
180.0, 0.4366173510538795
181.0, 0.4317653155056739
182.0, 0.41754179963288374
183.0, 0.3965252899013866
184.0, 0.3699000681741938
185.0, 0.3469842013683557
186.0, 0.3250039598988904
187.0, 0.3043619352025305
188.0, 0.29602041636961024
189.0, 0.29250043386011915
190.0, 0.2983715320953704
191.0, 0.3056552242805953
192.0, 0.30998268577657817
193.0, 0.31045999199266755
194.0, 0.30602452753675596
195.0, 0.291201452655831
196.0, 0.2748464003285255
197.0, 0.2526935030510709
198.0, 0.22271402029625936
199.0, 0.1973634987253984
200.0, 0.1714439739212646
201.0, 0.14954814936503166
202.0, 0.13043951767995673
203.0, 0.11376628703936405
204.0, 0.10023257049592031
205.0, 0.08901165658538916
206.0, 0.08166891096022424
207.0, 0.07444103747124005
208.0, 0.06615506630968605
209.0, 0.057874730779795616
210.0, 0.05472980126450786
211.0, 0.050031601239407274
212.0, 0.04368932708392546
213.0, 0.03730970880062416
214.0, 0.032193410692384614
215.0, 0.028821148061968664
216.0, 0.024090191681683432
217.0, 0.020925255140408626
218.0, 0.01796331448911731
219.0, 0.015759306094104412
220.0, 0.01481787516417026
221.0, 0.01355116366991504
222.0, 0.010837022143092867
223.0, 0.008764147693525263
224.0, 0.006985851046814582
225.0, 0.00530601713143935
226.0, 0.003810748950641061
227.0, 0.0017192140550529712
228.0, 0.0011957613988116916
229.0, 0.0010193758257451427
230.0, 0.0009033751112203423
231.0, 0.0008404164121328375
232.0, 0.0007893965882264806
233.0, 0.0010683817953633995
234.0, 0.0013178661679398474
235.0, 0.0012050268310810715
236.0, 0.0008034390009465092
237.0, 0.0006919530024705114
238.0, 0.0030377116340268564
239.0, 0.0021758266867215256
240.0, 0.0023399850357007424
241.0, 0.0036523619028669316
242.0, 0.00478483359937608
243.0, 0.0036992652980202202
244.0, 0.0014858411496670265
245.0, 0.0024126551636015126
246.0, 0.0030814966152360925
247.0, 0.006388515653912123
248.0, 0.01596316514678398
249.0, 0.01653160071364419
250.0, 0.019997662274750794
251.0, 0.02281667991180935
252.0, 0.026152572011554395
253.0, 0.030865338254537737
254.0, 0.03624805419981865
255.0, 0.041459890850109045
256.0, 0.04388586968959741
257.0, 0.048614922904500736
258.0, 0.053030444576854706
259.0, 0.05446423502931297
260.0, 0.06090506423145221
261.0, 0.05696883608523073
262.0, 0.05377145135795496
263.0, 0.05265016124480092
264.0, 0.051711919865737796
265.0, 0.048159959940677136
266.0, 0.05069158280077156
267.0, 0.04718582309827906
268.0, 0.04668034378895376
269.0, 0.04477351466332588
270.0, 0.040110398725912044
271.0, 0.04218574278456358
272.0, 0.03499535570133565
273.0, 0.031577434917190006
274.0, 0.030512506664633867
275.0, 0.02827931656319697
276.0, 0.022814160765907678
277.0, 0.02092380008185304
278.0, 0.0167931854546578
279.0, 0.015062498685993004
280.0, 0.012374976848173017
281.0, 0.009193559182439928
282.0, 0.009065196561376665
283.0, 0.003957690079770983
284.0, 0.00350837670236426
285.0, 0.0022886042398436186
286.0, 0.0009452483979359958
287.0, 0.0020448096313253083
288.0, 0.008353706004375934
289.0, 0.0027453047604462846
290.0, 0.005192272963279947
291.0, 0.005196447113368381
292.0, 0.0034983692596365634
293.0, 0.003933220653679944
294.0, 0.003697888852227709
295.0, 0.0014580378935018352
296.0, 0.0036056666624725026
297.0, 0.004792046680347691
298.0, 0.004129677983703772
299.0, 0.00399166670907932
300.0, 0.0017093429896096362
301.0, 0.003022739154287998
302.0, 0.0030531507784284677
303.0, 0.0016499766420809032
304.0, 0.0015452885880449978
305.0, 0.006953686345390943
306.0, 0.011383723029219993
307.0, 0.014267224702207185
308.0, 0.015687215700789167
309.0, 0.020602001614178515
310.0, 0.02823230218658589
311.0, 0.02553495448966566
312.0, 0.029951431010023455
313.0, 0.03844714488583113
314.0, 0.04268447347712581
315.0, 0.0469719464985399
316.0, 0.0566728663293442
317.0, 0.06332001944287369
318.0, 0.0690121160521345
319.0, 0.07749142257594856
320.0, 0.08800568251266348
321.0, 0.09952550351359793
322.0, 0.11086831357066594
323.0, 0.12001250166998575
324.0, 0.12695284164555365
325.0, 0.1326463799444899
326.0, 0.13646610073293108
327.0, 0.1384689979916211
328.0, 0.13916481097060163
329.0, 0.13649252589355199
330.0, 0.12806937636863117
331.0, 0.12254957437571883
332.0, 0.11481187063224144
333.0, 0.10203242893871305
334.0, 0.0877672283472142
335.0, 0.07870166728917527
336.0, 0.06874190446134909
337.0, 0.061407824950312745
338.0, 0.055297230739409876
339.0, 0.04777006935868336
340.0, 0.03711779058488127
341.0, 0.03577388726221524
342.0, 0.030082045254277826
343.0, 0.023951345376542
344.0, 0.019913228648889086
345.0, 0.017553413569325736
346.0, 0.012072954716097038
347.0, 0.015128551631161329
348.0, 0.017887923465619453
349.0, 0.017007691061728687
350.0, 0.015869315160017244
351.0, 0.01670678101871325
352.0, 0.011939545739857144
353.0, 0.012916739381870714
354.0, 0.012700337787510405
355.0, 0.013694155650635193
356.0, 0.015363917822364974
357.0, 0.016074470609623383
358.0, 0.015878187868011633
359.0, 0.01735645854882432
360.0, 0.01897676245716566
361.0, 0.020295882758800322
362.0, 0.021033298261674514
363.0, 0.021754335642487205
364.0, 0.02545950350923293
365.0, 0.029284678393702385
366.0, 0.035976102508637586
367.0, 0.04178084518698966
368.0, 0.04725741699790786
369.0, 0.05506023860716641
370.0, 0.06412135569511546
371.0, 0.06733721408353882
372.0, 0.07452539890242785
373.0, 0.08097426955799414
374.0, 0.08496303724202917
375.0, 0.08764858454969576
376.0, 0.08976930530579957
377.0, 0.09354338514031128
378.0, 0.09239502932548575
379.0, 0.09250411772461913
380.0, 0.09592160533656514
381.0, 0.10142193473396167
382.0, 0.11035246157342063
383.0, 0.11116721945553322
384.0, 0.11838771303291543
385.0, 0.12622837593911895
386.0, 0.13259043408812954
387.0, 0.13860827212029
388.0, 0.1427169133247836
389.0, 0.14841679705347333
390.0, 0.14874888708458592
391.0, 0.14762837297886375
392.0, 0.1468253086970865
393.0, 0.1449020944001402
394.0, 0.1367724877625729
395.0, 0.12464171899859691
396.0, 0.11618931249757355
397.0, 0.10948965506530864
398.0, 0.1059671249619883
399.0, 0.10688952157176539
400.0, 0.10544342035679165
401.0, 0.10531037230088174
402.0, 0.10628811095438763
403.0, 0.1089270461864003
404.0, 0.11161592160481598
405.0, 0.11287715999297204
406.0, 0.1148813484902998
407.0, 0.11511459554125478
408.0, 0.11057803131603627
409.0, 0.10449814761492603
410.0, 0.09661027783491472
411.0, 0.0860209544285567
412.0, 0.07466330744335187
413.0, 0.0671700304462649
414.0, 0.05799430722522738
415.0, 0.04760546923533708
416.0, 0.03898990964132431
417.0, 0.033256522312606146
418.0, 0.026334902865977547
419.0, 0.018721786577441023
420.0, 0.015060073323965585
421.0, 0.013557119722593571
422.0, 0.011882803387571417
423.0, 0.008713900381475492
424.0, 0.0046939064396217586
425.0, 0.0018069338749402075
426.0, 0.0017925375208952515
427.0, 0.001630761271968324
428.0, 0.001619985704267771
429.0, 0.002622423308926396
430.0, 0.0047243767663891975
431.0, 0.004736456560651841
432.0, 0.0057720745971057835
433.0, 0.005512603635704851
434.0, 0.005028267330310927
435.0, 0.00503489347454475
436.0, 0.005052549100547949
437.0, 0.0032410909231143743
438.0, 0.0011877105078455699
439.0, 0.0041236352603199805
440.0, 0.004258901997793616
441.0, 0.0013536769167482527
442.0, 0.0006117920784247414
443.0, 0.004012140595967453
444.0, 0.00193185567502992
445.0, 0.001324852933922646
446.0, 0.0032515887598567445
447.0, 0.003636020436617133
448.0, 0.0014391678989282499
449.0, 0.006428752656190629
450.0, 0.005631987042979658
451.0, 0.009767649127490494
452.0, 0.018119051196878858
453.0, 0.02566116954627074
454.0, 0.03012723449920734
455.0, 0.03537324207215513
456.0, 0.044644807029441236
457.0, 0.05673783540032791
458.0, 0.06455181634948515
459.0, 0.07447869872997556
460.0, 0.08782808439514218
461.0, 0.09916993414545733
462.0, 0.1093570701030186
463.0, 0.11768959182858306
464.0, 0.12052063928848636
465.0, 0.1202874718247875
466.0, 0.11751031859643235
467.0, 0.11140322313408138
468.0, 0.10248894194725264
469.0, 0.09002158733542964
470.0, 0.07624326258573128
471.0, 0.062124248883286576
472.0, 0.048803040175903166
473.0, 0.0380560406156617
474.0, 0.031771267587455944
475.0, 0.021292355726249143
476.0, 0.02058639594968282
477.0, 0.019576116670357097
478.0, 0.014701078054249741
479.0, 0.009973262096697865
480.0, 0.01227581282014855
481.0, 0.011890509442590286
482.0, 0.011108306238748849
483.0, 0.011128449701863493
484.0, 0.010103207153942034
485.0, 0.008323322713521725
486.0, 0.007609651305682687
487.0, 0.009427446694001442
488.0, 0.011530227867324608
489.0, 0.01396296177084442
490.0, 0.016288739310098516
491.0, 0.017681750961044008
492.0, 0.017826304461837576
493.0, 0.01745129469266399
494.0, 0.018514497433102604
495.0, 0.021042101168357724
496.0, 0.027481708763101725
497.0, 0.03088413258910865
498.0, 0.033254382094384784
499.0, 0.0403746338895122
500.0, 0.04167775748895878
501.0, 0.04152422035227847
502.0, 0.04421008143690833
503.0, 0.044168158728795474
504.0, 0.04577245354374965
505.0, 0.050760071194975026
506.0, 0.050027782009173904
507.0, 0.04967445232320356
508.0, 0.04513683539703367
509.0, 0.045013483513663397
510.0, 0.04515894324808473
511.0, 0.04281868720194967
512.0, 0.03936446838355322
513.0, 0.037162892399768124
514.0, 0.037013174978167925
515.0, 0.03579074535778976
516.0, 0.0369608449374867
517.0, 0.038310846727009754
518.0, 0.03829901181149144
519.0, 0.04066419579533498
520.0, 0.04053121975028063
521.0, 0.03818385191975765
522.0, 0.03940494059720463
523.0, 0.041688295004902544
524.0, 0.043177629184820376
525.0, 0.043670270729307716
526.0, 0.041281639350825676
527.0, 0.04221915511098001
528.0, 0.03709130310515176
529.0, 0.03582667540959971
530.0, 0.03534051020231972
531.0, 0.033049410940822664
532.0, 0.03453785537554939
533.0, 0.03195931663248183
534.0, 0.031555630160835534
535.0, 0.028058728058593597
536.0, 0.02317930014701156
537.0, 0.018404263472491755
538.0, 0.015237365423683053
539.0, 0.017552398504473016
540.0, 0.018505731926936837
541.0, 0.01439750681299538
542.0, 0.012382962094460237
543.0, 0.01043047103129575
544.0, 0.008451470621740894
545.0, 0.009666631097000344
546.0, 0.0045821534530565795
547.0, 0.006357948473654165
548.0, 0.00624921282330026
549.0, 0.007001386444738937
550.0, 0.006603853124629724
551.0, 0.004407081253525713
552.0, 0.006369470404788339
553.0, 0.004256560318841358
554.0, 0.007997176679620337
555.0, 0.006429021318592221
556.0, 0.007035837688673027
557.0, 0.01063371812806738
558.0, 0.011526775887135281
559.0, 0.009429162782171888
560.0, 0.011914686317957453
561.0, 0.013215196865767073
562.0, 0.014582830802718914
563.0, 0.01583868193369855
564.0, 0.015893218376113964
565.0, 0.014330259191875038
566.0, 0.015693495559424866
567.0, 0.018408205620537976
568.0, 0.01910393866400255
569.0, 0.02191116101752161
570.0, 0.02430542309944896
571.0, 0.024654341745509484
572.0, 0.02722246308167844
573.0, 0.03048546405720709
574.0, 0.030578371841508682
575.0, 0.034599429042997565
576.0, 0.0341753690529285
577.0, 0.032609202101889743
578.0, 0.03640321949338159
579.0, 0.04052182221589572
580.0, 0.04059652840323497
581.0, 0.04395762416113265
582.0, 0.04658130948902243
583.0, 0.04887333873043445
584.0, 0.05181544030073267
585.0, 0.05536502448471948
586.0, 0.05775098317986225
587.0, 0.06264420254565577
588.0, 0.06691638058203726
589.0, 0.07169384734473672
590.0, 0.07501845926210589
591.0, 0.07904063483679133
592.0, 0.08728453420919503
593.0, 0.09182569076008
594.0, 0.09999901334836604
595.0, 0.11045144041811247
596.0, 0.12252761735737738
597.0, 0.13440585782716538
598.0, 0.14634275262368188
599.0, 0.16145675894733183
600.0, 0.18314621470353934
601.0, 0.20627609993769894
602.0, 0.23293863456212993
603.0, 0.263985744646364
604.0, 0.30335459463529363
605.0, 0.34956120278510644
606.0, 0.3958764925714509
607.0, 0.45132566065046004
608.0, 0.5209122967013363
609.0, 0.5897186824349198
610.0, 0.6712487669334409
611.0, 0.7530407486584044
612.0, 0.8259279088832154
613.0, 0.9000536839584309
614.0, 0.9684485505585856
615.0, 0.9947135214611772
616.0, 0.9840335361822046
617.0, 0.9464465432102621
618.0, 0.878950982230237
619.0, 0.7835206796390207
620.0, 0.6776596071229991
621.0, 0.5733194910474894
622.0, 0.47177322210325123
623.0, 0.3888780886484621
624.0, 0.3220462930412286
625.0, 0.2670591494391055
626.0, 0.2210159820920455
627.0, 0.18309679046852304
628.0, 0.15354077980970654
629.0, 0.12716932502527548
630.0, 0.10878877406877192
631.0, 0.09607580186644399
632.0, 0.08290357637577014
633.0, 0.06846338048954506
634.0, 0.05927812733418502
635.0, 0.052235512521608456
636.0, 0.04801503971350749
637.0, 0.04248762484912555
638.0, 0.03743191572501373
639.0, 0.03350391111718582
640.0, 0.030604025309311687
641.0, 0.02826082619942232
642.0, 0.024769210901184613
643.0, 0.02281655158038887
644.0, 0.019755826251118467
645.0, 0.0181550263877775
646.0, 0.01673547291033272
647.0, 0.014629859956446405
648.0, 0.013398620198437957
649.0, 0.01495487722783153
650.0, 0.013971510391175269
651.0, 0.012396604741650923
652.0, 0.010326823321502471
653.0, 0.00840267271965132
654.0, 0.006966289465526397
655.0, 0.0057074089997648115
656.0, 0.003915398750402359
657.0, 0.004455629739394335
658.0, 0.004577222535590666
659.0, 0.00538936508805357
660.0, 0.0056573121490137625
661.0, 0.005111260395065116
662.0, 0.004609082782746891
663.0, 0.004495978593868398
664.0, 0.003897463047255788
665.0, 0.003620634590597282
666.0, 0.003266585166587328
667.0, 0.0020121826299895154
668.0, 0.0012673453156725285
669.0, 0.002587774116740716
670.0, 0.004779184352197592
671.0, 0.004265552228717884
672.0, 0.0035756863234819333
673.0, 0.002339072290656667
674.0, 0.0019396218561268208
675.0, 0.002235520264210523
676.0, 0.003971055114659518
677.0, 0.0076019432938233215
678.0, 0.001457581832360545
679.0, 0.001909185175130832
680.0, 0.0013220659962319054
681.0, 0.002060141778544858
682.0, 0.002473796079205693
683.0, 0.0016748614840442157
684.0, 0.000967177432072319
685.0, 0.0009260027250221983
686.0, 0.0011075231265619092
687.0, 0.0004946288129090083
688.0, 0.0005046490259930057
689.0, 0.0011988353338038486
690.0, 0.002202505427297107
691.0, 0.0025696416696270276
692.0, 0.0012475333079893186
693.0, 0.004215471957052793
694.0, 0.0036686153873019146
695.0, 0.007212643922485943
696.0, 0.006140303842725303
697.0, 0.00470083335605624
698.0, 0.007577800531974165
699.0, 0.009651840623318138
700.0, 0.0038073970876807074
701.0, 0.008998259088320441
702.0, 0.010875995280611814
703.0, 0.009675846066411514
704.0, 0.009539713545314767
705.0, 0.01169340479574524
706.0, 0.014041667872915779
707.0, 0.01502877278702681
708.0, 0.010794990377210247
709.0, 0.015385016101558764
710.0, 0.01724378771216362
711.0, 0.020688939974638068
712.0, 0.023594710557668364
713.0, 0.025060911880556126
714.0, 0.029609886157674906
715.0, 0.026504580326040753
716.0, 0.03583161288336404
717.0, 0.03903515879439256
718.0, 0.04515035302172481
719.0, 0.05286610726938047
720.0, 0.06243598726275579
721.0, 0.07430511594991004
722.0, 0.08041703685265994
723.0, 0.09079177838345845
724.0, 0.10808056093933587
725.0, 0.12895581480599594
726.0, 0.14526468723631447
727.0, 0.1599225606017508
728.0, 0.1786062771536607
729.0, 0.19931631277666026
730.0, 0.20941440794900126
731.0, 0.21186412545867822
732.0, 0.20821742266531565
733.0, 0.194530353584641
734.0, 0.17673012738705168
735.0, 0.15896422551221673
736.0, 0.13922747390790755
737.0, 0.11307331024227714
738.0, 0.09343836716632033
739.0, 0.08158641595100236
740.0, 0.06994384426430164
741.0, 0.058078236206688345
742.0, 0.04764358713368672
743.0, 0.03983605119528448
744.0, 0.03453956675406542
745.0, 0.03113605017885616
746.0, 0.027056387788569728
747.0, 0.025867041128368223
748.0, 0.022525277172008137
749.0, 0.016985969647474418
750.0, 0.014942633085539626
751.0, 0.01715606148018078
752.0, 0.016026022347347027
753.0, 0.010923355855217871
754.0, 0.016883931851401024
755.0, 0.015144597998198128
756.0, 0.012546749418224989
757.0, 0.015367970094629703
758.0, 0.016912661263787925
759.0, 0.013083632274388593
760.0, 0.01548241108115668
761.0, 0.019409598863810096
762.0, 0.015288598782771275
763.0, 0.01608447959203715
764.0, 0.01649156441720605
765.0, 0.014656663413659505
766.0, 0.013371293503585933
767.0, 0.013970928750427181
768.0, 0.011683989633892082
769.0, 0.016123896752685104
770.0, 0.015497927049579188
771.0, 0.017630705757059016
772.0, 0.013200398933659617
773.0, 0.011522941498162529
774.0, 0.013140123917311728
775.0, 0.01110555122914411
776.0, 0.013048021640221149
777.0, 0.005750485348296944
778.0, 0.004577936902461961
779.0, 0.005430152924242921
780.0, 0.003184720421264025
781.0, 0.002510950566466341
782.0, 0.003809975937169257
783.0, 0.003680178202704998
784.0, 0.008041039498266869
785.0, 0.00430758060994526
786.0, 0.001167463505138816
787.0, 0.0030360995081635212
788.0, 0.0019853804739259884
789.0, 0.0017852618130834463
790.0, 0.0051947107747483835
791.0, 0.007181565579882436
792.0, 0.0023216759962308518
793.0, 0.0008849824936207014
794.0, 0.0005725458371086496
795.0, 0.0016659888800960193
796.0, 0.0017530843713483054
797.0, 0.0015989990549139922
798.0, 0.0035253623622750543
799.0, 0.007264252235579462
800.0, 0.007179221585762484
801.0, 0.0041336549654727005
802.0, 0.003931707859977155
803.0, 0.008256182523572082
804.0, 0.011410402803705665
805.0, 0.010923558078087656
806.0, 0.009873245081260609
807.0, 0.010380618370863355
808.0, 0.006911005396994056
809.0, 0.012026839441636322
810.0, 0.014526398439662011
811.0, 0.011204297603085575
812.0, 0.009117764248667566
813.0, 0.007954758425339787
814.0, 0.004987262713365327
815.0, 0.0013258156325809604
816.0, 0.002635449757650667
817.0, 0.00457901843200889
818.0, 0.0020152705456775266
819.0, 0.001783889821589472
820.0, 0.0031254919454746124
821.0, 0.0023247965075343323
822.0, 0.000528789703325335
823.0, 0.0005216985223199882
824.0, 0.0011403527008079766
825.0, 0.0012549442973229402
826.0, 0.0010425155352143222
827.0, 0.0010545456490703524
828.0, 0.005038985033978445
829.0, 0.005459470776172515
830.0, 0.003005858933725844
831.0, 0.0022900507684198122
832.0, 0.003102400590635047
833.0, 0.0009701598230150119
834.0, 0.00176103239003171
835.0, 0.0027912911926856574
836.0, 0.0010774117950356297
837.0, 0.0020534763353954933
838.0, 0.0020652034329889115
839.0, 0.000279062012109804
840.0, 0.0013799037690325597
841.0, 0.004672025036076551
842.0, 0.002864309737359999
843.0, 0.001046753858526189
844.0, 0.002085759766775004
845.0, 0.001318834546504151
846.0, 0.0021139902849854303
847.0, 0.004550622561710836
848.0, 0.00643056037497962
849.0, 0.008478875766131815
850.0, 0.008949663007319007
851.0, 0.009061662649418885
852.0, 0.009311129464278442
853.0, 0.00944967753291956
854.0, 0.010514161914765337
855.0, 0.013662143870965976
856.0, 0.015130165759915607
857.0, 0.011336975791996742
858.0, 0.0117913556652325
859.0, 0.021093252727666482
860.0, 0.017273582299202884
861.0, 0.02133393600707422
862.0, 0.022441198169505846
863.0, 0.020318435605280707
864.0, 0.02223939610874349
865.0, 0.02800175602391869
866.0, 0.027037128777295128
867.0, 0.029239381635800837
868.0, 0.02716884878161168
869.0, 0.02313353281684268
870.0, 0.02976941958355849
871.0, 0.03166611763483235
872.0, 0.02910314606216999
873.0, 0.026523412527652963
874.0, 0.024986478205018783
875.0, 0.028772457797504702
876.0, 0.025282399259764915
877.0, 0.026181123284245187
878.0, 0.022962365913472404
879.0, 0.02357816717220042
880.0, 0.022642419866977227
881.0, 0.01975075613527033
882.0, 0.017727177170172907
883.0, 0.016316583224914267
884.0, 0.015562394226583592
885.0, 0.019904341845989673
886.0, 0.01679783935736295
887.0, 0.015236309252361175
888.0, 0.01696341795518068
889.0, 0.015485374791395343
890.0, 0.013752307095837897
891.0, 0.015489660698049237
892.0, 0.01430536530177772
893.0, 0.014988418676919395
894.0, 0.016663765283083252
895.0, 0.015916345861291238
896.0, 0.018955774687584644
897.0, 0.017925679629242252
898.0, 0.013619116963422434
899.0, 0.013806375765085178
900.0, 0.01960210631192381
901.0, 0.02014136074961304
902.0, 0.019283717970808016
903.0, 0.01653557981455225
904.0, 0.01700814318013897
905.0, 0.015248105291550382
906.0, 0.016364076264314333
907.0, 0.018832095073977945
908.0, 0.01972891367630527
909.0, 0.01877509289988472
910.0, 0.01717028954241579
911.0, 0.020053604793791254
912.0, 0.02527718203270335
913.0, 0.019872255036966907
914.0, 0.022057594558327023
915.0, 0.023307433359517796
916.0, 0.024135386528791974
917.0, 0.025523529119394123
918.0, 0.025669580647423626
919.0, 0.027398498640927128
920.0, 0.028899177326238826
921.0, 0.030963895974061004
922.0, 0.03504352531734442
923.0, 0.03766100185574834
924.0, 0.03998106196719655
925.0, 0.0425840257501577
926.0, 0.04422759319313098
927.0, 0.04496809671568729
928.0, 0.04735676085759743
929.0, 0.046914214632925416
930.0, 0.045150502659785895
931.0, 0.04551300827616161
932.0, 0.04636684928753937
933.0, 0.04363029083168677
934.0, 0.04181554956939567
935.0, 0.04011829187426478
936.0, 0.035481690020693776
937.0, 0.031481434942536864
938.0, 0.02660309460179687
939.0, 0.026358311528992432
940.0, 0.024998380932637627
941.0, 0.02753027798288298
942.0, 0.02641248472602085
943.0, 0.025448459724418053
944.0, 0.027305025282410626
945.0, 0.028258682415088585
946.0, 0.024117472903932048
947.0, 0.0193935882953678
948.0, 0.02493261191780001
949.0, 0.02415043869056766
950.0, 0.024757286502194442
951.0, 0.02609486921557404
952.0, 0.026311211778912994
953.0, 0.027465783496537655
954.0, 0.027972603221076763
955.0, 0.024613739388001453
956.0, 0.022736085449627054
957.0, 0.019999613262695545
958.0, 0.02725029723013782
959.0, 0.023577013075897626
960.0, 0.02070430473150128
961.0, 0.022611026683697022
962.0, 0.021250307756555377
963.0, 0.019005345747586333
964.0, 0.020479496401247497
965.0, 0.017978590033381238
966.0, 0.014908391573323371
967.0, 0.015291594802666357
968.0, 0.01606622582315968
969.0, 0.012378818190102536
970.0, 0.009910587061756728
971.0, 0.009143470299023472
972.0, 0.010090803316785964
973.0, 0.010454578696463577
974.0, 0.008809331756835133
975.0, 0.01024220561653313
976.0, 0.009142235086510637
977.0, 0.00838874140074385
978.0, 0.0075360695566681415
979.0, 0.007164813538326425
980.0, 0.01002093718109712
981.0, 0.009830300887942916
982.0, 0.008492219590861914
983.0, 0.010455704482494742
984.0, 0.011614428175231277
985.0, 0.009447739921270244
986.0, 0.011768547897740794
987.0, 0.013386567933013538
988.0, 0.012675684508056931
989.0, 0.01496998725187717
990.0, 0.017603569541372918
991.0, 0.016533612208772412
992.0, 0.01342857578408123
993.0, 0.012446151149107198
994.0, 0.013138626884267434
995.0, 0.012838164945911373
996.0, 0.012186466759759151
997.0, 0.0018728603297138461
998.0, 0.010468242224538477
999.0, 0.008798130285027104
1000.0, 0.005628247114337099
1001.0, 0.009467056095991034
1002.0, 0.01268282576254004
1003.0, 0.009934383909388835
1004.0, 0.011627915172259574
1005.0, 0.008651810813538588
1006.0, 0.004842482147552578
1007.0, 0.00419663567410389
1008.0, 0.00378867510775159
1009.0, 0.006098854050091569
1010.0, 0.006339933984982358
1011.0, 0.006673741242975322
1012.0, 0.008329920817890652
1013.0, 0.008876858657967288
1014.0, 0.009522825725076754
1015.0, 0.011260332460812211
1016.0, 0.008714606734019407
1017.0, 0.0066373321607385745
1018.0, 0.00657353121920013
1019.0, 0.006899015804832466
1020.0, 0.00778000236475891
1021.0, 0.0079862765060229
1022.0, 0.006775737483847324
1023.0, 0.006042826212829882
1024.0, 0.006840381694374224
1025.0, 0.0030508033982023608
1026.0, 0.008245054476521163
1027.0, 0.0014607433671968528
1028.0, 0.0019903457329986584
1029.0, 0.004149085163216294
1030.0, 0.0039394941578538714
1031.0, 0.0028553087553129367
1032.0, 0.002179433600922453
1033.0, 0.0018686030321328096
1034.0, 0.0022708489832591622
1035.0, 0.002120112694189756
1036.0, 0.0009451692901567921
1037.0, 0.004718272365776132
1038.0, 0.004358701392465091
1039.0, 0.0013727054254540696
1040.0, 0.002333833091959194
1041.0, 0.0027174993282198475
1042.0, 0.002320279158380671
1043.0, 0.002812294493140989
1044.0, 0.0027460631645323174
1045.0, 0.003953949965165213
1046.0, 0.0059325006262263506
1047.0, 0.004882915858688838
1048.0, 0.005470367018260309
1049.0, 0.003412414225346685
1050.0, 0.004773201141002024
1051.0, 0.003993008837307041
1052.0, 0.0034259212719520205
1053.0, 0.005919225657995828
1054.0, 0.00902895505473297
1055.0, 0.009659939090501175
1056.0, 0.005419967577831291
1057.0, 0.0024837595658599113
1058.0, 0.00901373571288253
1059.0, 0.011116498529355052
1060.0, 0.013822256523154889
1061.0, 0.009397151584257527
1062.0, 0.010370300148551153
1063.0, 0.013170282569121297
1064.0, 0.013394779707320384
1065.0, 0.016063099230391873
1066.0, 0.01428685079008842
1067.0, 0.010587220865322365
1068.0, 0.015363310222857182
1069.0, 0.00962525322362008
1070.0, 0.013787740519448559
1071.0, 0.015882436277368718
1072.0, 0.012218480028316527
1073.0, 0.01197551172946017
1074.0, 0.013077589572327877
1075.0, 0.009832933341088469
1076.0, 0.00715849916067782
1077.0, 0.008283419527678899
1078.0, 0.008358265186560502
1079.0, 0.011407530987018896
1080.0, 0.007239469590918473
1081.0, 0.009084395113660087
1082.0, 0.01207866898628382
1083.0, 0.011041660555632113
1084.0, 0.009445322611372613
1085.0, 0.007523339437992178
1086.0, 0.005504769301685545
1087.0, 0.007131975524916964
1088.0, 0.009229456887615582
1089.0, 0.013048994494914016
1090.0, 0.0073003768507658474
1091.0, 0.009109940248620028
1092.0, 0.008187477667588301
1093.0, 0.009384804428615353
1094.0, 0.006597266466230273
1095.0, 0.009309638376802869
1096.0, 0.013304733963609752
1097.0, 0.010882852533754633
1098.0, 0.01091725941897236
1099.0, 0.01680391395192174
1100.0, 0.008947925081476595
1101.0, 0.014398445237928055
1102.0, 0.011245107509637005
1103.0, 0.012706777542561202
1104.0, 0.01002955050454542
1105.0, 0.011733813981396186
1106.0, 0.00942453372418307
1107.0, 0.008603397479568085
1108.0, 0.01032337146174835
1109.0, 0.0065852414144209875
1110.0, 0.0063796474335771364
1111.0, 0.008698215494854208
1112.0, 0.010401846421951785
1113.0, 0.013839670773860224
1114.0, 0.014253226374116874
1115.0, 0.011202739719883871
1116.0, 0.011793114810760376
1117.0, 0.012306522021700452
1118.0, 0.009227895729994773
1119.0, 0.008436295493199023
1120.0, 0.013580392324446374
1121.0, 0.016102699748198546
1122.0, 0.01194001042804036
1123.0, 0.015353199628769767
1124.0, 0.014669945447008084
1125.0, 0.015611592930428369
1126.0, 0.012420859707731317
1127.0, 0.010485991917359874
1128.0, 0.0105390574310849
1129.0, 0.006998192796971759
1130.0, 0.0032680191891635963
1131.0, 0.0033788386710564716
1132.0, 0.00460270801223687
1133.0, 0.00450016720657161
1134.0, 0.002309363294991212
1135.0, 0.0036846568627540276
1136.0, 0.004311135125857335
1137.0, 0.0051547523197418696
1138.0, 0.0045172078572974835
1139.0, 0.003414512525816301
1140.0, 0.0016037995353502914
1141.0, 0.0018603524895831986
1142.0, 0.0027650239093200187
1143.0, 0.0023067216644836637
1144.0, 0.0030910647673703436
1145.0, 0.005876523273455188
1146.0, 0.0038621682445252625
1147.0, 0.0038602343926907564
1148.0, 0.0005368802200050866
1149.0, 0.0015840416439675095
1150.0, 0.0022201720140697812
1151.0, 0.0023951483896226884
1152.0, 0.001034438043507104
1153.0, 0.0013800240847595521
1154.0, 0.0018974056043356672
1155.0, 0.0027668359279584788
1156.0, 0.004273148506633598
1157.0, 0.0011136387837523596
1158.0, 0.0027422322143432053
1159.0, 0.0022304309923494954
1160.0, 0.0007272370843679107
1161.0, 0.005213633751085379
1162.0, 0.00613427694916401
1163.0, 0.0043337308804634826
1164.0, 0.00394154280108199
1165.0, 0.004575748674812563
1166.0, 0.004959258628127026
1167.0, 0.005551395977875973
1168.0, 0.006745569162891977
1169.0, 0.006975162410440909
1170.0, 0.005553043236923105
1171.0, 0.007390532450598293
1172.0, 0.0033956753705705243
1173.0, 0.008714998124817889
1174.0, 0.0110438615894833
1175.0, 0.009141445462977108
1176.0, 0.011826697364160445
1177.0, 0.012183262636157731
1178.0, 0.008681089322948265
1179.0, 0.006250843114395444
1180.0, 0.008075198846737491
1181.0, 0.009499814872614297
1182.0, 0.004970301516031823
1183.0, 0.00778502470853785
1184.0, 0.01063447433662101
1185.0, 0.006270725081159702
1186.0, 0.005750688791222181
1187.0, 0.008251553752544924
1188.0, 0.00767122171733688
1189.0, 0.009636671059034237
1190.0, 0.014143924547239532
1191.0, 0.013171087240653344
1192.0, 0.007710307263876727
1193.0, 0.0047940369593659025
1194.0, 0.005138369173647841
1195.0, 0.007485782833294086
1196.0, 0.00926299919048056
1197.0, 0.008782226888378188
1198.0, 0.01173879079469277
1199.0, 0.007804735248327673
1200.0, 0.009818763117201201
1201.0, 0.008316340809603941
1202.0, 0.013866965038778248
1203.0, 0.0159128657531259
1204.0, 0.016250711666025354
1205.0, 0.015263005219769912
1206.0, 0.011485612713330635
1207.0, 0.013607902886823394
1208.0, 0.020833351419597527
1209.0, 0.018351615710765764
1210.0, 0.016991545286956126
1211.0, 0.016374939633577845
1212.0, 0.015032880111473858
1213.0, 0.015634398366714077
1214.0, 0.01774762752830221
1215.0, 0.017376234832959473
1216.0, 0.017610044815293786
1217.0, 0.020810746825799625
1218.0, 0.023572434027787532
1219.0, 0.022909671195587882
1220.0, 0.02211769367169416
1221.0, 0.022816621614797555
1222.0, 0.017668867184662953
1223.0, 0.017072683944447692
1224.0, 0.01842488549214909
1225.0, 0.01827497880299864
1226.0, 0.020074831479524737
1227.0, 0.019851033523773515
1228.0, 0.020032186180748267
1229.0, 0.018875603907938292
1230.0, 0.01654745136116509
1231.0, 0.018155577577867725
1232.0, 0.018731845850226393
1233.0, 0.017450847500976377
1234.0, 0.019821162077022687
1235.0, 0.017118590526490732
1236.0, 0.017825933884087996
1237.0, 0.016944021047341704
1238.0, 0.019606516780057433
1239.0, 0.018267803186570442
1240.0, 0.018321387003730646
1241.0, 0.01654461859204037
1242.0, 0.02025942542065766
1243.0, 0.021621162164137207
1244.0, 0.022799386063691057
1245.0, 0.02461820305491215
1246.0, 0.023003414046136966
1247.0, 0.021142438490431025
1248.0, 0.02419356860833408
1249.0, 0.02402397281999304
1250.0, 0.018457572916340984
1251.0, 0.0209773702223622
1252.0, 0.021511702892605518
1253.0, 0.018933146123266485
1254.0, 0.02225837982475822
1255.0, 0.026940987302673084
1256.0, 0.01788842495946381
1257.0, 0.01689205565901402
1258.0, 0.017850866606230517
1259.0, 0.02024330537610637
1260.0, 0.022643955483984953
1261.0, 0.022483088563605428
1262.0, 0.022587254225742794
1263.0, 0.022642731871300243
1264.0, 0.021121188829631096
1265.0, 0.018537569684700897
1266.0, 0.018489051375368538
1267.0, 0.01219267298241741
1268.0, 0.009028946709996091
1269.0, 0.01189937119592848
1270.0, 0.0095875303351753
1271.0, 0.011900862083403683
1272.0, 0.00888292888582549
1273.0, 0.008815043048533588
1274.0, 0.012648285163882542
1275.0, 0.011682584897142956
1276.0, 0.007361693690031871
1277.0, 0.006884836721956482
1278.0, 0.006147594934630957
1279.0, 0.0021257754539246126
1280.0, 0.007375518760970599
1281.0, 0.006192477241028579
1282.0, 0.00581968266631334
1283.0, 0.008578264818858223
1284.0, 0.0052378376687644
1285.0, 0.009476107181245967
1286.0, 0.004616582962186491
1287.0, 0.0008031411957224511
1288.0, 0.002349386063450111
1289.0, 0.003759796325918803
1290.0, 0.004077084264373233
1291.0, 0.004668095888529341
1292.0, 0.0035514147294101453
1293.0, 0.001992599985733393
1294.0, 0.0039654864432826014
1295.0, 0.003198208315987598
1296.0, 0.0016752239282910005
1297.0, 0.001050876413099631
1298.0, 0.0015697627481896497
1299.0, 0.003301507883095908
1300.0, 0.00191659212363197
1301.0, 0.0043162475772152336
1302.0, 0.008925494985032718
1303.0, 0.004964347077087625
1304.0, 0.005719445613429761
1305.0, 0.006022165780994298
1306.0, 0.0036060095353244058
1307.0, 0.006410778760295827
1308.0, 0.007713855628318421
1309.0, 0.0022473693384565145
1310.0, 0.004507287432023105
1311.0, 0.010899169397854902
1312.0, 0.0034531655478701245
1313.0, 0.006364660238667065
1314.0, 0.009064806839603598
1315.0, 0.012090458702906287
1316.0, 0.01259623655300052
1317.0, 0.008136242941081843
1318.0, 0.010342983079775846
1319.0, 0.011896799842338105
1320.0, 0.011058907232376044
1321.0, 0.012292973221967683
1322.0, 0.014029279480138039
1323.0, 0.013828832690941883
1324.0, 0.012253360239449475
1325.0, 0.010622828070136014
1326.0, 0.011663287177244828
1327.0, 0.008775453885195336
1328.0, 0.009278277477292386
1329.0, 0.011055276566805711
1330.0, 0.005265424777603121
1331.0, 0.012530692193140906
1332.0, 0.006339044749075496
1333.0, 0.008158860254919579
1334.0, 0.00417196071127293
1335.0, 0.0045092925558342925
1336.0, 0.0035705649042322494
1337.0, 0.0036150255226221825
1338.0, 0.00304931841378657
1339.0, 0.005097892329505398
1340.0, 0.01108197650225428
1341.0, 0.014302487935726112
1342.0, 0.015502569959790298
1343.0, 0.015848936946729328
1344.0, 0.011285415129667136
1345.0, 0.013426890602208095
1346.0, 0.01145896088078472
1347.0, 0.0027940060554734495
1348.0, 0.009549390170940364
1349.0, 0.004822971209422911
1350.0, 0.008627209099228594
1351.0, 0.010057870975872945
1352.0, 0.012016305635615891
1353.0, 0.008662888238910172
1354.0, 0.00586874498564643
1355.0, 0.007274605559768309
1356.0, 0.010579058685253311
1357.0, 0.009306070375925646
1358.0, 0.00785380975923746
1359.0, 0.010130129649684266
1360.0, 0.008424146601281674
1361.0, 0.01347463878996136
1362.0, 0.008290023836696903
1363.0, 0.011229964365256749
1364.0, 0.006203372034540648
1365.0, 0.01125680638466076
1366.0, 0.007820004191708753
1367.0, 0.013011165586488014
1368.0, 0.01306436247150624
1369.0, 0.007619285250579402
1370.0, 0.007825567299576633
1371.0, 0.010540783059614613
1372.0, 0.010887363974538426
1373.0, 0.009376916397663951
1374.0, 0.012244596707942805
1375.0, 0.011366343746597543
1376.0, 0.004832705424194782
1377.0, 0.007201844785856494
1378.0, 0.013936212562845576
1379.0, 0.010224831584294975
1380.0, 0.007530113265620135
1381.0, 0.011011164754574889
1382.0, 0.006148455804406626
1383.0, 0.011347565121486311
1384.0, 0.0056203787999048235
1385.0, 0.014115838930659767
1386.0, 0.010879738004684366
1387.0, 0.013964894552384526
1388.0, 0.011887476508139231
1389.0, 0.013969780589002624
1390.0, 0.01235407012832028
1391.0, 0.012633683167983073
1392.0, 0.011229910308539428
1393.0, 0.011305080586540896
1394.0, 0.010030754467001296
1395.0, 0.007599056656591919
1396.0, 0.012041074505112602
1397.0, 0.01597585912295777
1398.0, 0.011989485003206053
1399.0, 0.010577622134284622
1400.0, 0.00877307334243305
1401.0, 0.008673138342789292
1402.0, 0.009284024889641876
1403.0, 0.010506927032673814
1404.0, 0.011623836003958783
1405.0, 0.012609848287310392
1406.0, 0.013219813099836228
1407.0, 0.004844785706421538
1408.0, 0.01040320563607747
1409.0, 0.00866505879273053
1410.0, 0.013177530545193394
1411.0, 0.014376744350081632
1412.0, 0.01152936315987847
1413.0, 0.008857847617284276
1414.0, 0.010916926242369056
1415.0, 0.017687880685299872
1416.0, 0.020876042405999006
1417.0, 0.01480780579988001
1418.0, 0.009436922563270332
1419.0, 0.013946483940031923
1420.0, 0.012593210118964467
1421.0, 0.01885420942858373
1422.0, 0.018921390737707034
1423.0, 0.014504191875840374
1424.0, 0.012003900515036326
1425.0, 0.018716154855567636
1426.0, 0.01619337252237743
1427.0, 0.020782366612230638
1428.0, 0.01012861480445122
1429.0, 0.014841630577130331
1430.0, 0.0136893317846501
1431.0, 0.014130398217805222
1432.0, 0.01388657725097593
1433.0, 0.016257359705831732
1434.0, 0.014923161615994288
1435.0, 0.016209260168734602
1436.0, 0.01730300338591196
1437.0, 0.014890726502935886
1438.0, 0.016232624003585685
1439.0, 0.015448238582457443
1440.0, 0.010110130306190953
1441.0, 0.012100665539844051
1442.0, 0.015222093217777335
1443.0, 0.013467692741120068
1444.0, 0.015865080062960103
1445.0, 0.013307122606597048
1446.0, 0.009198188694966202
1447.0, 0.001891762867538763
1448.0, 0.01737751439125386
1449.0, 0.019531812237517477
1450.0, 0.012598725706649775
1451.0, 0.016999542788899407
1452.0, 0.019063709755650658
1453.0, 0.016958056492318702
1454.0, 0.01671331680129301
1455.0, 0.014226886211833396
1456.0, 0.01223571049247394
1457.0, 0.011706658809617508
1458.0, 0.010577196786877262
1459.0, 0.010437200528753689
1460.0, 0.013818733205644208
1461.0, 0.016063807913621157
1462.0, 0.0154582399176407
1463.0, 0.016745144138909932
1464.0, 0.016580234877890128
1465.0, 0.016106790276262845
1466.0, 0.01666650693996458
1467.0, 0.01576210988916726
1468.0, 0.01737964061538913
1469.0, 0.012578137497218589
1470.0, 0.012553082778028446
1471.0, 0.008996528647578876
1472.0, 0.00920990667627781
1473.0, 0.009710636586301499
1474.0, 0.008193378027940307
1475.0, 0.014608042929592724
1476.0, 0.007799855472961565
1477.0, 0.007021410106071192
1478.0, 0.012507352641916361
1479.0, 0.01392808999287221
1480.0, 0.010888157624989785
1481.0, 0.006256514134573998
1482.0, 0.006165719382550608
1483.0, 0.008296586169607595
1484.0, 0.008339235185627729
1485.0, 0.008440529655153909
1486.0, 0.008639796234862206
1487.0, 0.008370793209081297
1488.0, 0.008495040419001114
1489.0, 0.006418284129680658
1490.0, 0.0058142318943113155
1491.0, 0.009705650414867411
1492.0, 0.011761206596541124
1493.0, 0.0077906299924271035
1494.0, 0.006431432004267659
1495.0, 0.005357844417076062
1496.0, 0.011605754494269895
1497.0, 0.008334081076265614
1498.0, 0.006428024415867236
1499.0, 0.004576117692491096
1500.0, 0.0013013999408186577
1501.0, 0.0015660796815363664
1502.0, 0.008898632514924024
1503.0, 0.0049772481970103526
1504.0, 0.011898575045551581
1505.0, 0.008427510553965315
1506.0, 0.005555466407076311
1507.0, 0.0030229366276147912
1508.0, 0.007509769398607097
1509.0, 0.0067836279725810985
1510.0, 0.008897009567253013
1511.0, 0.006253988414464689
1512.0, 0.0040531973825799344
1513.0, 0.005037702280527927
1514.0, 0.0057185750614408195
1515.0, 0.008128040584102653
1516.0, 0.006019853979262
1517.0, 0.00560745336369291
1518.0, 0.006139627132346801
1519.0, 0.002624872153865549
1520.0, 0.005576329120149043
1521.0, 0.00832950819180212
1522.0, 0.007831829550437016
1523.0, 0.008874187640864527
1524.0, 0.008630964293953458
1525.0, 0.00510909775309074
1526.0, 0.007111876543373774
1527.0, 0.009434490006037527
1528.0, 0.005732603571877627
1529.0, 0.00227548652757179
1530.0, 0.0009346481914889482
1531.0, 0.004146849376721338
1532.0, 0.010146190989685635
1533.0, 0.006083282599686204
1534.0, 0.009996833452974732
1535.0, 0.0074785623356413995
1536.0, 0.009237650957059525
1537.0, 0.008740604293776613
1538.0, 0.010496712266238035
1539.0, 0.010713153328517782
1540.0, 0.0066478078187256085
1541.0, 0.004812386666727326
1542.0, 0.005459345860307724
1543.0, 0.003101994528053978
1544.0, 0.005533879462491767
1545.0, 0.006967680948133222
1546.0, 0.009358175649878871
1547.0, 0.009462973399425607
1548.0, 0.0034686724534690877
1549.0, 0.007953415084918999
1550.0, 0.005817414717674398
1551.0, 0.005296919004322355
1552.0, 0.009627511032955616
1553.0, 0.011817086125774255
1554.0, 0.010452199003726726
1555.0, 0.003405046411272928
1556.0, 0.0025965607226037324
1557.0, 0.0010943308963570109
1558.0, 0.004380903787678757
1559.0, 0.003905658962006131
1560.0, 0.004299374328624704
1561.0, 0.0008242977823355391
1562.0, 0.010879760456656281
1563.0, 0.011925669687507592
1564.0, 0.012084641953113576
1565.0, 0.004009532188749372
1566.0, 0.009008507970593709
1567.0, 0.003114816166489785
1568.0, 0.0008057944717847418
1569.0, 0.00011687412454443956
1570.0, 5.317323662028778e-06
1571, 0.0
1572, 0.0
1573, 0.0
1574, 0.0
1575, 0.0
1576, 0.0
1577, 0.0
1578, 0.0
1579, 0.0
1580, 0.0
1581, 0.0
1582, 0.0
1583, 0.0
1584, 0.0
1585, 0.0
1586, 0.0
1587, 0.0
1588, 0.0
1589, 0.0
1590, 0.0
1591, 0.0
1592, 0.0
1593, 0.0
1594, 0.0
1595, 0.0
1596, 0.0
1597, 0.0
1598, 0.0
1599, 0.0
