30, 0.0
31, 0.0
32, 0.0
33, 0.0
34, 0.0
35, 0.0
36, 0.0
37, 0.0
38, 0.0
39, 0.0
40, 0.0
41, 0.0
42, 0.0
43, 0.0
44, 0.0
45, 0.0
46, 0.0
47, 0.0
48, 0.0
49, 0.0
50, 0.0
51, 0.0
52, 0.0
53, 0.0
54, 0.0
55, 0.0
56, 0.0
57, 0.0
58, 0.0
59, 0.0
60, 0.0
61, 0.0
62, 0.0
63, 0.0
64, 0.0
65, 0.0
66, 0.0
67, 0.0
68, 0.0
69, 0.0
70, 0.0
71, 0.0
72, 0.0
73, 0.0
74, 0.0
75, 0.0
76, 0.0
77, 0.0
78, 0.0
79, 0.0
80, 0.0
81, 0.0
82, 0.0
83, 0.0
84, 0.0
85, 0.0
86, 0.0
87, 0.0
88, 0.0
89, 0.0
90, 0.0
91, 0.0
92, 0.0
93, 0.0
94, 0.0
95, 0.0
96, 0.0
97, 0.0
98, 0.0
99, 0.0
100, 0.0
101, 0.0
102, 0.0
103, 0.0
104, 0.0
105, 0.0
106, 0.0
107, 0.0
108, 0.0
109, 0.0
110, 0.0
111, 0.0
112, 0.0
113, 0.0
114, 0.0
115, 0.0
116, 0.0
117, 0.0
118, 0.0
119, 0.0
120, 0.0
121, 0.0
122, 0.0
123, 0.0
124.0, 0.001616542024779118
125.0, 0.0002385981363147218
126.0, 0.0002991720577583517
127.0, 2.9674095129018528e-05
128.0, 0.0012799938777923962
129.0, 0.004820723554311347
130.0, 0.007511842994350259
131.0, 0.011177575182938222
132.0, 0.014998094076046783
133.0, 0.01727165427675257
134.0, 0.019966997208409987
135.0, 0.02160161331450271
136.0, 0.023805672417276318
137.0, 0.02823268675062947
138.0, 0.03364987541829774
139.0, 0.04005459069376744
140.0, 0.04654322447864166
141.0, 0.05304932036001549
142.0, 0.06106786080584199
143.0, 0.06385616748444946
144.0, 0.06744627376087915
145.0, 0.07440509654853801
146.0, 0.08348821191388507
147.0, 0.09658517729551319
148.0, 0.110701795351844
149.0, 0.12230071020248602
150.0, 0.12905136144664112
151.0, 0.13485752987658275
152.0, 0.13438747996313705
153.0, 0.1294261468859214
154.0, 0.12429822010219703
155.0, 0.12526978969535427
156.0, 0.1285932266368996
157.0, 0.13200547271076538
158.0, 0.13458792815362033
159.0, 0.1364015725146699
160.0, 0.13577100580800136
161.0, 0.13221021531905483
162.0, 0.12756346970709
163.0, 0.12466674510174856
164.0, 0.12416233021619892
165.0, 0.12933220215966734
166.0, 0.13900659621565492
167.0, 0.1505751874812018
168.0, 0.16153201712276652
169.0, 0.17957387555738444
170.0, 0.19839554000361206
171.0, 0.21203608079776398
172.0, 0.22006986766060221
173.0, 0.22492467127375917
174.0, 0.2297406484220454
175.0, 0.2318714482012778
176.0, 0.2270008279978776
177.0, 0.22305475838461322
178.0, 0.22115107456838765
179.0, 0.21955052279728146
180.0, 0.21564270740895455
181.0, 0.20603132279756048
182.0, 0.1973624756744465
183.0, 0.18966932289789512
184.0, 0.18309056729997947
185.0, 0.180643272976373
186.0, 0.17685131049878422
187.0, 0.17456522962336174
188.0, 0.17537295095143698
189.0, 0.17785332078604998
190.0, 0.17899673135386485
191.0, 0.17708377385115706
192.0, 0.17394853286014458
193.0, 0.17113079571339462
194.0, 0.16351464942119967
195.0, 0.14897713112582825
196.0, 0.13385539182167494
197.0, 0.1209873814261533
198.0, 0.10654606824349147
199.0, 0.09920768491400599
200.0, 0.09237897068865453
201.0, 0.08386837139104462
202.0, 0.07742843337728032
203.0, 0.07591580653862799
204.0, 0.07286901315892162
205.0, 0.06986756665487034
206.0, 0.06896188473988016
207.0, 0.06529195102684342
208.0, 0.059266935359241546
209.0, 0.0516204008599591
210.0, 0.04360390181358653
211.0, 0.037129840339566504
212.0, 0.031100944711731977
213.0, 0.02559165516847542
214.0, 0.021565812372722582
215.0, 0.019144866526788207
216.0, 0.01508463501709141
217.0, 0.011507488768057423
218.0, 0.009297236362604915
219.0, 0.008027641920004743
220.0, 0.006404016706750119
221.0, 0.0054738367444439745
222.0, 0.004981197892216373
223.0, 0.003919000592223708
224.0, 0.001450007782507453
225.0, 0.0005723433829058545
226.0, 0.00043268484580245316
227.0, 0.00048246380946416814
228.0, 0.001822089226351301
229.0, 0.00026373375566741877
230.0, 0.0006719163622567366
231.0, 0.0007153873231123888
232.0, 8.394206895515423e-05
233.0, 0.0002313093795037487
234.0, 0.0012064447497653053
235.0, 0.001570369130638754
236.0, 0.0013886888881019508
237.0, 0.0012142875300800474
238.0, 0.0011493761345032659
239.0, 0.0005400889972975658
240.0, 0.0007648557324318453
241.0, 0.0019402880491494277
242.0, 0.0028235811414028438
243.0, 0.0017005171588002038
244.0, 0.002125501780282213
245.0, 0.00250585445955084
246.0, 0.0010673012218166483
247.0, 0.00116716433931919
248.0, 0.0008631889807485364
249.0, 0.0012428012551709774
250.0, 0.0028471723196021688
251.0, 0.003389225605194614
252.0, 0.0042580653889980145
253.0, 0.004607591427022131
254.0, 0.005823609836799858
255.0, 0.008254736858260288
256.0, 0.008031154697457877
257.0, 0.008273016888742787
258.0, 0.008952457850462501
259.0, 0.010249552907932752
260.0, 0.012688593269524462
261.0, 0.010412572631079968
262.0, 0.009020849646471346
263.0, 0.009640189136104392
264.0, 0.010999130453927112
265.0, 0.010208438622723451
266.0, 0.01147179117614652
267.0, 0.012220418014721091
268.0, 0.010984778191024568
269.0, 0.009290297090928244
270.0, 0.011037141620597714
271.0, 0.012026402263947099
272.0, 0.010940490243335942
273.0, 0.008938300769960734
274.0, 0.008238081114843638
275.0, 0.009444936108413113
276.0, 0.009223358717478144
277.0, 0.008530252543684662
278.0, 0.009680479280674194
279.0, 0.009154465200175285
280.0, 0.009230069465137205
281.0, 0.00911822756783189
282.0, 0.008161820370887689
283.0, 0.007139953549929067
284.0, 0.005889203158073235
285.0, 0.005624277985074187
286.0, 0.005185949202140514
287.0, 0.003974450459961297
288.0, 0.0049612297191923005
289.0, 0.0040438970992687845
290.0, 0.0025456078961528785
291.0, 0.0018761865938758044
292.0, 0.0019400265737669201
293.0, 0.00045935369214897303
294.0, 0.000619259449854784
295.0, 0.0009080409150974419
296.0, 0.0014628769283284466
297.0, 0.0021865893716115263
298.0, 0.002320307937296354
299.0, 0.002146318392770435
300.0, 0.001681887640230841
301.0, 0.0012336879321258542
302.0, 0.0034337676592509385
303.0, 0.001891449464199154
304.0, 0.0007331074754715597
305.0, 0.002276997863847716
306.0, 0.0030443906473620083
307.0, 0.002720511315718657
308.0, 0.003564016467173637
309.0, 0.005428150350888259
310.0, 0.007741004660329298
311.0, 0.01074004572609959
312.0, 0.01062049329880947
313.0, 0.012837015204787323
314.0, 0.01661161448442801
315.0, 0.018558488217381066
316.0, 0.02078217886600104
317.0, 0.02438399687859449
318.0, 0.029007719574934768
319.0, 0.03345575971327236
320.0, 0.036464453385914274
321.0, 0.04063185424765961
322.0, 0.04314673845379291
323.0, 0.04656554301034302
324.0, 0.051672012601877204
325.0, 0.053424575064353656
326.0, 0.05603053616746464
327.0, 0.05641340871604802
328.0, 0.05600217175481256
329.0, 0.056974800136150874
330.0, 0.05465072510035668
331.0, 0.05210063247409637
332.0, 0.04760963598084343
333.0, 0.04349301519725594
334.0, 0.04447531706799415
335.0, 0.04420493700498047
336.0, 0.044320455821789596
337.0, 0.04558298407200927
338.0, 0.04762419950786253
339.0, 0.04966676966965181
340.0, 0.05298066490583786
341.0, 0.057181440987968214
342.0, 0.06213630021347
343.0, 0.06765408366429441
344.0, 0.07286578567178982
345.0, 0.0803376697197329
346.0, 0.08609988011663687
347.0, 0.09134754687874581
348.0, 0.09952445654389731
349.0, 0.10821049300642534
350.0, 0.11364218111609693
351.0, 0.11409563003212499
352.0, 0.11347824952467181
353.0, 0.11513645007556561
354.0, 0.11008689807190275
355.0, 0.10458056010957939
356.0, 0.09715620996947175
357.0, 0.08820408972748167
358.0, 0.08210827737775561
359.0, 0.07829787153397509
360.0, 0.07234342794390357
361.0, 0.06649507350871094
362.0, 0.06336017601997251
363.0, 0.0622483682144238
364.0, 0.06077601578764866
365.0, 0.059159199654637104
366.0, 0.05834425671732407
367.0, 0.05948942778100681
368.0, 0.06476633691509863
369.0, 0.06547510525832671
370.0, 0.06655690035739213
371.0, 0.06991953553656689
372.0, 0.07451789121302647
373.0, 0.07439851819433745
374.0, 0.07322311789002486
375.0, 0.07419219495994797
376.0, 0.07578783643116961
377.0, 0.07452767272006885
378.0, 0.0731283291090994
379.0, 0.0737321403512696
380.0, 0.07603558134490696
381.0, 0.07836515190662094
382.0, 0.08003293143508014
383.0, 0.08282690035583905
384.0, 0.08571951350907743
385.0, 0.0893202435607321
386.0, 0.09323084590837968
387.0, 0.09581715632099913
388.0, 0.0951922131087388
389.0, 0.09146804913546303
390.0, 0.08687611509614997
391.0, 0.08157376784310755
392.0, 0.07520552308977387
393.0, 0.06794391487264866
394.0, 0.06119443200225894
395.0, 0.05664010966039864
396.0, 0.0532548535346155
397.0, 0.04636096236079034
398.0, 0.04599028385617305
399.0, 0.0447868956062453
400.0, 0.045429994458678034
401.0, 0.049141935765007264
402.0, 0.04941121788248421
403.0, 0.05161675610401618
404.0, 0.0545919195169083
405.0, 0.05930520435988768
406.0, 0.0644936376451427
407.0, 0.06500000094937512
408.0, 0.06458211869425624
409.0, 0.06390077738096876
410.0, 0.06322911347350849
411.0, 0.061889660196316025
412.0, 0.05806513453635665
413.0, 0.05731328489276267
414.0, 0.05389929148658628
415.0, 0.04938843807678422
416.0, 0.04723326425036814
417.0, 0.045914993481345735
418.0, 0.041345810005691534
419.0, 0.03691858563590911
420.0, 0.032255976970683234
421.0, 0.026375632434162005
422.0, 0.020678938916622126
423.0, 0.016715101133495735
424.0, 0.014633305745152309
425.0, 0.012644415130950505
426.0, 0.009754059318355688
427.0, 0.007558692306240684
428.0, 0.006705001201765241
429.0, 0.005234611442894109
430.0, 0.003427464422506935
431.0, 0.0020031157326717932
432.0, 0.0004964399930658703
433.0, 0.0008612094041954899
434.0, 0.0011936381458459186
435.0, 0.0009024310995953873
436.0, 0.0002727914090054979
437.0, 0.0025489330312728985
438.0, 0.002040243476253294
439.0, 0.0018263324906998089
440.0, 0.00149319464496518
441.0, 0.0010139171254425938
442.0, 0.002416905876969828
443.0, 0.0030895017586154896
444.0, 0.0028169888593649424
445.0, 0.0013052530910605655
446.0, 0.000554254552360496
447.0, 0.003473031751002102
448.0, 0.0011469790609783031
449.0, 0.0005912549707650604
450.0, 0.002014644523043575
451.0, 0.0008226403621417351
452.0, 0.0011167887873711336
453.0, 0.0025372222732179465
454.0, 0.0031484656438033223
455.0, 0.0047465970846534925
456.0, 0.006431320560413232
457.0, 0.006492693703977098
458.0, 0.010756161642588902
459.0, 0.01496921661641771
460.0, 0.018109225149921637
461.0, 0.02060059793936281
462.0, 0.023479916510903143
463.0, 0.030328255884902625
464.0, 0.034635944491570175
465.0, 0.036568634913505135
466.0, 0.037079274069338634
467.0, 0.03634876427280678
468.0, 0.033400434621602346
469.0, 0.03420471845843847
470.0, 0.03150117979943732
471.0, 0.02741547593087493
472.0, 0.026327049363079908
473.0, 0.02324860119272691
474.0, 0.02282055966381947
475.0, 0.02040790528746429
476.0, 0.01774313433562415
477.0, 0.017681427636531206
478.0, 0.01850555124486184
479.0, 0.017143365933593748
480.0, 0.014837481230912036
481.0, 0.01380334992545949
482.0, 0.013543276863180692
483.0, 0.011626222606838868
484.0, 0.012244510703321167
485.0, 0.012914262678002022
486.0, 0.014470672754005652
487.0, 0.014013127163225936
488.0, 0.008782584280242752
489.0, 0.010797362942654484
490.0, 0.013873360062223143
491.0, 0.014619865971529929
492.0, 0.013072687918269337
493.0, 0.011506287600788097
494.0, 0.01469098667333595
495.0, 0.016600990551930248
496.0, 0.018257550170689498
497.0, 0.01853242526476306
498.0, 0.01844817628114995
499.0, 0.022044453449594353
500.0, 0.02128800606062441
501.0, 0.024463920156989925
502.0, 0.029226119210374702
503.0, 0.03193272426939084
504.0, 0.032318698469715045
505.0, 0.031149101454302903
506.0, 0.032309304276164214
507.0, 0.03293195956228877
508.0, 0.032690175384726
509.0, 0.03364504644599383
510.0, 0.033392404166114324
511.0, 0.03244775397454247
512.0, 0.03374884762362277
513.0, 0.0349461830712864
514.0, 0.03431713011704455
515.0, 0.03566295301210518
516.0, 0.034544655763569014
517.0, 0.03804315901447021
518.0, 0.0390435346190344
519.0, 0.03669147252624885
520.0, 0.04111023765752154
521.0, 0.041910711160053425
522.0, 0.04019164127622108
523.0, 0.04036670092959552
524.0, 0.041913600431443244
525.0, 0.04130533217218348
526.0, 0.04059368921426764
527.0, 0.03964518738680709
528.0, 0.040806679809202405
529.0, 0.04112140443100746
530.0, 0.03878761503496778
531.0, 0.037100143000356224
532.0, 0.03533674490604915
533.0, 0.032127903969599476
534.0, 0.02831382377741647
535.0, 0.025026571893401937
536.0, 0.02248325760465006
537.0, 0.01837378651803454
538.0, 0.016671662554260974
539.0, 0.0153891299538064
540.0, 0.01227320297073266
541.0, 0.008326954860649263
542.0, 0.006726050021119236
543.0, 0.004397178965792328
544.0, 0.0004603484999602203
545.0, 0.0018603294440405066
546.0, 0.0009992912000264275
547.0, 0.003531271238299936
548.0, 0.00038633384036566734
549.0, 0.0008037076328440099
550.0, 0.0023263783135637566
551.0, 0.0022526944029036358
552.0, 0.0018200623139544916
553.0, 0.0027694922309858118
554.0, 0.0007510755461470013
555.0, 0.001071444160317899
556.0, 0.0011786252249882303
557.0, 0.002321322658551629
558.0, 0.003995717998234145
559.0, 0.005647514973528944
560.0, 0.003842192526519038
561.0, 0.005310517842971494
562.0, 0.008183530844712433
563.0, 0.007897361806316451
564.0, 0.009225050978532018
565.0, 0.011953189230614815
566.0, 0.012063576776801125
567.0, 0.010543877963244354
568.0, 0.009950049864520869
569.0, 0.011262574869586052
570.0, 0.015139624877231812
571.0, 0.016913736077675857
572.0, 0.01836630187170173
573.0, 0.01907671828824618
574.0, 0.01879915573176782
575.0, 0.021158029985654084
576.0, 0.02392787746392303
577.0, 0.02678571587077968
578.0, 0.029543830762409965
579.0, 0.031742547293145545
580.0, 0.033125880251296716
581.0, 0.03458681837681164
582.0, 0.03706737377404592
583.0, 0.038236200378259026
584.0, 0.03965723943768735
585.0, 0.043113080744800726
586.0, 0.0477768807334782
587.0, 0.04947586669096375
588.0, 0.0552591383296634
589.0, 0.061916457027554085
590.0, 0.06724302080109548
591.0, 0.07254683383007587
592.0, 0.08036964198889308
593.0, 0.08594427728598228
594.0, 0.09531067370609897
595.0, 0.10675021002740508
596.0, 0.11895316009193525
597.0, 0.13475915937317542
598.0, 0.15511971975611097
599.0, 0.17721169139351917
600.0, 0.19960656903550106
601.0, 0.2252525360547036
602.0, 0.25735948514280227
603.0, 0.29697535754709564
604.0, 0.3399705969010683
605.0, 0.38871629141692604
606.0, 0.4409524532744204
607.0, 0.5038584108928165
608.0, 0.5758138717451292
609.0, 0.6362761033333294
610.0, 0.7195960973809623
611.0, 0.8012853197833258
612.0, 0.8714746015819519
613.0, 0.9331051862596368
614.0, 0.9867568565269376
615.0, 0.9985683046474501
616.0, 0.9690743371206626
617.0, 0.9045962804996923
618.0, 0.8078475900743451
619.0, 0.6920477882044686
620.0, 0.5778926160049057
621.0, 0.4771408455076613
622.0, 0.3915989024835262
623.0, 0.3221585120973687
624.0, 0.2647717211592442
625.0, 0.2177489447375136
626.0, 0.18406387103847105
627.0, 0.1575476520108765
628.0, 0.1313112334724268
629.0, 0.110621395005513
630.0, 0.0953646517412467
631.0, 0.08151256549620524
632.0, 0.06874846108897152
633.0, 0.05863781641663369
634.0, 0.05279269766281308
635.0, 0.04454060202513065
636.0, 0.03733624287298853
637.0, 0.03541124075873595
638.0, 0.030350376862582656
639.0, 0.02754619818362984
640.0, 0.02423779746213581
641.0, 0.02072967782557132
642.0, 0.018096539172382495
643.0, 0.016545917104524677
644.0, 0.015294038757103678
645.0, 0.013086718828325853
646.0, 0.013142674297312919
647.0, 0.011516026011247505
648.0, 0.008545000682035734
649.0, 0.007937431005279147
650.0, 0.00758324157671289
651.0, 0.007988941727665472
652.0, 0.006052116896267905
653.0, 0.005702086912904696
654.0, 0.006017859005718065
655.0, 0.00363386969739343
656.0, 0.005437262586326147
657.0, 0.0015498030774664525
658.0, 0.001557476936327489
659.0, 0.002465627031400665
660.0, 0.002763482711199453
661.0, 0.004560385481470566
662.0, 0.002626180130359106
663.0, 0.002354182759060395
664.0, 0.0017603406043621651
665.0, 0.000495645584559198
666.0, 0.00019043592905907425
667.0, 0.002092275797201364
668.0, 0.0038761339408324436
669.0, 0.0003995219283854588
670.0, 0.0023222130114714714
671.0, 0.002949039384972708
672.0, 0.0004613139131594645
673.0, 0.0010767159169088253
674.0, 0.0005492301197742647
675.0, 0.00019468206618749543
676.0, 0.0009059020048006852
677.0, 0.0014717266234916394
678.0, 0.0011037582636738807
679.0, 0.0003184480748691555
680.0, 0.0004261110492237636
681.0, 0.0014528324647618777
682.0, 0.0018879770864333625
683.0, 0.0006627878683216314
684.0, 0.0007148610051719679
685.0, 0.0007639168791208676
686.0, 0.0008954506561793812
687.0, 0.0015836418697649929
688.0, 0.0005226111448990717
689.0, 0.00020241255235830947
690.0, 0.00033391962339745807
691.0, 0.00044965038047613433
692.0, 0.0008988246013342728
693.0, 0.00044627812328691826
694.0, 0.0012521021413476046
695.0, 0.0007013692657405872
696.0, 0.0006560844926970358
697.0, 0.00047050997958280325
698.0, 0.0009913576206822894
699.0, 0.0020801545297308207
700.0, 0.0009130543654520086
701.0, 0.001583055287516682
702.0, 0.0029639677772375253
703.0, 0.0031779790209065374
704.0, 0.0036624975827982222
705.0, 0.0036557591869419504
706.0, 0.0025284199371184276
707.0, 0.005355644794810982
708.0, 0.0076290880553000215
709.0, 0.008318244442699596
710.0, 0.011234574648104113
711.0, 0.011041425876789657
712.0, 0.013675918278721116
713.0, 0.017271064164478874
714.0, 0.019905329094965566
715.0, 0.022152500436634925
716.0, 0.02599831243620856
717.0, 0.031913243823761685
718.0, 0.03706667955603585
719.0, 0.04192774734988413
720.0, 0.04959584423561607
721.0, 0.057532159389426706
722.0, 0.06368417324104059
723.0, 0.07177516248487273
724.0, 0.08180673046956059
725.0, 0.09487166455396702
726.0, 0.10769780836461203
727.0, 0.11780334210899404
728.0, 0.12667965792364017
729.0, 0.13628907435808849
730.0, 0.14303974766377933
731.0, 0.1415863493369633
732.0, 0.13505979809101418
733.0, 0.12365780765681257
734.0, 0.10936131073874836
735.0, 0.09405552893357501
736.0, 0.07593382789564716
737.0, 0.06415525618916822
738.0, 0.05244965723601427
739.0, 0.04300979723677107
740.0, 0.03440796700617627
741.0, 0.02596233147426658
742.0, 0.0221072064464163
743.0, 0.02108276829600259
744.0, 0.016166726818996783
745.0, 0.01090837866065643
746.0, 0.010203332337699145
747.0, 0.010671831607101384
748.0, 0.007517090207566403
749.0, 0.007328269821496559
750.0, 0.005822977034207944
751.0, 0.0036468114544577794
752.0, 0.003036886812197117
753.0, 0.003298832585637334
754.0, 0.0029623299827664837
755.0, 0.0029269533981455594
756.0, 0.0035390859163908447
757.0, 0.0005308801982163364
758.0, 0.00016380873030607428
759.0, 0.002740414609590208
760.0, 0.005287898535291865
761.0, 0.004353202874241781
762.0, 0.0008875477499965394
763.0, 0.0042923948158372655
764.0, 0.005615329366187831
765.0, 0.0040624846884624085
766.0, 0.0023000756384052947
767.0, 0.002175941678779474
768.0, 0.002984913165375089
769.0, 0.0025377189247388987
770.0, 0.004301311898384449
771.0, 0.0043844114945913734
772.0, 0.003472940715852912
773.0, 0.0035929181572244466
774.0, 0.0038632632946881333
775.0, 0.0025093811895278138
776.0, 0.0029150249386672754
777.0, 0.004088687686157345
778.0, 0.002699423428178381
779.0, 0.0024710827801913008
780.0, 0.0034276750397257004
781.0, 0.0017492692224776979
782.0, 0.0035331688015764156
783.0, 0.004486975354053194
784.0, 0.0038596012713783033
785.0, 0.003207289295995438
786.0, 0.0035855817096109455
787.0, 0.004160340071994086
788.0, 0.0037308470375341397
789.0, 0.00501847944216504
790.0, 0.0044422904567958214
791.0, 0.004986188944404353
792.0, 0.005317882750774231
793.0, 0.006619437113935343
794.0, 0.008686606787694343
795.0, 0.007441318254538308
796.0, 0.010655941859335443
797.0, 0.01213640338339432
798.0, 0.01284022953599592
799.0, 0.014761962477976998
800.0, 0.01702567992149655
801.0, 0.018591153262460632
802.0, 0.02140926212313205
803.0, 0.021541804364154604
804.0, 0.02360357216660449
805.0, 0.025668563009502862
806.0, 0.0263241794635563
807.0, 0.026185677790935714
808.0, 0.02571334823949356
809.0, 0.023429755879897193
810.0, 0.02172962291518972
811.0, 0.022014017482946766
812.0, 0.01848748931640697
813.0, 0.015627701480893187
814.0, 0.014710653759513909
815.0, 0.011086030084824061
816.0, 0.009754311971732944
817.0, 0.008325673656397354
818.0, 0.007405684071178352
819.0, 0.006558766169372706
820.0, 0.005570666595298498
821.0, 0.004348361623547207
822.0, 0.0032207345639564634
823.0, 0.003309575302571086
824.0, 0.002032253900999898
825.0, 0.0012426607530886253
826.0, 0.0027868942109161355
827.0, 0.0017574487119989845
828.0, 0.0011448793009896094
829.0, 0.00022450217183237747
830.0, 0.0011782873096852454
831.0, 7.351129292388809e-05
832.0, 0.001357713055770046
833.0, 0.0008010176887806094
834.0, 0.000432888654897369
835.0, 0.0007055318626518358
836.0, 0.0007610440767496246
837.0, 0.0018142760018703343
838.0, 0.0007328365720434338
839.0, 0.0011690827599611523
840.0, 0.002204225211466056
841.0, 0.0019393324367319577
842.0, 0.0006401785884690923
843.0, 0.0010657987923870487
844.0, 0.0016320947115650508
845.0, 0.0028888745348159034
846.0, 0.0009101588607452549
847.0, 0.0016907075180258961
848.0, 0.0013839383790310888
849.0, 0.002335837608627737
850.0, 0.0013669152637465097
851.0, 0.002719995546091086
852.0, 0.003748438666406365
853.0, 0.002432623648052857
854.0, 0.0011911566244910716
855.0, 0.0027636715417808226
856.0, 0.0058026115212902315
857.0, 0.007099656785360641
858.0, 0.005712466422965246
859.0, 0.00465366409873313
860.0, 0.006629027756000975
861.0, 0.007384102624763178
862.0, 0.007211240910364156
863.0, 0.006199292840368085
864.0, 0.006018043681143834
865.0, 0.00852775844786603
866.0, 0.005832839264928125
867.0, 0.008412233326723502
868.0, 0.010327876837662175
869.0, 0.009134307748275512
870.0, 0.00784217371491303
871.0, 0.007407707137343884
872.0, 0.0065191138565590615
873.0, 0.008173280152018089
874.0, 0.006129630220718606
875.0, 0.007929161598867362
876.0, 0.008668095594852838
877.0, 0.006999407544491945
878.0, 0.0048970902095079
879.0, 0.004451999003680324
880.0, 0.006507064987581296
881.0, 0.005908940246329612
882.0, 0.0037369711240956504
883.0, 0.0035343693308812272
884.0, 0.00452718277358257
885.0, 0.004687607535100928
886.0, 0.003945295635802145
887.0, 0.004509566081595355
888.0, 0.00551523679027285
889.0, 0.005108793894621018
890.0, 0.0019864497664848486
891.0, 0.002365035176273843
892.0, 0.0040309846379067765
893.0, 0.004612488219594314
894.0, 0.0055395727409053306
895.0, 0.00497496567106144
896.0, 0.006926717652964519
897.0, 0.005731242180663009
898.0, 0.006614864003469517
899.0, 0.007313996561941851
900.0, 0.008329003585764697
901.0, 0.010601554892015494
902.0, 0.011956366835752536
903.0, 0.01427079853747303
904.0, 0.014393284955196097
905.0, 0.015981254774541483
906.0, 0.020161644128617685
907.0, 0.02252168762436523
908.0, 0.02345907255291669
909.0, 0.025646122196732145
910.0, 0.027219471000414636
911.0, 0.028986733648240528
912.0, 0.03070308248124491
913.0, 0.03101353198338015
914.0, 0.03106841124915584
915.0, 0.0324412015893433
916.0, 0.03385764556832857
917.0, 0.03360959747699495
918.0, 0.03427499316799374
919.0, 0.03684999377567146
920.0, 0.03854091735417712
921.0, 0.04039932656104646
922.0, 0.042328135521998274
923.0, 0.04447499827792285
924.0, 0.0463530566326142
925.0, 0.046754107666594366
926.0, 0.046278285944565345
927.0, 0.04519008167615926
928.0, 0.0447310850033599
929.0, 0.04510087310283205
930.0, 0.046601923259271184
931.0, 0.04492517904554768
932.0, 0.040769447665977766
933.0, 0.040246136918841685
934.0, 0.037911396561095434
935.0, 0.036319696126572806
936.0, 0.03272086059243655
937.0, 0.028799474543466676
938.0, 0.029262900514961276
939.0, 0.028738931282015164
940.0, 0.02367224546533497
941.0, 0.023596555447661968
942.0, 0.026166372801089927
943.0, 0.022174670056714745
944.0, 0.023912164797776046
945.0, 0.023513387581288146
946.0, 0.02127171150695967
947.0, 0.020795585755132965
948.0, 0.02173025099963956
949.0, 0.02246753454038265
950.0, 0.023811431088063113
951.0, 0.02341649840400137
952.0, 0.025763621411022276
953.0, 0.02674672827276398
954.0, 0.024715769435339638
955.0, 0.02373986102507202
956.0, 0.025181843563791915
957.0, 0.02562548861367238
958.0, 0.027270199149779215
959.0, 0.027153400178272873
960.0, 0.0265170193352572
961.0, 0.022128718995524817
962.0, 0.019006263120888482
963.0, 0.018040312011386766
964.0, 0.017490860792795403
965.0, 0.01662687705052419
966.0, 0.012857147416969647
967.0, 0.012307317102008553
968.0, 0.012108104774669608
969.0, 0.010057533078376417
970.0, 0.011436580621440444
971.0, 0.011689976771178648
972.0, 0.008868992277066516
973.0, 0.008718011836863453
974.0, 0.010091688378040949
975.0, 0.0076658526004223845
976.0, 0.009066673041846707
977.0, 0.007169766463814782
978.0, 0.0060910843238480535
979.0, 0.004731650177632255
980.0, 0.003086218918448552
981.0, 0.003416685546223847
982.0, 0.0035912540342618463
983.0, 0.0032385065686663024
984.0, 0.0037648419086563694
985.0, 0.002377690306612037
986.0, 0.0003021475942834194
987.0, 0.00020913839674110057
988.0, 0.0017644878227982821
989.0, 0.002679113170640335
990.0, 0.0015516150338617742
991.0, 0.0007413856403498121
992.0, 0.0006468292167079037
993.0, 0.0027541027477052107
994.0, 0.0016132724711269697
995.0, 0.0023570175932611983
996.0, 0.0003097235029596675
997.0, 0.001230078299761938
998.0, 0.0019026419516440039
999.0, 0.002175131133749598
1000.0, 0.0011443601388331994
1001.0, 0.0008246144853823778
1002.0, 0.0009175963576822715
1003.0, 0.0029326113484933183
1004.0, 0.0031650347943409187
1005.0, 0.0034983230071413923
1006.0, 0.004203264316991063
1007.0, 0.003345035058434601
1008.0, 0.0034139080891890743
1009.0, 0.004473710690822488
1010.0, 0.0064905157127965445
1011.0, 0.006356867641301771
1012.0, 0.0048492949009726295
1013.0, 0.004182162018359167
1014.0, 0.0029522434271745833
1015.0, 0.0024298284517430668
1016.0, 0.004151678257012842
1017.0, 0.0006778725072276252
1018.0, 0.0020780841052894967
1019.0, 0.0009776725246267246
1020.0, 0.0016689815208221982
1021.0, 0.0012363683213429061
1022.0, 0.0005765182401341223
1023.0, 0.001601934132708626
1024.0, 0.0008745754422403696
1025.0, 0.0007807840859485117
1026.0, 0.00014767464048306522
1027.0, 0.0005746348344654054
1028.0, 8.686660240382922e-05
1029.0, 0.0020907150922544106
1030.0, 0.0013152003927229608
1031.0, 0.0002521500071460752
1032.0, 0.00045654652281843416
1033.0, 9.208669030041725e-05
1034.0, 0.0013480796766715986
1035.0, 0.0036785787458733414
1036.0, 0.0016961953209592084
1037.0, 0.0009583909335866528
1038.0, 0.0010678276023712548
1039.0, 0.0024510841414083356
1040.0, 0.0029038065645919375
1041.0, 0.0033862205943350197
1042.0, 0.006333613418910217
1043.0, 0.008872769523124676
1044.0, 0.0071309068471720055
1045.0, 0.010186026706860708
1046.0, 0.009668642119677934
1047.0, 0.01076348515184551
1048.0, 0.01166324880264591
1049.0, 0.012993318857375601
1050.0, 0.015220006804295758
1051.0, 0.01692996492214668
1052.0, 0.01783573268904835
1053.0, 0.01797786980492805
1054.0, 0.01935873332520329
1055.0, 0.02098364405765941
1056.0, 0.024488226604593946
1057.0, 0.02346028543865206
1058.0, 0.022521847071123504
1059.0, 0.023045101878016682
1060.0, 0.023238597192684358
1061.0, 0.025137625036701066
1062.0, 0.0276169138790544
1063.0, 0.02489479028632406
1064.0, 0.025777184222377684
1065.0, 0.024811675309261476
1066.0, 0.02271683197117951
1067.0, 0.022447271679371602
1068.0, 0.021418444573729663
1069.0, 0.019634848247117087
1070.0, 0.019038664128778204
1071.0, 0.017239192956932683
1072.0, 0.015501551012213878
1073.0, 0.014497822042811265
1074.0, 0.017157323356288657
1075.0, 0.014712972086852762
1076.0, 0.014237697398559688
1077.0, 0.01502630514703027
1078.0, 0.015109273610362395
1079.0, 0.014402396164583185
1080.0, 0.012763585560911608
1081.0, 0.012107344522619759
1082.0, 0.00966844030162609
1083.0, 0.010444135955421034
1084.0, 0.011078233749306785
1085.0, 0.00935082847543395
1086.0, 0.008027596170874816
1087.0, 0.008405794127721982
1088.0, 0.008332132230146911
1089.0, 0.00672476405949256
1090.0, 0.006465147360383901
1091.0, 0.009187000866848625
1092.0, 0.00901416975164326
1093.0, 0.007882126236248064
1094.0, 0.007083679283094367
1095.0, 0.005498415754508005
1096.0, 0.006365356291487904
1097.0, 0.0076334754102999084
1098.0, 0.00672133154862991
1099.0, 0.005724660717309435
1100.0, 0.0068313090346444555
1101.0, 0.007968582325764221
1102.0, 0.007766198346385357
1103.0, 0.005779876258522854
1104.0, 0.006079144109313075
1105.0, 0.006023767771005654
1106.0, 0.0056184786418128725
1107.0, 0.0036325485699326733
1108.0, 0.002942210631013176
1109.0, 0.0048498680890958
1110.0, 0.004630427548232042
1111.0, 0.003801670023504305
1112.0, 0.004776430519674198
1113.0, 0.004817129084879892
1114.0, 0.006775397802740725
1115.0, 0.006544458281744386
1116.0, 0.005161885516171143
1117.0, 0.004938243465781157
1118.0, 0.0050062478814249765
1119.0, 0.004403138541597107
1120.0, 0.0038193668897999497
1121.0, 0.0027104791552420046
1122.0, 0.003157468265853648
1123.0, 0.004650693599301502
1124.0, 0.0036787003484482685
1125.0, 0.003779305623952349
1126.0, 0.0029266878265247335
1127.0, 0.0019636399117771825
1128.0, 0.0011896564287000755
1129.0, 0.0005442270708439175
1130.0, 0.0013199663979642634
1131.0, 0.002235583643125558
1132.0, 0.001303028098012793
1133.0, 0.00032999115791088724
1134.0, 0.0011029897369802069
1135.0, 0.0020999194417215482
1136.0, 0.0017316773326850553
1137.0, 0.0008578078914684136
1138.0, 0.0005438226774126891
1139.0, 0.001543832352562111
1140.0, 0.00274161780286497
1141.0, 0.001624904415180102
1142.0, 0.0021538212632731635
1143.0, 0.0005695364262843049
1144.0, 0.001346761487297871
1145.0, 0.001173955610514639
1146.0, 0.000288798079091971
1147.0, 0.000404303071564692
1148.0, 0.0019359089987587884
1149.0, 0.0020915696213051342
1150.0, 0.001258708799445733
1151.0, 0.0009250611308642138
1152.0, 1.510791702332541e-05
1153.0, 0.00015771768037210147
1154.0, 0.00020377990705456196
1155.0, 0.00014606653956510866
1156.0, 0.0007824797304225866
1157.0, 0.0014058581102389188
1158.0, 0.0006723115283877049
1159.0, 0.0005418681034655256
1160.0, 0.00040300421773124817
1161.0, 0.0023919471742753053
1162.0, 0.0026461060689501365
1163.0, 0.0006954356168510117
1164.0, 8.961906973785951e-05
1165.0, 0.0002797882815424935
1166.0, 0.001175950414860143
1167.0, 0.0019615825603269206
1168.0, 0.003709047002459153
1169.0, 0.002887458009106498
1170.0, 0.0019568506130856894
1171.0, 0.002304843722506804
1172.0, 0.001952109277299884
1173.0, 0.002066695298822185
1174.0, 0.003494912538390736
1175.0, 0.002098511690630051
1176.0, 0.004396884248133204
1177.0, 0.0034684887822331095
1178.0, 0.005516878381758131
1179.0, 0.007432110471880698
1180.0, 0.004215032231078619
1181.0, 0.0033692529256139905
1182.0, 0.004485838377004585
1183.0, 0.004895396435667597
1184.0, 0.0045923903292783876
1185.0, 0.004058052600468134
1186.0, 0.006338458508554337
1187.0, 0.006523581389785107
1188.0, 0.005249246171806958
1189.0, 0.006086210469449798
1190.0, 0.007414597851365054
1191.0, 0.009194137839030074
1192.0, 0.008213764024150621
1193.0, 0.007853774941316897
1194.0, 0.010936995872371564
1195.0, 0.013175525449308886
1196.0, 0.0117243583020759
1197.0, 0.01111863371140158
1198.0, 0.012359316642095367
1199.0, 0.014376077541008291
1200.0, 0.01295666620545952
1201.0, 0.010926197431766812
1202.0, 0.010018250756162328
1203.0, 0.011970565944966002
1204.0, 0.011596270830862381
1205.0, 0.011146025118414914
1206.0, 0.0121447127282274
1207.0, 0.013169860892543423
1208.0, 0.013159373161469637
1209.0, 0.011737024495464607
1210.0, 0.011559664604923657
1211.0, 0.01216774253119797
1212.0, 0.010763165380116414
1213.0, 0.008323558580636343
1214.0, 0.00942631976927547
1215.0, 0.011053129393470005
1216.0, 0.010508234440610843
1217.0, 0.010016070779433632
1218.0, 0.010764976480128613
1219.0, 0.010350846226023946
1220.0, 0.009174110476207477
1221.0, 0.008961477048706324
1222.0, 0.0059506244339462624
1223.0, 0.006789283001222582
1224.0, 0.006879619813860561
1225.0, 0.006522833423636902
1226.0, 0.006646290884030253
1227.0, 0.006308389850025865
1228.0, 0.007637591133676571
1229.0, 0.0065816321284590425
1230.0, 0.005801596551092015
1231.0, 0.006031144659637618
1232.0, 0.005814095677252695
1233.0, 0.006044054800989897
1234.0, 0.005731433127599179
1235.0, 0.005517156579194734
1236.0, 0.005975044020142547
1237.0, 0.0059436922512563235
1238.0, 0.004479735141235747
1239.0, 0.006374574533447478
1240.0, 0.0061525960873746776
1241.0, 0.0065186974291776235
1242.0, 0.007904845551808317
1243.0, 0.009181725865722263
1244.0, 0.010895906043239876
1245.0, 0.010930188896880655
1246.0, 0.009218235547473756
1247.0, 0.010436603615597709
1248.0, 0.010097285699638546
1249.0, 0.012051801740222171
1250.0, 0.013922757514630072
1251.0, 0.011621442444668492
1252.0, 0.01392118885649014
1253.0, 0.013929041021514309
1254.0, 0.014521438463844774
1255.0, 0.013530849635939002
1256.0, 0.012632068350548644
1257.0, 0.013769696649583302
1258.0, 0.012223673065241936
1259.0, 0.00887539159459745
1260.0, 0.009920995893343356
1261.0, 0.010760605846412422
1262.0, 0.010715074350135268
1263.0, 0.008217866837757796
1264.0, 0.006474339692035693
1265.0, 0.008144582864049257
1266.0, 0.008162301694528924
1267.0, 0.0070741956658345925
1268.0, 0.0067915230573191996
1269.0, 0.005904080379238432
1270.0, 0.0042735923340411226
1271.0, 0.0035741610171334676
1272.0, 0.0026057806142818214
1273.0, 0.00232940367261126
1274.0, 0.004856899874660579
1275.0, 0.0010657735556018142
1276.0, 0.0013098612925676377
1277.0, 0.0012784817371460434
1278.0, 0.0011663794233747512
1279.0, 0.002002964991277133
1280.0, 0.0005095901425484442
1281.0, 0.002167002587340984
1282.0, 0.000830579926395565
1283.0, 0.0011854500169721496
1284.0, 0.002068514094446186
1285.0, 0.0024450258539934306
1286.0, 0.001993955282339364
1287.0, 0.0002330182011025356
1288.0, 0.0020102817219216805
1289.0, 0.002965270882430129
1290.0, 0.00018420011234308026
1291.0, 0.0005286641085828184
1292.0, 0.0003703312260859474
1293, 0.0
1294, 0.0
1295, 0.0
1296, 0.0
1297, 0.0
1298, 0.0
1299, 0.0
1300, 0.0
1301, 0.0
1302, 0.0
1303, 0.0
1304, 0.0
1305, 0.0
1306, 0.0
1307, 0.0
1308, 0.0
1309, 0.0
1310, 0.0
1311, 0.0
1312, 0.0
1313, 0.0
1314, 0.0
1315, 0.0
1316, 0.0
1317, 0.0
1318, 0.0
1319, 0.0
1320, 0.0
1321, 0.0
1322, 0.0
1323, 0.0
1324, 0.0
1325, 0.0
1326, 0.0
1327, 0.0
1328, 0.0
1329, 0.0
1330, 0.0
1331, 0.0
1332, 0.0
1333, 0.0
1334, 0.0
1335, 0.0
1336, 0.0
1337, 0.0
1338, 0.0
1339, 0.0
1340, 0.0
1341, 0.0
1342, 0.0
1343, 0.0
1344, 0.0
1345, 0.0
1346, 0.0
1347, 0.0
1348, 0.0
1349, 0.0
1350, 0.0
1351, 0.0
1352, 0.0
1353, 0.0
1354, 0.0
1355, 0.0
1356, 0.0
1357, 0.0
1358, 0.0
1359, 0.0
1360, 0.0
1361, 0.0
1362, 0.0
1363, 0.0
1364, 0.0
1365, 0.0
1366, 0.0
1367, 0.0
1368, 0.0
1369, 0.0
1370, 0.0
1371, 0.0
1372, 0.0
1373, 0.0
1374, 0.0
1375, 0.0
1376, 0.0
1377, 0.0
1378, 0.0
1379, 0.0
1380, 0.0
1381, 0.0
1382, 0.0
1383, 0.0
1384, 0.0
1385, 0.0
1386, 0.0
1387, 0.0
1388, 0.0
1389, 0.0
1390, 0.0
1391, 0.0
1392, 0.0
1393, 0.0
1394, 0.0
1395, 0.0
1396, 0.0
1397, 0.0
1398, 0.0
1399, 0.0
1400, 0.0
1401, 0.0
1402, 0.0
1403, 0.0
1404, 0.0
1405, 0.0
1406, 0.0
1407, 0.0
1408, 0.0
1409, 0.0
1410, 0.0
1411, 0.0
1412, 0.0
1413, 0.0
1414, 0.0
1415, 0.0
1416, 0.0
1417, 0.0
1418, 0.0
1419, 0.0
1420, 0.0
1421, 0.0
1422, 0.0
1423, 0.0
1424, 0.0
1425, 0.0
1426, 0.0
1427, 0.0
1428, 0.0
1429, 0.0
1430, 0.0
1431, 0.0
1432, 0.0
1433, 0.0
1434, 0.0
1435, 0.0
1436, 0.0
1437, 0.0
1438, 0.0
1439, 0.0
1440, 0.0
1441, 0.0
1442, 0.0
1443, 0.0
1444, 0.0
1445, 0.0
1446, 0.0
1447, 0.0
1448, 0.0
1449, 0.0
1450, 0.0
1451, 0.0
1452, 0.0
1453, 0.0
1454, 0.0
1455, 0.0
1456, 0.0
1457, 0.0
1458, 0.0
1459, 0.0
1460, 0.0
1461, 0.0
1462, 0.0
1463, 0.0
1464, 0.0
1465, 0.0
1466, 0.0
1467, 0.0
1468, 0.0
1469, 0.0
1470, 0.0
1471, 0.0
1472, 0.0
1473, 0.0
1474, 0.0
1475, 0.0
1476, 0.0
1477, 0.0
1478, 0.0
1479, 0.0
1480, 0.0
1481, 0.0
1482, 0.0
1483, 0.0
1484, 0.0
1485, 0.0
1486, 0.0
1487, 0.0
1488, 0.0
1489, 0.0
1490, 0.0
1491, 0.0
1492, 0.0
1493, 0.0
1494, 0.0
1495, 0.0
1496, 0.0
1497, 0.0
1498, 0.0
1499, 0.0
1500, 0.0
1501, 0.0
1502, 0.0
1503, 0.0
1504, 0.0
1505, 0.0
1506, 0.0
1507, 0.0
1508, 0.0
1509, 0.0
1510, 0.0
1511, 0.0
1512, 0.0
1513, 0.0
1514, 0.0
1515, 0.0
1516, 0.0
1517, 0.0
1518, 0.0
1519, 0.0
1520, 0.0
1521, 0.0
1522, 0.0
1523, 0.0
1524, 0.0
1525, 0.0
1526, 0.0
1527, 0.0
1528, 0.0
1529, 0.0
1530, 0.0
1531, 0.0
1532, 0.0
1533, 0.0
1534, 0.0
1535, 0.0
1536, 0.0
1537, 0.0
1538, 0.0
1539, 0.0
1540, 0.0
1541, 0.0
1542, 0.0
1543, 0.0
1544, 0.0
1545, 0.0
1546, 0.0
1547, 0.0
1548, 0.0
1549, 0.0
1550, 0.0
1551, 0.0
1552, 0.0
1553, 0.0
1554, 0.0
1555, 0.0
1556, 0.0
1557, 0.0
1558, 0.0
1559, 0.0
1560, 0.0
1561, 0.0
1562, 0.0
1563, 0.0
1564, 0.0
1565, 0.0
1566, 0.0
1567, 0.0
1568, 0.0
1569, 0.0
1570, 0.0
1571, 0.0
1572, 0.0
1573, 0.0
1574, 0.0
1575, 0.0
1576, 0.0
1577, 0.0
1578, 0.0
1579, 0.0
1580, 0.0
1581, 0.0
1582, 0.0
1583, 0.0
1584, 0.0
1585, 0.0
1586, 0.0
1587, 0.0
1588, 0.0
1589, 0.0
1590, 0.0
1591, 0.0
1592, 0.0
1593, 0.0
1594, 0.0
1595, 0.0
1596, 0.0
1597, 0.0
1598, 0.0
1599, 0.0
