30, 0.0
31, 0.0
32, 0.0
33, 0.0
34, 0.0
35, 0.0
36, 0.0
37, 0.0
38, 0.0
39, 0.0
40, 0.0
41, 0.0
42, 0.0
43, 0.0
44, 0.0
45, 0.0
46, 0.0
47, 0.0
48, 0.0
49, 0.0
50, 0.0
51, 0.0
52, 0.0
53, 0.0
54, 0.0
55, 0.0
56, 0.0
57, 0.0
58, 0.0
59, 0.0
60, 0.0
61, 0.0
62, 0.0
63, 0.0
64, 0.0
65, 0.0
66, 0.0
67, 0.0
68, 0.0
69, 0.0
70, 0.0
71, 0.0
72, 0.0
73, 0.0
74, 0.0
75, 0.0
76, 0.0
77, 0.0
78, 0.0
79, 0.0
80, 0.0
81, 0.0
82, 0.0
83, 0.0
84, 0.0
85, 0.0
86, 0.0
87, 0.0
88, 0.0
89, 0.0
90, 0.0
91, 0.0
92, 0.0
93, 0.0
94, 0.0
95, 0.0
96, 0.0
97, 0.0
98, 0.0
99, 0.0
100, 0.0
101, 0.0
102, 0.0
103, 0.0
104, 0.0
105, 0.0
106, 0.0
107, 0.0
108, 0.0
109, 0.0
110, 0.0
111, 0.0
112, 0.0
113, 0.0
114, 0.0
115, 0.0
116, 0.0
117, 0.0
118, 0.0
119, 0.0
120, 0.0
121, 0.0
122, 0.0
123, 0.0
124, 0.0
125, 0.0
126, 0.0
127, 0.0
128, 0.0
129, 0.0
130, 0.0
131, 0.0
132, 0.0
133, 0.0
134, 0.0
135, 0.0
136, 0.0
137, 0.0
138, 0.0
139, 0.0
140, 0.0
141, 0.0
142, 0.0
143, 0.0
144, 0.0
145, 0.0
146, 0.0
147, 0.0
148, 0.0
149, 0.0
150, 0.0
151.0, 3.993119627438872e-06
152.0, 1.7350715439211592e-05
153.0, 5.022793690397991e-05
154.0, 0.00031996806048006395
155.0, 0.0006112930992237442
156.0, 0.00031890023889475353
157.0, 0.0002786391166220851
158.0, 0.0006146535858028503
159.0, 0.0009357485972356668
160.0, 0.001241634428096209
161.0, 0.002011626949647747
162.0, 0.0024982284351417767
163.0, 0.0025348567665289578
164.0, 0.002625450015807812
165.0, 0.003342883763315303
166.0, 0.0038274860902106494
167.0, 0.004273055563711405
168.0, 0.004677614248320749
169.0, 0.0049682010532184455
170.0, 0.0052176539782876645
171.0, 0.005873432744245551
172.0, 0.006663387248909705
173.0, 0.007172384679955865
174.0, 0.007072025455235668
175.0, 0.0073529578224294685
176.0, 0.0078035455855040466
177.0, 0.008279456783206546
178.0, 0.008760263059888284
179.0, 0.009077783366265683
180.0, 0.00933429290233299
181.0, 0.009560767611157319
182.0, 0.00966502844027523
183.0, 0.00946712845802306
184.0, 0.009340933433119626
185.0, 0.00933003991636219
186.0, 0.00926018198361458
187.0, 0.008916722701615691
188.0, 0.008663433560814983
189.0, 0.008614774186177808
190.0, 0.00860422555595913
191.0, 0.008419087980150801
192.0, 0.008182351473168394
193.0, 0.008446842345820126
194.0, 0.008428179353832926
195.0, 0.008066289011890207
196.0, 0.008731642983667062
197.0, 0.008645962787464635
198.0, 0.008316536843470432
199.0, 0.008247733487835291
200.0, 0.008449918136908392
201.0, 0.00849010513446859
202.0, 0.008222276261147902
203.0, 0.007773025831810634
204.0, 0.007382881862502556
205.0, 0.006973702329593188
206.0, 0.006472337319867788
207.0, 0.006136027089357911
208.0, 0.005769343177191581
209.0, 0.004977565520353681
210.0, 0.004634978464086837
211.0, 0.004081660666845747
212.0, 0.0035476665993766174
213.0, 0.0034581359231797117
214.0, 0.0031282797943457136
215.0, 0.0027946750327452283
216.0, 0.0027389653861275517
217.0, 0.002911773012000081
218.0, 0.002808488578758328
219.0, 0.0024677708568740992
220.0, 0.0022235303324515334
221.0, 0.002205339705090206
222.0, 0.002325606988028023
223.0, 0.0023358892010722884
224.0, 0.0021843288274961425
225.0, 0.0022797829509211462
226.0, 0.0026966686089134346
227.0, 0.0029638814416165773
228.0, 0.003152211331985342
229.0, 0.003309421645882828
230.0, 0.003342019371599415
231.0, 0.0031470468344146378
232.0, 0.0029582363569318547
233.0, 0.0033109625457604162
234.0, 0.003479761084683676
235.0, 0.003278038383000863
236.0, 0.003697569281640507
237.0, 0.0036826231219907438
238.0, 0.0035163390498528877
239.0, 0.003538156716244761
240.0, 0.003853263766056518
241.0, 0.003881245611909998
242.0, 0.0038748507841679263
243.0, 0.0038039177297684197
244.0, 0.003631065762877868
245.0, 0.0033952046058976504
246.0, 0.00285440957500465
247.0, 0.002509909556886029
248.0, 0.002347142017407493
249.0, 0.0020489445727235062
250.0, 0.0015923430202168464
251.0, 0.0014244836925776543
252.0, 0.0010975072749419925
253.0, 0.000566781290835661
254.0, 0.00046158067256469703
255.0, 0.00014973426398773215
256.0, 0.0006850692145405648
257.0, 0.0010882929780666863
258.0, 0.0015372453742771826
259.0, 0.002018298765234694
260.0, 0.0020789729991229676
261.0, 0.001959197467470205
262.0, 0.001728919370505713
263.0, 0.0011534307275084116
264.0, 0.0003829650642148689
265.0, 0.0008711116259450581
266.0, 0.002459221547060177
267.0, 0.004157038108123161
268.0, 0.006032264991258198
269.0, 0.008491239277242341
270.0, 0.011516670518618878
271.0, 0.01497535261189329
272.0, 0.018835690146718428
273.0, 0.023718250754796208
274.0, 0.028209608677529086
275.0, 0.03311273731893166
276.0, 0.03888065735203611
277.0, 0.04438947638511663
278.0, 0.050439378688663834
279.0, 0.057019153757884765
280.0, 0.06440724398139616
281.0, 0.07278670233877971
282.0, 0.0817758082872142
283.0, 0.09249009726420496
284.0, 0.10475830390024668
285.0, 0.11838248909492172
286.0, 0.13358317012005536
287.0, 0.15024715025628968
288.0, 0.1658752137182961
289.0, 0.17880217607512083
290.0, 0.18744255898638706
291.0, 0.19000550011472178
292.0, 0.18607906255498027
293.0, 0.17593125610451912
294.0, 0.1610719177630013
295.0, 0.1437844650147902
296.0, 0.12661864111732227
297.0, 0.10954131383076124
298.0, 0.0941461247247813
299.0, 0.08120972945010133
300.0, 0.07018101543265444
301.0, 0.06121415748008059
302.0, 0.05341931553280344
303.0, 0.0466883979269267
304.0, 0.041202233033516736
305.0, 0.0368480952752267
306.0, 0.032810947098593994
307.0, 0.029248518580564934
308.0, 0.026256785852091395
309.0, 0.02367039897116245
310.0, 0.020986620627807318
311.0, 0.018733384669594563
312.0, 0.016928172716529348
313.0, 0.01546192410108671
314.0, 0.014157504822257779
315.0, 0.012640618492740674
316.0, 0.011341044752004729
317.0, 0.010281951592819888
318.0, 0.009289082841780564
319.0, 0.008178590858340997
320.0, 0.007246330591369489
321.0, 0.006520511740689261
322.0, 0.005929811159185246
323.0, 0.005402466151296974
324.0, 0.004901378702305678
325.0, 0.0047884885391444735
326.0, 0.004722295934866629
327.0, 0.00449368884376608
328.0, 0.0041556626155358255
329.0, 0.004198037927854628
330.0, 0.003988777601422451
331.0, 0.00373023916755755
332.0, 0.003528053435041267
333.0, 0.0032595199228439803
334.0, 0.0031792494413999607
335.0, 0.0030957715929735875
336.0, 0.003173659069668222
337.0, 0.0033984386221045716
338.0, 0.003382858655187633
339.0, 0.0034393292745569528
340.0, 0.003941323653080238
341.0, 0.004419176845056049
342.0, 0.004726034251570769
343.0, 0.00582885769446623
344.0, 0.00663575119379455
345.0, 0.007807001539820769
346.0, 0.009493154726102203
347.0, 0.011321723657065477
348.0, 0.013013997723301135
349.0, 0.01546554695871531
350.0, 0.01811561228102671
351.0, 0.021025087815795537
352.0, 0.024660371899955038
353.0, 0.028399654297848412
354.0, 0.032160077831979716
355.0, 0.03612703877553181
356.0, 0.04045933487899248
357.0, 0.0451877281822274
358.0, 0.0498159310914971
359.0, 0.054407536973572285
360.0, 0.05947869126235777
361.0, 0.06490878729488807
362.0, 0.0700269216171111
363.0, 0.07539569169383525
364.0, 0.08083194182514045
365.0, 0.08613488224999487
366.0, 0.0911726240824318
367.0, 0.09585143183217426
368.0, 0.0997927413302993
369.0, 0.10279081009561493
370.0, 0.10488272306941919
371.0, 0.10590000626308414
372.0, 0.10520420702323607
373.0, 0.10280957872469144
374.0, 0.0985440174603017
375.0, 0.09322888989854998
376.0, 0.0875871802239862
377.0, 0.08148204604403649
378.0, 0.0745200767322474
379.0, 0.06806830381266006
380.0, 0.06206379267956313
381.0, 0.05587789780321262
382.0, 0.049986777907654975
383.0, 0.045068326486761894
384.0, 0.04073393491024606
385.0, 0.03664684866125699
386.0, 0.03278750598951403
387.0, 0.02924504929750074
388.0, 0.026153849015361618
389.0, 0.022970304709308272
390.0, 0.019911350487245707
391.0, 0.017511138091969528
392.0, 0.015491658291589811
393.0, 0.013325258666429324
394.0, 0.011722226153045573
395.0, 0.01039588671901693
396.0, 0.00868787661936159
397.0, 0.007183517107069817
398.0, 0.0062687937502888735
399.0, 0.0053727124109341365
400.0, 0.004304677234990586
401.0, 0.0032674927108853518
402.0, 0.002532567849330638
403.0, 0.0022874209705582797
404.0, 0.001703138984885513
405.0, 0.0010424590177738544
406.0, 0.0009618694264120272
407.0, 0.000531427893647742
408.0, 0.0003974726917217053
409.0, 0.00026318165380802045
410.0, 4.6439827322446845e-05
411.0, 0.00018353652197309649
412.0, 0.0004050914517553515
413.0, 8.262244152733596e-05
414.0, 7.753904077144581e-05
415.0, 0.0004584582414251972
416.0, 0.0005641795255760388
417.0, 0.00042040941261018696
418.0, 0.00036355384948107074
419.0, 0.0002872469928915615
420.0, 0.0002554353158115879
421.0, 0.0003221648976488653
422.0, 9.902034388063661e-05
423.0, 1.645077595017968e-05
424.0, 2.7304455018481574e-05
425.0, 3.870866295344661e-05
426.0, 0.00010013533715120869
427.0, 0.0002023949690837397
428.0, 0.000604356520849799
429.0, 0.0008671860983164161
430.0, 0.0012748296895905631
431.0, 0.0019811645708509096
432.0, 0.0020344041637908954
433.0, 0.0023750373229398667
434.0, 0.002862055392870113
435.0, 0.0033516844475827436
436.0, 0.0037627822700511547
437.0, 0.004040061071857319
438.0, 0.004542839664685768
439.0, 0.004976750889379208
440.0, 0.005436435518423074
441.0, 0.006013058182450685
442.0, 0.006484535356873387
443.0, 0.0065897859718888245
444.0, 0.006640749452711404
445.0, 0.006770858200802547
446.0, 0.007020638005071521
447.0, 0.007376245830017951
448.0, 0.007452344801767395
449.0, 0.007300791123339035
450.0, 0.007156911296152921
451.0, 0.007287383969608928
452.0, 0.007699626439673898
453.0, 0.007549101711843593
454.0, 0.0069142020766995525
455.0, 0.006747191285414025
456.0, 0.007048942574111186
457.0, 0.0070592411062401494
458.0, 0.006946183613187121
459.0, 0.006867563634709372
460.0, 0.006531976402507853
461.0, 0.006248973780068427
462.0, 0.006294013866632589
463.0, 0.005835409254645379
464.0, 0.00559073269118263
465.0, 0.0056070153153523665
466.0, 0.005485102264036637
467.0, 0.005111167738620415
468.0, 0.005059256848336734
469.0, 0.004954522466538171
470.0, 0.004712357203214408
471.0, 0.004319733888668313
472.0, 0.003875456100420739
473.0, 0.0037976860820097256
474.0, 0.003968756774769172
475.0, 0.0034956662660853735
476.0, 0.0027663539922765743
477.0, 0.002347500805058888
478.0, 0.002162267569636012
479.0, 0.0017078598250883736
480.0, 0.0014225420298426517
481.0, 0.0011944983090539608
482.0, 0.0009045270244547268
483.0, 0.0006206266140819259
484.0, 0.000583836652385896
485.0, 0.0002828513412378187
486.0, 0.0001407364038162298
487.0, 0.0004967386382525234
488.0, 0.0006421146519282672
489.0, 0.0005959726950966522
490.0, 0.000942481968427969
491.0, 0.0013199366378731296
492.0, 0.00163763042261213
493.0, 0.0016779288174766105
494.0, 0.0011911673222429042
495.0, 0.0012956677604735209
496.0, 0.0012030385046389355
497.0, 0.001406480419730075
498.0, 0.001749950342415159
499.0, 0.0014868268883104835
500.0, 0.000978285212805417
501.0, 0.0006814584142434257
502.0, 0.0006560413085027924
503.0, 0.0007847614940030681
504.0, 0.0007689171370044315
505.0, 0.00019499276631394433
506.0, 2.4072171195123628e-05
507.0, 5.514029105459027e-05
508.0, 0.000353140109826752
509.0, 0.0008428845229661185
510.0, 0.001294187746328353
511.0, 0.001758356996543193
512.0, 0.002084922569561894
513.0, 0.0024504801859666597
514.0, 0.002930259913401506
515.0, 0.0034476454371628437
516.0, 0.00395629814660373
517.0, 0.004502900473704303
518.0, 0.005101576414855924
519.0, 0.005340795084358983
520.0, 0.00525764048775016
521.0, 0.005648030148025046
522.0, 0.00578202894119483
523.0, 0.005930849970621999
524.0, 0.005653227091519392
525.0, 0.005312487002452548
526.0, 0.005649094354204001
527.0, 0.0052198127641828376
528.0, 0.004650621614679154
529.0, 0.00394982975601106
530.0, 0.0035185329101271234
531.0, 0.003600696412817751
532.0, 0.003665351478245818
533.0, 0.003508100892029142
534.0, 0.003550841137024448
535.0, 0.0037314988383263074
536.0, 0.003958186468052364
537.0, 0.0042561500588721626
538.0, 0.004461807515099949
539.0, 0.005192435879960273
540.0, 0.005783679687451988
541.0, 0.006198811987256178
542.0, 0.006757705586664251
543.0, 0.007390416799320377
544.0, 0.008691281839282024
545.0, 0.009744096819340601
546.0, 0.010720885926632258
547.0, 0.011810992894954629
548.0, 0.012794288855679115
549.0, 0.01410896064229477
550.0, 0.015198715710397206
551.0, 0.016571323270566273
552.0, 0.01765935757142907
553.0, 0.018258852368834497
554.0, 0.02025173437480133
555.0, 0.021607337934663032
556.0, 0.022746679927246185
557.0, 0.02421266409598351
558.0, 0.02607038603188603
559.0, 0.02794309851446653
560.0, 0.029409143353053488
561.0, 0.032165517533388664
562.0, 0.034939266908468714
563.0, 0.037883937867677984
564.0, 0.041500003289423826
565.0, 0.04568181379730876
566.0, 0.0510291128801965
567.0, 0.05670242296278914
568.0, 0.06304757355455362
569.0, 0.0701417658443918
570.0, 0.07814833136450262
571.0, 0.08811044743015473
572.0, 0.09956896517368581
573.0, 0.11303190096622065
574.0, 0.12872002403351565
575.0, 0.14703040268069512
576.0, 0.16859832511561249
577.0, 0.19342820875768343
578.0, 0.2225054333669122
579.0, 0.25512264566493326
580.0, 0.2908279000601538
581.0, 0.3297565953321695
582.0, 0.3726083135683407
583.0, 0.4189969231445748
584.0, 0.47000724109532044
585.0, 0.5258292532235459
586.0, 0.5881067797129966
587.0, 0.6560077060922954
588.0, 0.7240432030182935
589.0, 0.7941053804963576
590.0, 0.8626575214375215
591.0, 0.9215678201745926
592.0, 0.9665103344816702
593.0, 0.995256331019311
594.0, 0.9975312807496786
595.0, 0.9713299044153034
596.0, 0.9169997844813921
597.0, 0.8404158511336742
598.0, 0.7507121857985132
599.0, 0.6578475873239973
600.0, 0.5676356053083268
601.0, 0.4867232937946924
602.0, 0.4158438877101561
603.0, 0.3557267792469332
604.0, 0.305345721261754
605.0, 0.2617724998860284
606.0, 0.22643999220509783
607.0, 0.19685648603143321
608.0, 0.17176766805153357
609.0, 0.15035948476413896
610.0, 0.1319291912196093
611.0, 0.11629628182687153
612.0, 0.10303242583890793
613.0, 0.09125471394534014
614.0, 0.08118373652830004
615.0, 0.07249662379843325
616.0, 0.06456368949425227
617.0, 0.05820494114468199
618.0, 0.05236691841875873
619.0, 0.04690702511998706
620.0, 0.04268315579285807
621.0, 0.03930516586988344
622.0, 0.035579488059648966
623.0, 0.032482648895749
624.0, 0.02962406636009704
625.0, 0.02742616884444382
626.0, 0.025419395396032763
627.0, 0.02331524737758984
628.0, 0.02134470411671881
629.0, 0.019944219945985296
630.0, 0.01846864657976431
631.0, 0.017413336169446153
632.0, 0.0165284444974636
633.0, 0.015367819104346656
634.0, 0.014048470081398036
635.0, 0.013098321181148351
636.0, 0.011821467456035075
637.0, 0.011347477544876005
638.0, 0.011181389571487645
639.0, 0.010435982836709377
640.0, 0.009344406194059861
641.0, 0.008785776409253952
642.0, 0.00822214832578409
643.0, 0.0077544495353350324
644.0, 0.0072693754541781185
645.0, 0.006746963895097481
646.0, 0.006394433616718423
647.0, 0.006027908942284021
648.0, 0.005488093592998552
649.0, 0.0051029242288992156
650.0, 0.004763353030192013
651.0, 0.0043015654321932745
652.0, 0.0038827363994603484
653.0, 0.003595088417776679
654.0, 0.003539209895338465
655.0, 0.003169891274975234
656.0, 0.002785804857406854
657.0, 0.0025740928559673847
658.0, 0.0021823314990481327
659.0, 0.002022738536862394
660.0, 0.001611937010399199
661.0, 0.0012258254248703618
662.0, 0.0012200018722886548
663.0, 0.0011915210491182267
664.0, 0.0006771704894277774
665.0, 0.0012268249353995884
666.0, 0.00046921114249991354
667.0, 7.870027774652303e-05
668.0, 0.00016867726133798302
669.0, 0.0005062284797848067
670.0, 0.00046263411318032087
671.0, 0.000568511378882266
672.0, 0.0007589250099042738
673.0, 0.001047672328606088
674.0, 0.0010269687042645014
675.0, 0.000824670767623237
676.0, 0.0009124007184578265
677.0, 0.0009760903591734658
678.0, 0.001107190588838733
679.0, 0.0012811656284581422
680.0, 0.00118078136733966
681.0, 0.001031653027066656
682.0, 0.0010361962684307551
683.0, 0.0006484018152396081
684.0, 0.0011456545834726706
685.0, 0.0009051462087591578
686.0, 0.0008572212659473162
687.0, 0.0008417246207077897
688.0, 0.0003708396653226382
689.0, 0.00040955524623791843
690.0, 0.00011609432103850473
691.0, 0.0001531967755638702
692.0, 0.0001938216048163981
693.0, 0.0001235146444804589
694.0, 0.0002997220849612943
695.0, 9.213151154804587e-05
696.0, 0.0004051879575764769
697.0, 0.0004805721385486511
698.0, 0.000598402737800271
699.0, 0.0005735458463687125
700.0, 0.0005980872196973233
701.0, 0.0010768636054496559
702.0, 0.0009918214252532828
703.0, 0.0010486176314097263
704.0, 0.0013140300646358794
705.0, 0.001573463364256531
706.0, 0.0017993883719155223
707.0, 0.002056753950005915
708.0, 0.002163497291015222
709.0, 0.0018952010596623282
710.0, 0.002286969599455806
711.0, 0.0026771554987101674
712.0, 0.0028855213008122244
713.0, 0.003170250968069526
714.0, 0.003434973247001451
715.0, 0.003373261541294888
716.0, 0.00360382445565427
717.0, 0.003923815365535974
718.0, 0.004042639896737414
719.0, 0.003921420425064191
720.0, 0.003730834492551325
721.0, 0.003571441702273478
722.0, 0.0038538806269578264
723.0, 0.0041502878044436965
724.0, 0.0041178113202400045
725.0, 0.0040532410940678125
726.0, 0.004333443094017205
727.0, 0.004780621934261387
728.0, 0.0051717750164005215
729.0, 0.00476642207950258
730.0, 0.004405503059753194
731.0, 0.004664942157883733
732.0, 0.005175564566246824
733.0, 0.005202744133176656
734.0, 0.005031536453669138
735.0, 0.005683576937277523
736.0, 0.005630822226911982
737.0, 0.005201514278832297
738.0, 0.005052111331199069
739.0, 0.005142205991119594
740.0, 0.005210348442592472
741.0, 0.0047058931128881295
742.0, 0.004752104539842563
743.0, 0.004707599125351179
744.0, 0.004426434363796032
745.0, 0.004336129025327266
746.0, 0.004531924430147385
747.0, 0.004138800438881173
748.0, 0.004460571701664363
749.0, 0.004240825893337387
750.0, 0.004197324672964463
751.0, 0.004300407914335366
752.0, 0.0040323326805218225
753.0, 0.0038112012153058506
754.0, 0.0036285151350973137
755.0, 0.00389537251402738
756.0, 0.003689481509506105
757.0, 0.0035102340637919696
758.0, 0.0034127600678603965
759.0, 0.0029726636772904897
760.0, 0.0031593594138444626
761.0, 0.003045137437951684
762.0, 0.0031191997184461715
763.0, 0.003197383005024058
764.0, 0.003170975865014654
765.0, 0.0031087837785370776
766.0, 0.002961078378558037
767.0, 0.002623849957896297
768.0, 0.002934917164459599
769.0, 0.0027576648245583165
770.0, 0.0025733292155612764
771.0, 0.0026657988344831857
772.0, 0.0028177481732583726
773.0, 0.003052431780824092
774.0, 0.002912226110316692
775.0, 0.0028940892866080137
776.0, 0.0025751116507434935
777.0, 0.0021382173282726
778.0, 0.0019301963274589173
779.0, 0.0019609511682677464
780.0, 0.0020454089951935013
781.0, 0.00196569507399848
782.0, 0.0021096653615433744
783.0, 0.0020309605335903243
784.0, 0.0017687998766415902
785.0, 0.0016014048738171088
786.0, 0.001725346143059821
787.0, 0.002059482625109685
788.0, 0.00184846801805248
789.0, 0.0017689839900934122
790.0, 0.0016934706303087898
791.0, 0.0015625255567028363
792.0, 0.0015268559497974598
793.0, 0.0016453547906389264
794.0, 0.0017634470380911763
795.0, 0.0016204892880712998
796.0, 0.001291853313700763
797.0, 0.0013436432913875686
798.0, 0.0014401270847126794
799.0, 0.0012770729041056746
800.0, 0.0013459549905820466
801.0, 0.0013644819645368784
802.0, 0.0010672963959461501
803.0, 0.0008102550154010785
804.0, 0.0007366094482872124
805.0, 0.0009237688891950165
806.0, 0.001160152648260573
807.0, 0.0010765747759094407
808.0, 0.0013867985280151293
809.0, 0.0012388330558418717
810.0, 0.0007472667419622888
811.0, 0.0006899368602774259
812.0, 0.0007713442796048408
813.0, 0.0006268962201423187
814.0, 0.000758449865286013
815.0, 0.0008751469733390058
816.0, 0.000775754427342494
817.0, 0.0006593996917193919
818.0, 0.0010420254563830251
819.0, 0.0010056449350461557
820.0, 0.000500998681597743
821.0, 0.0009354940177755263
822.0, 0.0008924329718261135
823.0, 0.0006935948447694529
824.0, 0.0003831039400454708
825.0, 0.00038851528819679805
826.0, 0.0006104364884070578
827.0, 0.0006400249954767277
828.0, 0.00042980006920371186
829.0, 0.00038471504494223417
830.0, 0.00046462557566103634
831.0, 0.0005975481480324528
832.0, 0.0007315525941161185
833.0, 0.0008297621186763502
834.0, 0.0008648827506541827
835.0, 0.0008025914232143245
836.0, 0.0006086373800754145
837.0, 0.0004934516671757917
838.0, 0.00038197858601274993
839.0, 0.0005825642737019558
840.0, 0.0004889147138940864
841.0, 0.0002703477136199382
842.0, 0.0004536918936351257
843.0, 0.0002905326844931033
844.0, 0.0005253115876731467
845.0, 0.0004926004385815612
846.0, 0.0005089054139715763
847.0, 0.0006435786737606376
848.0, 0.0005279719560842138
849.0, 0.00012479197619600488
850.0, 8.252823500753103e-05
851.0, 0.0003896816533428727
852.0, 0.0002248959149133677
853.0, 9.084924896357946e-05
854.0, 8.216964042068087e-05
855.0, 0.00014548736982601603
856.0, 0.0001714927580736709
857.0, 0.00025727738863531315
858.0, 0.00015908307011224375
859.0, 4.928406229858271e-05
860.0, 6.44079023051456e-05
861.0, 1.9414876324298392e-05
862.0, 0.00011291725034366583
863.0, 6.997981412167643e-05
864.0, 0.0002134589407410019
865.0, 0.000137093903633979
866.0, 0.0004922164497117984
867.0, 0.00019006868580471434
868.0, 1.131689533034959e-05
869.0, 0.00019004380417777768
870.0, 0.00016767594935659046
871.0, 1.0751917412752478e-05
872.0, 0.00026030179657051804
873.0, 0.0002158448939020875
874.0, 0.0006197887512433735
875.0, 0.00018399768296047385
876.0, 0.00013043404019190424
877.0, 0.00029097028582893706
878.0, 0.0002455356101689793
879.0, 0.0002550097536839467
880.0, 0.000356060786480724
881.0, 0.0004412806946214141
882.0, 0.0004114367226540676
883.0, 0.00045260768698911826
884.0, 0.0005731321559494516
885.0, 0.00046639162304929697
886.0, 0.0005088474965900103
887.0, 0.0010688290554207724
888.0, 0.00045734502099753466
889.0, 0.0007089853442301241
890.0, 0.000698714000974335
891.0, 0.00048714379077772016
892.0, 0.0004152436082202041
893.0, 0.0004507939020421154
894.0, 0.0004076940310364525
895.0, 0.00038460640857861496
896.0, 0.0003108338260719604
897.0, 0.0001462085678031616
898.0, 0.00026425261586882185
899.0, 0.0004137985263351456
900.0, 0.0004335270749857471
901.0, 0.0003117713611357657
902.0, 0.0001511701376309979
903.0, 0.00030755973629373746
904.0, 0.00028300488097893797
905.0, 0.0002981071400865375
906.0, 0.0004450238542466201
907.0, 0.00016817337379613123
908.0, 0.00014726390574595297
909.0, 0.00039599057573068885
910.0, 0.0002793777685952763
911.0, 0.00011778263102913146
912.0, 0.0002307121889608339
913.0, 9.179981411165062e-05
914.0, 7.121631609356466e-05
915.0, 0.0002779865751535304
916.0, 0.0003210963825005918
917.0, 0.0003142901704409222
918.0, 0.0006360747226318246
919.0, 0.0003231101135692209
920.0, 0.0001987086347283628
921.0, 0.00044056253161950073
922.0, 0.0001799493796090997
923.0, 0.00010387253493359086
924.0, 4.332783859169071e-05
925.0, 8.003866911422309e-05
926.0, 1.7445360786375513e-05
927.0, 7.496732564044807e-05
928.0, 2.5641096836343588e-05
929.0, 0.00014634522300785663
930.0, 0.00014450680148735606
931.0, 4.458645142305205e-05
932.0, 7.397611741077396e-05
933.0, 0.00011892981982454759
934.0, 0.00026938746377488097
935.0, 0.0005102244507943574
936.0, 0.00044113007107927395
937.0, 0.00012080694560871546
938.0, 0.0001058465384159536
939.0, 0.00036400994101889225
940.0, 0.0002218658278655416
941.0, 9.96327120359184e-05
942.0, 0.00020320561779736768
943.0, 0.00013225687438130226
944.0, 4.339045538453706e-05
945.0, 0.0002674435103283876
946.0, 0.00038891147410582305
947.0, 0.0003450375491684724
948.0, 0.00025681971504563147
949.0, 0.000282684133062432
950.0, 0.0003979255505998609
951.0, 0.00032090552203301845
952.0, 0.0004042493569559665
953.0, 0.0002179472178016352
954.0, 0.0005562608381643977
955.0, 0.00041719164601524653
956.0, 0.00011378085841351907
957.0, 0.00022157234823547974
958.0, 0.00045121136998603115
959.0, 0.0003627370466235078
960.0, 0.0004600616459609148
961.0, 0.0004059042255988755
962.0, 0.0005965199196874434
963.0, 0.00032357966425376663
964.0, 0.0003546959006119989
965.0, 0.000623469849847338
966.0, 0.00046834427120689547
967.0, 0.0003904583108449247
968.0, 0.0007227213001974028
969.0, 0.000779274701157937
970.0, 0.0006213306793109831
971.0, 0.0007543285923680897
972.0, 0.0006304649424664309
973.0, 0.00048734116539672677
974.0, 0.0006070713916064719
975.0, 0.0006601928485304788
976.0, 0.0008585061238852247
977.0, 0.0008695560878147693
978.0, 0.000656565966004724
979.0, 0.0008819078965780717
980.0, 0.000952140526930773
981.0, 0.0008556263677192687
982.0, 0.0007110747359223867
983.0, 0.0005446551536074911
984.0, 0.000605164685363281
985.0, 0.0006415309606416589
986.0, 0.0010151302245173625
987.0, 0.0010785393398214673
988.0, 0.0009474678049656077
989.0, 0.0007812980501016881
990.0, 0.0007921928925236547
991.0, 0.0009006818510507675
992.0, 0.0007956399767297722
993.0, 0.0005837774596259399
994.0, 0.0007890251029639025
995.0, 0.0007888646325370027
996.0, 0.0006823682477422131
997.0, 0.0007178398015290477
998.0, 0.0005075411900069655
999.0, 0.00036298195663190847
1000.0, 0.0005814544213389539
1001.0, 0.000668205002461546
1002.0, 0.0004888759947271803
1003.0, 0.0003539627910431149
1004.0, 0.00040846595762450286
1005.0, 7.525057724027621e-05
1006.0, 3.121924905215334e-05
1007.0, 2.556047101411626e-05
1008.0, 0.00018704063929367502
1009.0, 0.0001686745127980574
1010.0, 8.524887951076026e-05
1011.0, 0.000205285249609164
1012.0, 9.808374324833045e-05
1013.0, 0.00014480594860333742
1014.0, 4.8669413734072336e-05
1015.0, 0.00015662068075883906
1016.0, 0.0001665536564369708
1017.0, 0.0001180908476389378
1018.0, 4.89410985631752e-05
1019.0, 0.0001273432760301485
1020.0, 0.00012947759753315015
1021.0, 8.041056843723371e-05
1022.0, 0.00010924531270787934
1023.0, 0.00010936236213946398
1024.0, 0.00021313441332057018
1025.0, 0.00020489477605018576
1026.0, 0.00013577151394915203
1027.0, 0.00018208647459048134
1028.0, 7.183900530104137e-05
1029.0, 9.311614479546816e-05
1030.0, 0.0001246703670920808
1031.0, 3.148443272188075e-05
1032.0, 0.00021494486891065004
1033.0, 0.00028104477755459356
1034.0, 0.0002933485396292577
1035.0, 0.0004132594272428532
1036.0, 0.0003528842079233005
1037.0, 0.00011648679145069682
1038.0, 0.0004832815935152844
1039.0, 0.0004914475082746745
1040.0, 0.0006566400520979576
1041.0, 0.0006920508253250295
1042.0, 0.0008515337062835623
1043.0, 0.0011995568134411027
1044.0, 0.0015063097926262474
1045.0, 0.0016068495741775183
1046.0, 0.0014996476068300643
1047.0, 0.0015041736567192414
1048.0, 0.002110358826626323
1049.0, 0.0018319278992654751
1050.0, 0.0018288655795771383
1051.0, 0.002256164204287199
1052.0, 0.002306187074479045
1053.0, 0.002086646093836556
1054.0, 0.002078731573925714
1055.0, 0.0023070666277599547
1056.0, 0.002520560361962235
1057.0, 0.002774709050729677
1058.0, 0.002935022308549176
1059.0, 0.0029278557061936414
1060.0, 0.0033453855764045896
1061.0, 0.003128887027548846
1062.0, 0.003277669752736597
1063.0, 0.003372044813850387
1064.0, 0.0031418411783342513
1065.0, 0.003113765769903136
1066.0, 0.0031556135949463633
1067.0, 0.003177510161512558
1068.0, 0.002958544724929142
1069.0, 0.003247400077793928
1070.0, 0.0035205732259855423
1071.0, 0.003461624831916766
1072.0, 0.0033991152745496403
1073.0, 0.0034582375071288817
1074.0, 0.003617408974863286
1075.0, 0.003843032570111499
1076.0, 0.0040409472950517404
1077.0, 0.004360993777887358
1078.0, 0.004197645174357963
1079.0, 0.00458859536095145
1080.0, 0.004504693035508541
1081.0, 0.00472614417745911
1082.0, 0.005069583635392093
1083.0, 0.005050107650905808
1084.0, 0.005103864034560157
1085.0, 0.00561152667834577
1086.0, 0.005935182555467906
1087.0, 0.0057000479449580595
1088.0, 0.005724780196342318
1089.0, 0.005812776937113652
1090.0, 0.005634837867497185
1091.0, 0.006043980185805039
1092.0, 0.006182945757324104
1093.0, 0.00615064910050548
1094.0, 0.006168527522114815
1095.0, 0.0059425340077163625
1096.0, 0.005815440240456162
1097.0, 0.00565601056973721
1098.0, 0.005362446492680518
1099.0, 0.004997610621363995
1100.0, 0.0046590633131010604
1101.0, 0.004601865595348337
1102.0, 0.00415181515269365
1103.0, 0.003461767218973115
1104.0, 0.0031326657707584013
1105.0, 0.003148820116717201
1106.0, 0.0029055184291470024
1107.0, 0.0020095933771874415
1108.0, 0.0020259508371824326
1109.0, 0.0015938603977331389
1110.0, 0.0017728255452865629
1111.0, 0.0019037149101391467
1112.0, 0.0015696615977619861
1113.0, 0.0016723178081169306
1114.0, 0.0019795564618567173
1115.0, 0.0020103177649500466
1116.0, 0.002067239749175624
1117.0, 0.0020232908215388023
1118.0, 0.0024468704012874445
1119.0, 0.002592157941990375
1120.0, 0.002836642766579252
1121.0, 0.003042869589672933
1122.0, 0.0035257928509493516
1123.0, 0.003660183723120352
1124.0, 0.0037118507041468862
1125.0, 0.003956853218284147
1126.0, 0.004269219664134526
1127.0, 0.004628549751061548
1128.0, 0.004546427000116074
1129.0, 0.004959852398882261
1130.0, 0.004938938135226556
1131.0, 0.004828250780811616
1132.0, 0.004936196364056947
1133.0, 0.004841783638640665
1134.0, 0.004941433032027517
1135.0, 0.005084711458752293
1136.0, 0.004972170869909568
1137.0, 0.004885327086952097
1138.0, 0.004904673071582868
1139.0, 0.00477362087182932
1140.0, 0.004651240324847879
1141.0, 0.0048559364271643585
1142.0, 0.005125678391685829
1143.0, 0.005042780706415863
1144.0, 0.005192603284091913
1145.0, 0.00521072126228857
1146.0, 0.005275638944538506
1147.0, 0.005487921040804895
1148.0, 0.005466714174070878
1149.0, 0.005291875009964665
1150.0, 0.00497879099732227
1151.0, 0.004844222063380505
1152.0, 0.004972292173271285
1153.0, 0.004399613848356283
1154.0, 0.0039449200210213585
1155.0, 0.003694905068460833
1156.0, 0.00338086493925277
1157.0, 0.003014218015196582
1158.0, 0.002716370620250522
1159.0, 0.0024737567105492363
1160.0, 0.002215089904422926
1161.0, 0.0020645696265093063
1162.0, 0.0017531962014677178
1163.0, 0.0014145573509417074
1164.0, 0.001462909365311048
1165.0, 0.0011687514653141045
1166.0, 0.0013971665417388127
1167.0, 0.001113460607815165
1168.0, 0.0007597123132076944
1169.0, 0.00064668867523843
1170.0, 0.0005768659853224529
1171.0, 0.0006084127290586292
1172.0, 0.00040120707315963487
1173.0, 7.527500993348231e-05
1174.0, 0.00033819977812987755
1175.0, 0.00012732763252261178
1176.0, 7.046333325090978e-05
1177.0, 0.00025328602182506034
1178.0, 0.000314448208926582
1179.0, 0.00029490532104096875
1180.0, 0.00014539591513581596
1181.0, 0.0001152791532655529
1182.0, 0.00011303270086856343
1183.0, 7.753152141635688e-05
1184.0, 2.353591121722699e-05
1185.0, 9.094818870553194e-06
1186.0, 3.704169311783293e-05
1187.0, 0.0002463586810124018
1188.0, 0.0001488852343657835
1189.0, 0.0002600924656174201
1190.0, 0.00013738700220878062
1191.0, 0.00010830769344302721
1192.0, 0.00014188067993010692
1193.0, 5.7598520002554355e-05
1194.0, 0.0001341830295753981
1195.0, 3.6199899881631454e-05
1196.0, 0.0002828353605958466
1197.0, 4.825288675060455e-05
1198.0, 0.000345830462725025
1199.0, 2.5189433274246747e-05
1200.0, 0.00011610354651453687
1201.0, 2.9382867511506333e-05
1202.0, 4.383806982472859e-05
1203.0, 0.00018033913794022238
1204.0, 0.0003738860034858188
1205.0, 0.00020674816856327614
1206.0, 0.0002786918512268251
1207.0, 0.0005025858101590725
1208.0, 0.00023794933399898962
1209.0, 9.061104806786592e-05
1210.0, 0.0003002409165068466
1211.0, 0.00019962714134999987
1212.0, 5.707124124989201e-05
1213.0, 7.963669736283264e-05
1214.0, 2.912961522483902e-05
1215.0, 0.00017727603747641417
1216.0, 0.0004925175335663946
1217.0, 0.000452128550446072
1218.0, 0.0004658159300060666
1219.0, 0.0004889615907096294
1220.0, 0.0002731290621940144
1221.0, 0.0003064063757404902
1222.0, 0.0004099777846926436
1223.0, 2.524234571194216e-05
1224.0, 0.00023286471510157116
1225.0, 0.00013695473683404745
1226.0, 7.545711960397922e-05
1227.0, 0.00011108464765697485
1228.0, 0.0004037093694120348
1229.0, 0.0003040579238648086
1230.0, 0.0003654299013705693
1231.0, 0.0003847538830174475
1232.0, 0.00012120918886754096
1233.0, 0.00014519836727986977
1234.0, 5.802523325511329e-05
1235.0, 2.071567476584752e-05
1236.0, 3.6476146127789496e-05
1237.0, 0.00036434300508688
1238.0, 0.0002254682067215002
1239.0, 0.0005748351457321978
1240.0, 0.0005292419206850236
1241.0, 0.00029505881755000903
1242.0, 0.00024269190876618496
1243.0, 0.0003488349312155782
1244.0, 0.00035614176241227245
1245.0, 0.0003440973115408289
1246.0, 0.00044469350620519193
1247.0, 0.0005461435137325449
1248.0, 0.0006774832000486037
1249.0, 0.0007711302543356979
1250.0, 0.00046448771385256655
1251.0, 0.0005813878358454941
1252.0, 0.0002185869295395256
1253.0, 0.00010962303940055364
1254.0, 0.00048181287386018525
1255.0, 0.0004745853468387449
1256.0, 0.0003474343333173793
1257.0, 0.00040994113029011386
1258.0, 0.0006925870672521205
1259.0, 0.0006663832981379407
1260.0, 0.0003260856931600467
1261.0, 0.0004642734683043799
1262.0, 0.0007595997617925969
1263.0, 0.00048273704304291267
1264.0, 0.000343592860389182
1265.0, 0.00031281383039770785
1266.0, 0.0005894853915175269
1267.0, 0.0006107465881654961
1268.0, 0.000489329635659399
1269.0, 0.00046735654122058396
1270.0, 0.00039702902238576205
1271.0, 0.0005536642835430102
1272.0, 0.0006644494606489924
1273.0, 0.0005596479232721343
1274.0, 0.00048513503078351537
1275.0, 0.0005152357427442184
1276.0, 0.0006147610444844964
1277.0, 0.00047159819349151707
1278.0, 0.0005125914015761134
1279.0, 0.0007884894530562831
1280.0, 0.0005664219353544584
1281.0, 0.0005280546490520105
1282.0, 0.0004614463684104053
1283.0, 0.0005053619329033025
1284.0, 0.0006534372738326994
1285.0, 0.0005786101201782841
1286.0, 0.0006080534376601275
1287.0, 0.0006396800147850401
1288.0, 0.0005388800245289164
1289.0, 0.0005259149480252127
1290.0, 0.0003373209847064119
1291.0, 0.0003610888305644116
1292.0, 0.0004732299770714841
1293.0, 7.0253436585928e-05
1294.0, 0.0002116200487391197
1295.0, 0.0004054843933653678
1296.0, 0.00017009522308441367
1297.0, 0.0002426914527305289
1298.0, 0.00033322693166118
1299.0, 0.00028132754171677376
1300.0, 0.00010959708100294296
1301.0, 7.173547672419826e-06
1302.0, 1.1260858601747973e-05
1303, 0.0
1304, 0.0
1305, 0.0
1306, 0.0
1307, 0.0
1308, 0.0
1309, 0.0
1310, 0.0
1311, 0.0
1312, 0.0
1313, 0.0
1314, 0.0
1315, 0.0
1316, 0.0
1317, 0.0
1318, 0.0
1319, 0.0
1320, 0.0
1321, 0.0
1322, 0.0
1323, 0.0
1324, 0.0
1325, 0.0
1326, 0.0
1327, 0.0
1328, 0.0
1329, 0.0
1330, 0.0
1331, 0.0
1332, 0.0
1333, 0.0
1334, 0.0
1335, 0.0
1336, 0.0
1337, 0.0
1338, 0.0
1339, 0.0
1340, 0.0
1341, 0.0
1342, 0.0
1343, 0.0
1344, 0.0
1345, 0.0
1346, 0.0
1347, 0.0
1348, 0.0
1349, 0.0
1350, 0.0
1351, 0.0
1352, 0.0
1353, 0.0
1354, 0.0
1355, 0.0
1356, 0.0
1357, 0.0
1358, 0.0
1359, 0.0
1360, 0.0
1361, 0.0
1362, 0.0
1363, 0.0
1364, 0.0
1365, 0.0
1366, 0.0
1367, 0.0
1368, 0.0
1369, 0.0
1370, 0.0
1371, 0.0
1372, 0.0
1373, 0.0
1374, 0.0
1375, 0.0
1376, 0.0
1377, 0.0
1378, 0.0
1379, 0.0
1380, 0.0
1381, 0.0
1382, 0.0
1383, 0.0
1384, 0.0
1385, 0.0
1386, 0.0
1387, 0.0
1388, 0.0
1389, 0.0
1390, 0.0
1391, 0.0
1392, 0.0
1393, 0.0
1394, 0.0
1395, 0.0
1396, 0.0
1397, 0.0
1398, 0.0
1399, 0.0
1400, 0.0
1401, 0.0
1402, 0.0
1403, 0.0
1404, 0.0
1405, 0.0
1406, 0.0
1407, 0.0
1408, 0.0
1409, 0.0
1410, 0.0
1411, 0.0
1412, 0.0
1413, 0.0
1414, 0.0
1415, 0.0
1416, 0.0
1417, 0.0
1418, 0.0
1419, 0.0
1420, 0.0
1421, 0.0
1422, 0.0
1423, 0.0
1424, 0.0
1425, 0.0
1426, 0.0
1427, 0.0
1428, 0.0
1429, 0.0
1430, 0.0
1431, 0.0
1432, 0.0
1433, 0.0
1434, 0.0
1435, 0.0
1436, 0.0
1437, 0.0
1438, 0.0
1439, 0.0
1440, 0.0
1441, 0.0
1442, 0.0
1443, 0.0
1444, 0.0
1445, 0.0
1446, 0.0
1447, 0.0
1448, 0.0
1449, 0.0
1450, 0.0
1451, 0.0
1452, 0.0
1453, 0.0
1454, 0.0
1455, 0.0
1456, 0.0
1457, 0.0
1458, 0.0
1459, 0.0
1460, 0.0
1461, 0.0
1462, 0.0
1463, 0.0
1464, 0.0
1465, 0.0
1466, 0.0
1467, 0.0
1468, 0.0
1469, 0.0
1470, 0.0
1471, 0.0
1472, 0.0
1473, 0.0
1474, 0.0
1475, 0.0
1476, 0.0
1477, 0.0
1478, 0.0
1479, 0.0
1480, 0.0
1481, 0.0
1482, 0.0
1483, 0.0
1484, 0.0
1485, 0.0
1486, 0.0
1487, 0.0
1488, 0.0
1489, 0.0
1490, 0.0
1491, 0.0
1492, 0.0
1493, 0.0
1494, 0.0
1495, 0.0
1496, 0.0
1497, 0.0
1498, 0.0
1499, 0.0
1500, 0.0
1501, 0.0
1502, 0.0
1503, 0.0
1504, 0.0
1505, 0.0
1506, 0.0
1507, 0.0
1508, 0.0
1509, 0.0
1510, 0.0
1511, 0.0
1512, 0.0
1513, 0.0
1514, 0.0
1515, 0.0
1516, 0.0
1517, 0.0
1518, 0.0
1519, 0.0
1520, 0.0
1521, 0.0
1522, 0.0
1523, 0.0
1524, 0.0
1525, 0.0
1526, 0.0
1527, 0.0
1528, 0.0
1529, 0.0
1530, 0.0
1531, 0.0
1532, 0.0
1533, 0.0
1534, 0.0
1535, 0.0
1536, 0.0
1537, 0.0
1538, 0.0
1539, 0.0
1540, 0.0
1541, 0.0
1542, 0.0
1543, 0.0
1544, 0.0
1545, 0.0
1546, 0.0
1547, 0.0
1548, 0.0
1549, 0.0
1550, 0.0
1551, 0.0
1552, 0.0
1553, 0.0
1554, 0.0
1555, 0.0
1556, 0.0
1557, 0.0
1558, 0.0
1559, 0.0
1560, 0.0
1561, 0.0
1562, 0.0
1563, 0.0
1564, 0.0
1565, 0.0
1566, 0.0
1567, 0.0
1568, 0.0
1569, 0.0
1570, 0.0
1571, 0.0
1572, 0.0
1573, 0.0
1574, 0.0
1575, 0.0
1576, 0.0
1577, 0.0
1578, 0.0
1579, 0.0
1580, 0.0
1581, 0.0
1582, 0.0
1583, 0.0
1584, 0.0
1585, 0.0
1586, 0.0
1587, 0.0
1588, 0.0
1589, 0.0
1590, 0.0
1591, 0.0
1592, 0.0
1593, 0.0
1594, 0.0
1595, 0.0
1596, 0.0
1597, 0.0
1598, 0.0
1599, 0.0
