30, 0.0
31, 0.0
32, 0.0
33, 0.0
34, 0.0
35, 0.0
36, 0.0
37, 0.0
38, 0.0
39, 0.0
40, 0.0
41, 0.0
42, 0.0
43, 0.0
44, 0.0
45, 0.0
46, 0.0
47, 0.0
48, 0.0
49, 0.0
50, 0.0
51, 0.0
52, 0.0
53, 0.0
54, 0.0
55, 0.0
56, 0.0
57, 0.0
58, 0.0
59, 0.0
60, 0.0
61, 0.0
62, 0.0
63, 0.0
64, 0.0
65, 0.0
66, 0.0
67, 0.0
68, 0.0
69, 0.0
70, 0.0
71, 0.0
72, 0.0
73, 0.0
74, 0.0
75, 0.0
76, 0.0
77, 0.0
78, 0.0
79, 0.0
80, 0.0
81, 0.0
82, 0.0
83, 0.0
84, 0.0
85, 0.0
86, 0.0
87, 0.0
88, 0.0
89, 0.0
90, 0.0
91, 0.0
92, 0.0
93, 0.0
94, 0.0
95, 0.0
96, 0.0
97, 0.0
98, 0.0
99, 0.0
100, 0.0
101, 0.0
102, 0.0
103, 0.0
104, 0.0
105, 0.0
106, 0.0
107, 0.0
108, 0.0
109, 0.0
110, 0.0
111, 0.0
112, 0.0
113, 0.0
114, 0.0
115, 0.0
116, 0.0
117, 0.0
118, 0.0
119, 0.0
120.0, 0.00031914335426526993
121.0, 0.006340716076251799
122.0, 0.00893100900654051
123.0, 0.011873006514057087
124.0, 0.02039615129650122
125.0, 0.02323054556462242
126.0, 0.023904038609674907
127.0, 0.023498340363281495
128.0, 0.026242876180893833
129.0, 0.02683183923855765
130.0, 0.02607169620590223
131.0, 0.024294639121449177
132.0, 0.020546345652421107
133.0, 0.01828066674392994
134.0, 0.01673174800194969
135.0, 0.012064160205409222
136.0, 0.009692846038813608
137.0, 0.008063177142257388
138.0, 0.006546695971018727
139.0, 0.006703538895227935
140.0, 0.007421698519812182
141.0, 0.009097987269395957
142.0, 0.012852390647972025
143.0, 0.014700845553936928
144.0, 0.019394135522811343
145.0, 0.02777730182516168
146.0, 0.03297222033790465
147.0, 0.04293371278588288
148.0, 0.05489067368854352
149.0, 0.06622521235410501
150.0, 0.08082376527460514
151.0, 0.0962577435987351
152.0, 0.111646964017539
153.0, 0.12386578491312303
154.0, 0.13124288666835923
155.0, 0.13767868619008491
156.0, 0.14524497702124017
157.0, 0.13708657621361364
158.0, 0.12716846071454221
159.0, 0.11714250741250948
160.0, 0.11035367114286118
161.0, 0.09467058781923961
162.0, 0.08077252402497417
163.0, 0.07149658052661914
164.0, 0.06433272837126162
165.0, 0.05641772229640925
166.0, 0.04972357944926086
167.0, 0.046755922258188844
168.0, 0.03725731279900062
169.0, 0.03274195973108483
170.0, 0.0325889384647454
171.0, 0.029112822107080386
172.0, 0.023764130349622877
173.0, 0.019988996449739168
174.0, 0.019618538002391408
175.0, 0.014861487579128613
176.0, 0.014982132148168539
177.0, 0.01608098384971713
178.0, 0.010925010279832358
179.0, 0.0100737605928599
180.0, 0.008433528762889966
181.0, 0.005679387050995343
182.0, 0.007534603225586202
183.0, 0.0056355386133528276
184.0, 0.002819162729715134
185.0, 0.0010798861876438809
186.0, 0.003357123465059614
187.0, 0.003244262757610809
188.0, 0.001535504710743053
189.0, 0.0008941024678395934
190.0, 0.0011183923688999344
191.0, 0.001050359546670237
192.0, 0.00040854189731019875
193.0, 0.000289632446045458
194.0, 0.0003429976112336369
195.0, 0.0007709712440420282
196.0, 0.001868041638779695
197.0, 0.0026407987298925854
198.0, 0.002866011123062804
199.0, 0.00254736333166825
200.0, 0.0016720137758864688
201.0, 0.004473561566383757
202.0, 0.00740771357379562
203.0, 0.0091075501521019
204.0, 0.008495927016161739
205.0, 0.010685975553494032
206.0, 0.01340141435665464
207.0, 0.01391083213537786
208.0, 0.01396779894958743
209.0, 0.011505238403769772
210.0, 0.006956629059390174
211.0, 0.002753865720062907
212.0, 0.002981291868307299
213.0, 0.004442000816233424
214.0, 0.005843565544522632
215.0, 0.0049734120441868625
216.0, 0.0055944656126470805
217.0, 0.00682782641537547
218.0, 0.00765952412184759
219.0, 0.007215309999701746
220.0, 0.006719559403835962
221.0, 0.006176270555516176
222.0, 0.005040137652170325
223.0, 0.005892500259292126
224.0, 0.00704155811137721
225.0, 0.007748241728691223
226.0, 0.006041507136200528
227.0, 0.004897903323324706
228.0, 0.003663545910193205
229.0, 0.0015361300676361783
230.0, 0.0013441203533169843
231.0, 0.0026325735098455963
232.0, 0.005795808414870037
233.0, 0.012655423517495937
234.0, 0.018037968006245953
235.0, 0.02245131837235576
236.0, 0.02584918486192509
237.0, 0.02593927822534038
238.0, 0.0244729783672105
239.0, 0.021901588529100836
240.0, 0.018459810449810807
241.0, 0.014880294751165098
242.0, 0.01250808265616236
243.0, 0.01090849653958299
244.0, 0.008854134326080345
245.0, 0.0065580386958289955
246.0, 0.005065124333742565
247.0, 0.004641017050232046
248.0, 0.005102849978967565
249.0, 0.0033081965208494723
250.0, 0.0020244139353397866
251.0, 0.003194644373951985
252.0, 0.003109942130769069
253.0, 0.00501212755140318
254.0, 0.007485917341820337
255.0, 0.007977534269028284
256.0, 0.00950976169714469
257.0, 0.010912965558677728
258.0, 0.011139956846190626
259.0, 0.005932897167735069
260.0, 0.005659907672483077
261.0, 0.006164922457297783
262.0, 0.005757550009430458
263.0, 0.005483060288104629
264.0, 0.0071140424000022025
265.0, 0.008228300239146141
266.0, 0.006120323719967974
267.0, 0.006928770075049301
268.0, 0.006844285730471969
269.0, 0.0064066867392950245
270.0, 0.007642045883456496
271.0, 0.008039303587186448
272.0, 0.007803457353913608
273.0, 0.007311734187401955
274.0, 0.008949176130194539
275.0, 0.008416774722917913
276.0, 0.006980653680353506
277.0, 0.005312373974733111
278.0, 0.005650916865748845
279.0, 0.005095006041421716
280.0, 0.004796201446564527
281.0, 0.006341651744451829
282.0, 0.004661368968849499
283.0, 0.003963941157839422
284.0, 0.004290759488601891
285.0, 0.004723560893528005
286.0, 0.006205611427628342
287.0, 0.006115784813690356
288.0, 0.004196327966647004
289.0, 0.00417438085554395
290.0, 0.004984282529060543
291.0, 0.0052815079142166065
292.0, 0.00428454336667313
293.0, 0.005651696784720795
294.0, 0.008399977044519339
295.0, 0.010648834613306034
296.0, 0.009870182280553834
297.0, 0.010925003575022785
298.0, 0.009784044823323622
299.0, 0.008018497495405612
300.0, 0.010754949417229518
301.0, 0.01192461367495157
302.0, 0.01335109592921328
303.0, 0.015032514156301593
304.0, 0.014339433482409238
305.0, 0.015047252187272967
306.0, 0.016707714531514352
307.0, 0.01905200585534306
308.0, 0.01947854010024315
309.0, 0.020774046947668698
310.0, 0.022339683860197523
311.0, 0.023615695095323522
312.0, 0.024743696739464856
313.0, 0.025953280605597887
314.0, 0.026837414018840607
315.0, 0.026527630123014023
316.0, 0.027470646747563863
317.0, 0.026328798128901033
318.0, 0.024036305177101886
319.0, 0.02611459443046048
320.0, 0.02552623841492092
321.0, 0.023344917650082994
322.0, 0.02045005919115026
323.0, 0.02203350945992922
324.0, 0.021110336664885765
325.0, 0.01997733103301685
326.0, 0.019942829845259472
327.0, 0.01824352326243912
328.0, 0.017271090218510192
329.0, 0.017241428991022538
330.0, 0.01850355267648985
331.0, 0.018232122842257885
332.0, 0.01768538961134225
333.0, 0.017253033881866664
334.0, 0.017610287154695356
335.0, 0.01733293397154224
336.0, 0.016736058479119083
337.0, 0.016336828781544206
338.0, 0.017906297454862885
339.0, 0.01762831902851807
340.0, 0.017664436661346285
341.0, 0.01862258954822055
342.0, 0.020201561062629103
343.0, 0.021248532324063894
344.0, 0.02276547554193064
345.0, 0.02519323873602342
346.0, 0.026230553960775685
347.0, 0.026468576276848538
348.0, 0.027082249820719
349.0, 0.02914144797948419
350.0, 0.02981212658243409
351.0, 0.03342211709612792
352.0, 0.03818383426707405
353.0, 0.04140914042256738
354.0, 0.045824548143434146
355.0, 0.04943804137374114
356.0, 0.05334535395094646
357.0, 0.06068146672474489
358.0, 0.06471551637420339
359.0, 0.06719142064352017
360.0, 0.0693074855075652
361.0, 0.0746174046526486
362.0, 0.07425891942424699
363.0, 0.07244058011085297
364.0, 0.07003873279847705
365.0, 0.06431077402707715
366.0, 0.0572862387029276
367.0, 0.05143455923869055
368.0, 0.04775772798208198
369.0, 0.04221629783276823
370.0, 0.03624576695394099
371.0, 0.03132012240604456
372.0, 0.028583643216559044
373.0, 0.02560021288379062
374.0, 0.021876899730669756
375.0, 0.018935179243964567
376.0, 0.018597445378920375
377.0, 0.01651097414845144
378.0, 0.015508503705574408
379.0, 0.0147988631691542
380.0, 0.012854517053932769
381.0, 0.012762922142196471
382.0, 0.013498596726495879
383.0, 0.014391158797015495
384.0, 0.01405053836130892
385.0, 0.014955383706335574
386.0, 0.015587406592757888
387.0, 0.016274487326735993
388.0, 0.019194347648101982
389.0, 0.019496158676672877
390.0, 0.019663110121171782
391.0, 0.02011394352088396
392.0, 0.019556153439999207
393.0, 0.019446109985012876
394.0, 0.01863391898492362
395.0, 0.017014589606243056
396.0, 0.01757387015659034
397.0, 0.017606019354743048
398.0, 0.017097915995203494
399.0, 0.016185399627647264
400.0, 0.017400130714351807
401.0, 0.01623018326315022
402.0, 0.015167433367921826
403.0, 0.01591809933133209
404.0, 0.016533534174118514
405.0, 0.016152237936907454
406.0, 0.015929044813660767
407.0, 0.016955082515181054
408.0, 0.012850867595214453
409.0, 0.013067658468507392
410.0, 0.01480129669254153
411.0, 0.014542637053914583
412.0, 0.013583172961601659
413.0, 0.0148120161127956
414.0, 0.016675268576432468
415.0, 0.01654677277196447
416.0, 0.018696851266278312
417.0, 0.019156348136570335
418.0, 0.019261356963698132
419.0, 0.022294655584328634
420.0, 0.024322796522234826
421.0, 0.027169923799407435
422.0, 0.030242501340003315
423.0, 0.031532241603803635
424.0, 0.032948154365813914
425.0, 0.03437869849562007
426.0, 0.03664927514846151
427.0, 0.042398044064896216
428.0, 0.04321485364857505
429.0, 0.04526141663061983
430.0, 0.04837126686238031
431.0, 0.047194517887106394
432.0, 0.04926856564101642
433.0, 0.049568964742236585
434.0, 0.047573235028393786
435.0, 0.04667425830302718
436.0, 0.04378831697176236
437.0, 0.04105510411021467
438.0, 0.03847434695948922
439.0, 0.032534878192178394
440.0, 0.030281317928428406
441.0, 0.027651710453873303
442.0, 0.023589246051277053
443.0, 0.020545941108731248
444.0, 0.015351574835351345
445.0, 0.012617720802869327
446.0, 0.013306021054689482
447.0, 0.01011705523238289
448.0, 0.008813796309565932
449.0, 0.007837070117699914
450.0, 0.0064615210572816694
451.0, 0.004433150975047205
452.0, 0.004481600462588676
453.0, 0.00448483135003169
454.0, 0.0034664307818305087
455.0, 0.0023221405379721975
456.0, 0.0032199351394108866
457.0, 0.0032274873086419104
458.0, 0.0011526434109149074
459.0, 0.0020275990127506614
460.0, 0.0014122484765782069
461.0, 0.000898045475260401
462.0, 0.0013561444496209061
463.0, 0.0020836841753487777
464.0, 0.0027048003493647665
465.0, 0.002257623439646523
466.0, 0.0005120243537562138
467.0, 0.0031144791164475372
468.0, 0.004248613392048477
469.0, 0.004486686645492264
470.0, 0.004084936799231298
471.0, 0.0019080934846298948
472.0, 0.003075682747762431
473.0, 0.004450000125746473
474.0, 0.004273635559057149
475.0, 0.0062907073451759915
476.0, 0.0042216558557087985
477.0, 0.0039761092489824235
478.0, 0.00846142799493947
479.0, 0.0035186474445076856
480.0, 0.0029887517911369446
481.0, 0.004415797541047455
482.0, 0.006099719876067242
483.0, 0.004929183797269923
484.0, 0.004812003648084024
485.0, 0.0054350504491719725
486.0, 0.006587163671196232
487.0, 0.007743795864495549
488.0, 0.007412044893430882
489.0, 0.007296368655505961
490.0, 0.008370397419644222
491.0, 0.010252967322837443
492.0, 0.010524894502199018
493.0, 0.010349895856584853
494.0, 0.010636500343463619
495.0, 0.014262638564985813
496.0, 0.015601923470682448
497.0, 0.016788707928302005
498.0, 0.018595374382670397
499.0, 0.01815534530674524
500.0, 0.020367246195870468
501.0, 0.02347550436705127
502.0, 0.026430540933510955
503.0, 0.027298682961775046
504.0, 0.03187815357845615
505.0, 0.03786700948477521
506.0, 0.0433945122933286
507.0, 0.0423743603457913
508.0, 0.0486879102384148
509.0, 0.054701579731318124
510.0, 0.05866570547954341
511.0, 0.06666269264433851
512.0, 0.07595366288649286
513.0, 0.08597565567452413
514.0, 0.09704707524255503
515.0, 0.11145498524022958
516.0, 0.12838171237716772
517.0, 0.14889328949723737
518.0, 0.17363027594273245
519.0, 0.20390254008510805
520.0, 0.24648610682985195
521.0, 0.2963997839173613
522.0, 0.3553619998680111
523.0, 0.43261051667930045
524.0, 0.5272256036267906
525.0, 0.6362933101042518
526.0, 0.757000994662639
527.0, 0.8836548755320418
528.0, 0.9579725486922817
529.0, 0.9928137274824028
530.0, 0.9842688550120695
531.0, 0.9192641236569743
532.0, 0.8237182982582937
533.0, 0.7181424095788174
534.0, 0.6087960211126633
535.0, 0.5027547666265049
536.0, 0.4206393448666142
537.0, 0.3517265304127184
538.0, 0.29479869770965866
539.0, 0.2491426252499554
540.0, 0.2265220156050793
541.0, 0.190383262006734
542.0, 0.15529580731059633
543.0, 0.13763409987075434
544.0, 0.12028048442465586
545.0, 0.10611691174067928
546.0, 0.09363232674709679
547.0, 0.08168857136539555
548.0, 0.07369188225631576
549.0, 0.06819043111072316
550.0, 0.06186068791583156
551.0, 0.053353999207339575
552.0, 0.05145137444663211
553.0, 0.046234642454522
554.0, 0.04217691458204183
555.0, 0.04097900456267655
556.0, 0.039510257620847034
557.0, 0.03397714800404211
558.0, 0.029677465682102656
559.0, 0.02838979119213654
560.0, 0.02970111804975531
561.0, 0.026375696661558624
562.0, 0.023931752271450522
563.0, 0.02325094883598161
564.0, 0.022805680321663937
565.0, 0.02389936766927216
566.0, 0.02178564343462385
567.0, 0.018306841373785115
568.0, 0.019179562847799737
569.0, 0.02059039135207171
570.0, 0.018261998168714707
571.0, 0.015493394232317848
572.0, 0.01797763645106967
573.0, 0.01777512793072977
574.0, 0.01557635083195815
575.0, 0.013313059176333169
576.0, 0.013005332111953002
577.0, 0.012118692224656231
578.0, 0.011359818221415819
579.0, 0.011351208432836733
580.0, 0.012410043445811212
581.0, 0.012403175738721598
582.0, 0.013600471864634223
583.0, 0.01583873420648699
584.0, 0.018645718328185228
585.0, 0.019372315868431016
586.0, 0.019747533514858754
587.0, 0.020387815575157408
588.0, 0.02116327683487455
589.0, 0.020715317488622535
590.0, 0.017637119146149276
591.0, 0.017095714875216356
592.0, 0.01825384567448418
593.0, 0.01632234683378777
594.0, 0.01597889039390148
595.0, 0.017632203230956895
596.0, 0.01939501608478666
597.0, 0.018188016541451614
598.0, 0.0199566113266714
599.0, 0.019930954925355168
600.0, 0.019874354512080354
601.0, 0.021663450906188098
602.0, 0.01975336659162209
603.0, 0.018688925681159076
604.0, 0.018200603966409098
605.0, 0.01807296476068769
606.0, 0.018042857245310944
607.0, 0.017221548596521627
608.0, 0.01708471231234282
609.0, 0.017990704194011536
610.0, 0.018730423992260412
611.0, 0.017470151765794178
612.0, 0.016295377901385487
613.0, 0.01687174483255775
614.0, 0.02230145684911852
615.0, 0.024286549631032908
616.0, 0.02818455909931159
617.0, 0.03328258854247046
618.0, 0.03742530670339625
619.0, 0.039141270675783435
620.0, 0.04343651680425787
621.0, 0.05061451968737345
622.0, 0.060671431864291116
623.0, 0.07201565099706003
624.0, 0.0818502188794451
625.0, 0.08982656166524101
626.0, 0.09514322942813784
627.0, 0.09353507598782833
628.0, 0.08599090206731425
629.0, 0.07669147153576508
630.0, 0.06759756178131386
631.0, 0.06069444200781653
632.0, 0.04961683928094905
633.0, 0.04239883408335997
634.0, 0.03888810943210116
635.0, 0.036248304385018755
636.0, 0.03574171740147961
637.0, 0.03679274166074421
638.0, 0.03809133495871503
639.0, 0.03840230364549624
640.0, 0.042585537662469114
641.0, 0.049934625266549654
642.0, 0.055994658152257584
643.0, 0.0591175125177697
644.0, 0.06742692113721463
645.0, 0.07381592279143825
646.0, 0.0792889106634268
647.0, 0.08352878582741383
648.0, 0.08439877606862206
649.0, 0.08932326622745362
650.0, 0.09145253088834857
651.0, 0.09178226385591653
652.0, 0.09383430814474839
653.0, 0.10146270443616848
654.0, 0.09911421413555997
655.0, 0.0942877087353166
656.0, 0.09400885348012869
657.0, 0.08629436127742852
658.0, 0.07780081087150671
659.0, 0.06963371834824181
660.0, 0.062105876825531356
661.0, 0.053940187455472105
662.0, 0.0483678422543804
663.0, 0.04299469633572685
664.0, 0.03680424156935694
665.0, 0.028779487492116618
666.0, 0.03624609138916192
667.0, 0.037593657886430154
668.0, 0.034316441225513535
669.0, 0.0306159687027983
670.0, 0.02007041519492464
671.0, 0.013754973115522769
672.0, 0.012494821962330337
673.0, 0.015035976339159363
674.0, 0.009524368105272182
675.0, 0.009046398114963343
676.0, 0.009012123558466596
677.0, 0.007363552740789663
678.0, 0.002291997240778953
679.0, 0.004063615424525196
680.0, 0.0032485518803786343
681.0, 0.0013320337163539643
682.0, 0.001903135854776715
683.0, 0.004105062449782162
684.0, 0.00287064988660323
685.0, 0.0010669686918588792
686.0, 0.0006325914983124843
687.0, 0.0006047231466587244
688.0, 0.0013122740934742177
689.0, 0.0019511814862751956
690.0, 0.0022263866084293784
691.0, 0.0020481654002534773
692.0, 0.0020039353801610273
693.0, 0.0027832068695784777
694.0, 0.003226015052573935
695.0, 0.001747873610214023
696.0, 0.00528738549861013
697.0, 0.005341478222016996
698.0, 0.005256064240053207
699.0, 0.007163357299539365
700.0, 0.010255514853736396
701.0, 0.01043366852487854
702.0, 0.011111300638317665
703.0, 0.012470168482289367
704.0, 0.012436905208310853
705.0, 0.014604597849231436
706.0, 0.014711942629114223
707.0, 0.013683236636553651
708.0, 0.013174942898220425
709.0, 0.016120507460126582
710.0, 0.015436806989802182
711.0, 0.01616489776999517
712.0, 0.019366337784765528
713.0, 0.017095522455145874
714.0, 0.018752383090453423
715.0, 0.021515987754381332
716.0, 0.022866379475421018
717.0, 0.019250636873839887
718.0, 0.020671321602828054
719.0, 0.020076304431486617
720.0, 0.01806210677057156
721.0, 0.015644401845679865
722.0, 0.015009798106510295
723.0, 0.011207351166275253
724.0, 0.008965415870396405
725.0, 0.009017280050270653
726.0, 0.008231915344767618
727.0, 0.006229197271906109
728.0, 0.005743506497594321
729.0, 0.00539822974484681
730.0, 0.0031877097126903264
731.0, 0.0037089328529901822
732.0, 0.003844508549783281
733.0, 0.004086696853564868
734.0, 0.004444318207383566
735.0, 0.0036561057614807853
736.0, 0.003378348029137789
737.0, 0.00297630334563475
738.0, 0.002044996203989381
739.0, 0.0001351799710378502
740.0, 0.0004943023399366355
741.0, 0.0012241151824995086
742.0, 0.0020667205825746957
743.0, 0.002683838390449839
744.0, 0.0018299892406833094
745.0, 0.0009771680356669447
746.0, 0.0005541978147463683
747.0, 0.0013314072816321457
748.0, 0.004750232091920938
749.0, 0.008519237226284431
750.0, 0.007660139844424576
751.0, 0.004180007614263643
752.0, 0.0006756124139690216
753.0, 0.0005753231160713926
754.0, 0.0007108565362858857
755.0, 0.001432064549163783
756.0, 0.0023072453547484852
757.0, 0.0017591450149983833
758.0, 0.0024508091101397146
759.0, 0.003347097234358323
760.0, 0.0030177970130911987
761.0, 0.0003685088166340522
762.0, 0.0002726997089499626
763.0, 0.00025536827618432363
764.0, 0.00016456719011583796
765.0, 0.0002733255268444646
766.0, 0.0016780609712599062
767.0, 0.0012502174793125526
768.0, 0.0007249391146583527
769.0, 0.0009264413990494991
770.0, 0.0024030819762046523
771.0, 0.0020380957654173503
772.0, 0.0017448818967569799
773.0, 0.0014883168497037517
774.0, 0.0015220276313976456
775.0, 0.0027837842290651333
776.0, 0.004315199698779998
777.0, 0.004131849247459763
778.0, 0.003184870256724461
779.0, 0.0028791514888518513
780.0, 0.0009889587406781562
781.0, 0.001448986386419371
782.0, 0.0020756559394258397
783.0, 0.00174903474719083
784.0, 0.00015980043197502236
785.0, 6.322654390836653e-05
786.0, 0.002097025774767258
787.0, 0.003495102116496823
788.0, 0.001415836826698162
789.0, 0.004056328622596543
790.0, 0.005201239918669158
791.0, 0.005015969870844626
792.0, 0.005003139774328931
793.0, 0.009451075550528485
794.0, 0.007970054847615121
795.0, 0.0092799179270138
796.0, 0.010626453176019672
797.0, 0.008581709317213745
798.0, 0.00836220001073128
799.0, 0.010034511446584056
800.0, 0.011088251622023452
801.0, 0.010352959044558628
802.0, 0.007270519341821834
803.0, 0.008149238584150833
804.0, 0.008888035578746624
805.0, 0.009080315069131123
806.0, 0.008937388314368053
807.0, 0.010977153131529681
808.0, 0.010470789436260078
809.0, 0.011273320506532751
810.0, 0.012438277510670356
811.0, 0.009801800161411642
812.0, 0.009220266700175474
813.0, 0.010473004208191286
814.0, 0.0107682687904704
815.0, 0.009246083804706966
816.0, 0.012042226988663866
817.0, 0.010316612722410171
818.0, 0.008776833025047372
819.0, 0.010037974215142622
820.0, 0.01613515417823563
821.0, 0.012577396950333884
822.0, 0.012588909581125752
823.0, 0.014621898311353368
824.0, 0.016910465814749295
825.0, 0.016367441539329848
826.0, 0.019779173817461575
827.0, 0.01840742656037943
828.0, 0.01717012905454057
829.0, 0.02182181364875861
830.0, 0.023097100416032385
831.0, 0.021497626433876323
832.0, 0.02195002318214079
833.0, 0.02364032872290267
834.0, 0.02083085363069754
835.0, 0.023120492075127976
836.0, 0.02468262214485337
837.0, 0.023963214585504523
838.0, 0.022294876694474247
839.0, 0.032055456671628096
840.0, 0.028990132755797888
841.0, 0.0295627612176011
842.0, 0.03317722473432968
843.0, 0.03409628788455753
844.0, 0.032959118976660075
845.0, 0.03513305766488616
846.0, 0.03642796861584929
847.0, 0.03590237250113934
848.0, 0.03658129816395401
849.0, 0.03570982128766121
850.0, 0.03492041581757897
851.0, 0.03724621918201901
852.0, 0.04344452931093826
853.0, 0.04139469387218749
854.0, 0.045792191159578034
855.0, 0.05207002527486014
856.0, 0.057902617962773364
857.0, 0.061561351305951154
858.0, 0.07210051922328897
859.0, 0.07780583691599716
860.0, 0.08040194280973999
861.0, 0.08233554514848888
862.0, 0.08817135196214455
863.0, 0.07537377924335069
864.0, 0.06912616585016522
865.0, 0.06595737075951748
866.0, 0.060730084522585596
867.0, 0.05563462183634769
868.0, 0.05155404777320289
869.0, 0.0469009863633262
870.0, 0.042987060413214186
871.0, 0.04235280852339093
872.0, 0.04424799141930008
873.0, 0.04145515491187768
874.0, 0.038650141665077326
875.0, 0.03778850668789379
876.0, 0.038005023245707974
877.0, 0.03692485745355384
878.0, 0.03770131645095232
879.0, 0.03789649626694718
880.0, 0.03627227625069582
881.0, 0.03780414451389045
882.0, 0.03646906065255282
883.0, 0.03261330051320206
884.0, 0.030585136855963747
885.0, 0.034733000049049736
886.0, 0.028009221316563894
887.0, 0.031505759681549596
888.0, 0.03441261633264601
889.0, 0.03341706793218272
890.0, 0.030115853959075366
891.0, 0.03488440723823271
892.0, 0.03339747564566066
893.0, 0.03169566900748819
894.0, 0.032989558390501814
895.0, 0.034545442831253007
896.0, 0.03136290591516209
897.0, 0.033690653533759815
898.0, 0.03537793588399729
899.0, 0.031532143717417624
900.0, 0.03555005623420571
901.0, 0.0351971265031741
902.0, 0.032448207067230284
903.0, 0.03129144243105422
904.0, 0.035740779050731905
905.0, 0.030616604016210375
906.0, 0.030483311895168067
907.0, 0.03229024396882059
908.0, 0.03243505925107273
909.0, 0.026088971463195783
910.0, 0.029034200430895947
911.0, 0.02959698076862164
912.0, 0.027635165439233462
913.0, 0.02501407288609252
914.0, 0.0274291417461432
915.0, 0.024215253537926435
916.0, 0.020757632679925492
917.0, 0.017299554225501827
918.0, 0.014302802101869386
919.0, 0.015286219742489214
920.0, 0.01437022040524087
921.0, 0.010310664873892353
922.0, 0.008045302825052243
923.0, 0.01232750576505358
924.0, 0.01255288605498048
925.0, 0.01101699738063395
926.0, 0.012845048191464817
927.0, 0.015364766946668232
928.0, 0.01244586108454542
929.0, 0.011600765108280233
930.0, 0.013821638742135876
931.0, 0.014620348732583225
932.0, 0.01418484666662198
933.0, 0.016862197490465886
934.0, 0.01772681919820074
935.0, 0.014017039366942062
936.0, 0.014331088097771422
937.0, 0.018063222354822772
938.0, 0.009101372313360133
939.0, 0.01254931940097075
940.0, 0.014148123224332565
941.0, 0.013428898196996563
942.0, 0.011948599318501403
943.0, 0.014321738438234323
944.0, 0.01185629236672746
945.0, 0.01014381114058123
946.0, 0.01131825699468468
947.0, 0.01534809466730563
948.0, 0.014809374860591518
949.0, 0.01917986442017073
950.0, 0.02180684399512766
951.0, 0.02258931854530974
952.0, 0.023695460264500947
953.0, 0.03221358791475223
954.0, 0.030781427085026875
955.0, 0.03119602462206157
956.0, 0.032415523809734774
957.0, 0.028990666022600767
958.0, 0.02353510219850678
959.0, 0.025205982173328166
960.0, 0.025412510655188087
961.0, 0.022130635010729524
962.0, 0.01721025697235157
963.0, 0.0200512515664444
964.0, 0.015420235570526849
965.0, 0.016418915443400947
966.0, 0.020855127712636617
967.0, 0.014039245799816635
968.0, 0.016267739591973668
969.0, 0.016658414937322986
970.0, 0.013098245987578921
971.0, 0.008787454963136753
972.0, 0.013172070257307078
973.0, 0.014235663672852296
974.0, 0.011771733832364652
975.0, 0.009957621628342307
976.0, 0.010042211988940869
977.0, 0.009041047391940416
978.0, 0.01040699447338728
979.0, 0.013502199611432453
980.0, 0.01385584401541361
981.0, 0.012656044821421287
982.0, 0.02181810316419659
983.0, 0.021228700099985277
984.0, 0.023482561955815294
985.0, 0.027998398622457277
986.0, 0.032242644683041555
987.0, 0.031085634596272334
988.0, 0.03380699056653243
989.0, 0.03419458900227647
990.0, 0.03288471766692834
991.0, 0.03240606451186824
992.0, 0.03880618456787008
993.0, 0.03382898371354344
994.0, 0.033366607022667485
995.0, 0.035602741195682984
996.0, 0.03722136311822444
997.0, 0.03575481097474708
998.0, 0.05038952319291993
999.0, 0.058934849753888616
1000.0, 0.07199380210410894
1001.0, 0.09605060100700069
1002.0, 0.1155928018899883
1003.0, 0.1034438883131577
1004.0, 0.08253106863580294
1005.0, 0.05977515062688207
1006.0, 0.03939052408363579
1007.0, 0.023273147530280088
1008.0, 0.024312686538542273
1009.0, 0.018333724961706162
1010.0, 0.013202554574737223
1011.0, 0.015038145721330125
1012.0, 0.013732831713916233
1013.0, 0.013462151626253707
1014.0, 0.012827931258862139
1015.0, 0.011904815348388718
1016.0, 0.01224288173432557
1017.0, 0.01925721227258676
1018.0, 0.026846877205900604
1019.0, 0.027800936444133735
1020.0, 0.02897222503814873
1021.0, 0.03501756299619328
1022.0, 0.04146601880562917
1023.0, 0.03786968600333348
1024.0, 0.0409044337684527
1025.0, 0.041956906357799646
1026.0, 0.03673778463529798
1027.0, 0.03544766011738085
1028.0, 0.03835452945056276
1029.0, 0.034132367264417096
1030.0, 0.030695702750544777
1031.0, 0.03136532476918141
1032.0, 0.028188726641460785
1033.0, 0.024125246525922336
1034.0, 0.024188865406884967
1035.0, 0.022748067621448837
1036.0, 0.020277833963781883
1037.0, 0.027640712759441036
1038.0, 0.02582173090734661
1039.0, 0.02294030937376936
1040.0, 0.024763027975327746
1041.0, 0.029812160690878414
1042.0, 0.02787406682909897
1043.0, 0.029938495741952443
1044.0, 0.03447358443312303
1045.0, 0.0364658861846061
1046.0, 0.03890099542141302
1047.0, 0.05187062859436631
1048.0, 0.05567510692593824
1049.0, 0.06176111660253218
1050.0, 0.07247808251765496
1051.0, 0.08315714285519463
1052.0, 0.08511986726293859
1053.0, 0.09095860547860926
1054.0, 0.09431059064440539
1055.0, 0.08983996771258815
1056.0, 0.08225868720339183
1057.0, 0.07963575104627825
1058.0, 0.06836444842122684
1059.0, 0.05890193907120371
1060.0, 0.05537689031228925
1061.0, 0.052393375233417715
1062.0, 0.043587539913395396
1063.0, 0.03853109621851877
1064.0, 0.03575393142201675
1065.0, 0.03188223296060355
1066.0, 0.03113760185677918
1067.0, 0.034867845743406574
1068.0, 0.026691792689807425
1069.0, 0.02890848348239702
1070.0, 0.028961767346165967
1071.0, 0.02581832635031993
1072.0, 0.022800506236772763
1073.0, 0.029736108084226977
1074.0, 0.029185554640149176
1075.0, 0.025436894615954005
1076.0, 0.027342576824001767
1077.0, 0.0341056465878968
1078.0, 0.030308478106049357
1079.0, 0.030484452794845927
1080.0, 0.033364439169313
1081.0, 0.03487117007084988
1082.0, 0.035342213101333814
1083.0, 0.03895373074277615
1084.0, 0.040934246633631495
1085.0, 0.03398195602982646
1086.0, 0.031364095047147794
1087.0, 0.029885225965097434
1088.0, 0.020280960324691556
1089.0, 0.02144864254409148
1090.0, 0.024868466268178985
1091.0, 0.02018214232674675
1092.0, 0.01623188653923733
1093.0, 0.02112314963060649
1094.0, 0.013547289213744155
1095.0, 0.009042261409222848
1096.0, 0.012207854923960926
1097.0, 0.012282592456861042
1098.0, 0.005230997452225599
1099.0, 0.007960267523049888
1100.0, 0.007717204535228027
1101.0, 0.005865350722663854
1102.0, 0.006292749538487677
1103.0, 0.008960279272320291
1104.0, 0.009009045787548723
1105.0, 0.006733623087857324
1106.0, 0.01076931078714624
1107.0, 0.011379947976192299
1108.0, 0.010420302496927556
1109.0, 0.015931124148108544
1110.0, 0.021010194630420725
1111.0, 0.017036159286488512
1112.0, 0.017752998954112857
1113.0, 0.017623741323251247
1114.0, 0.010345505924638993
1115.0, 0.011982102979902352
1116.0, 0.01418485473357316
1117.0, 0.014030348942083567
1118.0, 0.013376481180662729
1119.0, 0.012992145886011637
1120.0, 0.010240016659531044
1121.0, 0.018316507244772313
1122.0, 0.026688252044882
1123.0, 0.02558129087293262
1124.0, 0.017946814761748524
1125.0, 0.017062114228111547
1126.0, 0.012584419899715153
1127.0, 0.00963404652347628
1128.0, 0.00840437084827623
1129.0, 0.007937855921239087
1130.0, 0.007007394421103155
1131.0, 0.005662552491502848
1132.0, 0.007525142625131586
1133.0, 0.005553523314936768
1134.0, 0.0038671584090772242
1135.0, 0.004944101960443629
1136.0, 0.003754977744383278
1137.0, 0.0012996948589855321
1138.0, 0.0009446384825469984
1139.0, 0.0008723269723823418
1140.0, 0.00045847972871587846
1141.0, 0.0005454638916022945
1142.0, 0.00422304163531558
1143.0, 0.008235976769687799
1144.0, 0.005429658364116358
1145.0, 0.0010765118760973297
1146.0, 0.002681626205473523
1147.0, 0.0060788770536948
1148.0, 0.0025691835250132447
1149.0, 0.0037768271571208102
1150.0, 0.006130134373432061
1151.0, 0.0057990327033141005
1152.0, 0.0022818532849903216
1153.0, 0.00642800845183831
1154.0, 0.0030290964819992302
1155.0, 0.00036549926529810025
1156.0, 0.0013456139910201143
1157.0, 0.0043841913477933115
1158.0, 0.00509915167658633
1159.0, 0.00179771588080834
1160.0, 0.000916142563476808
1161.0, 0.0033316817067682884
1162.0, 0.0063317550500509665
1163.0, 0.0019691723145527575
1164.0, 0.0057209926164820965
1165.0, 0.0047035179217888206
1166.0, 0.004684709424185814
1167.0, 0.0069579277289823225
1168.0, 0.007528642408581693
1169.0, 0.006156246447055382
1170.0, 0.009868139327381873
1171.0, 0.01208106760207083
1172.0, 0.009566312338679514
1173.0, 0.004693942341967243
1174.0, 0.014521276071768723
1175.0, 0.010716946470569208
1176.0, 0.00865139796112662
1177.0, 0.00835632407219775
1178.0, 0.007661046000666551
1179.0, 0.0040012937032206574
1180.0, 0.002782775446054751
1181.0, 0.004632850952988441
1182.0, 0.0030762393370718875
1183.0, 0.00201071061136498
1184.0, 0.0055184717002105255
1185.0, 0.000823551321546271
1186.0, 0.0006269392831761574
1187.0, 0.00412817229284083
1188.0, 0.005545644513998214
1189.0, 0.004014129016663622
1190.0, 0.0053789732052714695
1191.0, 0.008580110363885035
1192.0, 0.006959404352386699
1193.0, 0.005631504714459618
1194.0, 0.005034206417445829
1195.0, 0.004443424958258607
1196.0, 0.0066716158598487865
1197.0, 0.006019239222581292
1198.0, 0.0025448774859720314
1199.0, 0.002579046564638006
1200.0, 0.006113823889623383
1201.0, 0.005619636425670851
1202.0, 0.003913284353688708
1203.0, 0.0029883621150290245
1204.0, 0.004712989568004662
1205.0, 0.0051598781122810765
1206.0, 0.002137530771128257
1207.0, 0.005339686322243606
1208.0, 0.0035194860817360455
1209.0, 0.0014219543804786887
1210.0, 0.0005637802097694046
1211.0, 0.0019231143797637368
1212.0, 0.005660114982444037
1213.0, 0.007553951501059943
1214.0, 0.008129581063734929
1215.0, 0.0044702570412267426
1216.0, 0.005268454147330426
1217.0, 0.012763057129295253
1218.0, 0.00882791393040277
1219.0, 0.0038007545711495477
1220.0, 0.005894537323325719
1221.0, 0.004430248871538831
1222.0, 0.001521774587203794
1223.0, 0.004795026533404364
1224.0, 0.0027593102214711262
1225.0, 0.0018590033648236697
1226.0, 0.0071426495033484055
1227.0, 0.007851790072466554
1228.0, 0.0029187841646718575
1229.0, 0.00711849544965263
1230.0, 0.012702960231926047
1231.0, 0.011295880746215512
1232.0, 0.013067550015322468
1233.0, 0.01624786452552034
1234.0, 0.015545252877545643
1235.0, 0.009699862022292737
1236.0, 0.019311020262595686
1237.0, 0.022972844586458742
1238.0, 0.022432900810215754
1239.0, 0.021226393499704063
1240.0, 0.022025516151068958
1241.0, 0.020936342570193164
1242.0, 0.015500492504825988
1243.0, 0.021495158812763544
1244.0, 0.021512760084307962
1245.0, 0.013210140084209796
1246.0, 0.023415026171765507
1247.0, 0.02121014247383678
1248.0, 0.017577712324679095
1249.0, 0.019275812423391457
1250.0, 0.019259458929023823
1251.0, 0.012962087818394832
1252.0, 0.01728354332712227
1253.0, 0.014696126074400833
1254.0, 0.012329738002755835
1255.0, 0.012014679572847686
1256.0, 0.012945082905616679
1257.0, 0.01303294201743118
1258.0, 0.012417084970584314
1259.0, 0.01944944847617466
1260.0, 0.0165493073124806
1261.0, 0.017003082137972914
1262.0, 0.023033276830291036
1263.0, 0.021046775626589773
1264.0, 0.022502190047631668
1265.0, 0.027082259876921675
1266.0, 0.03047012163029783
1267.0, 0.031920730442758984
1268.0, 0.032903855853596856
1269.0, 0.03663849762419573
1270.0, 0.032944637210205636
1271.0, 0.03719094672370122
1272.0, 0.04200271930905765
1273.0, 0.04168849385250903
1274.0, 0.03658760812367553
1275.0, 0.04054805185970981
1276.0, 0.04055781955180052
1277.0, 0.037227837869440325
1278.0, 0.036150340735051106
1279.0, 0.0333848690508078
1280.0, 0.023998126014673105
1281.0, 0.027559035056117575
1282.0, 0.03243530161943025
1283.0, 0.02318381748921176
1284.0, 0.020800950921070507
1285.0, 0.026625708468573293
1286.0, 0.023016838401618958
1287.0, 0.017087136848500672
1288.0, 0.0211540690525249
1289.0, 0.024297384298169876
1290.0, 0.022447099314643428
1291.0, 0.020077748861723147
1292.0, 0.0278884635004467
1293.0, 0.02742477314956724
1294.0, 0.031334165953706604
1295.0, 0.03319174604114633
1296.0, 0.028853531953050904
1297.0, 0.022372402622006397
1298.0, 0.027660794423879084
1299.0, 0.0225489161101151
1300.0, 0.022335052065811753
1301.0, 0.02484484552963708
1302.0, 0.024318143791313404
1303.0, 0.019099492031013906
1304.0, 0.017751026096778883
1305.0, 0.027391234114649835
1306.0, 0.023507572210001288
1307.0, 0.028700118845184093
1308.0, 0.03984553208174812
1309.0, 0.04403038936379762
1310.0, 0.03394160001437063
1311.0, 0.04555122191657815
1312.0, 0.04259543654560385
1313.0, 0.040104467295639656
1314.0, 0.043517660424998945
1315.0, 0.04837166065020391
1316.0, 0.03970793746903615
1317.0, 0.04322130793380642
1318.0, 0.05055543900904509
1319.0, 0.04970913905493902
1320.0, 0.04785071490072809
1321.0, 0.05287777225943733
1322.0, 0.040041092783883396
1323.0, 0.04021621507881561
1324.0, 0.04076081686940292
1325.0, 0.03658578459418305
1326.0, 0.030338993658962678
1327.0, 0.02809859629024126
1328.0, 0.03181364137840185
1329.0, 0.01921419197072042
1330.0, 0.018629298457664194
1331.0, 0.020668541278283117
1332.0, 0.01760561558357893
1333.0, 0.009928964403525475
1334.0, 0.015579198425334336
1335.0, 0.009549268294243093
1336.0, 0.008192626982755876
1337.0, 0.008800395712066512
1338.0, 0.008508701906473454
1339.0, 0.00696572147061698
1340.0, 0.00953817964902743
1341.0, 0.0118207838090145
1342.0, 0.005443550202467975
1343.0, 0.00830133143141767
1344.0, 0.01310326868005177
1345.0, 0.0053701786860061666
1346.0, 0.0008433608620429986
1347.0, 0.014257525948133287
1348.0, 0.0070096778755405886
1349.0, 0.003988243792016936
1350.0, 0.009189492082575369
1351.0, 0.011786506018647457
1352.0, 0.000659400445294756
1353.0, 0.007538483611081634
1354.0, 0.006254995212965161
1355.0, 0.0033971860262958873
1356.0, 0.004217662060613789
1357.0, 0.00748720192033703
1358.0, 0.00040966883834355015
1359.0, 0.0008837327583000303
1360.0, 0.004618189446008079
1361.0, 0.0055717631271849965
1362.0, 0.003294154099496361
1363.0, 0.0006679238478614956
1364.0, 0.001401682333690471
1365.0, 0.0030115718522129484
1366.0, 0.0074421570072722085
1367.0, 0.00550852062805423
1368.0, 0.0021521244165451786
1369.0, 0.004566039896498502
1370.0, 0.013070087694451095
1371.0, 0.00218253896407258
1372.0, 0.0009238758556273078
1373.0, 0.006616659065245477
1374.0, 0.008056041246095496
1375.0, 0.003587163463676316
1376.0, 0.0059589682753655015
1377.0, 0.01179403037345846
1378.0, 0.0064051449663260936
1379.0, 0.010877666751642848
1380.0, 0.015743914901482747
1381.0, 0.013123273148635161
1382.0, 0.006425771477386589
1383.0, 0.014045401050825027
1384.0, 0.012637956951965333
1385.0, 0.011199838590153053
1386.0, 0.013168053874148294
1387.0, 0.01344203337505821
1388.0, 0.007323411110949194
1389.0, 0.014625944851099457
1390.0, 0.016057165236872162
1391.0, 0.009535788290826611
1392.0, 0.01278334281484343
1393.0, 0.016289665031368302
1394.0, 0.00735520671713184
1395.0, 0.006565840654421492
1396.0, 0.00739861464338707
1397.0, 0.0037736780308390743
1398.0, 0.003607010541500142
1399.0, 0.007965263770986337
1400.0, 0.010568954117310651
1401.0, 0.0008730370343601004
1402.0, 0.006017825676642067
1403.0, 0.007880939793094484
1404.0, 0.004915987389230012
1405.0, 0.007154859049342168
1406.0, 0.01243930005721834
1407.0, 0.0059396971922396485
1408.0, 0.0006071833239886621
1409.0, 0.0110029316163462
1410.0, 0.009113393132199984
1411.0, 0.007917358735847074
1412.0, 0.011847902921247674
1413.0, 0.013802209869539814
1414.0, 0.0053799915289425675
1415.0, 0.008654414968736897
1416.0, 0.010478908473418199
1417.0, 0.007444411224435942
1418.0, 0.006596753271054485
1419.0, 0.01241513873551594
1420.0, 0.015248832542098863
1421.0, 0.005849863596717914
1422.0, 0.01385654806311276
1423.0, 0.009228410282524736
1424.0, 0.009358180864209222
1425.0, 0.020120416058817092
1426.0, 0.02100472468895963
1427.0, 0.009488436519465009
1428.0, 0.024729672423802525
1429.0, 0.025313691132551865
1430.0, 0.019463604361528976
1431.0, 0.02093535710194182
1432.0, 0.03243757861302148
1433.0, 0.028900267614366926
1434.0, 0.03487279055467388
1435.0, 0.04200333992070999
1436.0, 0.0436856101502967
1437.0, 0.05046803790943984
1438.0, 0.06548421550639595
1439.0, 0.07178768042684089
1440.0, 0.0722616177063298
1441.0, 0.08607121029506976
1442.0, 0.09475788450421131
1443.0, 0.09697005090154426
1444.0, 0.09860509735784943
1445.0, 0.10501137468902114
1446.0, 0.1076770665300323
1447.0, 0.11287283446395978
1448.0, 0.12008096902277994
1449.0, 0.11865992676507624
1450.0, 0.11855027963051498
1451.0, 0.12655577553686412
1452.0, 0.1278869937364571
1453.0, 0.12581816861054373
1454.0, 0.13428225510488584
1455.0, 0.13412421650378759
1456.0, 0.1283672914847614
1457.0, 0.12452726538179
1458.0, 0.12621583228448433
1459.0, 0.12498051753126273
1460.0, 0.11663181112402848
1461.0, 0.11716742858985454
1462.0, 0.10949752411059367
1463.0, 0.10048331833863017
1464.0, 0.09837504770830614
1465.0, 0.09372654963871145
1466.0, 0.0844847444077464
1467.0, 0.0774157913643658
1468.0, 0.0776644315822591
1469.0, 0.07193473570328196
1470.0, 0.06360010338990181
1471.0, 0.06460862715162884
1472.0, 0.06029409550848859
1473.0, 0.05081201120389465
1474.0, 0.04775103493160748
1475.0, 0.046441435628262896
1476.0, 0.045036135261356275
1477.0, 0.04581709447396228
1478.0, 0.05134902942323309
1479.0, 0.03936272316322566
1480.0, 0.04750705735998918
1481.0, 0.046494176005046274
1482.0, 0.043323757040989334
1483.0, 0.0449225826843911
1484.0, 0.04927020400465637
1485.0, 0.04295204963146763
1486.0, 0.03266016265488776
1487.0, 0.034529117320991905
1488.0, 0.0326750713337765
1489.0, 0.026204563320193715
1490.0, 0.022893964961631024
1491.0, 0.027483733393955437
1492.0, 0.016792031722566516
1493.0, 0.012017963831154698
1494.0, 0.015406257228993189
1495.0, 0.0101636301513342
1496.0, 0.004597591223444343
1497.0, 0.008818159037255989
1498.0, 0.015803833980648038
1499.0, 0.0016833233985854585
1500.0, 0.009618364293462044
1501.0, 0.007937749340110795
1502.0, 0.0028188117714153067
1503, 0.0
1504, 0.0
1505, 0.0
1506, 0.0
1507, 0.0
1508, 0.0
1509, 0.0
1510, 0.0
1511, 0.0
1512, 0.0
1513, 0.0
1514, 0.0
1515, 0.0
1516, 0.0
1517, 0.0
1518, 0.0
1519, 0.0
1520, 0.0
1521, 0.0
1522, 0.0
1523, 0.0
1524, 0.0
1525, 0.0
1526, 0.0
1527, 0.0
1528, 0.0
1529, 0.0
1530, 0.0
1531, 0.0
1532, 0.0
1533, 0.0
1534, 0.0
1535, 0.0
1536, 0.0
1537, 0.0
1538, 0.0
1539, 0.0
1540, 0.0
1541, 0.0
1542, 0.0
1543, 0.0
1544, 0.0
1545, 0.0
1546, 0.0
1547, 0.0
1548, 0.0
1549, 0.0
1550, 0.0
1551, 0.0
1552, 0.0
1553, 0.0
1554, 0.0
1555, 0.0
1556, 0.0
1557, 0.0
1558, 0.0
1559, 0.0
1560, 0.0
1561, 0.0
1562, 0.0
1563, 0.0
1564, 0.0
1565, 0.0
1566, 0.0
1567, 0.0
1568, 0.0
1569, 0.0
1570, 0.0
1571, 0.0
1572, 0.0
1573, 0.0
1574, 0.0
1575, 0.0
1576, 0.0
1577, 0.0
1578, 0.0
1579, 0.0
1580, 0.0
1581, 0.0
1582, 0.0
1583, 0.0
1584, 0.0
1585, 0.0
1586, 0.0
1587, 0.0
1588, 0.0
1589, 0.0
1590, 0.0
1591, 0.0
1592, 0.0
1593, 0.0
1594, 0.0
1595, 0.0
1596, 0.0
1597, 0.0
1598, 0.0
1599, 0.0
