30, 0.0
31, 0.0
32, 0.0
33, 0.0
34, 0.0
35, 0.0
36, 0.0
37, 0.0
38, 0.0
39, 0.0
40, 0.0
41, 0.0
42, 0.0
43, 0.0
44, 0.0
45, 0.0
46, 0.0
47, 0.0
48, 0.0
49, 0.0
50, 0.0
51, 0.0
52, 0.0
53.0, 0.0002056941046052385
54.0, 0.000865592584096816
55.0, 0.001876229685142472
56.0, 0.0021678369414468933
57.0, 0.002148535046226003
58.0, 0.0025686235642121196
59.0, 0.003552536911797252
60.0, 0.0022040818942639564
61.0, 0.0016442927082866738
62.0, 0.0009108142195280636
63.0, 0.00044060595014133887
64.0, 0.0005497535396843639
65.0, 0.0007893905760029786
66.0, 0.00035572781108993937
67.0, 0.0006005646041926398
68.0, 0.002137591395324157
69.0, 0.005633392283714844
70.0, 0.01189288326597941
71.0, 0.02064395719328128
72.0, 0.023426927935139178
73.0, 0.023666699581988315
74.0, 0.02477915908137491
75.0, 0.029801922369976468
76.0, 0.03992888248271305
77.0, 0.05446936148349914
78.0, 0.06812914099263293
79.0, 0.08802980755721641
80.0, 0.12591501184091802
81.0, 0.19139796285503985
82.0, 0.31265479911538113
83.0, 0.44975685529325926
84.0, 0.526188370547895
85.0, 0.48342906049985657
86.0, 0.3333460034522488
87.0, 0.2202926941942481
88.0, 0.14626866520786608
89.0, 0.1029626323270704
90.0, 0.07975227858999093
91.0, 0.0662561372956804
92.0, 0.06536068000513523
93.0, 0.06062302263002546
94.0, 0.05288137434049339
95.0, 0.04651859734784484
96.0, 0.047109361822977425
97.0, 0.04026992556791136
98.0, 0.03714545468462057
99.0, 0.03657142957808642
100.0, 0.03802948221184361
101.0, 0.040302218697863545
102.0, 0.03750258453304436
103.0, 0.03542794459971019
104.0, 0.03641730755502502
105.0, 0.04035262228531685
106.0, 0.04775527768247671
107.0, 0.06212562569087274
108.0, 0.08120141628371456
109.0, 0.11388057260116535
110.0, 0.1524159209702951
111.0, 0.19073071208798822
112.0, 0.2263377996221922
113.0, 0.2592725892509829
114.0, 0.22529200479394357
115.0, 0.1707954402338089
116.0, 0.1215657294698681
117.0, 0.08885263880055529
118.0, 0.0660066830629304
119.0, 0.05326881005845785
120.0, 0.04245266517914875
121.0, 0.03525450640872526
122.0, 0.03349587981062887
123.0, 0.033675179326484526
124.0, 0.0395161723733721
125.0, 0.03829337530684365
126.0, 0.03662649520228267
127.0, 0.039559626468277036
128.0, 0.04823064882996116
129.0, 0.06786458644920362
130.0, 0.10699912216539344
131.0, 0.12419108090562474
132.0, 0.1412021542739358
133.0, 0.18941556148797267
134.0, 0.13995252510856138
135.0, 0.10968828563237887
136.0, 0.09876381563893813
137.0, 0.10796647572315396
138.0, 0.13523745839184367
139.0, 0.17384450992195863
140.0, 0.18644477154351052
141.0, 0.1652274626876838
142.0, 0.13618586443793226
143.0, 0.1148552498203089
144.0, 0.10253033317989979
145.0, 0.08825807431981159
146.0, 0.0716441822284263
147.0, 0.06055622692841585
148.0, 0.05492785338383258
149.0, 0.05239819613077766
150.0, 0.05601766486477214
151.0, 0.07090414715582977
152.0, 0.09953060648157624
153.0, 0.1353243253670166
154.0, 0.1651012778968078
155.0, 0.16902055901596083
156.0, 0.13452881153453625
157.0, 0.09574062572418233
158.0, 0.064374942229849
159.0, 0.04478455589242377
160.0, 0.03529191552464192
161.0, 0.02996762854693631
162.0, 0.028241768410565696
163.0, 0.030523068685082876
164.0, 0.03553616154250492
165.0, 0.04242454677098835
166.0, 0.05252458454552969
167.0, 0.06558335278507908
168.0, 0.08645961515404167
169.0, 0.11557592615292901
170.0, 0.15026004052831604
171.0, 0.18315991905785214
172.0, 0.17736101097724138
173.0, 0.14947298336628204
174.0, 0.12221490171687553
175.0, 0.10716123436953776
176.0, 0.1097840896465405
177.0, 0.12926184103836297
178.0, 0.16832969961565925
179.0, 0.1934579388518644
180.0, 0.18701489341174626
181.0, 0.15150354757812
182.0, 0.10878573626814836
183.0, 0.07935642261915961
184.0, 0.06187793799181188
185.0, 0.05303488621981703
186.0, 0.04926916972104132
187.0, 0.047888303781516026
188.0, 0.05018835737412927
189.0, 0.05427251722832494
190.0, 0.058161695744202636
191.0, 0.06403700932745207
192.0, 0.07186267319697551
193.0, 0.07876526407962761
194.0, 0.08191501410439549
195.0, 0.07945145615628353
196.0, 0.07472875071953723
197.0, 0.06921293972256266
198.0, 0.06366077384296398
199.0, 0.05877364585959404
200.0, 0.057209525611505184
201.0, 0.05691788199542849
202.0, 0.05801310111764611
203.0, 0.05823678943407656
204.0, 0.05301115399065151
205.0, 0.039089951336820555
206.0, 0.02380256664593662
207.0, 0.015000304522800148
208.0, 0.012688694106681352
209.0, 0.014101240666032659
210.0, 0.017070083938627786
211.0, 0.021018975173914604
212.0, 0.024297788517990197
213.0, 0.02566603525290534
214.0, 0.026006389521894893
215.0, 0.027332448145269757
216.0, 0.024279038059897933
217.0, 0.020280147572735576
218.0, 0.01616441890592303
219.0, 0.01354040947531052
220.0, 0.012662123708237969
221.0, 0.010481317790515757
222.0, 0.009927900920289326
223.0, 0.009934622715040375
224.0, 0.008551331457995118
225.0, 0.007493260320291997
226.0, 0.009859822484890422
227.0, 0.012031560172653914
228.0, 0.013124263681427484
229.0, 0.016011593244708137
230.0, 0.02022472596127872
231.0, 0.025356444218614986
232.0, 0.032070993118684964
233.0, 0.04271204186504114
234.0, 0.05852000697660437
235.0, 0.08088094309584053
236.0, 0.10616648023912334
237.0, 0.12738895221414448
238.0, 0.13380496314554197
239.0, 0.12921574646045614
240.0, 0.12438049757407028
241.0, 0.1263548063989264
242.0, 0.14046873280139527
243.0, 0.17031996089236684
244.0, 0.22379584802361854
245.0, 0.31801733210872923
246.0, 0.45153835345761584
247.0, 0.5947335370074678
248.0, 0.6885479575511423
249.0, 0.638965040322024
250.0, 0.470193853354001
251.0, 0.3193597375816941
252.0, 0.2084661968514098
253.0, 0.1364717318339814
254.0, 0.09030093770652879
255.0, 0.06568309077710564
256.0, 0.04831057820936763
257.0, 0.03820828253757368
258.0, 0.0335786370067376
259.0, 0.03479407358672955
260.0, 0.043729793366439354
261.0, 0.049743426066066194
262.0, 0.0449140210685688
263.0, 0.04284151800942677
264.0, 0.04457524194399353
265.0, 0.046402187474000454
266.0, 0.042719059390106694
267.0, 0.03592964959404707
268.0, 0.029184952231682167
269.0, 0.024006062393074092
270.0, 0.02162569861941157
271.0, 0.022256564159655275
272.0, 0.023416897538157292
273.0, 0.02622261732814113
274.0, 0.03234590729513284
275.0, 0.0414550489511258
276.0, 0.053470283349733215
277.0, 0.06830354090979267
278.0, 0.08272507365755623
279.0, 0.09491115219359973
280.0, 0.10432856275018068
281.0, 0.10822627996271439
282.0, 0.10571357705519213
283.0, 0.09910547163395889
284.0, 0.08813270902011083
285.0, 0.07652994036907168
286.0, 0.06677613406726038
287.0, 0.05723144259708217
288.0, 0.04708258999266471
289.0, 0.040987954400155915
290.0, 0.03572388586673059
291.0, 0.029755031581121506
292.0, 0.023226817650167503
293.0, 0.017710152892222223
294.0, 0.014193948852330121
295.0, 0.008537955925625838
296.0, 0.006486560176838744
297.0, 0.004095186062396183
298.0, 0.0017331961318728145
299.0, 0.0005930610465469729
300.0, 0.0017070801459323115
301.0, 0.0032240867829775905
302.0, 0.004503168860740256
303.0, 0.005012264425038166
304.0, 0.005550086638460052
305.0, 0.006048205341771849
306.0, 0.005315183516101924
307.0, 0.00523310072686998
308.0, 0.006809012226521357
309.0, 0.007036901784304993
310.0, 0.00601049508703016
311.0, 0.004323449229410982
312.0, 0.0019502984732705365
313.0, 0.002605409392061862
314.0, 0.001697545423935698
315.0, 0.0006264805073403354
316.0, 0.0008856068839931524
317.0, 0.003206546639921176
318.0, 0.006574642552712267
319.0, 0.008488700174852776
320.0, 0.012206041594775943
321.0, 0.016705833126074873
322.0, 0.022010840118286107
323.0, 0.02832914827609016
324.0, 0.034529501626855835
325.0, 0.04287950386864975
326.0, 0.05527685988144852
327.0, 0.06696880299623371
328.0, 0.07816031611502414
329.0, 0.09120341346156632
330.0, 0.1016511655106893
331.0, 0.10707221035800318
332.0, 0.10430858290294011
333.0, 0.09658211014498161
334.0, 0.08655806759065916
335.0, 0.07532918603022867
336.0, 0.0620927147243329
337.0, 0.052135620741824325
338.0, 0.04251935697729565
339.0, 0.03365286403113656
340.0, 0.027378065634303575
341.0, 0.0252944573725616
342.0, 0.021713789813585703
343.0, 0.01996892785784848
344.0, 0.01698741413950104
345.0, 0.01555356404248456
346.0, 0.01631120198477436
347.0, 0.016562496495713
348.0, 0.01512258601205678
349.0, 0.016504346231252878
350.0, 0.01812604005598852
351.0, 0.019996529787676683
352.0, 0.021976560035797604
353.0, 0.023407129543995635
354.0, 0.02645822071617866
355.0, 0.02880064336915264
356.0, 0.03316059078257697
357.0, 0.038944914783050864
358.0, 0.04491043300334425
359.0, 0.050331265608193225
360.0, 0.05731841956835886
361.0, 0.06480041101676785
362.0, 0.07177057400585728
363.0, 0.07964112913862785
364.0, 0.0883927875996276
365.0, 0.0955970453546083
366.0, 0.10247527350233447
367.0, 0.10688972706149445
368.0, 0.11274584684731874
369.0, 0.11771388455437293
370.0, 0.12204298366751323
371.0, 0.13073358688599584
372.0, 0.13900985730497487
373.0, 0.15316101959660955
374.0, 0.16602591175024112
375.0, 0.18156899491572323
376.0, 0.19995915604041975
377.0, 0.21419571864619583
378.0, 0.2337120867390064
379.0, 0.2522038627159767
380.0, 0.26925829135517687
381.0, 0.28440378547402156
382.0, 0.2970646444959102
383.0, 0.30715242619337774
384.0, 0.3205065806169726
385.0, 0.328233426926547
386.0, 0.3344147260170322
387.0, 0.3435473971549189
388.0, 0.3553990019386706
389.0, 0.36590773573644814
390.0, 0.3859910949206772
391.0, 0.41430282708959465
392.0, 0.4462450418262847
393.0, 0.48658628839761064
394.0, 0.5382468959458458
395.0, 0.6022941125763819
396.0, 0.6946406883728528
397.0, 0.7880768023015214
398.0, 0.8842975167501486
399.0, 0.9609904862897107
400.0, 0.9971956584407491
401.0, 0.982729025479281
402.0, 0.9272534072386978
403.0, 0.8252876053154669
404.0, 0.7284768142503375
405.0, 0.6367839882221537
406.0, 0.5523342542935511
407.0, 0.482052512894275
408.0, 0.43024873531525526
409.0, 0.38523861079702276
410.0, 0.34997092858359063
411.0, 0.32025693766119506
412.0, 0.291761030423166
413.0, 0.2623308510187907
414.0, 0.23469583298903146
415.0, 0.2104975813517813
416.0, 0.1885834853099398
417.0, 0.17087970058268476
418.0, 0.15542778973826446
419.0, 0.14011702512715773
420.0, 0.1268719773803253
421.0, 0.11483995258211352
422.0, 0.10403765231693726
423.0, 0.09485384798392532
424.0, 0.08595593213768768
425.0, 0.07728057410668435
426.0, 0.07152988125466132
427.0, 0.06610926278217545
428.0, 0.061092914674764055
429.0, 0.0563074243782106
430.0, 0.051844797614409244
431.0, 0.04767723887993534
432.0, 0.04361726968547879
433.0, 0.04003520252959919
434.0, 0.03666008032733084
435.0, 0.03309826233810651
436.0, 0.030012834057575138
437.0, 0.026994112764522207
438.0, 0.023170045319919466
439.0, 0.02064230863909451
440.0, 0.018080162256793077
441.0, 0.015931555447021076
442.0, 0.01380106502311075
443.0, 0.011836317783371492
444.0, 0.010168194654683304
445.0, 0.007793891838030494
446.0, 0.006542206190272746
447.0, 0.005057965953528052
448.0, 0.00451013115401199
449.0, 0.0037635665821222916
450.0, 0.0023237372553332695
451.0, 0.002415540630854779
452.0, 0.0013877795985159935
453.0, 0.0010324844369811932
454.0, 0.0006757361476532874
455.0, 0.0005059686076538673
456.0, 0.0004549291309089194
457.0, 0.0001470883006440687
458.0, 0.0010919143717264775
459.0, 0.00042081233580467384
460.0, 0.00013488300451246205
461.0, 0.0003247765850834751
462.0, 0.0006199263335606091
463.0, 0.0006222657764313254
464.0, 0.00032955088664130146
465.0, 0.0003203160040536839
466.0, 0.00024728984268967806
467.0, 0.0003482354216106009
468.0, 0.0004162875949317523
469.0, 0.0003149210634927123
470.0, 0.00047596107344735476
471.0, 0.0010583776725342537
472.0, 0.001206399885085434
473.0, 0.0011031679605845012
474.0, 0.0008684239764331304
475.0, 0.0005418646550605813
476.0, 0.0002003576445882722
477.0, 0.0006779804737613432
478.0, 0.00027052706833478955
479.0, 0.00025501523302888046
480.0, 0.0005938098694070936
481.0, 0.0009935024971057232
482.0, 0.0011491442157792122
483.0, 0.0009107004949619061
484.0, 0.0004779596079941032
485.0, 0.0001420065210605458
486.0, 6.621974818688319e-05
487.0, 0.00027148473354995315
488.0, 0.0005537676431644016
489.0, 0.0005726441933505116
490.0, 0.001025913307547856
491.0, 0.0011871501589956336
492.0, 0.0012557775795970743
493.0, 0.0016263671593208747
494.0, 0.0018397164453885445
495.0, 0.001362027472580514
496.0, 0.00220188126622276
497.0, 0.0016541620793871336
498.0, 0.0006927940889738536
499.0, 0.0005218665245441017
500.0, 0.0008247580221857779
501.0, 0.0008825531102588301
502.0, 0.0007113012667327931
503.0, 0.0009493974438878236
504.0, 0.0011441599773163334
505.0, 0.0009196608276619269
506.0, 0.0009636570935208779
507.0, 0.0012789185327442849
508.0, 0.0012420361773320388
509.0, 0.0012661486946663534
510.0, 0.001533368317162305
511.0, 0.0014741597155932427
512.0, 0.0014991753530911392
513.0, 0.001586177858013084
514.0, 0.00156532705313235
515.0, 0.00152615514024791
516.0, 0.0026012073836818145
517.0, 0.0033358026361084694
518.0, 0.00415118118180233
519.0, 0.004418264845603181
520.0, 0.0045277412215514665
521.0, 0.005617468254276532
522.0, 0.007548714560719614
523.0, 0.007123983358887431
524.0, 0.007980050231096367
525.0, 0.008732002560928665
526.0, 0.00951568319930771
527.0, 0.010764574432886245
528.0, 0.012262828779371468
529.0, 0.014803300402730177
530.0, 0.01666396281326326
531.0, 0.019546705316510243
532.0, 0.02325117644055326
533.0, 0.02728029066722037
534.0, 0.03152182964901911
535.0, 0.03677042841062828
536.0, 0.04239454062090199
537.0, 0.04769631602817093
538.0, 0.05130815953941498
539.0, 0.054377571044331975
540.0, 0.05717561121308962
541.0, 0.05787128719689021
542.0, 0.05429732397988536
543.0, 0.04884221552635068
544.0, 0.04602544788092445
545.0, 0.041771940550357343
546.0, 0.03678307482880759
547.0, 0.032770562852548514
548.0, 0.027874572647045327
549.0, 0.023641488747949767
550.0, 0.021575238691571325
551.0, 0.019451060871485563
552.0, 0.017330366500405092
553.0, 0.015405233877878177
554.0, 0.013884255602905257
555.0, 0.01370185756865512
556.0, 0.011320888515220055
557.0, 0.010893177296294
558.0, 0.009866291805232246
559.0, 0.00888589383407924
560.0, 0.008487095453244688
561.0, 0.00782507805889386
562.0, 0.00629321887945491
563.0, 0.007775125995901558
564.0, 0.006764826127057325
565.0, 0.005956293207139818
566.0, 0.005888556244053465
567.0, 0.006031651806505662
568.0, 0.006330239487503985
569.0, 0.006448832227037145
570.0, 0.006647938681105724
571.0, 0.006623655788770371
572.0, 0.006059130922674014
573.0, 0.005541888756080468
574.0, 0.005427925118388345
575.0, 0.004454381027521074
576.0, 0.002985373010357759
577.0, 0.0033301078331246896
578.0, 0.0035830221923878716
579.0, 0.0029491240089477497
580.0, 0.002173327873559918
581.0, 0.0020875693641554793
582.0, 0.0008796345691492519
583.0, 0.001098997133099698
584.0, 0.0005413923933154294
585.0, 0.0006296083567309525
586.0, 0.0006997852879907229
587.0, 0.00048624446929521574
588.0, 0.0005965699169892561
589.0, 0.0009008182626268229
590.0, 0.0008246106376022198
591.0, 0.00024872490202374777
592.0, 0.0002506144105865271
593.0, 0.0005943089118658346
594.0, 0.0007575633622524496
595.0, 0.0006600751183154163
596.0, 0.0008342133086155079
597.0, 0.0004874130672823066
598.0, 0.0003800977855672686
599.0, 0.00018659828438733126
600.0, 0.00021163257490285474
601.0, 0.0006516298234332238
602.0, 0.0010440362870882012
603.0, 0.00039047941105953754
604.0, 0.0002914842549260099
605.0, 0.0008034233009285651
606.0, 0.0007702883014085019
607.0, 0.0004920572618023763
608.0, 0.00048191465523614367
609.0, 0.0004426757011603252
610.0, 0.00043667316751864175
611.0, 0.0003938473327607938
612.0, 0.00032937956748071046
613.0, 0.0003102763603939688
614.0, 0.0005414484114906384
615.0, 0.0007159957550204762
616.0, 5.436143373879022e-05
617.0, 0.0005771105398800936
618.0, 0.00046427803420498177
619.0, 0.0004885306613540019
620.0, 0.0003446315679624918
621.0, 0.00036227302430112663
622.0, 0.0005976293653134335
623.0, 0.00029585911586684676
624.0, 0.00041347549649679946
625.0, 0.0009137284708103366
626.0, 0.0005095918483511281
627.0, 0.00019942979936497796
628.0, 0.000485342067902838
629.0, 0.0008258473238585857
630.0, 0.00021068686824650233
631.0, 0.0006835963288081076
632.0, 0.0004888389930241893
633.0, 0.0005078673536549934
634.0, 0.0003930316039201267
635.0, 0.00032308560188354217
636.0, 0.0005610254729786768
637.0, 0.0009022127197682179
638.0, 0.0004959937800645751
639.0, 0.0015897882580930677
640.0, 0.0013615525001779314
641.0, 0.001009477095318272
642.0, 0.0010327284164260398
643.0, 0.00101088685777779
644.0, 0.0004483688096527422
645.0, 0.001136207882316494
646.0, 0.0011649179111631156
647.0, 0.0013131303993803394
648.0, 0.0011636648801437756
649.0, 0.0009451700138574103
650.0, 0.000835030137094158
651.0, 0.0006997052078089534
652.0, 0.000704195867027199
653.0, 0.0015337713977198182
654.0, 0.0010705186863781471
655.0, 0.0009983511464473746
656.0, 0.0011170670418592535
657.0, 0.0009665377811678343
658.0, 0.000727184791626547
659.0, 0.001178021567529875
660.0, 0.000992237761454767
661.0, 0.0008056501323569498
662.0, 0.00120542016048811
663.0, 0.0012093813369921413
664.0, 0.0010387199203276435
665.0, 0.001448185288749292
666.0, 0.001523382628637857
667.0, 0.0011972082877747521
668.0, 0.001324250635206399
669.0, 0.0012142919642913514
670.0, 0.0010104474286755183
671.0, 0.0012532467305546057
672.0, 0.0017520634124707545
673.0, 0.001261867732715177
674.0, 0.0017667100770940932
675.0, 0.001464776868339697
676.0, 0.002372504607385906
677.0, 0.0029411681271661297
678.0, 0.002523612956704249
679.0, 0.002052774317919962
680.0, 0.0028566634665396855
681.0, 0.002853038733164912
682.0, 0.0024248176418887025
683.0, 0.003527976844970078
684.0, 0.003456365752665555
685.0, 0.002630296210437328
686.0, 0.002176328666908843
687.0, 0.00239643215440532
688.0, 0.0026080099558828543
689.0, 0.0034469547375596756
690.0, 0.003700667418962671
691.0, 0.0035857328478811666
692.0, 0.0038858513647205824
693.0, 0.004508565278633473
694.0, 0.004715489047998241
695.0, 0.004118068217478751
696.0, 0.004159318748460287
697.0, 0.005179014841249815
698.0, 0.004887985944299956
699.0, 0.004902729405250484
700.0, 0.005659724216831057
701.0, 0.006162438961998915
702.0, 0.005401830878333405
703.0, 0.005205921451450559
704.0, 0.006632712304557732
705.0, 0.006533166631412704
706.0, 0.00703839527556914
707.0, 0.0069639921685730735
708.0, 0.0066668375956454775
709.0, 0.007465031361419262
710.0, 0.008432172168243803
711.0, 0.008139531914853544
712.0, 0.00880815437721239
713.0, 0.009770284468566825
714.0, 0.009893060832648582
715.0, 0.010250622903159406
716.0, 0.011348844519064212
717.0, 0.011819964975349624
718.0, 0.011812898607697199
719.0, 0.013876348019521282
720.0, 0.014959054485602976
721.0, 0.016272825533857085
722.0, 0.018096961369362456
723.0, 0.019817205735440577
724.0, 0.021095477230266457
725.0, 0.02305342794270961
726.0, 0.026135853874081166
727.0, 0.028414450463491198
728.0, 0.03173945001305388
729.0, 0.03498366525308227
730.0, 0.038267367550152004
731.0, 0.04257526894303468
732.0, 0.04855769180810964
733.0, 0.055409635477037554
734.0, 0.061825510889407555
735.0, 0.07014460692213705
736.0, 0.07668137527837407
737.0, 0.08177222178833989
738.0, 0.0854332865159937
739.0, 0.08664102096710219
740.0, 0.08495839885818852
741.0, 0.08474382739190511
742.0, 0.08012183216563996
743.0, 0.07570304996410863
744.0, 0.07144277809953886
745.0, 0.06727104842352156
746.0, 0.0631811987515919
747.0, 0.05943701104904408
748.0, 0.056880071445146944
749.0, 0.05598848760249527
750.0, 0.05548186020942936
751.0, 0.05643195445290379
752.0, 0.05787168723682261
753.0, 0.05960200606157544
754.0, 0.06294167090998007
755.0, 0.06930429179955647
756.0, 0.07672966543223787
757.0, 0.0844524094200988
758.0, 0.09606760813163337
759.0, 0.1062943449670749
760.0, 0.11806782742758214
761.0, 0.12928499711287103
762.0, 0.1364689129356988
763.0, 0.14140761364794543
764.0, 0.15037409661133894
765.0, 0.1482657978082405
766.0, 0.1451019887077846
767.0, 0.14553928742865474
768.0, 0.1384919582712566
769.0, 0.12580346412621796
770.0, 0.11543403093586786
771.0, 0.10430673203336453
772.0, 0.09322052650827543
773.0, 0.08779211163191324
774.0, 0.07565317879582947
775.0, 0.06165949607500127
776.0, 0.05146536674959189
777.0, 0.04579099751742079
778.0, 0.04175776700959356
779.0, 0.03788822122437965
780.0, 0.0346072345971118
781.0, 0.03148864721148765
782.0, 0.0288439146611586
783.0, 0.026275173568105072
784.0, 0.024009119265144235
785.0, 0.022118163733949914
786.0, 0.020290252136681643
787.0, 0.018418072627010125
788.0, 0.01837757560254665
789.0, 0.01637203493166979
790.0, 0.015631471795383864
791.0, 0.01471262424179074
792.0, 0.013751271856864093
793.0, 0.013272050851109083
794.0, 0.01315938418840196
795.0, 0.012843306053921194
796.0, 0.01308701385255742
797.0, 0.012222997044819755
798.0, 0.012892262268678333
799.0, 0.013085113489765907
800.0, 0.012712840154778714
801.0, 0.013088470945654762
802.0, 0.014088851328534761
803.0, 0.012753215783219526
804.0, 0.014729508406889004
805.0, 0.0141350582932632
806.0, 0.014568477497403679
807.0, 0.016216333340450317
808.0, 0.017783418135900134
809.0, 0.019358854700245082
810.0, 0.02218861562627467
811.0, 0.02631934652706242
812.0, 0.029820710819953848
813.0, 0.03354519261003849
814.0, 0.03983878879321916
815.0, 0.045645869802865065
816.0, 0.05021089438003251
817.0, 0.052223448907664075
818.0, 0.05048592179970524
819.0, 0.04606851981203302
820.0, 0.041021411050169966
821.0, 0.03659775180563441
822.0, 0.03578065612831298
823.0, 0.035581010824835974
824.0, 0.03688252104028661
825.0, 0.04096048411421311
826.0, 0.04676032712270686
827.0, 0.05200570490116277
828.0, 0.05986920201718909
829.0, 0.06632475428580561
830.0, 0.06820871649144859
831.0, 0.07122319306814479
832.0, 0.07459111675898773
833.0, 0.07667345043685744
834.0, 0.0777412303172787
835.0, 0.079691008947613
836.0, 0.082847248315934
837.0, 0.08125080062262054
838.0, 0.083428735886346
839.0, 0.08234420760027729
840.0, 0.07927866147967402
841.0, 0.07542587326099104
842.0, 0.07078820531450662
843.0, 0.06494883362549772
844.0, 0.05841710422908395
845.0, 0.054081979966867685
846.0, 0.047507448284294256
847.0, 0.040963339874174366
848.0, 0.03471886242512837
849.0, 0.03130996266058991
850.0, 0.02889428556651967
851.0, 0.024942077199790937
852.0, 0.021326774224305484
853.0, 0.019225000528707743
854.0, 0.015913095049743746
855.0, 0.014672046200980345
856.0, 0.012050594043632833
857.0, 0.010717186903048898
858.0, 0.009936738292837269
859.0, 0.008603219269101778
860.0, 0.007277850900230682
861.0, 0.005715395947157311
862.0, 0.005956316382669954
863.0, 0.005427469557411814
864.0, 0.004346591377472888
865.0, 0.004147408972484601
866.0, 0.00412339828109379
867.0, 0.004014806932962452
868.0, 0.0038133962214666325
869.0, 0.002926271970844678
870.0, 0.0023305584268425083
871.0, 0.0023367179313370265
872.0, 0.0014880472686470518
873.0, 0.0006617689448104869
874.0, 0.00042385850644970525
875.0, 0.0009401181652294417
876.0, 0.001266418592894072
877.0, 0.0007735604667856873
878.0, 0.0012294720242358751
879.0, 0.002031235008782578
880.0, 0.0014227564130841353
881.0, 0.001170811911613231
882.0, 0.0010716566140726092
883.0, 0.0010702306795396048
884.0, 0.001199716765978052
885.0, 0.0014773298562506258
886.0, 0.0018089555839769414
887.0, 0.001943081042792113
888.0, 0.00199394667513483
889.0, 0.0022672856781548014
890.0, 0.0020494729019341538
891.0, 0.0017586936093048238
892.0, 0.001544416655464127
893.0, 0.0014953142823939103
894.0, 0.001672761630634986
895.0, 0.0018751194478183505
896.0, 0.0015136937669466774
897.0, 0.0015767713952304185
898.0, 0.0015143029709712489
899.0, 0.0022652058949567387
900.0, 0.002553350124280414
901.0, 0.0018429713240898326
902.0, 0.0016682383985839845
903.0, 0.002881180550590055
904.0, 0.0032530390429674925
905.0, 0.004458019575941164
906.0, 0.003199261396316803
907.0, 0.004027686854491059
908.0, 0.003995291851236093
909.0, 0.0037635683091667353
910.0, 0.004034271118966694
911.0, 0.0042671886467705485
912.0, 0.003728300476707553
913.0, 0.0033560939649429494
914.0, 0.005083380381450014
915.0, 0.005149843370987099
916.0, 0.005871725339119953
917.0, 0.006775344405902792
918.0, 0.007247765329479214
919.0, 0.00850367329271956
920.0, 0.00970713989447688
921.0, 0.009607096311634743
922.0, 0.011368049081968867
923.0, 0.01239549818756471
924.0, 0.014955902041353494
925.0, 0.0162633296994373
926.0, 0.01811962425481916
927.0, 0.019970647126075717
928.0, 0.023317116221555054
929.0, 0.027080881416138233
930.0, 0.02889219741679722
931.0, 0.03146200842472159
932.0, 0.03692382581068668
933.0, 0.040259536117222966
934.0, 0.043218549236976794
935.0, 0.04514005853302882
936.0, 0.04622133153813635
937.0, 0.04679316486440877
938.0, 0.04658226469677914
939.0, 0.045053241003159106
940.0, 0.042559847428688374
941.0, 0.04086517013441891
942.0, 0.03937027256640022
943.0, 0.035218275386781926
944.0, 0.03231150335395
945.0, 0.029068350041051648
946.0, 0.025502495293729135
947.0, 0.02262736117447521
948.0, 0.020265298636762567
949.0, 0.01713151595026558
950.0, 0.014613869133544937
951.0, 0.015299018766296756
952.0, 0.012798400159454415
953.0, 0.011322098201102459
954.0, 0.010563791320581606
955.0, 0.009207909122365476
956.0, 0.008019676856163003
957.0, 0.007886979013855294
958.0, 0.007827597037680734
959.0, 0.006993463180185288
960.0, 0.006581058593231641
961.0, 0.006223562178702306
962.0, 0.006203690583274926
963.0, 0.0061018138207613445
964.0, 0.005107383446865148
965.0, 0.004511646687072674
966.0, 0.004606662027478087
967.0, 0.004478414819557791
968.0, 0.0047125755804173
969.0, 0.004858018879515493
970.0, 0.003626149793621041
971.0, 0.003380798446879683
972.0, 0.003291154068825364
973.0, 0.00348237929086204
974.0, 0.0030802661844608267
975.0, 0.003298990387784975
976.0, 0.004120526717831588
977.0, 0.003359523934096387
978.0, 0.0036040717896273617
979.0, 0.0031011312742036763
980.0, 0.0026348644475095175
981.0, 0.0027799548617733908
982.0, 0.0019987544109063148
983.0, 0.0016451603260668193
984.0, 0.0013685368600972248
985.0, 0.0008425787685459332
986.0, 0.0006964335111063954
987.0, 0.0009387382696587525
988.0, 0.0007532876331142575
989.0, 0.0015432896967135287
990.0, 0.0014943605342061987
991.0, 0.0015089855276721944
992.0, 0.000640381063625066
993.0, 6.453798281720802e-05
994.0, 8.793741546605057e-05
995.0, 0.000219278376742523
996.0, 0.00022934971641080509
997.0, 0.00017640544367848
998.0, 0.0008235171819003569
999.0, 0.0007802407031137031
1000.0, 0.0006559920250742637
1001.0, 0.00033589534682244257
1002.0, 0.0005084659072017882
1003.0, 0.0006474774567422507
1004.0, 0.00041297174267691653
1005.0, 0.00010919688655853035
1006.0, 6.619881597793941e-05
1007.0, 0.00019475516827753835
1008.0, 0.0006356701345398514
1009.0, 0.00039833386167897303
1010.0, 0.0008168166330376787
1011.0, 0.0011580118144262483
1012.0, 0.0012143577330101032
1013.0, 0.0007438461233548305
1014.0, 0.00034738508341105895
1015.0, 0.00047055241472060655
1016.0, 0.0006142117292197867
1017.0, 0.0006611091657280693
1018.0, 0.0005692314073518663
1019.0, 0.0013797157393365734
1020.0, 0.0005370248629543563
1021.0, 0.0002922994219912282
1022.0, 0.0005535523481469037
1023.0, 0.0005972908694367883
1024.0, 0.0004747542837601954
1025.0, 0.00043769361646425346
1026.0, 0.0002768481815096969
1027.0, 0.00011697563361272595
1028.0, 0.0003651072603193997
1029.0, 0.00026458975008350456
1030.0, 0.0007161642930594318
1031.0, 0.00024923755483235977
1032.0, 0.00031755988789848236
1033.0, 0.00039943825549985864
1034.0, 0.0002224739028259779
1035.0, 9.944421251184748e-05
1036.0, 0.0002633496313631951
1037.0, 0.0008364411490700143
1038.0, 0.0004261409427016184
1039.0, 0.000980656932891283
1040.0, 0.0009633073793459377
1041.0, 0.0013445321004247478
1042.0, 0.0017698942081490758
1043.0, 0.0013539209488310359
1044.0, 0.0008316304927757092
1045.0, 0.001076695619942047
1046.0, 0.0016944189870676096
1047.0, 0.0018943444519954257
1048.0, 0.0018637721673823123
1049.0, 0.001947618686968724
1050.0, 0.0023619335611281115
1051.0, 0.002591756428597268
1052.0, 0.0022494820685851533
1053.0, 0.002657470285241514
1054.0, 0.002611892727469205
1055.0, 0.0019285321571605387
1056.0, 0.002125340605759027
1057.0, 0.0032126000578604143
1058.0, 0.002904958052699925
1059.0, 0.003281046431329201
1060.0, 0.002893518835680454
1061.0, 0.0029876843474875656
1062.0, 0.00344454811053219
1063.0, 0.004353685169380491
1064.0, 0.004506228137709011
1065.0, 0.004188875375420158
1066.0, 0.003958054813452825
1067.0, 0.004258060721438343
1068.0, 0.005706780520009552
1069.0, 0.005407401427317418
1070.0, 0.006326518653005287
1071.0, 0.007375408854639912
1072.0, 0.008112939796450126
1073.0, 0.008076562151949258
1074.0, 0.009010807634319237
1075.0, 0.009711768631415794
1076.0, 0.010041574903987825
1077.0, 0.010710895358151382
1078.0, 0.011834296686019775
1079.0, 0.01373646353879126
1080.0, 0.013941443470916125
1081.0, 0.016704027632577414
1082.0, 0.017096503152634977
1083.0, 0.01914759019485868
1084.0, 0.022661640259740448
1085.0, 0.02632379118758737
1086.0, 0.03023771127488674
1087.0, 0.035625571158491395
1088.0, 0.04348978921645181
1089.0, 0.053479526497417926
1090.0, 0.06476557822257466
1091.0, 0.08099876451512164
1092.0, 0.10224054786241067
1093.0, 0.12898518254622493
1094.0, 0.15806801014137364
1095.0, 0.1840049632315214
1096.0, 0.19591310909978407
1097.0, 0.1887739853192044
1098.0, 0.1654950246871346
1099.0, 0.13406224617474707
1100.0, 0.10451224039229513
1101.0, 0.08382908132252066
1102.0, 0.06414689651467481
1103.0, 0.05054897145566282
1104.0, 0.04186189921635468
1105.0, 0.03512759754164036
1106.0, 0.02910877982297611
1107.0, 0.024068953974426478
1108.0, 0.021335591906799855
1109.0, 0.01902268765930161
1110.0, 0.01605987642894542
1111.0, 0.014241207777770621
1112.0, 0.013087571169691333
1113.0, 0.011659753173964798
1114.0, 0.011403137951355702
1115.0, 0.009553799707665286
1116.0, 0.008388928157544176
1117.0, 0.008201962809269778
1118.0, 0.00806488931210022
1119.0, 0.006685128422174506
1120.0, 0.006726731981379704
1121.0, 0.00744189139105681
1122.0, 0.006555292282833003
1123.0, 0.006627521278186723
1124.0, 0.005479999892392488
1125.0, 0.005185101902997282
1126.0, 0.004852687019372217
1127.0, 0.0044642188706365835
1128.0, 0.003930391607129223
1129.0, 0.003679464195895718
1130.0, 0.0034814762999825395
1131.0, 0.0029315618331709477
1132.0, 0.0021833831858728177
1133.0, 0.0016973634986412155
1134.0, 0.0017417698451070859
1135.0, 0.002166892712039283
1136.0, 0.0018677569001337097
1137.0, 0.0017005846772525275
1138.0, 0.0008747816301681276
1139.0, 0.001567367506692691
1140.0, 0.0011001584017458859
1141.0, 0.0003415593272097688
1142.0, 2.8437634918799267e-05
1143.0, 0.0005546708552918703
1144.0, 0.0009624509325513126
1145.0, 0.0007224240449309417
1146.0, 0.0007814770085499462
1147.0, 0.0006734020077938486
1148.0, 0.0002966840507330281
1149.0, 0.0003968906075585296
1150.0, 0.0006661317614143161
1151.0, 0.00013423308457453294
1152.0, 1.76523606565569e-05
1153.0, 0.0005015751384129824
1154.0, 0.0004461466796600819
1155.0, 0.00021394920518591398
1156.0, 0.0003225516324377154
1157.0, 0.00039466370270681934
1158.0, 0.0003405042656959644
1159.0, 0.0005648277566489589
1160.0, 0.00020034956383492596
1161.0, 0.0005086216897722146
1162.0, 0.0005994067257908565
1163.0, 0.00013132939250906864
1164.0, 0.00016846587262466097
1165.0, 0.0003348742100024523
1166.0, 0.00023161178131624315
1167.0, 0.00020833786622845543
1168.0, 0.0003219516910521892
1169.0, 0.0006404634105794205
1170.0, 0.000977087503099924
1171.0, 0.000252165963954989
1172.0, 0.0008465379805348929
1173.0, 0.0006921775107329146
1174.0, 0.0004248070248487021
1175.0, 0.0004376573638863984
1176.0, 0.0005898095878067285
1177.0, 0.00027909421973889073
1178.0, 0.0006440087135512822
1179.0, 0.001100177245629226
1180.0, 0.0007542423498023781
1181.0, 0.0004086090398017413
1182.0, 0.0007862797984613633
1183.0, 0.000836563872665168
1184.0, 0.0009402565086158941
1185.0, 0.0007090180352954825
1186.0, 7.506773585169534e-05
1187.0, 0.0009417423661256554
1188.0, 0.00032838137407802467
1189.0, 0.0002802862415268524
1190.0, 0.0004348424579963938
1191.0, 0.0006471946158364655
1192.0, 0.000412492037792643
1193.0, 0.00017598380733619887
1194.0, 0.0006475038161622354
1195.0, 0.0009249398061143384
1196.0, 7.51475890526482e-05
1197.0, 0.00025019246828589334
1198.0, 0.00022901009459422802
1199.0, 0.0002661731365916455
1200.0, 0.00028230828670571087
1201.0, 0.00025074544387747175
1202.0, 0.0002710850181886264
1203.0, 0.00022720396128406598
1204.0, 0.00033850744617444693
1205.0, 0.00048393389857363605
1206.0, 0.0006155901118262426
1207.0, 0.0005873366416050673
1208.0, 0.00027486103862455266
1209.0, 0.000309538457213667
1210.0, 0.0003395056985985871
1211.0, 0.0002670363332871422
1212.0, 0.00015188017518250643
1213.0, 0.00016915306018278677
1214.0, 0.0003442574802518795
1215.0, 0.0006098509936318233
1216.0, 0.0003386780090281152
1217.0, 0.00041052411234629525
1218.0, 0.0005027421542053135
1219.0, 0.0003467982957132944
1220.0, 0.00030447344706310906
1221.0, 0.0003556328603174708
1222.0, 0.00032758653306971824
1223.0, 0.00040839976267467145
1224.0, 0.0004240009351315743
1225.0, 0.0004890536507376225
1226.0, 0.00023325524282806742
1227.0, 0.00023734075771815325
1228.0, 0.00011494858453619481
1229.0, 9.483433120333561e-05
1230.0, 0.00021424838008988285
1231.0, 0.00013897168048251945
1232.0, 0.00022137301892317728
1233.0, 0.0004930705414372228
1234.0, 0.0004072742290310543
1235.0, 0.0003821342647696926
1236.0, 0.0010473392764987106
1237.0, 0.00025186276435401123
1238.0, 0.00043457662895656234
1239.0, 0.0007386305928705702
1240.0, 0.0003544075094264872
1241.0, 0.00027523132338030444
1242.0, 0.000320210098918088
1243.0, 0.0006104924932239617
1244.0, 0.001085421587755134
1245.0, 0.0009331270567869909
1246.0, 0.0005200300587992624
1247.0, 0.0005632849948141697
1248.0, 0.0006617765893647293
1249.0, 0.00033226503475176894
1250.0, 8.210602383372132e-05
1251.0, 0.0002712493800260615
1252.0, 0.000667500280260692
1253.0, 7.059504962924007e-05
1254.0, 0.0002355422391657984
1255.0, 0.00029659314358074316
1256.0, 0.0003236968530317979
1257.0, 0.00038956782660314797
1258.0, 0.0004071366665795796
1259.0, 0.0002924750067587266
1260.0, 0.00017050075422371275
1261.0, 0.00011262328575563196
1262.0, 9.423708913084264e-05
1263.0, 0.000177077896007648
1264.0, 0.00038716853022836926
1265.0, 0.0007423363402950646
1266.0, 0.001057587221907834
1267.0, 0.0005156127964630393
1268.0, 0.0005121073278116293
1269.0, 0.00044328487628443104
1270.0, 0.0007608107813734897
1271.0, 0.00040178454775909364
1272.0, 0.000996865853952184
1273.0, 0.00115012791012395
1274.0, 0.0008204446462545642
1275.0, 0.0007741203558073124
1276.0, 0.0008168839328272141
1277.0, 0.0008567771450884372
1278.0, 0.001146170524302388
1279.0, 0.0010647257921301606
1280.0, 0.0010613465055859823
1281.0, 0.0012109772510646684
1282.0, 0.0022707316622500246
1283.0, 0.0006469378811205481
1284.0, 0.001609080513265556
1285.0, 0.0011800213932740332
1286.0, 0.001133605194748929
1287.0, 0.0012819565129124591
1288.0, 0.0008130760708874431
1289.0, 0.0011977785966665782
1290.0, 0.0015770451836328275
1291.0, 0.0014689736236480648
1292.0, 0.001475749747583815
1293.0, 0.0006506833981991905
1294.0, 0.0011204736939993524
1295.0, 0.0006029094734152533
1296.0, 0.001081336610017336
1297.0, 0.0009172175871757571
1298.0, 0.0012852851420132993
1299.0, 0.0014761201743832323
1300.0, 0.001195831898971722
1301.0, 0.0015976996479028468
1302.0, 0.0012045660208233726
1303.0, 0.001352841531234437
1304.0, 0.0009931720513594317
1305.0, 0.0005734252956979559
1306.0, 0.0009705405085406448
1307.0, 0.001241043454065512
1308.0, 0.0009870471359964502
1309.0, 0.0009603746603591915
1310.0, 0.0009021171467204613
1311.0, 0.00037413090310722835
1312.0, 0.0008917992153136556
1313.0, 0.0003814970447207826
1314.0, 0.0006182778842976459
1315.0, 0.0005776975876383639
1316.0, 0.0005488601208931528
1317.0, 0.00032517683577226513
1318.0, 0.00035397407650868503
1319.0, 0.0008624024388528054
1320.0, 0.0013124488087722258
1321.0, 0.0008014060936064474
1322.0, 0.00043131485961868464
1323.0, 0.0008036131930467468
1324.0, 0.0008901380438306466
1325.0, 0.0012713667625064455
1326.0, 0.0011138403125192946
1327.0, 0.0005826322519709119
1328.0, 0.0006428500557972935
1329.0, 0.0008498305695272245
1330.0, 0.0006051657741759935
1331.0, 0.0006904819427136116
1332.0, 0.0008327035799007363
1333.0, 0.0006790691536958441
1334.0, 0.000893096675879154
1335.0, 0.0009498008738615985
1336.0, 0.0012385632134574
1337.0, 0.0008632923571740649
1338.0, 0.00044725272713629386
1339.0, 0.0005399118389021344
1340.0, 0.0006207211235797242
1341.0, 0.000890338372064523
1342.0, 0.000790521895169884
1343.0, 0.000908303592540277
1344.0, 0.0006033635100594837
1345.0, 0.0007162152103353896
1346.0, 0.0006288567468193904
1347.0, 0.00039946512091806587
1348.0, 0.0006704208165467791
1349.0, 0.0003408113879944302
1350.0, 0.000753347764340579
1351.0, 0.001325729406654277
1352.0, 0.0010810429245429437
1353.0, 0.0009801875532671354
1354.0, 0.00097176767384363
1355.0, 0.00046891054698467105
1356.0, 0.0004137186172653566
1357.0, 0.0008591529463536149
1358.0, 0.0006207862591139316
1359.0, 0.0005292851216571833
1360.0, 0.0007339452254445469
1361.0, 0.0007107678374934036
1362.0, 0.0006115049798875514
1363.0, 0.0008318657598274607
1364.0, 0.000723755507024971
1365.0, 0.0007188031171893144
1366.0, 0.0014868581712756859
1367.0, 0.0009568836875801916
1368.0, 0.0015055979890553157
1369.0, 0.0017562317537059907
1370.0, 0.0013207805290840829
1371.0, 0.0018725534083005946
1372.0, 0.0014778524464357729
1373.0, 0.0018414841937596648
1374.0, 0.0030116870406447366
1375.0, 0.0027369113842774045
1376.0, 0.002441964295849864
1377.0, 0.002590844670890182
1378.0, 0.0029411852367361054
1379.0, 0.0035757580231908083
1380.0, 0.0035773327430881734
1381.0, 0.004906542531013731
1382.0, 0.0033653506866533215
1383.0, 0.005220050344712448
1384.0, 0.004858972027189288
1385.0, 0.005706930312630254
1386.0, 0.0048360214118572786
1387.0, 0.004419914646561955
1388.0, 0.005518730558356603
1389.0, 0.005632184092675068
1390.0, 0.005350626239823406
1391.0, 0.0057009520917761965
1392.0, 0.005927536267105917
1393.0, 0.006234367216485375
1394.0, 0.006862134232957023
1395.0, 0.007104956621957163
1396.0, 0.007510718189909559
1397.0, 0.00805013334145004
1398.0, 0.008755215007061503
1399.0, 0.009595548721693605
1400.0, 0.01063179254809002
1401.0, 0.011727503781432749
1402.0, 0.013055545280964928
1403.0, 0.014542592383033699
1404.0, 0.01628219117623516
1405.0, 0.01811631035699148
1406.0, 0.02046116548164985
1407.0, 0.022328241512770658
1408.0, 0.025146311691309722
1409.0, 0.02944314975122549
1410.0, 0.03503924192583344
1411.0, 0.040718956889953105
1412.0, 0.048988107568648596
1413.0, 0.059729225480132875
1414.0, 0.07233500085911408
1415.0, 0.0897556131851248
1416.0, 0.11123148614927923
1417.0, 0.13541209845586305
1418.0, 0.15636344367598576
1419.0, 0.16650240223398557
1420.0, 0.16668470989375006
1421.0, 0.15220341205107082
1422.0, 0.13823996164671307
1423.0, 0.12711509084874192
1424.0, 0.12223012376134898
1425.0, 0.12479492269144361
1426.0, 0.13869205895295192
1427.0, 0.1662380473756899
1428.0, 0.19442698550509568
1429.0, 0.22230267274719445
1430.0, 0.23545952071964715
1431.0, 0.22461731030325052
1432.0, 0.19533068352504707
1433.0, 0.15818186508753945
1434.0, 0.1212748457945539
1435.0, 0.09183380236696587
1436.0, 0.07175356860444596
1437.0, 0.056484537328311664
1438.0, 0.04549762299392058
1439.0, 0.037059216973876936
1440.0, 0.03039465184910446
1441.0, 0.024301324284795558
1442.0, 0.021230324060794465
1443.0, 0.019227863450699344
1444.0, 0.017458835638509702
1445.0, 0.01527092733567429
1446.0, 0.014079712189420767
1447.0, 0.012262975936117039
1448.0, 0.011481173853634037
1449.0, 0.011193356198437733
1450.0, 0.011242354613259925
1451.0, 0.012427591818343277
1452.0, 0.014157052629397973
1453.0, 0.016915352658428674
1454.0, 0.02110483642692154
1455.0, 0.027453946557911613
1456.0, 0.037590174366079906
1457.0, 0.05059882083878052
1458.0, 0.061945771573991566
1459.0, 0.0654056923160283
1460.0, 0.056895373347740266
1461.0, 0.04205577383838386
1462.0, 0.030810116602861655
1463.0, 0.021477468371467627
1464.0, 0.016239052582070528
1465.0, 0.01163956632489119
1466.0, 0.009332973746331056
1467.0, 0.00601100945321422
1468.0, 0.004766812185289653
1469.0, 0.0051242845625868155
1470.0, 0.0041621686988195395
1471.0, 0.0030683705047241955
1472.0, 0.0030904426296302356
1473.0, 0.0032756919871122334
1474.0, 0.003165169529665876
1475.0, 0.0030056412407323276
1476.0, 0.0032111796676124785
1477.0, 0.0026441338075073573
1478.0, 0.0024485317994880373
1479.0, 0.0024041924445794612
1480.0, 0.0023886952860681125
1481.0, 0.002674350563344014
1482.0, 0.003016487157210142
1483.0, 0.0031189168965126985
1484.0, 0.0031491577728799455
1485.0, 0.0030721473702644006
1486.0, 0.002144010734005297
1487.0, 0.0021644453860568224
1488.0, 0.001838536522806147
1489.0, 0.0025413988825064497
1490.0, 0.0018549513557404136
1491.0, 0.0025115826475388212
1492.0, 0.0018008121462150858
1493.0, 0.0012673145634168649
1494.0, 0.0011073675895425707
1495.0, 0.0014016323915134615
1496.0, 0.0020262789724300877
1497.0, 0.0013015107297007734
1498.0, 0.001047405789295522
1499.0, 0.0007010660398695644
1500.0, 0.0013714464625637214
1501.0, 0.0005325013959936739
1502.0, 0.0009469091458436756
1503.0, 0.0010953323788651381
1504.0, 0.0019742558489397885
1505.0, 0.0018177315732135681
1506.0, 0.0012667144399400464
1507.0, 0.0016115125344017414
1508.0, 0.0020102553177832544
1509.0, 0.002153620119655897
1510.0, 0.0023280431662017495
1511.0, 0.002375197398284845
1512.0, 0.0022157535882029677
1513.0, 0.0019063998906138303
1514.0, 0.0017247773751149734
1515.0, 0.0023564343447870667
1516.0, 0.002196836891941403
1517.0, 0.0014048337587791967
1518.0, 0.0011310849339313434
1519.0, 0.002538070544519425
1520.0, 0.0028911582721883643
1521.0, 0.00320226491281997
1522.0, 0.0030454595024298186
1523.0, 0.0033666828233052505
1524.0, 0.0029554545015475346
1525.0, 0.0035430340587716226
1526.0, 0.0035497719582414256
1527.0, 0.0035521674314878343
1528.0, 0.003327279800339236
1529.0, 0.002574319115988883
1530.0, 0.0031803850593717007
1531.0, 0.0021629119517110862
1532.0, 0.0029911312758513545
1533.0, 0.0030126835389204633
1534.0, 0.0029574314410903695
1535.0, 0.003344253889301704
1536.0, 0.00295354635335456
1537.0, 0.00283188259067867
1538.0, 0.002826136400353567
1539.0, 0.003225863054465654
1540.0, 0.0033259498793473483
1541.0, 0.0027121967247104076
1542.0, 0.002263341276865987
1543.0, 0.001360767156055984
1544.0, 0.0015151443905176529
1545.0, 0.0018467984648095482
1546.0, 0.001947222638529021
1547.0, 0.0018716203612130244
1548.0, 0.0015223214474902407
1549.0, 0.001946176747608425
1550.0, 0.002258447023216024
1551.0, 0.0018530919840815587
1552.0, 0.002682776954010659
1553.0, 0.002839579906430621
1554.0, 0.004025204929732389
1555.0, 0.004986251335659097
1556.0, 0.0047387763125001986
1557.0, 0.0020434408445682752
1558.0, 0.0005657122537315013
1559.0, 0.00046885734346690524
1560.0, 0.0005356172827827223
1561.0, 0.0005002835133428695
1562.0, 0.0011701736736435156
1563.0, 0.0007725880906308248
1564.0, 0.0011530956083245683
1565.0, 0.001959483184343801
1566.0, 0.0011118591458589607
1567.0, 0.0015617024532666468
1568.0, 0.0022658904726710638
1569.0, 0.0008646884724548729
1570.0, 0.0018033046049781053
1571.0, 0.0011439550647147456
1572, 0.0
1573, 0.0
1574, 0.0
1575, 0.0
1576, 0.0
1577, 0.0
1578, 0.0
1579, 0.0
1580, 0.0
1581, 0.0
1582, 0.0
1583, 0.0
1584, 0.0
1585, 0.0
1586, 0.0
1587, 0.0
1588, 0.0
1589, 0.0
1590, 0.0
1591, 0.0
1592, 0.0
1593, 0.0
1594, 0.0
1595, 0.0
1596, 0.0
1597, 0.0
1598, 0.0
1599, 0.0
