30, 0.0
31, 0.0
32, 0.0
33, 0.0
34, 0.0
35, 0.0
36, 0.0
37, 0.0
38, 0.0
39, 0.0
40, 0.0
41, 0.0
42, 0.0
43, 0.0
44, 0.0
45, 0.0
46, 0.0
47, 0.0
48, 0.0
49, 0.0
50, 0.0
51, 0.0
52, 0.0
53.0, 0.000125684077923951
54.0, 0.0005109840613697692
55.0, 0.0009294637521120511
56.0, 0.0010661479247582083
57.0, 0.0009584059116933321
58.0, 0.0006855708945535208
59.0, 0.00038797035857507855
60.0, 0.0003789034323967908
61.0, 0.0001143058078772052
62.0, 0.00012123458679928639
63.0, 0.0002773215188259258
64.0, 0.000380637990709514
65.0, 0.0002884334125090797
66.0, 0.00011324537472072205
67.0, 0.000596597868661121
68.0, 0.0016019532572513686
69.0, 0.0031927641425112466
70.0, 0.005792240202692884
71.0, 0.0096452757356189
72.0, 0.012594502614333898
73.0, 0.014337863060362221
74.0, 0.015829532451634366
75.0, 0.018939710062292225
76.0, 0.02512141521471947
77.0, 0.033794828467946667
78.0, 0.04331306068917153
79.0, 0.05698364673041372
80.0, 0.08058732898842522
81.0, 0.12373939667080014
82.0, 0.1907509378315414
83.0, 0.2508917464503194
84.0, 0.2709521577298292
85.0, 0.23276529942513066
86.0, 0.1596470671221195
87.0, 0.11019302430020927
88.0, 0.0794749997656337
89.0, 0.06129180528514858
90.0, 0.05058678531063997
91.0, 0.04526822766155976
92.0, 0.04517744484076476
93.0, 0.04355232042164455
94.0, 0.040590497966698016
95.0, 0.03808216629619373
96.0, 0.038428560487551264
97.0, 0.03592278561485029
98.0, 0.03374030551267103
99.0, 0.03379425654951199
100.0, 0.035126696572856816
101.0, 0.035610413441989716
102.0, 0.033363664524517174
103.0, 0.03253716202995741
104.0, 0.03278502854914367
105.0, 0.03397211615968072
106.0, 0.03635107558670428
107.0, 0.041139733818646294
108.0, 0.04758356302806777
109.0, 0.05839461834007094
110.0, 0.07065686809101339
111.0, 0.07989928063877216
112.0, 0.0808162003465169
113.0, 0.07335721224453298
114.0, 0.0622612976096624
115.0, 0.052052746892683924
116.0, 0.045817200930450885
117.0, 0.04438777566990278
118.0, 0.03975325519943499
119.0, 0.03638795726107531
120.0, 0.03342747269074978
121.0, 0.031649755085236014
122.0, 0.03136993821343816
123.0, 0.03075436348590423
124.0, 0.030236206777265597
125.0, 0.03140755822165202
126.0, 0.031860380009024906
127.0, 0.031114627465331442
128.0, 0.03132273756623835
129.0, 0.03266645860933402
130.0, 0.03562175472826981
131.0, 0.03890552283251487
132.0, 0.04070484661136964
133.0, 0.039860740556892954
134.0, 0.04069007496210832
135.0, 0.04179088028372529
136.0, 0.04612449368240189
137.0, 0.05335050761953124
138.0, 0.06299726948895289
139.0, 0.07628458847920716
140.0, 0.09338720817797423
141.0, 0.11630481327385243
142.0, 0.1425749101479618
143.0, 0.16359015344417158
144.0, 0.16568459768481283
145.0, 0.135218834337745
146.0, 0.10194032781874858
147.0, 0.07679636019526603
148.0, 0.060311363524423255
149.0, 0.049210791397318585
150.0, 0.04419173403524278
151.0, 0.043072373658549955
152.0, 0.0449752940305988
153.0, 0.049340134740401935
154.0, 0.053288607109595446
155.0, 0.0506691159587566
156.0, 0.04178437349307212
157.0, 0.03549279097449503
158.0, 0.0301234057227075
159.0, 0.025958706845707103
160.0, 0.024244789859522182
161.0, 0.02394471285356237
162.0, 0.023117199790228696
163.0, 0.02328573027297609
164.0, 0.024693390939118546
165.0, 0.027243477552983047
166.0, 0.030851271892738768
167.0, 0.03431642125463017
168.0, 0.038538306990586475
169.0, 0.0451339257326561
170.0, 0.053312415317154874
171.0, 0.05988920641875484
172.0, 0.05768774894704669
173.0, 0.050295843535937065
174.0, 0.044088449841074163
175.0, 0.04051443746760354
176.0, 0.04012831611943265
177.0, 0.04579165734076399
178.0, 0.05153133764419561
179.0, 0.0534282000159975
180.0, 0.05212569904225504
181.0, 0.04872380659461466
182.0, 0.04445160358189155
183.0, 0.04303555801372611
184.0, 0.04495116066984244
185.0, 0.04842447043057662
186.0, 0.05375081857287422
187.0, 0.06187549914733095
188.0, 0.07367160865531146
189.0, 0.090971950263961
190.0, 0.1137241134654306
191.0, 0.14206307425120004
192.0, 0.17386202533896203
193.0, 0.20430390995232026
194.0, 0.21932806709257993
195.0, 0.21054077750087802
196.0, 0.18809480385797592
197.0, 0.16084097432905253
198.0, 0.13533406993489008
199.0, 0.11160487314372664
200.0, 0.09338374276089387
201.0, 0.08052823378397565
202.0, 0.0710751270343375
203.0, 0.0634274307650256
204.0, 0.05662645631471664
205.0, 0.04770992808078474
206.0, 0.03828396284723685
207.0, 0.03076786664853917
208.0, 0.0257893015579445
209.0, 0.023078628476428616
210.0, 0.02188144060941598
211.0, 0.020025444185619544
212.0, 0.019265465244693743
213.0, 0.018200442172380073
214.0, 0.01709866536328863
215.0, 0.017410902278710585
216.0, 0.015539046543896793
217.0, 0.013878343262197132
218.0, 0.012730418016973749
219.0, 0.01147339839871338
220.0, 0.009976151806822858
221.0, 0.009706746424502385
222.0, 0.009545701319428244
223.0, 0.008777853134032659
224.0, 0.008260666983371384
225.0, 0.008326891378545255
226.0, 0.00873658950951546
227.0, 0.008366665908168067
228.0, 0.008034771060987754
229.0, 0.00853074000589173
230.0, 0.009038449158782587
231.0, 0.009399482228711563
232.0, 0.01084356851935631
233.0, 0.012664191636495188
234.0, 0.015108825110313967
235.0, 0.019215156850311072
236.0, 0.0236500954760592
237.0, 0.02650794060142391
238.0, 0.027719812928050258
239.0, 0.027390591332697403
240.0, 0.02752194504487742
241.0, 0.0310854948556148
242.0, 0.03868757096454134
243.0, 0.049134858822422134
244.0, 0.06900568686243576
245.0, 0.10210249565652876
246.0, 0.14756390125147556
247.0, 0.18991278629783398
248.0, 0.20951691847143816
249.0, 0.188328872000768
250.0, 0.13930933522636796
251.0, 0.09875946177179923
252.0, 0.06912007154820156
253.0, 0.0488938366976021
254.0, 0.034792456954392474
255.0, 0.025750672878932977
256.0, 0.019792559384816746
257.0, 0.01612133511444571
258.0, 0.014085257209634307
259.0, 0.013824103197015256
260.0, 0.01606513223874044
261.0, 0.018641812764804384
262.0, 0.015898271351156956
263.0, 0.013067575035877809
264.0, 0.012326015199065824
265.0, 0.013214472738548703
266.0, 0.012029838231192847
267.0, 0.011283010927156879
268.0, 0.00989183172662363
269.0, 0.009030954852070361
270.0, 0.008751336825973633
271.0, 0.008546197193057424
272.0, 0.008213210653870942
273.0, 0.009611915116792416
274.0, 0.009998779284077063
275.0, 0.011912084412298954
276.0, 0.015230836370541262
277.0, 0.01762824245771927
278.0, 0.021603517979780443
279.0, 0.0244971760735949
280.0, 0.02611639971111255
281.0, 0.026405546867589096
282.0, 0.026120704269219426
283.0, 0.02675021064830518
284.0, 0.022872474945871735
285.0, 0.01928593061578869
286.0, 0.016157564540786044
287.0, 0.013589586930589535
288.0, 0.011238628782752672
289.0, 0.007854372420753377
290.0, 0.007526553146958575
291.0, 0.006199405685752565
292.0, 0.004528144807331612
293.0, 0.0029929927335095516
294.0, 0.001841541675418993
295.0, 0.0012324944751419327
296.0, 0.0008798505352140487
297.0, 0.001109966464561685
298.0, 0.0012569630851011477
299.0, 0.0014560580595200626
300.0, 0.002315255804253675
301.0, 0.002331859785357016
302.0, 0.002604866656880505
303.0, 0.0034339508193180603
304.0, 0.0035267971299154355
305.0, 0.0029556094244843267
306.0, 0.003524708960745911
307.0, 0.0032382916612150284
308.0, 0.0031734548378242783
309.0, 0.0032097546449285277
310.0, 0.0031968985118579992
311.0, 0.00291889608632755
312.0, 0.0021336400874317203
313.0, 0.0025479238601855687
314.0, 0.0024252278105138026
315.0, 0.001970445364020761
316.0, 0.0016269320875662045
317.0, 0.0016020783436924526
318.0, 0.0013547653494330237
319.0, 0.001175174497978057
320.0, 0.0005020090635399941
321.0, 0.0005851233324287781
322.0, 0.0014721603440309458
323.0, 0.0026658884724918962
324.0, 0.004212715902791614
325.0, 0.005768898791151093
326.0, 0.0076967183535987084
327.0, 0.009747605672165765
328.0, 0.01176135150872442
329.0, 0.013721238305361065
330.0, 0.015801550270357755
331.0, 0.015902716358396237
332.0, 0.01583965960675771
333.0, 0.014855278931183248
334.0, 0.013209715002361995
335.0, 0.011948839587808853
336.0, 0.01074973013621222
337.0, 0.008923882566358857
338.0, 0.007270326763567893
339.0, 0.006199073645923854
340.0, 0.005584283283131912
341.0, 0.0049266884339531185
342.0, 0.004406669136499885
343.0, 0.003973397996683382
344.0, 0.0044924866030398945
345.0, 0.004954145104216465
346.0, 0.005058019253903616
347.0, 0.005501052491828072
348.0, 0.005398781914043799
349.0, 0.005976452979382611
350.0, 0.007161953958848131
351.0, 0.008045639725880908
352.0, 0.008412723588781326
353.0, 0.00912572051054308
354.0, 0.011101350939553035
355.0, 0.011313678042582539
356.0, 0.01204100223951454
357.0, 0.013340849073808846
358.0, 0.015208021703958697
359.0, 0.017987720556052078
360.0, 0.019289743647101565
361.0, 0.021949377524711756
362.0, 0.024245764158380728
363.0, 0.026451534973019577
364.0, 0.029151128384417205
365.0, 0.032535753200306744
366.0, 0.03553043339545432
367.0, 0.03812161841937182
368.0, 0.04154979044115449
369.0, 0.04540122561456319
370.0, 0.04939894423451833
371.0, 0.054008563835333694
372.0, 0.05931764528317433
373.0, 0.06606026353760153
374.0, 0.07341193252881902
375.0, 0.08155160876521286
376.0, 0.09033378593800903
377.0, 0.09902339223253553
378.0, 0.10843974672030768
379.0, 0.12099258213457494
380.0, 0.13097547421848726
381.0, 0.14105168397390774
382.0, 0.1519553929207833
383.0, 0.16022397504281607
384.0, 0.16963807197489758
385.0, 0.1779564065691508
386.0, 0.18660054716720523
387.0, 0.19669523615069953
388.0, 0.20888799117005702
389.0, 0.2235002325897326
390.0, 0.24307933638901744
391.0, 0.27180083007709843
392.0, 0.31121700718707224
393.0, 0.36125600324843604
394.0, 0.42354997645256054
395.0, 0.5019866896623348
396.0, 0.6030088647244605
397.0, 0.7212125939821727
398.0, 0.8382633799983108
399.0, 0.9354561350285225
400.0, 0.9924879035888315
401.0, 0.9925618388598665
402.0, 0.9305771626920895
403.0, 0.8220900059300547
404.0, 0.708599350623997
405.0, 0.5986499094546707
406.0, 0.5016537754144739
407.0, 0.4249579764353907
408.0, 0.35925234115508226
409.0, 0.3106116080221898
410.0, 0.26933853590852125
411.0, 0.2363548728041544
412.0, 0.20840667523160653
413.0, 0.1819490630443546
414.0, 0.16127410283542012
415.0, 0.1457179487503823
416.0, 0.1318222980176626
417.0, 0.11894545124790894
418.0, 0.10820200549369623
419.0, 0.09969879806255408
420.0, 0.08976217577296851
421.0, 0.08336711000160972
422.0, 0.07696103722431676
423.0, 0.07230710994957928
424.0, 0.06841513847283419
425.0, 0.06423405841572502
426.0, 0.060372382883284434
427.0, 0.05648146556984889
428.0, 0.05429196959441542
429.0, 0.05219996824003866
430.0, 0.04924341795456087
431.0, 0.04605460087356908
432.0, 0.04443096138908113
433.0, 0.04201646928893949
434.0, 0.04020251369274608
435.0, 0.03806622077312529
436.0, 0.0359854294904782
437.0, 0.034034896718411055
438.0, 0.031917400348912696
439.0, 0.0298264419091112
440.0, 0.02823094192118841
441.0, 0.02627916783231214
442.0, 0.025032489107495393
443.0, 0.02382549498825715
444.0, 0.02170172717736893
445.0, 0.020276910257748096
446.0, 0.018906725235763557
447.0, 0.018621222577331932
448.0, 0.01872365070286996
449.0, 0.018058202902153927
450.0, 0.01670738790706774
451.0, 0.01689086142111417
452.0, 0.015292646546654824
453.0, 0.015056829467773352
454.0, 0.014711520917144909
455.0, 0.014632021572314543
456.0, 0.01499647836269478
457.0, 0.015146834623415721
458.0, 0.014409299200163764
459.0, 0.013888411675328073
460.0, 0.014483724301005025
461.0, 0.013941647101027266
462.0, 0.013214490305042795
463.0, 0.014391993632267227
464.0, 0.013722429351656441
465.0, 0.013665956461843558
466.0, 0.013878084617458613
467.0, 0.013813520582477657
468.0, 0.013726223849526395
469.0, 0.013872993162623942
470.0, 0.013718150088878047
471.0, 0.012531980982557069
472.0, 0.0129554153433009
473.0, 0.012818674579070096
474.0, 0.012622994347022597
475.0, 0.012479258420205587
476.0, 0.011563889301513001
477.0, 0.011681166652936507
478.0, 0.011488586965468941
479.0, 0.011297317900748444
480.0, 0.011109650627268564
481.0, 0.01098328651248863
482.0, 0.010970743442006855
483.0, 0.010934742928379163
484.0, 0.010932015310434296
485.0, 0.010951637072658178
486.0, 0.010985597175743803
487.0, 0.010867435680294545
488.0, 0.010619579184443331
489.0, 0.010587969829390595
490.0, 0.010551557467114558
491.0, 0.010700522018844496
492.0, 0.010476706094133054
493.0, 0.010281827907452228
494.0, 0.01014203718016334
495.0, 0.009701405062874263
496.0, 0.009042256462700246
497.0, 0.00861375186241157
498.0, 0.008505372893052556
499.0, 0.007949132050234526
500.0, 0.00750311257696415
501.0, 0.007501363369309906
502.0, 0.006867487469048509
503.0, 0.006886157817004896
504.0, 0.006660718162605409
505.0, 0.005964592810434846
506.0, 0.005149718395412896
507.0, 0.004800760891172384
508.0, 0.005137148628035144
509.0, 0.004702870869610737
510.0, 0.004041495575845917
511.0, 0.00430249055476279
512.0, 0.003980270801264632
513.0, 0.0036467022674542323
514.0, 0.0037641314873385926
515.0, 0.002897186259249897
516.0, 0.0034533731913494424
517.0, 0.002939908251366172
518.0, 0.002844589801573644
519.0, 0.0030995918972211937
520.0, 0.003338210639274998
521.0, 0.00333149376607188
522.0, 0.0031774622918804875
523.0, 0.002716116427430694
524.0, 0.0029346810038672006
525.0, 0.003256027291575369
526.0, 0.0035695856556704703
527.0, 0.004115243331635975
528.0, 0.0051293821865596775
529.0, 0.005466731706615372
530.0, 0.006489400761769973
531.0, 0.007026481897786729
532.0, 0.008021539510402232
533.0, 0.009360716409046503
534.0, 0.01042614842269724
535.0, 0.01209283644525966
536.0, 0.015032726345270177
537.0, 0.017701740233772516
538.0, 0.019829619767235757
539.0, 0.02151130013618179
540.0, 0.022901145385276166
541.0, 0.023909439080326528
542.0, 0.023594570041901235
543.0, 0.022969444232182144
544.0, 0.0203851462165282
545.0, 0.018199905376662596
546.0, 0.016684085640628208
547.0, 0.015017358333680618
548.0, 0.01301630625223787
549.0, 0.011091592811763433
550.0, 0.0096367003457188
551.0, 0.008825095003235871
552.0, 0.00815688840881322
553.0, 0.007371387857255703
554.0, 0.006607920510810211
555.0, 0.006190424314525169
556.0, 0.005370302109506838
557.0, 0.005162186092022144
558.0, 0.004968832853600748
559.0, 0.004715941205288784
560.0, 0.004094750899374062
561.0, 0.0029008666006389468
562.0, 0.003637599668140312
563.0, 0.003379008865550864
564.0, 0.0026208698995756185
565.0, 0.0027770727654485797
566.0, 0.0027207480166239607
567.0, 0.001895602334055783
568.0, 0.0023184594971496727
569.0, 0.003067628578777246
570.0, 0.0027450031473929097
571.0, 0.0024342772903833904
572.0, 0.0018732683074664652
573.0, 0.0014789771896568614
574.0, 0.0017396448040351725
575.0, 0.002070818931145902
576.0, 0.0011941742056636884
577.0, 0.0010796768303771133
578.0, 0.000791151141010069
579.0, 0.0004529105610361922
580.0, 0.0003571957553541983
581.0, 0.0005223372003397064
582.0, 0.0004229020479994041
583.0, 0.0005338808192734735
584.0, 0.0006330582864343383
585.0, 0.0007395401113992886
586.0, 0.0007103160244450458
587.0, 0.0005139574634805228
588.0, 0.0003158757454371506
589.0, 0.00038981521585685963
590.0, 0.00012588770758233177
591.0, 0.00019092552335009383
592.0, 0.0001583237910253952
593.0, 0.0001290490032304573
594.0, 0.00031603947384485767
595.0, 0.0006297575294811064
596.0, 0.0001941398805992524
597.0, 5.375997032774469e-05
598.0, 0.00017262478120281377
599.0, 0.00013512345941238518
600.0, 7.886669111666807e-05
601.0, 0.00010855850968839708
602.0, 3.599337275772756e-05
603.0, 0.00027721139406463734
604.0, 0.00025050821419909773
605.0, 0.00012015824970886381
606.0, 3.175419825293587e-05
607.0, 3.770783618246479e-05
608.0, 0.0001040404665790382
609.0, 0.00017113592502891728
610.0, 0.00035201348289153875
611.0, 0.0004858365606032694
612.0, 0.0006277273031359518
613.0, 0.000733272713013357
614.0, 0.0007050653907715741
615.0, 0.000611079591852131
616.0, 0.0007004123465960486
617.0, 0.0005072290814155037
618.0, 0.00045988886677434103
619.0, 0.0005867607143075622
620.0, 0.0007991540685161018
621.0, 0.0007612901360416217
622.0, 0.00047991273093350804
623.0, 0.0005289958940422374
624.0, 0.00042651643595508263
625.0, 0.00012502271491542826
626.0, 0.0005630932169548536
627.0, 0.000640323080224433
628.0, 0.0003154356639501158
629.0, 0.00011892691747634985
630.0, 0.00026623815620568854
631.0, 0.00031069492367041346
632.0, 0.0007412347448358076
633.0, 0.0005179477762122757
634.0, 0.0008240347808623541
635.0, 0.0009182337304327633
636.0, 0.00045655907820898084
637.0, 0.0007588766504862215
638.0, 0.00040175340348461646
639.0, 0.0008007241483437571
640.0, 0.0005492463470950469
641.0, 0.0004940312961604291
642.0, 0.0005867420914876795
643.0, 0.0005744507905735116
644.0, 0.0005668702024834606
645.0, 0.0005243847122970845
646.0, 0.0005442210502218329
647.0, 0.0003052060872171743
648.0, 0.00018387342458493392
649.0, 0.00016294235486262685
650.0, 0.00015163124444879012
651.0, 0.00015093453695907706
652.0, 5.7221767549788504e-05
653.0, 9.494430446483735e-06
654.0, 7.620592193669068e-05
655.0, 0.00040521604815570535
656.0, 0.0003883489562525491
657.0, 0.0003001253356733714
658.0, 0.0008762040829862819
659.0, 0.0010030280678907744
660.0, 0.0004702746752059208
661.0, 0.00012182431755435548
662.0, 0.0002719681905786848
663.0, 0.00026117315242280237
664.0, 0.0002459973977382097
665.0, 0.0006723121631132656
666.0, 0.0007506221586150991
667.0, 0.0004283805384897642
668.0, 0.000251677530556079
669.0, 0.00035543186130376065
670.0, 0.0002789854468281271
671.0, 0.00030263649680549963
672.0, 0.0005661161228446208
673.0, 0.00025802325670108006
674.0, 0.00011392977200478226
675.0, 0.0001388463933829632
676.0, 0.0002771737140971777
677.0, 0.00019651010152944747
678.0, 0.00010426384627487888
679.0, 0.00012230094363710722
680.0, 9.677009935852188e-05
681.0, 0.0007035284639458001
682.0, 0.00032673848755112504
683.0, 0.0005020470523513245
684.0, 0.0005610605790119427
685.0, 0.0003266662074103136
686.0, 0.00021616548827412983
687.0, 0.0005910839159962841
688.0, 0.0006884071908329569
689.0, 0.00023029804236204983
690.0, 0.0005511311264515021
691.0, 0.0008683917860812194
692.0, 0.0006251770399843963
693.0, 0.0002230271804197158
694.0, 0.00025658506823813155
695.0, 0.0005476341774902668
696.0, 0.0010334920656514144
697.0, 0.0004852698416499893
698.0, 0.0004130294766546753
699.0, 0.00035234675179259087
700.0, 0.000278638910457053
701.0, 0.0005176194679479089
702.0, 0.0010108913161101605
703.0, 0.0001590818051708838
704.0, 0.0007997550627532143
705.0, 0.0004565920267544488
706.0, 0.00038783728712650436
707.0, 0.0011176248055447544
708.0, 0.0014535018520684525
709.0, 0.0007163778841895091
710.0, 0.0013033657047522413
711.0, 0.0010216875104892044
712.0, 0.0013201724122636
713.0, 0.0011109918855901053
714.0, 0.0010254840296170357
715.0, 0.0013799424247551817
716.0, 0.0018236208617326678
717.0, 0.0018271548302931802
718.0, 0.002075740764555089
719.0, 0.0022523222459017275
720.0, 0.0024888656136435408
721.0, 0.0023495229550079227
722.0, 0.0026681811111268733
723.0, 0.0033249684612635293
724.0, 0.0036273657888446294
725.0, 0.0038347820808424652
726.0, 0.0035785229818608047
727.0, 0.004183792436524094
728.0, 0.004292010604298574
729.0, 0.00431025859861145
730.0, 0.004716056585728254
731.0, 0.005309291150933174
732.0, 0.005511334654180855
733.0, 0.005874734341279191
734.0, 0.0064937570115864126
735.0, 0.007374233556265243
736.0, 0.008269376857632429
737.0, 0.008091666864188154
738.0, 0.008111728939633097
739.0, 0.009330494328816382
740.0, 0.009714732547345293
741.0, 0.009298807869701702
742.0, 0.01031095902746761
743.0, 0.010715174293995424
744.0, 0.010549094645551071
745.0, 0.010608505665090634
746.0, 0.01066966318785895
747.0, 0.009899606802814277
748.0, 0.00890186354945204
749.0, 0.009949772733174796
750.0, 0.009393010928979696
751.0, 0.01005847202638745
752.0, 0.009999718520576437
753.0, 0.009852960309513542
754.0, 0.010513927609109306
755.0, 0.011464935680307983
756.0, 0.012751016024216367
757.0, 0.014135941360255633
758.0, 0.015748729174676478
759.0, 0.017601087377727614
760.0, 0.019608435643690112
761.0, 0.02178260685943974
762.0, 0.024195118324633412
763.0, 0.0264610879020718
764.0, 0.026379530073356697
765.0, 0.026885692144850416
766.0, 0.026353417367204077
767.0, 0.024833694003677898
768.0, 0.02301327923119539
769.0, 0.02101088223878334
770.0, 0.01857423299439287
771.0, 0.01599198380916762
772.0, 0.014843375163496639
773.0, 0.01427491609283284
774.0, 0.012160479482011904
775.0, 0.010767904231612908
776.0, 0.010358187611743888
777.0, 0.009865866732584555
778.0, 0.008829218463196592
779.0, 0.008457675044091973
780.0, 0.006830300729536553
781.0, 0.0064710336995067435
782.0, 0.0062701207043010234
783.0, 0.006446359388809836
784.0, 0.006397736525673095
785.0, 0.006006026210584761
786.0, 0.005618669134228799
787.0, 0.005058784397974171
788.0, 0.004576415524570918
789.0, 0.004270088058085065
790.0, 0.004749440999109318
791.0, 0.004470240725052653
792.0, 0.004055865834135908
793.0, 0.004108863233552009
794.0, 0.004134978076228303
795.0, 0.0034467080618471304
796.0, 0.003430229010085423
797.0, 0.0033366216117280806
798.0, 0.0035670652281832036
799.0, 0.0031291177429684887
800.0, 0.0030584096240126803
801.0, 0.003477384584759029
802.0, 0.003301299652886337
803.0, 0.002496993548255912
804.0, 0.0026134671316366035
805.0, 0.0022870996636890225
806.0, 0.002366603588166717
807.0, 0.00218707484549582
808.0, 0.002225053250800965
809.0, 0.002327528365979142
810.0, 0.002112124039686637
811.0, 0.002377143691936088
812.0, 0.0025690070630539088
813.0, 0.0021874400880297733
814.0, 0.001966055207002068
815.0, 0.002410840045682039
816.0, 0.0024713241111998098
817.0, 0.002361687089621684
818.0, 0.002671590899478251
819.0, 0.0025904895992846042
820.0, 0.0030497522179590624
821.0, 0.0033865561143535845
822.0, 0.003810721815048051
823.0, 0.004462514408224842
824.0, 0.005237239342402649
825.0, 0.006209645299137457
826.0, 0.007501938022797016
827.0, 0.00885135335466548
828.0, 0.009268802115045313
829.0, 0.010192705693797663
830.0, 0.0101879788235845
831.0, 0.01022203755437204
832.0, 0.01063620127674993
833.0, 0.011775884380298841
834.0, 0.012713061159601703
835.0, 0.012370233232941953
836.0, 0.013396134286295637
837.0, 0.013786825815624019
838.0, 0.013679020707954263
839.0, 0.013570579455694938
840.0, 0.013209630165742905
841.0, 0.012486488245824262
842.0, 0.011856405428113165
843.0, 0.011031264916104658
844.0, 0.008165795538700638
845.0, 0.00726876107473844
846.0, 0.005853334384128779
847.0, 0.005373246240744093
848.0, 0.003929085768913361
849.0, 0.0029078554432301756
850.0, 0.0024667178264901396
851.0, 0.0019530299282648682
852.0, 0.0017250816068116505
853.0, 0.0011814367767119221
854.0, 0.0007808455266908912
855.0, 0.0005606347505656514
856.0, 0.0003046803078790598
857.0, 0.00012891820368313611
858.0, 4.627958648311435e-05
859.0, 2.266508435523809e-05
860.0, 5.924488892358764e-05
861.0, 0.0001443481073579734
862.0, 0.0002465172391978395
863.0, 0.0003261921085865977
864.0, 9.72118142535128e-05
865.0, 0.0002507008407826558
866.0, 0.0003618151676196745
867.0, 0.00022017504172392667
868.0, 0.00016610234540721482
869.0, 0.0004988948645397832
870.0, 0.0008287790835831801
871.0, 0.0010152871149616857
872.0, 0.0007186501366145293
873.0, 0.001130806768180002
874.0, 0.0014101176507584974
875.0, 0.0016979197982824794
876.0, 0.0018115839731534284
877.0, 0.0014437851311355488
878.0, 0.0019068266199837806
879.0, 0.002799295742567248
880.0, 0.003007881978890564
881.0, 0.0036899653899806224
882.0, 0.0033288786860183857
883.0, 0.003262179465361116
884.0, 0.003798479826477435
885.0, 0.004244825048964559
886.0, 0.004444456271311635
887.0, 0.004986414328525163
888.0, 0.005294136542705959
889.0, 0.005259943823060122
890.0, 0.005330291501251187
891.0, 0.005541557180128028
892.0, 0.006253817745727551
893.0, 0.0067401180452617854
894.0, 0.006600258278999835
895.0, 0.007099722572558404
896.0, 0.007957843135548337
897.0, 0.0079159316870556
898.0, 0.00839091686420578
899.0, 0.008525917387266494
900.0, 0.009160498208620232
901.0, 0.009740069795388042
902.0, 0.01025927596196171
903.0, 0.011064121151774778
904.0, 0.011341144101611099
905.0, 0.011862992596443606
906.0, 0.012677680851871926
907.0, 0.013674811320881938
908.0, 0.014252073224793042
909.0, 0.015238577994548695
910.0, 0.015869889261732842
911.0, 0.01659390911070878
912.0, 0.018349037634258002
913.0, 0.01924237829696801
914.0, 0.019838145654461087
915.0, 0.022301538923384538
916.0, 0.02376891402693223
917.0, 0.02601234672034846
918.0, 0.02842600915491863
919.0, 0.030231407028000302
920.0, 0.032823886664324425
921.0, 0.03732480412652472
922.0, 0.04096776689120458
923.0, 0.045835643482844086
924.0, 0.05124350942630136
925.0, 0.057185640362240935
926.0, 0.06445373675939177
927.0, 0.07325802657482218
928.0, 0.08373160039288273
929.0, 0.09529707007320436
930.0, 0.10738289614523193
931.0, 0.12092568221939352
932.0, 0.13699076840059882
933.0, 0.15255618009642194
934.0, 0.1662962321981718
935.0, 0.17654930264701704
936.0, 0.1853734235882889
937.0, 0.18975500977580015
938.0, 0.18917458319328134
939.0, 0.18547541391218006
940.0, 0.17716688151034293
941.0, 0.16721707754132487
942.0, 0.15478578639857563
943.0, 0.1397902676969546
944.0, 0.1267868419547947
945.0, 0.11124126596008545
946.0, 0.09755746881217062
947.0, 0.0856451139712458
948.0, 0.0732974136324339
949.0, 0.06394628941111818
950.0, 0.05487316712507122
951.0, 0.04993933861516278
952.0, 0.04369438633167932
953.0, 0.03830745121560613
954.0, 0.03434132502117498
955.0, 0.03171473111014892
956.0, 0.029135321458953117
957.0, 0.02637364580005613
958.0, 0.024621129661787037
959.0, 0.023099632474394935
960.0, 0.02200765733824029
961.0, 0.021293052365412474
962.0, 0.019543652702306628
963.0, 0.01871826571530739
964.0, 0.01773759096694333
965.0, 0.01649092822423088
966.0, 0.015293646234036408
967.0, 0.014584704589993964
968.0, 0.014982874741513826
969.0, 0.013531352251080495
970.0, 0.012916522276387616
971.0, 0.013330218898261111
972.0, 0.012088711054863553
973.0, 0.011273404584535242
974.0, 0.010890475980876859
975.0, 0.009995299818758638
976.0, 0.008991017014926815
977.0, 0.009108409379155528
978.0, 0.00911534101606323
979.0, 0.008486938355966905
980.0, 0.008247255983233871
981.0, 0.007512761281770302
982.0, 0.0070790156822923365
983.0, 0.006536264965097454
984.0, 0.005879542071401816
985.0, 0.005646317119795459
986.0, 0.005779055740378706
987.0, 0.005166773500006864
988.0, 0.003965935098138255
989.0, 0.004634658575642457
990.0, 0.00370410560967099
991.0, 0.0033069278766141748
992.0, 0.002528002800274036
993.0, 0.002575595269922741
994.0, 0.0027189021856316243
995.0, 0.002205038649232891
996.0, 0.0019526064702480586
997.0, 0.002168336257281482
998.0, 0.0015886313416597028
999.0, 0.001797806030065363
1000.0, 0.001520872907609491
1001.0, 0.0013119806354150467
1002.0, 0.0009921392066151483
1003.0, 0.001003211488766949
1004.0, 0.0008778399754356965
1005.0, 0.0004474396947270147
1006.0, 0.00042306072142305905
1007.0, 0.0002870873007033138
1008.0, 1.0243475248221324e-05
1009.0, 3.754401870679663e-05
1010.0, 0.000683938355268968
1011.0, 0.0006248363797115379
1012.0, 0.0004897679358079276
1013.0, 0.00028899465006456223
1014.0, 0.0002244912228585091
1015.0, 0.0003222068004498969
1016.0, 0.00016660355576643694
1017.0, 0.00014191011172184754
1018.0, 0.0001912385967496945
1019.0, 3.8069725581173314e-05
1020.0, 0.0001983786508631661
1021.0, 0.00015264850628646356
1022.0, 0.0005282942687131781
1023.0, 0.000876189525959805
1024.0, 0.0010208541708060614
1025.0, 0.0011425854953524836
1026.0, 0.0012232137546326367
1027.0, 0.0013281077570969208
1028.0, 0.000934132960082466
1029.0, 0.000931457308628022
1030.0, 0.0008184586175852902
1031.0, 0.0004919560038734327
1032.0, 0.0006968011363497644
1033.0, 0.0005154753883521439
1034.0, 0.0005843592674640541
1035.0, 0.0013204514869543473
1036.0, 0.0015347770387206543
1037.0, 0.001177831101839399
1038.0, 0.0012246650782172881
1039.0, 0.0006887353653298434
1040.0, 0.0007782081294573186
1041.0, 0.0007947559865167901
1042.0, 0.0009493790567826738
1043.0, 0.0009967209658666143
1044.0, 0.0009970774135933517
1045.0, 0.0010830165291737248
1046.0, 0.0010851799765147982
1047.0, 0.0009211953108353739
1048.0, 0.0012300832588828929
1049.0, 0.0007520625924298689
1050.0, 0.0007520518707432872
1051.0, 0.0009236935671501574
1052.0, 0.0010812379540934428
1053.0, 0.0010974953990128195
1054.0, 0.0012488280411266294
1055.0, 0.001397224206669866
1056.0, 0.0014662114822236
1057.0, 0.0017826012249386345
1058.0, 0.0018024662940461474
1059.0, 0.001078161145242594
1060.0, 0.0014254874030372238
1061.0, 0.0014432118342250228
1062.0, 0.0026253470842668163
1063.0, 0.0022578398331759364
1064.0, 0.002589404966449908
1065.0, 0.003325033538598004
1066.0, 0.0038318538837934088
1067.0, 0.00435475083292305
1068.0, 0.00360982476354641
1069.0, 0.003627922831986472
1070.0, 0.004587377030712809
1071.0, 0.004635074790463676
1072.0, 0.00531923209825096
1073.0, 0.006585768857316288
1074.0, 0.006991604609871871
1075.0, 0.0069743990616343565
1076.0, 0.007672058993750831
1077.0, 0.008689284308182091
1078.0, 0.008942256213475813
1079.0, 0.009429424297979952
1080.0, 0.01092132614928756
1081.0, 0.012416429441019089
1082.0, 0.013821327766235738
1083.0, 0.015440769078778251
1084.0, 0.017591555179740884
1085.0, 0.02041686085557944
1086.0, 0.02396942695374376
1087.0, 0.028386146443965782
1088.0, 0.033629552260668175
1089.0, 0.04080952972577224
1090.0, 0.052963744211021235
1091.0, 0.06741658114610134
1092.0, 0.08572231936724997
1093.0, 0.10964193685776054
1094.0, 0.13757059104074615
1095.0, 0.1652301132113442
1096.0, 0.17925533635348642
1097.0, 0.17224658964305328
1098.0, 0.14823241645335625
1099.0, 0.11827983499700086
1100.0, 0.09132482435737264
1101.0, 0.069009454628344
1102.0, 0.052600595772979944
1103.0, 0.042153924328794036
1104.0, 0.03325120323788639
1105.0, 0.027438234454496908
1106.0, 0.022945858212039993
1107.0, 0.019802379510749982
1108.0, 0.017445408998438466
1109.0, 0.01561981583486533
1110.0, 0.01372367728117024
1111.0, 0.011276305639584424
1112.0, 0.009601076609642207
1113.0, 0.008519349369310378
1114.0, 0.008229727201567142
1115.0, 0.007464698749959268
1116.0, 0.00725526390261313
1117.0, 0.0072763216501113
1118.0, 0.007126009657185685
1119.0, 0.007706108904852695
1120.0, 0.008277601074521102
1121.0, 0.008365681543115427
1122.0, 0.008444706812618316
1123.0, 0.008189729843583527
1124.0, 0.00766492229335322
1125.0, 0.007075078771788291
1126.0, 0.006569917431085884
1127.0, 0.005837020649926997
1128.0, 0.005149790824562411
1129.0, 0.004377249662623839
1130.0, 0.00342464286242062
1131.0, 0.0026014384649884945
1132.0, 0.001940689760986316
1133.0, 0.001354695708181477
1134.0, 0.0009121425687952282
1135.0, 0.0006481248630574333
1136.0, 0.0010741500424958968
1137.0, 3.892127643856315e-05
1138.0, 0.00023776476844226903
1139.0, 0.00046264469888730926
1140.0, 0.00026304509214880817
1141.0, 0.00025537557172523786
1142.0, 0.00021296526813747516
1143.0, 0.00016248040556891534
1144.0, 0.00017516576274350263
1145.0, 0.00020537587053609004
1146.0, 0.0003222968481868143
1147.0, 0.00040183218907772827
1148.0, 3.544255396097414e-05
1149.0, 2.9436231053059658e-05
1150.0, 0.0003825028913923115
1151.0, 0.0005547156821237616
1152.0, 0.0004987358154921245
1153.0, 0.0003678372785233482
1154.0, 0.0003828808001328902
1155.0, 0.0003997978905534665
1156.0, 0.0003554215722773402
1157.0, 0.00032449013649954136
1158.0, 0.00030773009174783224
1159.0, 0.0005046637882106725
1160.0, 0.0008362612318849261
1161.0, 0.0002923765046306835
1162.0, 0.0005269685689601848
1163.0, 0.00032837492870267426
1164.0, 0.00044236985994924226
1165.0, 0.000331932207074042
1166.0, 0.00022804954841663033
1167.0, 0.0001956871821106779
1168.0, 0.00035430083929836756
1169.0, 0.00044747522299002046
1170.0, 0.00016365109742206004
1171.0, 0.00038338891178231244
1172.0, 0.0006100191798323698
1173.0, 0.00029830369614678326
1174.0, 0.00016816590429814208
1175.0, 0.00030483153434731486
1176.0, 0.0004900066653054192
1177.0, 0.00023989701899921847
1178.0, 0.00035395545668226116
1179.0, 0.0002501497497780822
1180.0, 9.038386904911638e-06
1181.0, 1.2486594639783198e-05
1182.0, 0.00017581132701911017
1183.0, 0.00048697850184044604
1184.0, 8.656126391577962e-05
1185.0, 0.00028664214955227387
1186.0, 0.0008270914907576076
1187.0, 0.00022256519493251385
1188.0, 0.00023329200780973118
1189.0, 0.0002502570342184421
1190.0, 0.00013350527272536772
1191.0, 7.469417252692086e-05
1192.0, 0.00026013566294238457
1193.0, 0.0005048374773778076
1194.0, 0.00041211914658136046
1195.0, 0.0002537809680820579
1196.0, 0.0007307009855581357
1197.0, 0.0005396152007895525
1198.0, 4.899161045070297e-05
1199.0, 0.00039073707775316496
1200.0, 0.0010648281077777944
1201.0, 0.0011760672110210598
1202.0, 0.0011820185119415085
1203.0, 0.0012003425356533737
1204.0, 0.0009782450486288904
1205.0, 0.0007037411119433502
1206.0, 0.0006045572449274851
1207.0, 0.0004102261135149222
1208.0, 8.920460352701138e-05
1209.0, 0.0002480573297913524
1210.0, 0.00010269882551343736
1211.0, 0.0001781990626140064
1212.0, 0.0003301007832312116
1213.0, 0.0003436960161529808
1214.0, 0.0001231751007858309
1215.0, 0.0003788743851924737
1216.0, 0.0003723788598314076
1217.0, 0.00046970131063406333
1218.0, 0.0004983458302274635
1219.0, 0.0005859962175129522
1220.0, 0.0007497052911624899
1221.0, 0.00045597395398674326
1222.0, 0.00013829276921972813
1223.0, 0.0005314188426552716
1224.0, 0.0002648117109465235
1225.0, 0.00038634408941074015
1226.0, 0.0007498577509265799
1227.0, 0.00035535803779373706
1228.0, 0.0006118190200005422
1229.0, 0.0005491846973780604
1230.0, 0.00027914512784399674
1231.0, 0.00042716939262784883
1232.0, 0.00047039954810953105
1233.0, 0.0005985134933063004
1234.0, 0.0008143984639216706
1235.0, 0.00021568988863155357
1236.0, 0.00044141485686058173
1237.0, 0.0008592093800055317
1238.0, 0.0008315426317590113
1239.0, 0.0009381836257176842
1240.0, 0.0011920392688231508
1241.0, 0.0011667509476730742
1242.0, 0.0007924431451685359
1243.0, 0.0010769749782925603
1244.0, 0.0009768607796564572
1245.0, 0.0008885452634616692
1246.0, 0.0006680207177797859
1247.0, 0.0007198839374868953
1248.0, 0.0013196591735672057
1249.0, 0.0012028916307755277
1250.0, 0.001294561705846621
1251.0, 0.0005930169548349194
1252.0, 0.0009798637509160365
1253.0, 0.0006806618631789386
1254.0, 0.0009877484820910918
1255.0, 0.001620788272114115
1256.0, 0.0007607683106888973
1257.0, 0.0014561281213533632
1258.0, 0.0015358623672992232
1259.0, 0.0009896918027720327
1260.0, 0.0009194602060955993
1261.0, 0.0010137875060185634
1262.0, 0.0010959452192599983
1263.0, 0.0014509593113029922
1264.0, 0.0011369559224632605
1265.0, 0.001184295988746175
1266.0, 0.0012877515260421787
1267.0, 0.0014335942111333155
1268.0, 0.001060523499579837
1269.0, 0.00048300203365989167
1270.0, 0.00022567104562536513
1271.0, 0.0005672312286297211
1272.0, 0.0012095223122592796
1273.0, 0.0009426755599070925
1274.0, 0.0009454843982129004
1275.0, 0.0013014977377670514
1276.0, 0.00119569198793776
1277.0, 0.0009838809369256745
1278.0, 0.0009668751125291319
1279.0, 0.0013278313965417179
1280.0, 0.0012685849149605276
1281.0, 0.0010343710613250397
1282.0, 0.0012726132532087284
1283.0, 0.0012539786840899787
1284.0, 0.00148582009021972
1285.0, 0.001761060705114248
1286.0, 0.0013585064982178474
1287.0, 0.0014610494296933368
1288.0, 0.0012773126144367331
1289.0, 0.0010879283761174232
1290.0, 0.0013009850670249413
1291.0, 0.0015259860530220915
1292.0, 0.0015621083585614056
1293.0, 0.0015505633725507375
1294.0, 0.0016530272846983361
1295.0, 0.0018022370877062667
1296.0, 0.0017056009671107969
1297.0, 0.001751119795007376
1298.0, 0.0016066242207319168
1299.0, 0.001545319086677263
1300.0, 0.0014344388362633532
1301.0, 0.0011576096321507688
1302.0, 0.0011150152342086334
1303.0, 0.0011304148949814608
1304.0, 0.0011913839723215719
1305.0, 0.0013115567973277205
1306.0, 0.0015097710504781434
1307.0, 0.0016193153591802791
1308.0, 0.0015142278661311546
1309.0, 0.0014790341063766748
1310.0, 0.001249804886571381
1311.0, 0.001359213336483696
1312.0, 0.0013880813642711553
1313.0, 0.001315724921703005
1314.0, 0.0014228727857538512
1315.0, 0.0012641176931849419
1316.0, 0.0014200349341781198
1317.0, 0.001559601569573518
1318.0, 0.0012489233601714568
1319.0, 0.0014494010822409496
1320.0, 0.0013845042642630521
1321.0, 0.001149487342183409
1322.0, 0.0012860366861173898
1323.0, 0.0013423946035172043
1324.0, 0.0012021529108545209
1325.0, 0.0012612880388093543
1326.0, 0.001095761229999725
1327.0, 0.0010274499112945213
1328.0, 0.0013817538122578214
1329.0, 0.001239832220091747
1330.0, 0.0005828078502065114
1331.0, 0.0008604755071079478
1332.0, 0.000643777159899614
1333.0, 0.0014183316707171048
1334.0, 0.0013761757056435422
1335.0, 0.0012764791117053653
1336.0, 0.0009541540173878421
1337.0, 0.000690865718697662
1338.0, 0.0010395808992631757
1339.0, 0.0011700372140170682
1340.0, 0.0009511756958821823
1341.0, 0.0009653138039296273
1342.0, 0.00029622215765486606
1343.0, 0.0010476337652145819
1344.0, 0.00026979029352764615
1345.0, 0.0010558744073393513
1346.0, 0.0007396758209085896
1347.0, 0.000602510752739737
1348.0, 0.00045367193624278225
1349.0, 0.0007728212862722504
1350.0, 0.001126096004144862
1351.0, 0.0009718698211287063
1352.0, 0.0010553449462036766
1353.0, 0.0010258178798410447
1354.0, 0.0009927730701201622
1355.0, 0.0008016791183158246
1356.0, 0.00037714530957033953
1357.0, 0.00020635178241983882
1358.0, 0.000357339133087947
1359.0, 0.0004294267537240852
1360.0, 0.0004850373986282767
1361.0, 0.0010867671774222468
1362.0, 0.000984311681731312
1363.0, 0.0009505774865883343
1364.0, 0.0011221722552317082
1365.0, 0.0007857844325283582
1366.0, 0.0006413577399831923
1367.0, 0.000610656051736733
1368.0, 0.0009592605648717817
1369.0, 0.0013854555050864259
1370.0, 0.0013454354964480802
1371.0, 0.001055950162265729
1372.0, 0.000950841238160209
1373.0, 0.0011219734988196322
1374.0, 0.00144808875802276
1375.0, 0.0014779133095633994
1376.0, 0.0011583649668419002
1377.0, 0.001376139493286897
1378.0, 0.0018505782922590044
1379.0, 0.0015196106318883407
1380.0, 0.0017912016762639846
1381.0, 0.0016148957564203626
1382.0, 0.0022730945603365665
1383.0, 0.0025445004681215874
1384.0, 0.002902347000276475
1385.0, 0.0031105969777109298
1386.0, 0.0031976292218836573
1387.0, 0.003187963570758437
1388.0, 0.002570264122879686
1389.0, 0.0030929133365073538
1390.0, 0.0022024737262289367
1391.0, 0.002075762519418307
1392.0, 0.002782424559597612
1393.0, 0.0026395685061488803
1394.0, 0.002548362236172053
1395.0, 0.0027036068339019266
1396.0, 0.002763436654818383
1397.0, 0.0030324876099185106
1398.0, 0.003515579753659251
1399.0, 0.003953336391632124
1400.0, 0.003680779088425072
1401.0, 0.003891654550958425
1402.0, 0.004444158335472952
1403.0, 0.004810885767303863
1404.0, 0.005886138554075773
1405.0, 0.00638963293892114
1406.0, 0.007703542380325921
1407.0, 0.008987007147090807
1408.0, 0.010100736272859368
1409.0, 0.011895207272281745
1410.0, 0.013606076447712995
1411.0, 0.01587041497010179
1412.0, 0.019606657763676465
1413.0, 0.024355903894433543
1414.0, 0.02962287449444097
1415.0, 0.037018897870225574
1416.0, 0.04838238726537371
1417.0, 0.061512197616599
1418.0, 0.07457592499276383
1419.0, 0.08570448335637484
1420.0, 0.08832955648109825
1421.0, 0.08271230783224238
1422.0, 0.06783415456729237
1423.0, 0.053272684737124903
1424.0, 0.04126598587376939
1425.0, 0.03278208191518945
1426.0, 0.0258287379048302
1427.0, 0.020845252825914234
1428.0, 0.01732788104411811
1429.0, 0.015173813921733927
1430.0, 0.012908930453074254
1431.0, 0.011269160499876254
1432.0, 0.009892326618998547
1433.0, 0.008901558862801293
1434.0, 0.007832098196978504
1435.0, 0.006792823209199694
1436.0, 0.006179957214760135
1437.0, 0.005245945296554925
1438.0, 0.005212664552771566
1439.0, 0.004125558687930644
1440.0, 0.0040803640621059215
1441.0, 0.004928084992608217
1442.0, 0.0036636398833401404
1443.0, 0.004487054465803646
1444.0, 0.004186736367432112
1445.0, 0.004273588205107844
1446.0, 0.004104799295463927
1447.0, 0.00315827952814579
1448.0, 0.0034610910113552543
1449.0, 0.003612876871323878
1450.0, 0.004324709802847763
1451.0, 0.004759544765170402
1452.0, 0.004802893536541111
1453.0, 0.005872077015127241
1454.0, 0.0074001443964819245
1455.0, 0.009646051719739536
1456.0, 0.012972878226430723
1457.0, 0.01759613846288069
1458.0, 0.023671161030999022
1459.0, 0.02844049867819204
1460.0, 0.02813621057463426
1461.0, 0.02306708846135197
1462.0, 0.016375870569255484
1463.0, 0.011082613407901957
1464.0, 0.008432509953064788
1465.0, 0.006064629619047295
1466.0, 0.004541964331606236
1467.0, 0.0029430861496265656
1468.0, 0.0026635305606814404
1469.0, 0.002808350456775767
1470.0, 0.0025788431788505745
1471.0, 0.0020979448324549674
1472.0, 0.00224130883189032
1473.0, 0.0018981736034211069
1474.0, 0.002556709932481718
1475.0, 0.0019972680434133935
1476.0, 0.0020864413579099136
1477.0, 0.002597625734796421
1478.0, 0.002769397988828705
1479.0, 0.002387550552399522
1480.0, 0.0022185580052927214
1481.0, 0.0022703629947022097
1482.0, 0.0021020769587882524
1483.0, 0.0019859213630856903
1484.0, 0.0018686420674173538
1485.0, 0.0017321588690492385
1486.0, 0.0016651247843143284
1487.0, 0.0015082638432646063
1488.0, 0.0018377191241369878
1489.0, 0.001224155094947348
1490.0, 0.00200129244493127
1491.0, 0.0015065609453549973
1492.0, 0.0013089766292113032
1493.0, 0.0019253085295142334
1494.0, 0.0019149766302901025
1495.0, 0.0009923977511200035
1496.0, 0.0010665997045704412
1497.0, 0.0004885218052700566
1498.0, 0.0005741340980143216
1499.0, 0.0009167557087945764
1500.0, 0.0013397186870645976
1501.0, 0.0013151369692246688
1502.0, 0.0008775248834257846
1503.0, 0.0008508749069314773
1504.0, 0.0004418439655582783
1505.0, 0.00012396956234985565
1506.0, 0.0007308691133077741
1507.0, 0.0008319214904627328
1508.0, 0.000459384341510355
1509.0, 0.0007996879524795289
1510.0, 0.001018490494664428
1511.0, 0.0007655397015289519
1512.0, 0.0010085181097343712
1513.0, 0.001341564397934296
1514.0, 0.0011805298372722312
1515.0, 0.0010188090021465968
1516.0, 0.0009795271652055966
1517.0, 0.001333275462624782
1518.0, 0.000980859825657475
1519.0, 0.0010108599109190822
1520.0, 0.0015156997944513334
1521.0, 0.00042780838750419974
1522.0, 0.0010584785333371924
1523.0, 0.0004319730356631912
1524.0, 0.0013201695650641486
1525.0, 0.0017574382879416335
1526.0, 0.0018418593068216045
1527.0, 0.0017359533208283389
1528.0, 0.0014384668078274761
1529.0, 0.0012356454107366052
1530.0, 0.0017760818223588732
1531.0, 0.002004383182644614
1532.0, 0.0013763105190849096
1533.0, 0.0016337317894292468
1534.0, 0.0012022170401510038
1535.0, 0.0010583017347023228
1536.0, 0.001268407942935366
1537.0, 0.0016694087266210125
1538.0, 0.0015936372125262468
1539.0, 0.0012685024843288796
1540.0, 0.0017548246349094808
1541.0, 0.0019723177460761443
1542.0, 0.0016027131113075612
1543.0, 0.0013794001554053889
1544.0, 0.0011303925792417768
1545.0, 0.0015024690042522324
1546.0, 0.0010190138716254502
1547.0, 0.0010751398575897062
1548.0, 0.0012333310193935359
1549.0, 0.0008272353996180743
1550.0, 0.0009904091024212662
1551.0, 0.0018672537526832254
1552.0, 0.0014492267533752785
1553.0, 0.0019596799143450456
1554.0, 0.003622137640343628
1555.0, 0.0041329475358145166
1556.0, 0.004230728687116778
1557.0, 0.0018463378217932554
1558.0, 0.0009013376492794983
1559.0, 0.0008476893095727148
1560.0, 0.00037858235091752976
1561.0, 9.55159594035629e-05
1562.0, 0.0008334282060047389
1563.0, 0.00027213506740630825
1564.0, 0.0010609434293722682
1565.0, 0.001602996242571513
1566.0, 0.0020203360745884294
1567.0, 0.0015207621898865604
1568.0, 0.0014739557079028935
1569.0, 0.0008373186979098759
1570.0, 0.0005196324064626001
1571.0, 0.00022618212011071053
1572, 0.0
1573, 0.0
1574, 0.0
1575, 0.0
1576, 0.0
1577, 0.0
1578, 0.0
1579, 0.0
1580, 0.0
1581, 0.0
1582, 0.0
1583, 0.0
1584, 0.0
1585, 0.0
1586, 0.0
1587, 0.0
1588, 0.0
1589, 0.0
1590, 0.0
1591, 0.0
1592, 0.0
1593, 0.0
1594, 0.0
1595, 0.0
1596, 0.0
1597, 0.0
1598, 0.0
1599, 0.0
