30, 0.0
31, 0.0
32, 0.0
33, 0.0
34, 0.0
35, 0.0
36, 0.0
37, 0.0
38, 0.0
39, 0.0
40, 0.0
41, 0.0
42, 0.0
43, 0.0
44, 0.0
45, 0.0
46, 0.0
47, 0.0
48, 0.0
49, 0.0
50, 0.0
51, 0.0
52, 0.0
53.0, 6.997305298387228e-05
54.0, 0.0002571251889534892
55.0, 0.00018612128887515812
56.0, 0.0004384047268698459
57.0, 0.0005428007426293511
58.0, 0.0006234404221590438
59.0, 0.0008265762876881706
60.0, 0.000687751517152284
61.0, 0.0005530811185614474
62.0, 0.0003354040295502552
63.0, 0.00019968709568303814
64.0, 0.00024482449193639834
65.0, 0.00032890880693281575
66.0, 0.00020088007789004084
67.0, 0.0001619861112679777
68.0, 0.00024666114584397076
69.0, 0.0005906044194399691
70.0, 0.0014855367796053147
71.0, 0.002969384063816948
72.0, 0.0036238184450074627
73.0, 0.0032590001356786907
74.0, 0.0024735690015710086
75.0, 0.0024281983286253894
76.0, 0.003755276929380335
77.0, 0.004664406067520894
78.0, 0.0049618173076633396
79.0, 0.004748481747121446
80.0, 0.004525866580565596
81.0, 0.006411246128838176
82.0, 0.00814938972426848
83.0, 0.010728166371772827
84.0, 0.012790525994595544
85.0, 0.012806047944621844
86.0, 0.010207535061142884
87.0, 0.007584534483415631
88.0, 0.006817702465504023
89.0, 0.0067634105511359234
90.0, 0.006736209546489568
91.0, 0.0072753659719576105
92.0, 0.008957026855113216
93.0, 0.010082455322909786
94.0, 0.010079370424368598
95.0, 0.00940355105196946
96.0, 0.009209255002950358
97.0, 0.008814913390806593
98.0, 0.00795680359376698
99.0, 0.0076047063456468455
100.0, 0.007997222096713595
101.0, 0.008744085123161384
102.0, 0.007830072810774118
103.0, 0.007699311278376872
104.0, 0.007702504831187265
105.0, 0.008330815128819469
106.0, 0.010245790106551968
107.0, 0.014097193241422543
108.0, 0.018051705257200578
109.0, 0.024247756730671564
110.0, 0.03191637505025182
111.0, 0.037855343488679125
112.0, 0.036818080670025635
113.0, 0.031255232815273946
114.0, 0.024890727448675414
115.0, 0.01983009984933382
116.0, 0.016726180306609502
117.0, 0.015126221203368848
118.0, 0.012968062431363862
119.0, 0.01204533722463559
120.0, 0.010640416271282049
121.0, 0.009712800627998813
122.0, 0.010276989542048037
123.0, 0.011876924162060784
124.0, 0.014718573314172846
125.0, 0.016225856790773412
126.0, 0.018352848447788454
127.0, 0.023109316953055445
128.0, 0.032123232777287423
129.0, 0.05249862148148966
130.0, 0.08624222100521522
131.0, 0.11401963937387902
132.0, 0.12030553090356737
133.0, 0.09737290582339164
134.0, 0.06623844713735155
135.0, 0.048752966271583584
136.0, 0.038062171627365235
137.0, 0.03282971379483498
138.0, 0.03250710801598039
139.0, 0.03639899071893209
140.0, 0.04462618511258173
141.0, 0.057152660048729376
142.0, 0.07072678069543192
143.0, 0.07994050909570807
144.0, 0.07806839731681392
145.0, 0.061092093858742404
146.0, 0.0434167929791923
147.0, 0.030537998692848796
148.0, 0.022566699155451186
149.0, 0.01751343552822117
150.0, 0.014909774354316
151.0, 0.0147115323511542
152.0, 0.016391580494177476
153.0, 0.018671668133255593
154.0, 0.019768498167064705
155.0, 0.017502226636079064
156.0, 0.013936283282312742
157.0, 0.010304872881360158
158.0, 0.0075741564429055155
159.0, 0.006341826124820281
160.0, 0.006541032172321763
161.0, 0.005470381433325865
162.0, 0.0070741419290016126
163.0, 0.008714015876532333
164.0, 0.010103115989191029
165.0, 0.011894597795499973
166.0, 0.015650010821854177
167.0, 0.020695319066728536
168.0, 0.02803634336244985
169.0, 0.03710437139314143
170.0, 0.04592791117727081
171.0, 0.05113154367491898
172.0, 0.043939318612634885
173.0, 0.03444382898468247
174.0, 0.025422335464935775
175.0, 0.018972597499192053
176.0, 0.01605323570396745
177.0, 0.015167493271661083
178.0, 0.01573831268304397
179.0, 0.015048940812578493
180.0, 0.012907650028370608
181.0, 0.009812587616943508
182.0, 0.006782574133126754
183.0, 0.005757871562658955
184.0, 0.004746356652776256
185.0, 0.004293993685084073
186.0, 0.004783889859747763
187.0, 0.00616489274270064
188.0, 0.007264476610950161
189.0, 0.008542573647884074
190.0, 0.009687588598768762
191.0, 0.011661199228067324
192.0, 0.014690016490954244
193.0, 0.01793071483944036
194.0, 0.018380499269439764
195.0, 0.01758487608733772
196.0, 0.016117963294448784
197.0, 0.014340852950013722
198.0, 0.012504037727440609
199.0, 0.01072181362224289
200.0, 0.01117744114281078
201.0, 0.010976288122443043
202.0, 0.010639246578727097
203.0, 0.01051354147220597
204.0, 0.010337267561930583
205.0, 0.00838946523878706
206.0, 0.004433800742349128
207.0, 0.001661390297229341
208.0, 0.0007156271512035026
209.0, 0.0009024505424070595
210.0, 0.0004385291979819463
211.0, 0.00040510919170055453
212.0, 0.00017034502933023043
213.0, 0.00034202672245206664
214.0, 0.0006684835765557306
215.0, 0.0002952628346802598
216.0, 0.0006820111070002099
217.0, 0.0007736412456050607
218.0, 0.0007608499505687984
219.0, 0.0010688692705985532
220.0, 0.0017337556705750727
221.0, 0.001832272028793516
222.0, 0.0014604036652815981
223.0, 0.0019407978768033807
224.0, 0.0021306703050572294
225.0, 0.0019667813718684656
226.0, 0.0020489033846005445
227.0, 0.002014362108471138
228.0, 0.0014277621961651143
229.0, 0.0012097767736925212
230.0, 0.0009321245439659434
231.0, 0.0004928511516548421
232.0, 0.0006280085036907651
233.0, 0.0014815544097512734
234.0, 0.0029774377396990796
235.0, 0.004474260652284479
236.0, 0.005923505387144715
237.0, 0.007069359394249792
238.0, 0.005874899729312823
239.0, 0.004500456080536376
240.0, 0.003724052420534704
241.0, 0.003413281866808308
242.0, 0.0036155930034558787
243.0, 0.00457230755968216
244.0, 0.005962080289777319
245.0, 0.007613752413116359
246.0, 0.010570102084865281
247.0, 0.013710214251782787
248.0, 0.015061942442228101
249.0, 0.012346528976974209
250.0, 0.009759203254963981
251.0, 0.008072278412131222
252.0, 0.007699768358760772
253.0, 0.008170761944147172
254.0, 0.00852024532440233
255.0, 0.007813418346082816
256.0, 0.01040258008971668
257.0, 0.013380832336296123
258.0, 0.017903602168925958
259.0, 0.024669365348611562
260.0, 0.033314917940236846
261.0, 0.043156349164712976
262.0, 0.051364721128023066
263.0, 0.05909711398694619
264.0, 0.0654127369646864
265.0, 0.06789196559890824
266.0, 0.06267245214902183
267.0, 0.05454955146707672
268.0, 0.046908597071498845
269.0, 0.04015124157702821
270.0, 0.03564825639181118
271.0, 0.03437858811814591
272.0, 0.03437055954144302
273.0, 0.036772581362436135
274.0, 0.04107545344426203
275.0, 0.0487341755321236
276.0, 0.05832850489260061
277.0, 0.06673471650771062
278.0, 0.0781141629450917
279.0, 0.08812427003672203
280.0, 0.09456458684533643
281.0, 0.09614608084093895
282.0, 0.09253407276220503
283.0, 0.08451466567629883
284.0, 0.07468907357370146
285.0, 0.06268410509134734
286.0, 0.05187399220466853
287.0, 0.04291369905198204
288.0, 0.03531062725385471
289.0, 0.028459118587065752
290.0, 0.02353706018505777
291.0, 0.018488115075317318
292.0, 0.014742623050099074
293.0, 0.012481971976564255
294.0, 0.010938917547786439
295.0, 0.008941823939007143
296.0, 0.007290066806775013
297.0, 0.006002357675281616
298.0, 0.004955373095097678
299.0, 0.004187875964871885
300.0, 0.0037930633017234715
301.0, 0.003201303481111535
302.0, 0.0028967293415432544
303.0, 0.002716453749605891
304.0, 0.002730616243970152
305.0, 0.0027657204032572277
306.0, 0.0023934759064098247
307.0, 0.002143719089633775
308.0, 0.0017572446205263855
309.0, 0.0016034158554044046
310.0, 0.0014357121739450825
311.0, 0.0012602192801568972
312.0, 0.001748429137294568
313.0, 0.001857259225889687
314.0, 0.002137380548649649
315.0, 0.0019580299401039366
316.0, 0.0022028296470904822
317.0, 0.003344241034374389
318.0, 0.0035204872600040718
319.0, 0.0031868498235208946
320.0, 0.004032371490932876
321.0, 0.004497992982805824
322.0, 0.004905022797591604
323.0, 0.005986795321676986
324.0, 0.006392339503788716
325.0, 0.00803768881357373
326.0, 0.008862601156367592
327.0, 0.010371043857747602
328.0, 0.012274401015734635
329.0, 0.013217676762731514
330.0, 0.013140733295193396
331.0, 0.013984354845615804
332.0, 0.014342562685120375
333.0, 0.014434478846337877
334.0, 0.014096758252103422
335.0, 0.013036213643263307
336.0, 0.012621850711664046
337.0, 0.012252158931630421
338.0, 0.012138795042163647
339.0, 0.01213056820509572
340.0, 0.012098530230991382
341.0, 0.012044044099644787
342.0, 0.012312700444362147
343.0, 0.013160197520343612
344.0, 0.01369841855280099
345.0, 0.014435960405199748
346.0, 0.015579350229727347
347.0, 0.016743917309347708
348.0, 0.01774577209525662
349.0, 0.017936269669654326
350.0, 0.01971284272747776
351.0, 0.021660371560801153
352.0, 0.022983685514999318
353.0, 0.02467469548948361
354.0, 0.027969802807942624
355.0, 0.029263446549561044
356.0, 0.03207036025761195
357.0, 0.03550840050983447
358.0, 0.038479553867532004
359.0, 0.04116902850776434
360.0, 0.045712575290288514
361.0, 0.050065018285650485
362.0, 0.05355212441796568
363.0, 0.05776697750399793
364.0, 0.06335550036329014
365.0, 0.068981101215374
366.0, 0.07452688063533434
367.0, 0.08153783265348884
368.0, 0.08925895535296074
369.0, 0.09737561328350632
370.0, 0.10637065139971737
371.0, 0.1173816031328355
372.0, 0.12866085207601843
373.0, 0.14153755889700118
374.0, 0.15568533438227672
375.0, 0.17057142265132003
376.0, 0.18553620064314943
377.0, 0.20037064090892995
378.0, 0.22056407361903077
379.0, 0.23645011710068656
380.0, 0.25147977444350306
381.0, 0.265015940700205
382.0, 0.2771263488342779
383.0, 0.28916485480668647
384.0, 0.294663182320576
385.0, 0.3016609723710203
386.0, 0.3047718319808021
387.0, 0.3090471246791079
388.0, 0.3181487331569855
389.0, 0.3308784819161232
390.0, 0.34345428290889896
391.0, 0.36981588905816065
392.0, 0.4032266302533622
393.0, 0.4481027075655078
394.0, 0.5096947090144882
395.0, 0.5898189899198268
396.0, 0.6789251171261571
397.0, 0.7844364188287836
398.0, 0.8883311259353266
399.0, 0.9647452588428266
400.0, 0.9944366569668672
401.0, 0.9699111601782516
402.0, 0.8946391370757928
403.0, 0.7868344637744484
404.0, 0.6795843701908643
405.0, 0.5812505279657438
406.0, 0.4948509842609759
407.0, 0.4217581338438935
408.0, 0.36762081392160895
409.0, 0.32013632539133574
410.0, 0.2817500527686294
411.0, 0.24706158247279233
412.0, 0.2174256894129052
413.0, 0.1949005898390197
414.0, 0.17011749358491218
415.0, 0.1517557751515964
416.0, 0.13470399418108303
417.0, 0.12038590045696597
418.0, 0.10877964987299012
419.0, 0.0987575497311714
420.0, 0.08882565759192115
421.0, 0.08330073896632909
422.0, 0.07561255170669555
423.0, 0.0690834342073498
424.0, 0.06370824786620002
425.0, 0.05881108540757531
426.0, 0.05477685525749923
427.0, 0.051330198811434746
428.0, 0.04837493841677174
429.0, 0.044737681190329365
430.0, 0.04119186668689557
431.0, 0.03832990559803892
432.0, 0.035846985850086666
433.0, 0.0335363102241896
434.0, 0.03178231403168559
435.0, 0.02901730913002729
436.0, 0.026202024137439998
437.0, 0.02408978599812774
438.0, 0.022628289845564042
439.0, 0.02102627140390575
440.0, 0.01874933928741149
441.0, 0.017523284414201673
442.0, 0.015723885808867615
443.0, 0.013799953427454884
444.0, 0.01298155269497622
445.0, 0.012349647249775423
446.0, 0.011212334187848293
447.0, 0.010129295979163672
448.0, 0.009721513563275474
449.0, 0.009227058196580623
450.0, 0.008118756994554457
451.0, 0.007345819026207114
452.0, 0.007078296308097632
453.0, 0.006686094938788313
454.0, 0.006402149079641209
455.0, 0.006583953853670399
456.0, 0.006847627147800653
457.0, 0.006256956325903435
458.0, 0.006158108995294998
459.0, 0.006350389806946155
460.0, 0.00567122520694499
461.0, 0.005123606993090608
462.0, 0.004932702759390299
463.0, 0.004691337921931955
464.0, 0.004845774478457311
465.0, 0.004932036166937595
466.0, 0.004420165064555486
467.0, 0.003996286978963746
468.0, 0.003763554079854816
469.0, 0.0035457236251816206
470.0, 0.0032930072684926987
471.0, 0.0031900599686675683
472.0, 0.0031710378075051828
473.0, 0.0030347827484181857
474.0, 0.0029707406642910583
475.0, 0.002988929771759477
476.0, 0.0028361415788026845
477.0, 0.002741885334759719
478.0, 0.0026599401019695495
479.0, 0.002554742956375867
480.0, 0.0024360483174838358
481.0, 0.0023789538738117483
482.0, 0.002420248410111272
483.0, 0.0023801157015718704
484.0, 0.0018121099124961415
485.0, 0.001919237316172928
486.0, 0.0019846569074444703
487.0, 0.0017645502559336707
488.0, 0.0014890582442125282
489.0, 0.0016228981758645968
490.0, 0.0012288789059186637
491.0, 0.000996478464602251
492.0, 0.0007472802401615483
493.0, 0.00042426991469930454
494.0, 0.0004139003001927774
495.0, 0.000929479124704864
496.0, 0.00026687228654394734
497.0, 0.0012761975535523905
498.0, 0.0008911566774859579
499.0, 0.0004550778277670317
500.0, 0.0005581739365977802
501.0, 0.0008367124875648319
502.0, 0.0003541251548884954
503.0, 0.0007618992371109493
504.0, 0.0002810178884414676
505.0, 4.212032081037395e-05
506.0, 0.000391363611659986
507.0, 0.0009022765039405919
508.0, 0.0008754304828770214
509.0, 0.0007081069343263269
510.0, 0.00019680473286438622
511.0, 0.00023026514948380598
512.0, 0.0005627373331727475
513.0, 0.0007555370891681799
514.0, 0.000684094530452947
515.0, 0.0008479809284445967
516.0, 0.0015463913781094277
517.0, 0.0011738970081581232
518.0, 0.000732395659192204
519.0, 0.000990313650811338
520.0, 0.001678295872751879
521.0, 0.002030270455596984
522.0, 0.002686055627608534
523.0, 0.0032323227453673227
524.0, 0.003474142442717004
525.0, 0.0041122697119690185
526.0, 0.0047727628222661335
527.0, 0.00517636459426851
528.0, 0.005893620979001351
529.0, 0.006890232003014088
530.0, 0.007928075394594065
531.0, 0.009244474230704854
532.0, 0.010699618615033367
533.0, 0.012241210607832164
534.0, 0.013965705697377009
535.0, 0.016031390252156955
536.0, 0.017342374564541626
537.0, 0.02021872843546112
538.0, 0.021782678747674346
539.0, 0.02213746517949433
540.0, 0.02170314860933224
541.0, 0.020274404303608697
542.0, 0.018992611928716874
543.0, 0.01679070642584066
544.0, 0.014635237206967766
545.0, 0.012821416586998818
546.0, 0.010564032276699132
547.0, 0.007778327727376646
548.0, 0.0063885436810396145
549.0, 0.0051671701079351404
550.0, 0.0038148682300794615
551.0, 0.002984588118431071
552.0, 0.002873698898509837
553.0, 0.002665050033337621
554.0, 0.0016044296893326527
555.0, 0.0011571871180151158
556.0, 0.00112214554688214
557.0, 0.000565314292373045
558.0, 0.00021324812222975217
559.0, 0.0002765288052145263
560.0, 0.0005348574542260819
561.0, 0.0005866555768063835
562.0, 0.0004364488469313712
563.0, 0.00011015074462529222
564.0, 0.0003087459244576027
565.0, 0.0005263420001591123
566.0, 0.0006949873868430191
567.0, 0.0007700334126012943
568.0, 0.00045682665664569254
569.0, 0.0004945216428482354
570.0, 0.0005530842452170996
571.0, 0.0005074688696835118
572.0, 0.0005767208375834925
573.0, 0.0005325794591277337
574.0, 0.00020211536181065622
575.0, 0.0001548514216091829
576.0, 2.4127232184814934e-05
577.0, 0.00030649346954011883
578.0, 0.0006823878010242469
579.0, 0.0008800396480697139
580.0, 0.0009132129368265755
581.0, 0.0008084415889184461
582.0, 2.574706108528132e-05
583.0, 0.0006167433055581282
584.0, 0.0004276155309035839
585.0, 0.00027675089475608864
586.0, 0.00035252227898912274
587.0, 0.0003686386487866429
588.0, 8.443478979115328e-05
589.0, 0.0003787613144569979
590.0, 0.0005755510295594477
591.0, 0.0005680174118344666
592.0, 0.0005673036015009524
593.0, 0.00045572699108708555
594.0, 0.0002258993832244501
595.0, 9.822129149597973e-05
596.0, 2.8758244710185036e-05
597.0, 0.00019974096472926008
598.0, 0.00047322004989542677
599.0, 0.0005230771330798356
600.0, 0.0005134538683117432
601.0, 0.0006717882066930301
602.0, 0.0008967741537622002
603.0, 0.0005242275750783959
604.0, 0.0005251161548623505
605.0, 0.0002199844416333118
606.0, 0.00017329510871616998
607.0, 0.00028335070319925314
608.0, 0.0003984611093159743
609.0, 0.0007121630777661015
610.0, 0.0004106149355330963
611.0, 0.0010590393971897864
612.0, 0.0004629825423262501
613.0, 0.0002969525178324313
614.0, 0.0006716139156963152
615.0, 0.0007701310903611833
616.0, 0.00021778684184102674
617.0, 0.00014794120084548408
618.0, 0.0005742863885462841
619.0, 0.0006320543287400677
620.0, 0.0008697654494958518
621.0, 0.0010744396443801828
622.0, 0.0007791271078343388
623.0, 7.816032636846422e-05
624.0, 0.00022443991615830612
625.0, 0.00015292156574252662
626.0, 0.0001538193844684303
627.0, 0.00026205489038014777
628.0, 0.0002797257116226569
629.0, 0.00020464710664575909
630.0, 0.00037589643977803964
631.0, 0.0003348665316374225
632.0, 0.0005152908575562923
633.0, 0.000452056940501867
634.0, 0.0005036755632976661
635.0, 0.0006733825872907151
636.0, 0.0007827265814133933
637.0, 0.0007268527537672852
638.0, 0.0004175597009860417
639.0, 0.0007584384550697273
640.0, 0.000676406793940062
641.0, 0.0007780168974990178
642.0, 0.0010939023395019878
643.0, 0.0012267094006449416
644.0, 0.0008726584957595707
645.0, 0.0006789441838345854
646.0, 0.0012774810716332432
647.0, 0.001178681575385674
648.0, 0.0009969041011785415
649.0, 0.0009332478501837955
650.0, 0.0009392997826232689
651.0, 0.0009672935896982834
652.0, 0.0011241934701128804
653.0, 0.0013473050784295335
654.0, 0.0010165556098070323
655.0, 0.0007470697082854312
656.0, 0.0007023471932509222
657.0, 0.000676902223763039
658.0, 0.0004776452096249436
659.0, 0.0004944373232849386
660.0, 0.00026325414261402745
661.0, 0.00035004589535621186
662.0, 0.0004634497275050864
663.0, 0.0006289172086630833
664.0, 0.0006745004600584448
665.0, 0.0005142960836355131
666.0, 0.0006992973037191301
667.0, 0.0011550534224703027
668.0, 0.0008908143612848498
669.0, 0.00042842981213184363
670.0, 0.000723273155229714
671.0, 0.0009847433696491543
672.0, 0.0005328860956901081
673.0, 0.0006621988729569739
674.0, 0.0010655767609117394
675.0, 0.0009509903832866594
676.0, 0.0007729333402791299
677.0, 0.0008353385525391692
678.0, 0.0008599496073371151
679.0, 0.0006755656944096502
680.0, 0.0005554859703237988
681.0, 0.0005198713089627682
682.0, 0.0005333783401596507
683.0, 0.0004219736071780778
684.0, 0.0004478108471986245
685.0, 0.00057164501822417
686.0, 0.0006545873360364636
687.0, 0.000662821169715638
688.0, 0.0007880320107905061
689.0, 0.0007555477961895068
690.0, 0.0008373000444752155
691.0, 0.0010255881263118124
692.0, 0.0011110290184556321
693.0, 0.0011637576377229294
694.0, 0.0013307739383535623
695.0, 0.0015025856711441557
696.0, 0.0015975004145779362
697.0, 0.0015187552425616863
698.0, 0.0011386395694403296
699.0, 0.0012332496396231995
700.0, 0.0014361989201959065
701.0, 0.0012660156568170932
702.0, 0.000979992396819199
703.0, 0.0014052450930764411
704.0, 0.0009515011266372262
705.0, 0.001517885222613528
706.0, 0.0017375906166805547
707.0, 0.001718822917725516
708.0, 0.0016229883927451156
709.0, 0.0015173269275063042
710.0, 0.001765683046730954
711.0, 0.0013902568776982377
712.0, 0.0021659927202523346
713.0, 0.0017742726189748884
714.0, 0.0019148277448610234
715.0, 0.002369612430054331
716.0, 0.0025068490543118122
717.0, 0.002682364833931906
718.0, 0.00282320989239649
719.0, 0.0033489567521550376
720.0, 0.003417901942249636
721.0, 0.003841933170613914
722.0, 0.0037560780360044494
723.0, 0.0037376077299080598
724.0, 0.004739475147457803
725.0, 0.005419182404684955
726.0, 0.005337640127860237
727.0, 0.006233122065642643
728.0, 0.007074737796925721
729.0, 0.007512268720427568
730.0, 0.008445633178334442
731.0, 0.010079432843530387
732.0, 0.011341417840174405
733.0, 0.011930446513564149
734.0, 0.013670826169571838
735.0, 0.015288074298674868
736.0, 0.01703530853185795
737.0, 0.018984352873530418
738.0, 0.020767368606880842
739.0, 0.021921654187256598
740.0, 0.022362424242410688
741.0, 0.022381416252137423
742.0, 0.023810843645966636
743.0, 0.02380392418914912
744.0, 0.023934947063802725
745.0, 0.024334970932133767
746.0, 0.024923924107359975
747.0, 0.025851713644208154
748.0, 0.02697977275775096
749.0, 0.02882708819724848
750.0, 0.03140732282975032
751.0, 0.03403996463430938
752.0, 0.03757142621237151
753.0, 0.04149575634248531
754.0, 0.04568856500701708
755.0, 0.05127132393814124
756.0, 0.05881651317528165
757.0, 0.06489703043888523
758.0, 0.07133361115851053
759.0, 0.0779619819965961
760.0, 0.08493577043718478
761.0, 0.09143140323943899
762.0, 0.09644292841101937
763.0, 0.09922424823073273
764.0, 0.09718603643850333
765.0, 0.09425485139586989
766.0, 0.08806026754543139
767.0, 0.08157995034898985
768.0, 0.07327048166306281
769.0, 0.06479630164486096
770.0, 0.0580441051515812
771.0, 0.050522256924331564
772.0, 0.04544201106865171
773.0, 0.039702560467090094
774.0, 0.03387653154026714
775.0, 0.030128155062226904
776.0, 0.027505153806527072
777.0, 0.024730590504993443
778.0, 0.021660385796450587
779.0, 0.01905748312720363
780.0, 0.017351102167123267
781.0, 0.015272925548752394
782.0, 0.013543874518312238
783.0, 0.012364007711514203
784.0, 0.011951302899798497
785.0, 0.011262081955076674
786.0, 0.009598697378250809
787.0, 0.008947647057273762
788.0, 0.007766753973741243
789.0, 0.0068258318561776245
790.0, 0.006486804185042234
791.0, 0.00550214729181712
792.0, 0.0048580410404780484
793.0, 0.005042579506514711
794.0, 0.0052533870297012085
795.0, 0.004876958032778043
796.0, 0.0038387179106026945
797.0, 0.004278132063654939
798.0, 0.0040263994316679895
799.0, 0.0043545639406652615
800.0, 0.004588505577729978
801.0, 0.004315228831777302
802.0, 0.00400294821598378
803.0, 0.0037496827372589243
804.0, 0.0033447174443833254
805.0, 0.0032375482902023216
806.0, 0.0032666619427816927
807.0, 0.0029851233031343563
808.0, 0.0028394098820015657
809.0, 0.0028086627098359907
810.0, 0.0024729633338752303
811.0, 0.0020928767143842176
812.0, 0.002547104725053047
813.0, 0.0023401490524726266
814.0, 0.0024286050179094915
815.0, 0.0025886583765337883
816.0, 0.00309184811470596
817.0, 0.004095487993892161
818.0, 0.005227590644171265
819.0, 0.0058902475854425256
820.0, 0.006882669251999162
821.0, 0.006790806436246468
822.0, 0.008803198383548521
823.0, 0.009915854471926965
824.0, 0.010443033469874227
825.0, 0.011547377953432796
826.0, 0.013414280395884727
827.0, 0.015107218820341195
828.0, 0.01657775575236504
829.0, 0.017579373950609174
830.0, 0.0188374126357312
831.0, 0.020030121000247474
832.0, 0.02266788575977595
833.0, 0.025601031582350234
834.0, 0.028698025743463862
835.0, 0.03337976579265497
836.0, 0.036578919366761914
837.0, 0.038664384967631645
838.0, 0.041583793681466266
839.0, 0.04304765144592553
840.0, 0.042801440876495525
841.0, 0.0415679858741084
842.0, 0.03930910703773707
843.0, 0.03546274467284621
844.0, 0.030645999446455977
845.0, 0.02640033052381663
846.0, 0.023079604730857572
847.0, 0.019296277315422775
848.0, 0.016172140728473058
849.0, 0.013892572278083272
850.0, 0.012239996729072129
851.0, 0.010774341016321411
852.0, 0.009102026933880125
853.0, 0.007900138470423248
854.0, 0.0069838080360524095
855.0, 0.005625839971141204
856.0, 0.0043922613217227124
857.0, 0.0040581411975295295
858.0, 0.0037104132274526007
859.0, 0.0029873779506426747
860.0, 0.002550076984660383
861.0, 0.0018924396751241778
862.0, 0.001665304380009164
863.0, 0.0020756261194947423
864.0, 0.0018867826564715686
865.0, 0.0013911548007941186
866.0, 0.0011616771789320218
867.0, 0.000979218841862509
868.0, 0.0006892058925028577
869.0, 0.0008239163698666918
870.0, 0.0004003996392320428
871.0, 0.0004149628270891819
872.0, 0.0005225236629204472
873.0, 0.00044571629003989366
874.0, 0.0004728994064380865
875.0, 0.0006301637865786196
876.0, 0.0007349916964037944
877.0, 0.0007194092244128357
878.0, 0.0007776316491992518
879.0, 0.0007071425680674189
880.0, 0.000703334100505036
881.0, 0.0005277577800004025
882.0, 0.0005396248291539065
883.0, 0.0005574689537315545
884.0, 0.0007803932069741607
885.0, 0.0009661415664896921
886.0, 0.0005465899012461882
887.0, 0.0007984541204975454
888.0, 0.0005940156339171189
889.0, 0.00033762650373357774
890.0, 0.00013303239412254238
891.0, 8.798648068736793e-05
892.0, 0.00016570240827645916
893.0, 0.0002559616984068407
894.0, 0.00032267985990091976
895.0, 0.00043615620144130433
896.0, 0.000536789923088455
897.0, 0.0008744919453680228
898.0, 0.0008537610179951049
899.0, 0.0010262172015581222
900.0, 0.0006999170792784402
901.0, 0.00022059158766781005
902.0, 0.00020099249953881086
903.0, 0.000650200493068057
904.0, 0.0010035884683213018
905.0, 0.0010539723350559199
906.0, 0.0009493496638862278
907.0, 0.00076888155719359
908.0, 0.0007739434647999367
909.0, 0.0008116626568071898
910.0, 0.0006420334148169589
911.0, 0.0006702422369525655
912.0, 0.001216706392111979
913.0, 0.0013915457911575176
914.0, 0.0017032676591448065
915.0, 0.0012039032224977057
916.0, 0.0011089750262571487
917.0, 0.0009331829819146248
918.0, 0.0008910995296838104
919.0, 0.001063598010504407
920.0, 0.001360431441317426
921.0, 0.001617956640325268
922.0, 0.001536655115025661
923.0, 0.0005998041760632994
924.0, 0.0015977999373651122
925.0, 0.0017128367226725684
926.0, 0.0015405007800198363
927.0, 0.0018883869780083695
928.0, 0.0025137089833375563
929.0, 0.0028157825535237877
930.0, 0.0028742468903595136
931.0, 0.003389407231024866
932.0, 0.0033940162145863714
933.0, 0.004141654500625004
934.0, 0.004843453676253692
935.0, 0.004840681093764138
936.0, 0.0050250535825199245
937.0, 0.005407604203781969
938.0, 0.005471009414718773
939.0, 0.0051679802761431136
940.0, 0.004986334591075724
941.0, 0.004289631899734565
942.0, 0.003908964721485066
943.0, 0.0033867408149960664
944.0, 0.002496357733572684
945.0, 0.00262073661607537
946.0, 0.002906082529130959
947.0, 0.002409687885082816
948.0, 0.0016983922951043506
949.0, 0.001784993574479956
950.0, 0.0014121506251452247
951.0, 0.0017629733749853348
952.0, 0.0016256412362567992
953.0, 0.001199224605522083
954.0, 0.0009804119595103113
955.0, 0.0009388704521956719
956.0, 0.0006254687120472928
957.0, 0.0001884240150928776
958.0, 0.0002404521143737748
959.0, 0.00024668152474352603
960.0, 0.0005389904048049506
961.0, 0.00029375213916792023
962.0, 0.0005592529901633748
963.0, 0.0004220676936097371
964.0, 0.000198571914473957
965.0, 0.0003950725774357211
966.0, 0.0006832167551698795
967.0, 0.0005348162189474684
968.0, 0.0004223969359129439
969.0, 0.000460620770786832
970.0, 0.0010577999838950484
971.0, 0.0008129723256354607
972.0, 0.0005549207555288479
973.0, 0.0010230189256332854
974.0, 0.0008253966476606463
975.0, 0.0005601976297978991
976.0, 0.0009554611596634704
977.0, 0.0008096517527212022
978.0, 0.0006080861085898068
979.0, 0.0002634628609234217
980.0, 0.0007196052591910908
981.0, 0.0007010844555006659
982.0, 0.0008864891845565946
983.0, 0.0010044742594077533
984.0, 0.0009378468089029853
985.0, 0.0008226920121283441
986.0, 0.0007383912321315541
987.0, 0.0005436313786676777
988.0, 8.548332718916546e-05
989.0, 0.0004756155145557849
990.0, 0.00032673965651133004
991.0, 0.00015401029764751088
992.0, 0.0006010524927326283
993.0, 0.0005938964280166989
994.0, 0.0004952370937411791
995.0, 0.0004928695450691846
996.0, 9.019299924373824e-05
997.0, 0.00033891559033733725
998.0, 0.0005509189143961498
999.0, 0.000591411383567091
1000.0, 0.0005769994602062328
1001.0, 0.0005460749296522673
1002.0, 0.0003330458805997377
1003.0, 0.000247198876289922
1004.0, 0.00017974588597301875
1005.0, 3.040871285105726e-05
1006.0, 5.251383738490965e-05
1007.0, 8.263040434809494e-05
1008.0, 0.0002509069540021108
1009.0, 8.737191643660239e-05
1010.0, 0.00013504901868564373
1011.0, 0.00011461909246285581
1012.0, 4.645460903945406e-05
1013.0, 2.2748935105588614e-05
1014.0, 2.1867899107490363e-05
1015.0, 2.2603656458256766e-05
1016.0, 6.392523899320033e-05
1017.0, 7.157352492010494e-05
1018.0, 0.00023201857079244823
1019.0, 0.00015408018465651877
1020.0, 0.00018433290279195526
1021.0, 0.00015333577920785272
1022.0, 0.0001231755249702075
1023.0, 6.461450742754573e-05
1024.0, 2.055552602406429e-05
1025.0, 0.00010375321237986128
1026.0, 0.0002858623263969532
1027.0, 0.0003299825902534746
1028.0, 0.00035405598274025374
1029.0, 0.0002291394304903165
1030.0, 0.000259096726448869
1031.0, 0.00025052391978029425
1032.0, 0.00010322236701433538
1033.0, 1.6519725757657668e-05
1034.0, 0.00014476913901108752
1035.0, 0.0002721725438869792
1036.0, 0.00014941169746659667
1037.0, 0.0001529683704529185
1038.0, 0.0006610698501770069
1039.0, 0.0003962376810199089
1040.0, 0.00024061830512860688
1041.0, 0.0006800518393921726
1042.0, 0.00043422970388511323
1043.0, 0.00019072216603730865
1044.0, 0.00017836802683174094
1045.0, 0.0001537715559507149
1046.0, 0.00015365279631876546
1047.0, 0.00030820719604537217
1048.0, 0.00042811313756334433
1049.0, 0.0006624968762706844
1050.0, 9.093757336384921e-05
1051.0, 7.723883227637901e-05
1052.0, 0.001021612037929481
1053.0, 0.0012761695294090031
1054.0, 0.0008945161674686871
1055.0, 0.0008632816173959201
1056.0, 0.001102765333002256
1057.0, 0.0009123659936339398
1058.0, 0.0012466907648362225
1059.0, 0.0010237243353337338
1060.0, 0.0013122707559508379
1061.0, 0.0016166677185342107
1062.0, 0.0019518539039256072
1063.0, 0.0017974297787206066
1064.0, 0.001791305147902386
1065.0, 0.0017301592767113429
1066.0, 0.0015650413458542128
1067.0, 0.0017428100651669142
1068.0, 0.002074163808044571
1069.0, 0.002708227601602774
1070.0, 0.0028388405192783035
1071.0, 0.0031805376575750003
1072.0, 0.003492179633630331
1073.0, 0.0036633413624485842
1074.0, 0.004029928859891161
1075.0, 0.004003746017528948
1076.0, 0.0040604596539202415
1077.0, 0.004734338636828676
1078.0, 0.005319543611607099
1079.0, 0.005568969318555359
1080.0, 0.007089201194523034
1081.0, 0.007318608327353621
1082.0, 0.00868213954804514
1083.0, 0.009742736996476039
1084.0, 0.011179455242831772
1085.0, 0.012634838446707928
1086.0, 0.014519672826589433
1087.0, 0.017162628458735816
1088.0, 0.021042732275787495
1089.0, 0.0264458968536358
1090.0, 0.032351465074820125
1091.0, 0.041104213079526525
1092.0, 0.05144355784987357
1093.0, 0.06473483149131135
1094.0, 0.08133684898391405
1095.0, 0.09380377218434319
1096.0, 0.10030338813299317
1097.0, 0.09627579089935978
1098.0, 0.08218623599133573
1099.0, 0.06472035065078938
1100.0, 0.04961392405496316
1101.0, 0.038022404141446024
1102.0, 0.02950152524899634
1103.0, 0.0235435710274716
1104.0, 0.019095584243458606
1105.0, 0.01589084598540553
1106.0, 0.013012711596555752
1107.0, 0.010591839453434865
1108.0, 0.009160019221597707
1109.0, 0.00846099617352463
1110.0, 0.0074746514802072365
1111.0, 0.005952780950441074
1112.0, 0.005134001537316016
1113.0, 0.004932368314045168
1114.0, 0.004583814755815149
1115.0, 0.0036560885798391663
1116.0, 0.003137028031909724
1117.0, 0.0032408392768093724
1118.0, 0.0031450580867366956
1119.0, 0.002761112297448755
1120.0, 0.002572850726535462
1121.0, 0.002515267025074827
1122.0, 0.0022967562628586884
1123.0, 0.0021829218543864093
1124.0, 0.002000436364408551
1125.0, 0.0021311916223675383
1126.0, 0.0022799653296944715
1127.0, 0.0017526358525387171
1128.0, 0.0014541781289301023
1129.0, 0.0016466623651850503
1130.0, 0.0014716173866347801
1131.0, 0.0012592701736869971
1132.0, 0.0010177114527282136
1133.0, 0.0005910759189314074
1134.0, 0.00056203140013764
1135.0, 0.0011202640480075165
1136.0, 0.0012212702926419918
1137.0, 0.0007994323420241196
1138.0, 0.0008167273791798362
1139.0, 0.0008727383607273601
1140.0, 0.0006806365540978046
1141.0, 0.000827557978229135
1142.0, 0.0005937006763026841
1143.0, 0.00038647296323714256
1144.0, 0.0005080773409612901
1145.0, 0.0005397622027517454
1146.0, 0.0004145817111411905
1147.0, 0.00040011047294656523
1148.0, 0.0004562699298925008
1149.0, 0.00024662005776303526
1150.0, 0.0001346038659308721
1151.0, 8.691191279590849e-05
1152.0, 0.0002505195607379315
1153.0, 0.0001640357434388138
1154.0, 0.00019271391790537986
1155.0, 0.00045924046042206584
1156.0, 0.0005018324659988785
1157.0, 0.00025351972133686986
1158.0, 0.00027714795843612587
1159.0, 0.0004852879032276263
1160.0, 0.0005779210158039728
1161.0, 0.00016145953581348936
1162.0, 0.0003219592490954542
1163.0, 0.0004478504678327699
1164.0, 0.0003317877925716228
1165.0, 0.0003472423455075309
1166.0, 0.0004109618676444127
1167.0, 0.0006512622459117572
1168.0, 0.0007264168287072286
1169.0, 0.0005366938489252992
1170.0, 0.0005548341547592867
1171.0, 0.0005458529703924763
1172.0, 0.000989975212059097
1173.0, 0.0003373577041605905
1174.0, 0.0008421388736738516
1175.0, 0.0005664715225850453
1176.0, 0.0003327588053140453
1177.0, 0.00046852500828545735
1178.0, 0.000665189082915903
1179.0, 0.0005657932305005994
1180.0, 0.00035165125037892666
1181.0, 0.00030764569922816707
1182.0, 0.00026499061745115135
1183.0, 0.00012431490987209942
1184.0, 0.0004681605204030011
1185.0, 0.00022258703080422568
1186.0, 2.7541895970196784e-05
1187.0, 0.00039374767313379063
1188.0, 0.000553913686580055
1189.0, 0.0002548765689043569
1190.0, 0.00023156108314173625
1191.0, 0.0002863195872296337
1192.0, 0.00020396735705765454
1193.0, 0.00022538695440856417
1194.0, 0.0003840493709537137
1195.0, 0.00036469739242110525
1196.0, 0.0002868690663900862
1197.0, 0.00035719726739989516
1198.0, 0.00019749097258724046
1199.0, 0.00030824452165408906
1200.0, 0.000130090275221916
1201.0, 3.0062568438303217e-05
1202.0, 0.00012480351104729288
1203.0, 0.00018278713057744625
1204.0, 0.00022530975382883598
1205.0, 0.00031101603956808715
1206.0, 0.00031010040697907533
1207.0, 0.0001561760019388697
1208.0, 5.283642275253972e-05
1209.0, 0.00013738508460876266
1210.0, 0.00019211961067681907
1211.0, 0.00013381965364237295
1212.0, 0.00019393907760968315
1213.0, 0.0002127622764841226
1214.0, 0.000497316329163803
1215.0, 0.0007821154351381474
1216.0, 0.0004173557206114353
1217.0, 0.000114806919311892
1218.0, 0.0005277463823423389
1219.0, 0.0005726949570450266
1220.0, 0.00018027905317814238
1221.0, 0.0003443979044128505
1222.0, 7.76887304932007e-05
1223.0, 0.00022790361177727825
1224.0, 0.00047832293336966665
1225.0, 0.0001379604097636635
1226.0, 0.00012031387440343728
1227.0, 9.870522653546981e-05
1228.0, 0.00021379266307089542
1229.0, 0.00018618121173099748
1230.0, 0.0002035402221028845
1231.0, 0.00023395392385658652
1232.0, 0.00027967576105085033
1233.0, 0.0003002051875206533
1234.0, 0.0001902191198512413
1235.0, 0.00018335085296966835
1236.0, 0.00047561379982923876
1237.0, 7.11173417936421e-05
1238.0, 0.00015808784473591794
1239.0, 0.00013296663034920598
1240.0, 0.0003551204321400426
1241.0, 0.00044573218400455157
1242.0, 0.00025560538257551885
1243.0, 0.00013136589797676298
1244.0, 0.00037297400693358184
1245.0, 0.00032005741095814436
1246.0, 0.0002048149515424239
1247.0, 0.0002530341925187364
1248.0, 0.00014931904327657994
1249.0, 0.0001949731710204327
1250.0, 0.00041831553233381656
1251.0, 0.0005515141885352711
1252.0, 0.00032170553481599074
1253.0, 0.0003194291138368273
1254.0, 0.00039703033791311593
1255.0, 0.00025315229375019185
1256.0, 0.0004351426103303261
1257.0, 0.0003589503213014337
1258.0, 0.00024047731056913205
1259.0, 0.0005244542058868572
1260.0, 0.0009191623210858701
1261.0, 0.0007230534241835716
1262.0, 0.00033024650551903155
1263.0, 0.0005692786951413178
1264.0, 0.0005325002004006747
1265.0, 0.00015331375765455623
1266.0, 0.00017985920031248818
1267.0, 0.0006495574354371335
1268.0, 6.227736977875754e-05
1269.0, 0.0005047874254417077
1270.0, 0.00014372645402085254
1271.0, 0.0004382168509828812
1272.0, 0.0002276460710185726
1273.0, 0.00023184560303308785
1274.0, 0.0006600826822964361
1275.0, 0.0007748359282896196
1276.0, 0.0008019690408292483
1277.0, 0.0009554747526680146
1278.0, 0.00045563759702556793
1279.0, 0.00037661743319874715
1280.0, 0.0009076025903667286
1281.0, 0.00032027034171587494
1282.0, 0.0005167302914287889
1283.0, 0.000603952145051545
1284.0, 0.0005756804774053057
1285.0, 0.0005809569545396258
1286.0, 0.0006389895781405882
1287.0, 0.0009586359740260852
1288.0, 0.000881535748830743
1289.0, 0.000786152803266479
1290.0, 0.0007875909709942409
1291.0, 0.0005552429507898226
1292.0, 0.00034180811096727983
1293.0, 0.0004914479745171633
1294.0, 0.0007854722882950293
1295.0, 0.00063051291457802
1296.0, 0.0006386787331545148
1297.0, 1.4382608779165817e-05
1298.0, 0.0006955583083455276
1299.0, 0.00014918541549386796
1300.0, 0.001025241407301316
1301.0, 0.0008010866044419766
1302.0, 0.0009224494225757536
1303.0, 0.0009746082157934741
1304.0, 0.0006292094603936084
1305.0, 0.0003767950344055523
1306.0, 0.00038679084821603607
1307.0, 0.00037125290665830836
1308.0, 0.0003467748372365524
1309.0, 0.0004753863081160539
1310.0, 0.00047073371263331844
1311.0, 0.0007252528232819744
1312.0, 0.0008468368418464952
1313.0, 0.000659122043120291
1314.0, 0.0008111059560705442
1315.0, 0.00023801804172486767
1316.0, 0.0005950229034554645
1317.0, 0.00019586626227484697
1318.0, 0.0002971920699320266
1319.0, 0.00020886785302246782
1320.0, 0.00021583693206070462
1321.0, 0.000237192352724124
1322.0, 0.0002849976477272242
1323.0, 0.0004669429355126076
1324.0, 0.00046240668225672784
1325.0, 0.0006468463617543451
1326.0, 0.0007406468101656278
1327.0, 0.0005700825469321522
1328.0, 0.00044496009219800487
1329.0, 0.0007478205522710601
1330.0, 0.00011187461609946835
1331.0, 0.0007835956783893928
1332.0, 0.0005215809023656911
1333.0, 0.00043600527201248453
1334.0, 0.00027749311424812563
1335.0, 0.00015473385984819798
1336.0, 0.00045538762815395937
1337.0, 0.0006624253099604046
1338.0, 0.0009212626637464711
1339.0, 0.0009832700940662713
1340.0, 0.0005390419219069406
1341.0, 0.0006176763883579494
1342.0, 0.0008149008515505748
1343.0, 0.00012900451338864385
1344.0, 0.000502336859481023
1345.0, 0.0007088451558489748
1346.0, 0.0008457005144847897
1347.0, 0.0008872081597194911
1348.0, 0.0003717785310121511
1349.0, 0.0007959988741849114
1350.0, 0.0006562013260222991
1351.0, 0.0008150651059426471
1352.0, 0.00043598116041338255
1353.0, 0.0001925618431761605
1354.0, 0.0007377998523460926
1355.0, 0.0009602435774369126
1356.0, 0.0005859995516381347
1357.0, 0.0005867046111024197
1358.0, 0.0007042885994318614
1359.0, 0.00047480123006378574
1360.0, 0.0008151663847430221
1361.0, 0.0009170955940818957
1362.0, 0.0008919023798503076
1363.0, 0.0006847187759057717
1364.0, 0.0009775512779462631
1365.0, 0.0007939015292753826
1366.0, 0.00150988321407459
1367.0, 0.0015350325702401127
1368.0, 0.0014957369328892191
1369.0, 0.0014256953674618633
1370.0, 0.001370489860499662
1371.0, 0.0013923539505538293
1372.0, 0.0014515467652504142
1373.0, 0.0014499680047790268
1374.0, 0.0015679977536161036
1375.0, 0.0016421172669895514
1376.0, 0.0015088923859226324
1377.0, 0.0018042594515686756
1378.0, 0.002348252780493344
1379.0, 0.0027862292023854082
1380.0, 0.002645202367365874
1381.0, 0.003394668309617627
1382.0, 0.0035044011955332873
1383.0, 0.004309727280178778
1384.0, 0.0035563424557312167
1385.0, 0.003394848997456073
1386.0, 0.0041355429143404765
1387.0, 0.003820334302396926
1388.0, 0.00378763982731322
1389.0, 0.0037342358949419216
1390.0, 0.0035943719037959915
1391.0, 0.003946644426451101
1392.0, 0.004235593675103635
1393.0, 0.004326297092552806
1394.0, 0.0044306572598575575
1395.0, 0.004450882067067601
1396.0, 0.005025713811489309
1397.0, 0.005645603750820325
1398.0, 0.006092914364035382
1399.0, 0.00674887741063339
1400.0, 0.007273569234405209
1401.0, 0.008077363203559956
1402.0, 0.008216030145881867
1403.0, 0.0089885797253045
1404.0, 0.010020314204714382
1405.0, 0.011093932375028336
1406.0, 0.012552826796205811
1407.0, 0.014026161182494319
1408.0, 0.015797304954294586
1409.0, 0.01765904476203463
1410.0, 0.020034270884851955
1411.0, 0.022750303956801467
1412.0, 0.025712414968017835
1413.0, 0.02991348061738823
1414.0, 0.03626809095707011
1415.0, 0.044083972952316794
1416.0, 0.05278047698664518
1417.0, 0.06331206773123726
1418.0, 0.07379581818371188
1419.0, 0.08268793028159292
1420.0, 0.08622916834856495
1421.0, 0.08445008912273605
1422.0, 0.08315673390201185
1423.0, 0.08443105519934561
1424.0, 0.08975755307405768
1425.0, 0.10216696718405147
1426.0, 0.12272841471069947
1427.0, 0.15195409552084496
1428.0, 0.19192035305588823
1429.0, 0.22874691590197585
1430.0, 0.25369100412361667
1431.0, 0.25042680677381746
1432.0, 0.21864823789437995
1433.0, 0.17712364426267474
1434.0, 0.137475440786272
1435.0, 0.10362102098000824
1436.0, 0.07934973323347216
1437.0, 0.06203398381680015
1438.0, 0.04832841884239065
1439.0, 0.03755557358031827
1440.0, 0.030402905138150558
1441.0, 0.025968816259182972
1442.0, 0.0221288984349845
1443.0, 0.017677834489461117
1444.0, 0.015603717009119089
1445.0, 0.013105900146426088
1446.0, 0.01130926389744425
1447.0, 0.0101890642378712
1448.0, 0.009360069530760975
1449.0, 0.00875994816421315
1450.0, 0.008856819517866618
1451.0, 0.008720399124519593
1452.0, 0.008961655731801325
1453.0, 0.009571158558003666
1454.0, 0.010890741490469615
1455.0, 0.01435372901064678
1456.0, 0.020122016976571126
1457.0, 0.026932161212868753
1458.0, 0.0339375909787543
1459.0, 0.03843600295218853
1460.0, 0.03610541436167563
1461.0, 0.02846667683280761
1462.0, 0.020650205209909362
1463.0, 0.013527408161680373
1464.0, 0.010192914115412195
1465.0, 0.006649694039221745
1466.0, 0.0049684953892055956
1467.0, 0.00446635530079524
1468.0, 0.003330958602746978
1469.0, 0.00287787087576197
1470.0, 0.002098308797161049
1471.0, 0.0018578859571363661
1472.0, 0.0016128307271790804
1473.0, 0.0013109484710253196
1474.0, 0.0012319001051143996
1475.0, 0.0009434514420774601
1476.0, 0.00039992369828897195
1477.0, 0.0007068703657794887
1478.0, 0.0007059373191315621
1479.0, 0.0004417716590731995
1480.0, 0.0007523801917632227
1481.0, 0.0007864836072776459
1482.0, 0.0004947785145779986
1483.0, 0.0006629216622234681
1484.0, 0.0007976507934164972
1485.0, 0.0007178002218371015
1486.0, 0.0006291759842334164
1487.0, 0.0005053939598671612
1488.0, 0.0004362077303311636
1489.0, 0.0003162546693252068
1490.0, 0.0005245987901447626
1491.0, 0.0003689906212156074
1492.0, 0.0003246859261828016
1493.0, 0.0006848278353583427
1494.0, 0.00012780638548239937
1495.0, 0.0004889532715867664
1496.0, 0.0005841988877807643
1497.0, 0.00023615750815351498
1498.0, 0.0006622670234286133
1499.0, 0.00047575297068789006
1500.0, 0.00012531203814737538
1501.0, 8.387283697391734e-05
1502.0, 0.0003594287181432456
1503.0, 0.0007705333572831877
1504.0, 0.0011813207400827267
1505.0, 0.0006140777722104386
1506.0, 0.000542338246569994
1507.0, 0.0010439222776334593
1508.0, 0.0009888072055812514
1509.0, 0.0010431779312692017
1510.0, 0.00128937714009915
1511.0, 0.0009000184709953414
1512.0, 0.000800230514298657
1513.0, 0.0014456138389248125
1514.0, 0.0014649896486817811
1515.0, 0.001560035408647658
1516.0, 0.0013878622849977302
1517.0, 0.0016536719877941074
1518.0, 0.0017163920334948718
1519.0, 0.0020998151246872307
1520.0, 0.0018689098021659124
1521.0, 0.002899612006399962
1522.0, 0.0025144526292333927
1523.0, 0.0023793438820901586
1524.0, 0.002827798960062824
1525.0, 0.0022234150737138435
1526.0, 0.002227660654478065
1527.0, 0.0018336140252855934
1528.0, 0.0024147065635676743
1529.0, 0.002410923909572777
1530.0, 0.0024926812417366408
1531.0, 0.00271397673995042
1532.0, 0.002248828281655267
1533.0, 0.0020410813339260077
1534.0, 0.002555842218105787
1535.0, 0.0022115801548202815
1536.0, 0.0020699334458643467
1537.0, 0.0021620770996372816
1538.0, 0.0021229934340372667
1539.0, 0.0020203896840464354
1540.0, 0.0016730163348919408
1541.0, 0.0013064286301069231
1542.0, 0.001143884463760035
1543.0, 0.001189794310114394
1544.0, 0.0009315429779088302
1545.0, 0.0004869371955470623
1546.0, 0.0006237270612401487
1547.0, 0.0007659069622557535
1548.0, 0.000482942828023413
1549.0, 0.0006961370539743432
1550.0, 0.0006499296737811277
1551.0, 0.0007330372416434611
1552.0, 0.0005849675990258863
1553.0, 0.00071950199456549
1554.0, 0.0015302596545311567
1555.0, 0.0017830780608262319
1556.0, 0.0017772044808174031
1557.0, 0.0012776114918138567
1558.0, 0.0006202132422408791
1559.0, 0.0005436676371258208
1560.0, 0.00018211185888854857
1561.0, 2.4219440240091743e-05
1562.0, 0.0007033340117757993
1563.0, 0.0009269933175238903
1564.0, 0.0006975238357948752
1565.0, 0.0011122028525693596
1566.0, 0.0005150810267054703
1567.0, 0.000296045681519096
1568.0, 0.000413922545219614
1569.0, 0.0003737531818806097
1570.0, 0.00013812689791656217
1571.0, 9.601927109950153e-06
1572, 0.0
1573, 0.0
1574, 0.0
1575, 0.0
1576, 0.0
1577, 0.0
1578, 0.0
1579, 0.0
1580, 0.0
1581, 0.0
1582, 0.0
1583, 0.0
1584, 0.0
1585, 0.0
1586, 0.0
1587, 0.0
1588, 0.0
1589, 0.0
1590, 0.0
1591, 0.0
1592, 0.0
1593, 0.0
1594, 0.0
1595, 0.0
1596, 0.0
1597, 0.0
1598, 0.0
1599, 0.0
