30, 0.0
31, 0.0
32, 0.0
33, 0.0
34, 0.0
35, 0.0
36, 0.0
37, 0.0
38, 0.0
39, 0.0
40, 0.0
41, 0.0
42, 0.0
43, 0.0
44, 0.0
45, 0.0
46, 0.0
47, 0.0
48, 0.0
49, 0.0
50, 0.0
51, 0.0
52, 0.0
53, 0.0
54, 0.0
55, 0.0
56, 0.0
57, 0.0
58, 0.0
59, 0.0
60, 0.0
61, 0.0
62, 0.0
63, 0.0
64, 0.0
65, 0.0
66, 0.0
67, 0.0
68, 0.0
69, 0.0
70, 0.0
71, 0.0
72, 0.0
73, 0.0
74, 0.0
75, 0.0
76, 0.0
77, 0.0
78, 0.0
79, 0.0
80, 0.0
81, 0.0
82, 0.0
83, 0.0
84, 0.0
85, 0.0
86, 0.0
87, 0.0
88, 0.0
89, 0.0
90, 0.0
91, 0.0
92, 0.0
93, 0.0
94, 0.0
95, 0.0
96, 0.0
97, 0.0
98, 0.0
99, 0.0
100, 0.0
101, 0.0
102, 0.0
103, 0.0
104, 0.0
105, 0.0
106, 0.0
107, 0.0
108, 0.0
109, 0.0
110, 0.0
111, 0.0
112, 0.0
113, 0.0
114, 0.0
115, 0.0
116, 0.0
117, 0.0
118, 0.0
119, 0.0
120, 0.0
121, 0.0
122, 0.0
123, 0.0
124, 0.0
125, 0.0
126, 0.0
127, 0.0
128, 0.0
129, 0.0
130, 0.0
131, 0.0
132, 0.0
133, 0.0
134, 0.0
135, 0.0
136, 0.0
137, 0.0
138, 0.0
139, 0.0
140, 0.0
141, 0.0
142, 0.0
143, 0.0
144, 0.0
145, 0.0
146, 0.0
147, 0.0
148, 0.0
149, 0.0
150, 0.0
151.0, 0.0038054047574843427
152.0, 0.0007976187922343793
153.0, 0.0020258986577710095
154.0, 0.0036824705438873117
155.0, 0.006223418535077684
156.0, 0.011033056422856763
157.0, 0.0034054319764713625
158.0, 0.0004610625418548583
159.0, 0.0019294195664964833
160.0, 0.007476128232039835
161.0, 0.005148082053873567
162.0, 0.006810040681847388
163.0, 0.012226161151912402
164.0, 0.016542026993826005
165.0, 0.010518146822319711
166.0, 0.013442415373378489
167.0, 0.012401478853586435
168.0, 0.008433608500235702
169.0, 0.011025562822105947
170.0, 0.012573842989286748
171.0, 0.0195103903573851
172.0, 0.018508061140197943
173.0, 0.0067936658643348476
174.0, 0.004000750448360688
175.0, 0.016146806937573942
176.0, 0.02405310713557568
177.0, 0.016972674758497616
178.0, 0.004663834533374654
179.0, 0.011380835295751174
180.0, 0.009245578524075641
181.0, 0.0010588697868013544
182.0, 0.006900338639627671
183.0, 0.010556313186945773
184.0, 0.0073766634293823356
185.0, 0.008555364011529034
186.0, 0.012796567598019577
187.0, 0.00029676795925496526
188.0, 0.00596638275139662
189.0, 0.005142156188261343
190.0, 0.003868147157237782
191.0, 0.002056845756409258
192.0, 0.01065133285730374
193.0, 0.011822737601284307
194.0, 0.00991173193933658
195.0, 0.015486982652965832
196.0, 0.013441911051791646
197.0, 0.01398586767984859
198.0, 0.017444373571146487
199.0, 0.018780164969053506
200.0, 0.012588447402374147
201.0, 0.014637382081656611
202.0, 0.019621813259058558
203.0, 0.022714259244882233
204.0, 0.022555667184888033
205.0, 0.021596310885433977
206.0, 0.024568548367207007
207.0, 0.03186703939257297
208.0, 0.03917818223151793
209.0, 0.04088002483844638
210.0, 0.044508734496305255
211.0, 0.046399280714521166
212.0, 0.045241583961392814
213.0, 0.04266202374941296
214.0, 0.044273740831126715
215.0, 0.05023572461259898
216.0, 0.05742795117534304
217.0, 0.0620942473760599
218.0, 0.06084302242851928
219.0, 0.06721252282890955
220.0, 0.06989582597500137
221.0, 0.0629721133303848
222.0, 0.05753655389223933
223.0, 0.06170516938631831
224.0, 0.06380541798143145
225.0, 0.0598939653878111
226.0, 0.05768358457832014
227.0, 0.06854863988461495
228.0, 0.05306385927173116
229.0, 0.047343604098623086
230.0, 0.054870537557089365
231.0, 0.051218310926334144
232.0, 0.052121481111470025
233.0, 0.04893412992442547
234.0, 0.045856796061164426
235.0, 0.04710834334548154
236.0, 0.04542530852166531
237.0, 0.053663082587747914
238.0, 0.05763216536667509
239.0, 0.05375898379065391
240.0, 0.0514215561606054
241.0, 0.047922269034169976
242.0, 0.04633516366381498
243.0, 0.04864462519680963
244.0, 0.05072312848558235
245.0, 0.04161098543364842
246.0, 0.04389938109984892
247.0, 0.041168526283925144
248.0, 0.03430561036477486
249.0, 0.035229714982239556
250.0, 0.030198251191987935
251.0, 0.02530267146355234
252.0, 0.020965549795795076
253.0, 0.015655061538083544
254.0, 0.008273373336606885
255.0, 0.00218887380316356
256.0, 0.0013008710848775623
257.0, 0.005736551811408834
258.0, 0.011863060928554096
259.0, 0.009980548314109248
260.0, 0.008847032534302551
261.0, 0.007778771776834454
262.0, 0.003736934669635307
263.0, 0.0013859714393532313
264.0, 0.002240916678481958
265.0, 0.00550284140083907
266.0, 0.00446467063348718
267.0, 0.0014120407522040103
268.0, 0.0012328956631157616
269.0, 0.0025342572408113555
270.0, 0.002725588359259916
271.0, 0.0020058584481451934
272.0, 0.0007180928586946173
273.0, 0.004996307397747756
274.0, 0.006202528986834935
275.0, 0.00440688182414541
276.0, 0.0019436704654173943
277.0, 0.0008526177808586914
278.0, 0.008636146613917763
279.0, 0.012609740294780437
280.0, 0.009884705825690955
281.0, 0.004673759716444828
282.0, 0.010247385027190867
283.0, 0.01698108408904443
284.0, 0.01661285303576076
285.0, 0.011192125767732968
286.0, 0.010589836425774725
287.0, 0.015392884727532656
288.0, 0.020364874093370473
289.0, 0.026954754787591236
290.0, 0.03064983369225911
291.0, 0.022996160095884215
292.0, 0.024978006851358057
293.0, 0.030150493830930658
294.0, 0.03412405761508522
295.0, 0.03697417460322562
296.0, 0.0386674155860962
297.0, 0.03370125127585629
298.0, 0.032716812536146556
299.0, 0.0391606342084859
300.0, 0.04827983509210103
301.0, 0.04972213354998773
302.0, 0.04758292889971011
303.0, 0.0496337505410157
304.0, 0.052633481861874165
305.0, 0.04891014571121517
306.0, 0.04819876081548852
307.0, 0.05457754547781173
308.0, 0.06240286982987655
309.0, 0.06613722620775306
310.0, 0.06381486105527479
311.0, 0.06318468473873583
312.0, 0.0661542706807551
313.0, 0.06717697594396521
314.0, 0.06182698780624399
315.0, 0.0647973595341895
316.0, 0.06107368892037995
317.0, 0.06005504237780576
318.0, 0.05920817753257162
319.0, 0.05961498107920981
320.0, 0.05133411839756402
321.0, 0.04884593983559855
322.0, 0.04370974286159333
323.0, 0.037501798681581565
324.0, 0.03766300581130226
325.0, 0.03540511988766301
326.0, 0.03865213425177779
327.0, 0.038401687839597486
328.0, 0.03501517989735422
329.0, 0.03652764175886819
330.0, 0.036055783738787116
331.0, 0.03272714068367102
332.0, 0.034130273044152636
333.0, 0.0376423250710601
334.0, 0.03055443161519661
335.0, 0.03304728731835314
336.0, 0.035057952654095344
337.0, 0.03586817623698781
338.0, 0.033876744793562216
339.0, 0.021545248610201784
340.0, 0.02267599051073435
341.0, 0.023661579448963153
342.0, 0.02077307380312254
343.0, 0.02007689158473569
344.0, 0.024748802345765705
345.0, 0.020676684887168815
346.0, 0.019708659354047826
347.0, 0.02088906798216031
348.0, 0.020099566727084926
349.0, 0.02334659450647514
350.0, 0.023310016013211355
351.0, 0.018700061561806435
352.0, 0.017906495456010058
353.0, 0.022917659582065514
354.0, 0.02166293250069823
355.0, 0.01466748809128869
356.0, 0.01741170631781824
357.0, 0.013624162370278534
358.0, 0.01245888451365617
359.0, 0.011433381657883612
360.0, 0.012587441650428617
361.0, 0.012075288891585241
362.0, 0.01281555396111329
363.0, 0.011375101876795983
364.0, 0.00826451570595818
365.0, 0.012190679385463657
366.0, 0.010038632996335842
367.0, 0.005332227582030174
368.0, 0.009663198448630604
369.0, 0.006617056418377061
370.0, 0.004380006875546249
371.0, 0.00201816609134688
372.0, 0.005364814237961957
373.0, 0.004424867913002962
374.0, 0.0008706018748607974
375.0, 0.0017987917911528812
376.0, 0.0017562778786904534
377.0, 0.00397356279994863
378.0, 0.00024419178988671175
379.0, 0.0018237570056672907
380.0, 0.0006333902109965471
381.0, 0.00025835832046103594
382.0, 0.0006572972450641341
383.0, 0.00162872166820913
384.0, 0.0024211964602356023
385.0, 0.001776050018790536
386.0, 0.002937733641529683
387.0, 0.0010409590487355565
388.0, 0.006639035462694402
389.0, 0.008693307456979963
390.0, 0.007595542465599456
391.0, 0.0017905406947795637
392.0, 0.0013452045884220134
393.0, 0.011690756889540977
394.0, 0.011256213365487657
395.0, 0.011502506059683424
396.0, 0.0127093603208256
397.0, 0.016372273765945976
398.0, 0.023105860468178665
399.0, 0.028922194498473452
400.0, 0.026065628025296578
401.0, 0.034120156992690914
402.0, 0.033331821985273985
403.0, 0.03480616037714787
404.0, 0.03743969659363268
405.0, 0.038175882598848264
406.0, 0.04275044920763967
407.0, 0.048934749729768585
408.0, 0.05283808513186934
409.0, 0.05288149045808854
410.0, 0.06422292360855451
411.0, 0.07920580293830494
412.0, 0.08464571798364051
413.0, 0.08366165361920186
414.0, 0.08902362836339908
415.0, 0.09528749635074192
416.0, 0.09424971961887281
417.0, 0.10187680904987717
418.0, 0.11319245940634738
419.0, 0.11718307617024772
420.0, 0.12149953597704394
421.0, 0.11796543133984631
422.0, 0.12114074232019512
423.0, 0.12423409390177088
424.0, 0.122856284463437
425.0, 0.1182963744799579
426.0, 0.11245626164447681
427.0, 0.11143454612202842
428.0, 0.11199964703786255
429.0, 0.11142723581533079
430.0, 0.10194068655451896
431.0, 0.10081137565979928
432.0, 0.10134346088806159
433.0, 0.10142820412526504
434.0, 0.10098264201745459
435.0, 0.09910605084315559
436.0, 0.09866129891673558
437.0, 0.09692128888345478
438.0, 0.09588416251146711
439.0, 0.09401507546666087
440.0, 0.09180131298871008
441.0, 0.10054438670124004
442.0, 0.10282189886826383
443.0, 0.1049264382600872
444.0, 0.10625944190089875
445.0, 0.10367243718010528
446.0, 0.10327106669954013
447.0, 0.11324686531808698
448.0, 0.1254577238934224
449.0, 0.12840333100743845
450.0, 0.12469544508620319
451.0, 0.1307731728770825
452.0, 0.1360980310422536
453.0, 0.1433646899142172
454.0, 0.15047286328081755
455.0, 0.1536999403988574
456.0, 0.15578353176662713
457.0, 0.16146659641597189
458.0, 0.1614730353244378
459.0, 0.1646126888055858
460.0, 0.16796318048655812
461.0, 0.171293968258912
462.0, 0.16978776543502994
463.0, 0.17009681049677847
464.0, 0.16703344399558265
465.0, 0.1672817840668379
466.0, 0.1648256081347314
467.0, 0.16370414149222462
468.0, 0.16351953713533882
469.0, 0.1588635481274685
470.0, 0.15375546793153208
471.0, 0.15116392790380234
472.0, 0.1497638714373166
473.0, 0.13993755809884553
474.0, 0.13041508773381483
475.0, 0.12916974227462885
476.0, 0.12352519953484503
477.0, 0.113802784699417
478.0, 0.11317343189385548
479.0, 0.10150687531361613
480.0, 0.09106592029563977
481.0, 0.08025314571142789
482.0, 0.07256454911176878
483.0, 0.07088993167970631
484.0, 0.06408678350363184
485.0, 0.06752731417309765
486.0, 0.057823860280809526
487.0, 0.047313723140492286
488.0, 0.04243257808774506
489.0, 0.03264946092118306
490.0, 0.029768767635057317
491.0, 0.019840547911590907
492.0, 0.019959880195122934
493.0, 0.021012965116390312
494.0, 0.011867644905385503
495.0, 0.01551764263809689
496.0, 0.012266441169428748
497.0, 0.016064058149976437
498.0, 0.015648577078528896
499.0, 0.007307748290393709
500.0, 0.007363934690143273
501.0, 0.008650320021588874
502.0, 0.003984871630325785
503.0, 0.0029523574148293203
504.0, 0.0022303613450662054
505.0, 0.0006000825648471032
506.0, 0.006654245686687884
507.0, 0.0028587106068868155
508.0, 0.0010189077990467549
509.0, 0.001150734221476797
510.0, 0.00046582250495107695
511.0, 0.008147970984403025
512.0, 0.0025319430946692074
513.0, 0.007982716335850109
514.0, 0.00899710142791378
515.0, 0.01016913713359094
516.0, 0.015521182567112409
517.0, 0.010919657057214236
518.0, 0.006992454375115988
519.0, 0.006850357368377458
520.0, 0.00960607315577349
521.0, 0.01354977186337814
522.0, 0.014829588025015536
523.0, 0.0070056506866507245
524.0, 0.009946182502836642
525.0, 0.009688704127104734
526.0, 0.01048420663958796
527.0, 0.014574351354188138
528.0, 0.015566366204477794
529.0, 0.00947127458730258
530.0, 0.006164076638899228
531.0, 0.003795135395446503
532.0, 0.008150118860070896
533.0, 0.012865836868754619
534.0, 0.004198979103310103
535.0, 0.0020781712129921462
536.0, 0.0028600129965417856
537.0, 0.005281932040178841
538.0, 0.004521257201355164
539.0, 0.0011007526120061686
540.0, 0.006175382613053434
541.0, 0.006423469999481257
542.0, 0.003340607321280655
543.0, 0.0021622905261666557
544.0, 0.003884534446764182
545.0, 0.005320060852737795
546.0, 0.003178173000013642
547.0, 0.006595609320053214
548.0, 0.0030962195716508737
549.0, 0.004593770929649697
550.0, 0.005236643919315289
551.0, 0.005082611293513076
552.0, 0.007014797663335635
553.0, 0.0007599791820800366
554.0, 0.002445684116439157
555.0, 0.004324138009297854
556.0, 0.000585244495277454
557.0, 0.002232769331896251
558.0, 0.001999672385061958
559.0, 0.001854025454836084
560.0, 0.0013028559354110753
561.0, 0.0015042660453805398
562.0, 0.00116502009423783
563.0, 0.00479786832634544
564.0, 0.00021205281965442626
565.0, 0.0005541676115159632
566.0, 0.006929241097758036
567.0, 0.007137961365999884
568.0, 0.0032916531084973893
569.0, 0.012521130268335316
570.0, 0.010751927749731278
571.0, 0.008275635003512126
572.0, 0.00963385442853434
573.0, 0.016358696356677676
574.0, 0.01945577710382049
575.0, 0.01547871001223529
576.0, 0.02488107339029083
577.0, 0.02764114206658894
578.0, 0.02236733331679537
579.0, 0.021258928755022145
580.0, 0.02693139018349028
581.0, 0.030417748677749042
582.0, 0.02664868598807189
583.0, 0.02759623353602485
584.0, 0.028099696995652085
585.0, 0.03520948540711819
586.0, 0.03996908968886443
587.0, 0.03080201694564916
588.0, 0.04315386906995902
589.0, 0.062062156902460267
590.0, 0.06138216463793311
591.0, 0.05571859138238723
592.0, 0.0594091940099792
593.0, 0.06741165052806908
594.0, 0.07046478937588889
595.0, 0.07164366259217281
596.0, 0.07702201175528976
597.0, 0.08289845073685834
598.0, 0.09213036465163119
599.0, 0.1030403030004518
600.0, 0.09622877887815348
601.0, 0.10041113941284106
602.0, 0.11198185349031661
603.0, 0.11425484238848302
604.0, 0.1110548482040081
605.0, 0.11336515756322196
606.0, 0.12000911086381669
607.0, 0.11604520145970128
608.0, 0.12442487463714214
609.0, 0.12315086289006058
610.0, 0.12378429434867602
611.0, 0.12577844278005168
612.0, 0.12755238058202864
613.0, 0.1276722198875956
614.0, 0.13228066186835358
615.0, 0.13552531389525024
616.0, 0.13664883943464903
617.0, 0.13618595443558545
618.0, 0.1314967599899797
619.0, 0.12655712788689347
620.0, 0.1232821025706277
621.0, 0.12046039095699804
622.0, 0.12070877328693061
623.0, 0.12253314269010454
624.0, 0.1188404830871
625.0, 0.11000614675873482
626.0, 0.10944353216588128
627.0, 0.10487984508670138
628.0, 0.09753246325190015
629.0, 0.08924977259652786
630.0, 0.08116037189668161
631.0, 0.0787769034342058
632.0, 0.07798978414421706
633.0, 0.07561097303450881
634.0, 0.07785761770717739
635.0, 0.07458172560579807
636.0, 0.06418636564757961
637.0, 0.06573109771283965
638.0, 0.06160304213763531
639.0, 0.05468318787649821
640.0, 0.04298273997953203
641.0, 0.04333821549498574
642.0, 0.05066751512190886
643.0, 0.04769293129620558
644.0, 0.03924652159072513
645.0, 0.035144635101011124
646.0, 0.03444470765485184
647.0, 0.033498156806552715
648.0, 0.03420351145853694
649.0, 0.0344150306887378
650.0, 0.0264620768480716
651.0, 0.02508441522301815
652.0, 0.020502374448340067
653.0, 0.01694041611675102
654.0, 0.019939345331060614
655.0, 0.02257796375601703
656.0, 0.017341665786235694
657.0, 0.010345000555552953
658.0, 0.008630117709803639
659.0, 0.008690164832232044
660.0, 0.016390854919117064
661.0, 0.02152346681235417
662.0, 0.01475115815552485
663.0, 0.005433147310369742
664.0, 0.0073194935601697785
665.0, 0.0013314610001062604
666.0, 0.003788037729112402
667.0, 0.00979081246818822
668.0, 0.010315671173513398
669.0, 0.008674901563429304
670.0, 0.013113748107746865
671.0, 0.005163760394265971
672.0, 0.006837143087170279
673.0, 0.009083662417083496
674.0, 0.00706923944622288
675.0, 0.003505197229115658
676.0, 0.001078084611688015
677.0, 0.0014379041386476867
678.0, 0.011748355971746128
679.0, 0.00869096822124715
680.0, 0.001926225432952421
681.0, 0.0013921959236199819
682.0, 0.0009796781581115866
683.0, 0.004940012830651154
684.0, 0.0022729955076866764
685.0, 0.0015757871701436025
686.0, 0.005282264159010459
687.0, 0.0012137172323279447
688.0, 0.0019708865758851415
689.0, 0.0034731188046873487
690.0, 0.002665746390643003
691.0, 0.006672914846310079
692.0, 0.010349164128392737
693.0, 0.007641155616998225
694.0, 0.002550859716616572
695.0, 0.002611155532821022
696.0, 0.003056647169768906
697.0, 0.004029752487424676
698.0, 0.002802975002452211
699.0, 0.005640419139255269
700.0, 0.007543620475481142
701.0, 0.003351891213514393
702.0, 0.001386953625414063
703.0, 0.0014276332401862313
704.0, 0.0042675330534044315
705.0, 0.008004065027242548
706.0, 0.00492122948509325
707.0, 0.0010601715468814058
708.0, 0.0015097900965996046
709.0, 0.004253241390056403
710.0, 0.010793084781951895
711.0, 0.0030994195295817894
712.0, 0.007762993192045822
713.0, 0.0090198854511886
714.0, 0.004305065081705056
715.0, 0.0023897117612425704
716.0, 0.005815012335784419
717.0, 0.006904311689439942
718.0, 0.003776191401074827
719.0, 0.00653250124924041
720.0, 0.008463414815009679
721.0, 0.00931902597012414
722.0, 0.006889474866211885
723.0, 0.0013042110201190978
724.0, 0.002134256266758916
725.0, 0.003294985061853458
726.0, 0.00992574934804129
727.0, 0.0017579244052714769
728.0, 0.0017842263079877576
729.0, 0.009319217822386715
730.0, 0.009659478784806812
731.0, 0.007166076279844967
732.0, 0.005875955081705704
733.0, 0.008957913566781864
734.0, 0.004650089558041129
735.0, 0.004719570230270044
736.0, 0.002084535446632529
737.0, 0.0013739691663420968
738.0, 0.0037637606522066634
739.0, 0.0008813301567605855
740.0, 0.006838492788414202
741.0, 0.005835722737921319
742.0, 0.007278067787606019
743.0, 0.005511123276523724
744.0, 0.003978016194954479
745.0, 0.006372380556978451
746.0, 0.006473912683205214
747.0, 0.0063807410720679685
748.0, 0.0011781513653242957
749.0, 0.0008253840693964668
750.0, 0.008968574426959934
751.0, 0.008449555525222969
752.0, 0.0005019883083150129
753.0, 0.0019349097460687906
754.0, 0.005133784726431997
755.0, 0.002084226581158355
756.0, 0.0010961290987308657
757.0, 0.0038400833467615624
758.0, 0.0071446118014251905
759.0, 0.005466774854921564
760.0, 0.002585644829780231
761.0, 0.0025817984611785504
762.0, 0.0013380576450941679
763.0, 0.002168230003288375
764.0, 0.008150946905452195
765.0, 0.008285566553040292
766.0, 0.008065698713361056
767.0, 0.010091584664583104
768.0, 0.005832447695925173
769.0, 0.004376187368607849
770.0, 0.0019697549608411
771.0, 0.004653017990442962
772.0, 0.004044898094901425
773.0, 0.0011456252587560788
774.0, 0.001981575218795077
775.0, 0.004881613953496966
776.0, 0.0021097840684491803
777.0, 0.0067768062237670715
778.0, 0.005961495763683972
779.0, 0.004610114631001534
780.0, 0.007142737340039611
781.0, 0.004565574926378766
782.0, 0.001684371108776283
783.0, 0.006743820710917142
784.0, 0.0029836422784004423
785.0, 0.005638629357335278
786.0, 0.007912078344142499
787.0, 0.0030038712001514566
788.0, 0.006168892516481485
789.0, 0.011908575933923462
790.0, 0.010130832533204931
791.0, 0.010042004393725306
792.0, 0.009328058390705142
793.0, 0.006277642065528649
794.0, 0.008706231611296826
795.0, 0.0033495340921086635
796.0, 0.00673054739757535
797.0, 0.01243205336539574
798.0, 0.008474589628672497
799.0, 0.011950352258602614
800.0, 0.01316913401739375
801.0, 0.009411918641444342
802.0, 0.008915739767742833
803.0, 0.014485384454556712
804.0, 0.012827084022311523
805.0, 0.01033347686304303
806.0, 0.01570584545304257
807.0, 0.017322333759039205
808.0, 0.016612540033777965
809.0, 0.001854423327482222
810.0, 0.0098916471631217
811.0, 0.012650421035677045
812.0, 0.00792758058451702
813.0, 0.007661916770174071
814.0, 0.01122638700738049
815.0, 0.013625959437388754
816.0, 0.013179714932253351
817.0, 0.009912104766963772
818.0, 0.00959755425525171
819.0, 0.0010195800074608743
820.0, 0.0001783553341618688
821.0, 0.008335913871699557
822.0, 0.01105387520541417
823.0, 0.015152229062452229
824.0, 0.014979886913888867
825.0, 0.009162181102564834
826.0, 0.008952202820550353
827.0, 0.006541734372687094
828.0, 0.01076236850216895
829.0, 0.017915329227493466
830.0, 0.016390153509311355
831.0, 0.011440257465154013
832.0, 0.01714330340445011
833.0, 0.014904612002286778
834.0, 0.01754530942920885
835.0, 0.016750373205912644
836.0, 0.01431365526767288
837.0, 0.010402224513403249
838.0, 0.006416910201901901
839.0, 0.008271876480880215
840.0, 0.015583616412088481
841.0, 0.018550464359176323
842.0, 0.023757395140638567
843.0, 0.01841851618717564
844.0, 0.017779238874600194
845.0, 0.018759736744834544
846.0, 0.016717106125057026
847.0, 0.01764740963549751
848.0, 0.013868649530309378
849.0, 0.014350901120526907
850.0, 0.015376574988377
851.0, 0.013529496603624734
852.0, 0.013487138895343502
853.0, 0.01331166387637498
854.0, 0.012384680108021857
855.0, 0.014129393629148772
856.0, 0.015188922422712522
857.0, 0.010340072629437126
858.0, 0.015369147637698045
859.0, 0.018865318368934094
860.0, 0.020445482397526825
861.0, 0.018010955727215835
862.0, 0.015671337134739272
863.0, 0.01762525966479865
864.0, 0.01829210634410897
865.0, 0.012690443437976014
866.0, 0.012912663072962927
867.0, 0.011853652269262691
868.0, 0.02417515797935261
869.0, 0.02103372212796853
870.0, 0.0192087862399856
871.0, 0.022126087486637632
872.0, 0.017785183126420263
873.0, 0.015955731795333668
874.0, 0.021747310323284693
875.0, 0.011906322602506687
876.0, 0.015818707760685467
877.0, 0.023849192116671285
878.0, 0.019113771401891626
879.0, 0.006317082923726918
880.0, 0.003475398343658986
881.0, 0.012114965422405992
882.0, 0.01758371577351465
883.0, 0.015278247739074456
884.0, 0.013141260186036596
885.0, 0.016007829971511366
886.0, 0.012739547292625438
887.0, 0.011200880262877768
888.0, 0.010036240911814641
889.0, 0.00511224196399399
890.0, 0.0023083115611441845
891.0, 0.008897666011309872
892.0, 0.015389756854407164
893.0, 0.0095441004373719
894.0, 0.006461422830208592
895.0, 0.008981207629190954
896.0, 0.006757728627435407
897.0, 0.0013225754384353608
898.0, 0.0015024255999685663
899.0, 0.0013988008544044991
900.0, 0.0006079327346882554
901.0, 0.004200276130304533
902.0, 0.006169889563521279
903.0, 0.006008788200845617
904.0, 0.008196752009460512
905.0, 0.006432826076341514
906.0, 0.0019564206133976607
907.0, 0.0024896830708210907
908.0, 0.002652178733518546
909.0, 0.000629071977431019
910.0, 0.0025500149132906278
911.0, 0.0010077530110890992
912.0, 0.001273348411221497
913.0, 0.0006682701085661412
914.0, 0.0019848125079486513
915.0, 0.0013830677178749593
916.0, 0.0007265145295240008
917.0, 0.003715234131601833
918.0, 0.0020881306344494115
919.0, 0.0035574151781364418
920.0, 0.002793624808864793
921.0, 0.0021749819853902753
922.0, 0.0070078484548332775
923.0, 0.010290744421255644
924.0, 0.003979077850318898
925.0, 0.004596104639312475
926.0, 0.0015231029534403025
927.0, 0.0013281696440645848
928.0, 0.009378458893260295
929.0, 0.0008435613384921932
930.0, 0.00572128184082802
931.0, 0.010338469230136656
932.0, 0.0057779978897401635
933.0, 0.008047320869920849
934.0, 0.00956929102917425
935.0, 0.010903451275292554
936.0, 0.014281038795310716
937.0, 0.014841305671207077
938.0, 0.014664036150958725
939.0, 0.0145502385894585
940.0, 0.024331043127613198
941.0, 0.01707825587863187
942.0, 0.023702847957751155
943.0, 0.025140544449522517
944.0, 0.03308215652005066
945.0, 0.033765194540430254
946.0, 0.030559779219112335
947.0, 0.035981386367308375
948.0, 0.03783730950596265
949.0, 0.04308369800609615
950.0, 0.05532857082014879
951.0, 0.05677899322360478
952.0, 0.06213624368360319
953.0, 0.0717191793472345
954.0, 0.07877102167443312
955.0, 0.0859806090841158
956.0, 0.09167050587941425
957.0, 0.09403021444653344
958.0, 0.1071754986599125
959.0, 0.13168782614760244
960.0, 0.1422020593378479
961.0, 0.161276741124984
962.0, 0.1694891854382262
963.0, 0.18478488468037388
964.0, 0.20319474799210493
965.0, 0.2199808827400024
966.0, 0.23894583064192937
967.0, 0.25500264480636553
968.0, 0.2679497325159319
969.0, 0.2959780523730263
970.0, 0.3329722188516937
971.0, 0.3461670966731585
972.0, 0.37808350323975726
973.0, 0.4097055334651168
974.0, 0.42826442924678326
975.0, 0.4447257692421264
976.0, 0.4479448484450447
977.0, 0.4335005142713684
978.0, 0.41119250793583517
979.0, 0.38363762452636613
980.0, 0.3677527894863638
981.0, 0.36308069503462503
982.0, 0.3645740169196691
983.0, 0.39079197551217143
984.0, 0.4258369630073293
985.0, 0.47456659161018766
986.0, 0.5319391788403589
987.0, 0.5977886010009941
988.0, 0.6794872296050972
989.0, 0.7697185085231689
990.0, 0.8537636298064459
991.0, 0.9081971548241492
992.0, 0.9442273958670928
993.0, 0.9509249820603161
994.0, 0.9591765604327189
995.0, 0.9794048985643409
996.0, 0.999963576613236
997.0, 0.9727636053282056
998.0, 0.8840828075835221
999.0, 0.7593580321697884
1000.0, 0.626597344672772
1001.0, 0.5045049403096998
1002.0, 0.39989711043393195
1003.0, 0.3057757460354947
1004.0, 0.246161477629491
1005.0, 0.19608636868494086
1006.0, 0.1500121796538451
1007.0, 0.12382469761834025
1008.0, 0.0987344100537871
1009.0, 0.07763865588741398
1010.0, 0.06921234447845624
1011.0, 0.057631265722145816
1012.0, 0.04426531353599198
1013.0, 0.03874931506342399
1014.0, 0.032545695867583296
1015.0, 0.02650559748409422
1016.0, 0.02258747598167508
1017.0, 0.01932482389708129
1018.0, 0.01002610607305066
1019.0, 0.00582192791068809
1020.0, 0.007076428754876658
1021.0, 0.006362436400809494
1022.0, 0.002272860094799568
1023.0, 0.0007220687231764195
1024.0, 0.00758195375468995
1025.0, 0.0034802296290886857
1026.0, 0.004131986085430365
1027.0, 0.0015020143539253253
1028.0, 0.004929808993650113
1029.0, 0.005680087959453639
1030.0, 0.0013851390936648886
1031.0, 0.0014747344773189412
1032.0, 0.0021597489389883623
1033.0, 0.0033580990220320045
1034.0, 0.006491949208572935
1035.0, 0.0008425063048416383
1036.0, 0.0030146248920969784
1037.0, 0.0045551284878802886
1038.0, 0.005826882444060921
1039.0, 0.002580831749835796
1040.0, 0.005065112137356444
1041.0, 0.00364055216409962
1042.0, 0.002802368223816299
1043.0, 0.006215759639333434
1044.0, 0.002077852321653414
1045.0, 0.0024430480942189093
1046.0, 0.0031532355021114096
1047.0, 0.007184198649061356
1048.0, 0.002055771519881842
1049.0, 0.0025561999770491424
1050.0, 0.017988462747308413
1051.0, 0.01710547676403309
1052.0, 0.009863651345080764
1053.0, 0.009963923742910509
1054.0, 0.015817750634417465
1055.0, 0.01241807597201969
1056.0, 0.017408571213504406
1057.0, 0.01914492535840909
1058.0, 0.01714396946630016
1059.0, 0.028873272645321687
1060.0, 0.027951213056908716
1061.0, 0.0282964420838267
1062.0, 0.03892687822201213
1063.0, 0.02953676332324752
1064.0, 0.03211432036198664
1065.0, 0.028890641024052473
1066.0, 0.03159492692619042
1067.0, 0.03299071148991496
1068.0, 0.03529948579019766
1069.0, 0.03356106750359034
1070.0, 0.03329042882183367
1071.0, 0.04116449454587359
1072.0, 0.04419704746790909
1073.0, 0.03912956294820881
1074.0, 0.044137147969739235
1075.0, 0.0398317515675818
1076.0, 0.038164943066785126
1077.0, 0.03683057314708999
1078.0, 0.04195915490958069
1079.0, 0.04221359477832833
1080.0, 0.03695480567874749
1081.0, 0.0393096417251318
1082.0, 0.04132067249517999
1083.0, 0.03534887894118269
1084.0, 0.03531476680880921
1085.0, 0.03443440381510266
1086.0, 0.03705898066627581
1087.0, 0.028686204576082307
1088.0, 0.023919497138913042
1089.0, 0.0318312764085956
1090.0, 0.03427424866937109
1091.0, 0.025107890873323296
1092.0, 0.02978968170548655
1093.0, 0.028904650271221403
1094.0, 0.02265296415923097
1095.0, 0.021351180315953622
1096.0, 0.019252826712095966
1097.0, 0.022156178004621236
1098.0, 0.02006236080191701
1099.0, 0.01954247424168117
1100.0, 0.02129272783138991
1101.0, 0.0191444072821717
1102.0, 0.020606317766727222
1103.0, 0.023464279554316167
1104.0, 0.018328495064524185
1105.0, 0.016798010516588992
1106.0, 0.021416400466897134
1107.0, 0.017144245719468387
1108.0, 0.02163016584635515
1109.0, 0.027510996799343455
1110.0, 0.023878506352822692
1111.0, 0.019667845657824857
1112.0, 0.020947019931150914
1113.0, 0.023461016039804723
1114.0, 0.026413947237181518
1115.0, 0.02671609390244312
1116.0, 0.021152863358331827
1117.0, 0.01584801725577359
1118.0, 0.01833238469562467
1119.0, 0.02552660125472553
1120.0, 0.0241647180028483
1121.0, 0.02754953510959204
1122.0, 0.02296637501255452
1123.0, 0.020988548361481018
1124.0, 0.02573551525216439
1125.0, 0.02488173857131878
1126.0, 0.024709687500339216
1127.0, 0.027372667722841363
1128.0, 0.02781837922852956
1129.0, 0.03296200714899888
1130.0, 0.03542536428672957
1131.0, 0.03784623970827759
1132.0, 0.03756227709963944
1133.0, 0.033823771857053944
1134.0, 0.03691341319845066
1135.0, 0.03531969787842234
1136.0, 0.035987912087670895
1137.0, 0.04007012842886225
1138.0, 0.04140699852068766
1139.0, 0.03766579006121275
1140.0, 0.04334457764262566
1141.0, 0.046770252814928616
1142.0, 0.04810708102140632
1143.0, 0.04995769325833482
1144.0, 0.045004904121975976
1145.0, 0.043649164583465655
1146.0, 0.04293446926917712
1147.0, 0.044765879162474355
1148.0, 0.0401507957733083
1149.0, 0.033447362745413434
1150.0, 0.03755332592079577
1151.0, 0.03638531273886628
1152.0, 0.03753373814254003
1153.0, 0.03530675402421145
1154.0, 0.03173703109666457
1155.0, 0.02811494792030389
1156.0, 0.03273062432699119
1157.0, 0.033256837314490265
1158.0, 0.027627672528433074
1159.0, 0.020823287506179237
1160.0, 0.016548289606854297
1161.0, 0.017697348821981488
1162.0, 0.014682264200389192
1163.0, 0.00892978823669927
1164.0, 0.007636215705511993
1165.0, 0.0054544971936560365
1166.0, 0.011515336988387378
1167.0, 0.015468402981705313
1168.0, 0.011044611481469721
1169.0, 0.005720900747063522
1170.0, 0.007013751522307181
1171.0, 0.001315556557016533
1172.0, 0.0030333729045917473
1173.0, 0.0011105014387902913
1174.0, 0.0010717292864950215
1175.0, 0.003987881065547285
1176.0, 0.003644086071335336
1177.0, 0.006806804622068667
1178.0, 0.007602461560785673
1179.0, 0.005356836477289217
1180.0, 0.0010420674389766875
1181.0, 0.0006527091474216552
1182.0, 0.002923256500649942
1183.0, 0.006365445264569837
1184.0, 0.011933155498497704
1185.0, 0.0028290495292161715
1186.0, 0.003644547986217705
1187.0, 0.003025753115658974
1188.0, 0.0007189953667764421
1189.0, 0.00024829600648321914
1190.0, 0.00244217324393711
1191.0, 0.0023538449478953875
1192.0, 0.006026264869172059
1193.0, 0.004845210453969453
1194.0, 0.005735432129789947
1195.0, 0.0006784849978441707
1196.0, 0.003519986961930152
1197.0, 0.009809191692011755
1198.0, 0.007929766516216923
1199.0, 0.0018540310117559267
1200.0, 0.009807936603926544
1201.0, 0.012671347671190403
1202.0, 0.006573658382566373
1203.0, 0.002537046051238523
1204.0, 0.009272501065379593
1205.0, 0.004026305491808597
1206.0, 0.00379557599721462
1207.0, 0.007690377838706653
1208.0, 0.004097185114886599
1209.0, 0.0037665276178118837
1210.0, 0.002124904609558321
1211.0, 0.0034378982415546756
1212.0, 0.003724667222868912
1213.0, 0.006020183317016963
1214.0, 0.00917639118752454
1215.0, 0.005715272924239281
1216.0, 0.005264271500626575
1217.0, 0.005273948383213657
1218.0, 0.0016923417920382846
1219.0, 0.0071475468072201105
1220.0, 0.00915428065366884
1221.0, 0.01079897161536778
1222.0, 0.004977477092804604
1223.0, 0.0069891024416527505
1224.0, 0.004538922090605401
1225.0, 0.0077217958868054815
1226.0, 0.006613142179718272
1227.0, 0.0013674674480755782
1228.0, 0.006364766589613921
1229.0, 0.008238888564579524
1230.0, 0.013444484831056239
1231.0, 0.006803591804443131
1232.0, 0.01136983719583734
1233.0, 0.0047650284316887274
1234.0, 0.0023728869037951423
1235.0, 0.0023839130194556572
1236.0, 0.0017313110288624612
1237.0, 0.005045041879973897
1238.0, 0.009574838786308609
1239.0, 0.007315573977296988
1240.0, 0.004067637526451426
1241.0, 0.0007318978408186857
1242.0, 0.002412318621214834
1243.0, 0.006546726202295439
1244.0, 0.01362548567572928
1245.0, 0.005560000961532419
1246.0, 0.008129190716633377
1247.0, 0.00979846112604281
1248.0, 0.005151332174474814
1249.0, 0.001997372445530281
1250.0, 0.006888988446502163
1251.0, 0.006658691670914135
1252.0, 0.0036738740275404475
1253.0, 0.005987133853656174
1254.0, 0.011925600614070673
1255.0, 0.012444243639670472
1256.0, 0.008586865572422192
1257.0, 0.007239683297456245
1258.0, 0.0025965568847744693
1259.0, 0.0022954673823127538
1260.0, 0.0004193191235641018
1261.0, 0.0013115895570023344
1262.0, 0.006727098030865116
1263.0, 0.006566990794027145
1264.0, 0.0044065879031149405
1265.0, 0.007315662434777824
1266.0, 0.006804083762751836
1267.0, 0.0061019337087170385
1268.0, 0.009514617798948242
1269.0, 0.0031321845429296818
1270.0, 0.005663104957809907
1271.0, 0.007567946336444819
1272.0, 0.01005834246808115
1273.0, 0.009450070112210891
1274.0, 0.00936185248838741
1275.0, 0.0044803486171131725
1276.0, 0.005977089312696041
1277.0, 0.006327721606231825
1278.0, 0.006878966749639455
1279.0, 0.01044562573360384
1280.0, 0.009005987687304016
1281.0, 0.00818907562801801
1282.0, 0.011689942436386002
1283.0, 0.00809792064039891
1284.0, 0.0023222969967599434
1285.0, 0.00026215217936520805
1286.0, 0.0005043005003576112
1287, 0.0
1288, 0.0
1289, 0.0
1290, 0.0
1291, 0.0
1292, 0.0
1293, 0.0
1294, 0.0
1295, 0.0
1296, 0.0
1297, 0.0
1298, 0.0
1299, 0.0
1300, 0.0
1301, 0.0
1302, 0.0
1303, 0.0
1304, 0.0
1305, 0.0
1306, 0.0
1307, 0.0
1308, 0.0
1309, 0.0
1310, 0.0
1311, 0.0
1312, 0.0
1313, 0.0
1314, 0.0
1315, 0.0
1316, 0.0
1317, 0.0
1318, 0.0
1319, 0.0
1320, 0.0
1321, 0.0
1322, 0.0
1323, 0.0
1324, 0.0
1325, 0.0
1326, 0.0
1327, 0.0
1328, 0.0
1329, 0.0
1330, 0.0
1331, 0.0
1332, 0.0
1333, 0.0
1334, 0.0
1335, 0.0
1336, 0.0
1337, 0.0
1338, 0.0
1339, 0.0
1340, 0.0
1341, 0.0
1342, 0.0
1343, 0.0
1344, 0.0
1345, 0.0
1346, 0.0
1347, 0.0
1348, 0.0
1349, 0.0
1350, 0.0
1351, 0.0
1352, 0.0
1353, 0.0
1354, 0.0
1355, 0.0
1356, 0.0
1357, 0.0
1358, 0.0
1359, 0.0
1360, 0.0
1361, 0.0
1362, 0.0
1363, 0.0
1364, 0.0
1365, 0.0
1366, 0.0
1367, 0.0
1368, 0.0
1369, 0.0
1370, 0.0
1371, 0.0
1372, 0.0
1373, 0.0
1374, 0.0
1375, 0.0
1376, 0.0
1377, 0.0
1378, 0.0
1379, 0.0
1380, 0.0
1381, 0.0
1382, 0.0
1383, 0.0
1384, 0.0
1385, 0.0
1386, 0.0
1387, 0.0
1388, 0.0
1389, 0.0
1390, 0.0
1391, 0.0
1392, 0.0
1393, 0.0
1394, 0.0
1395, 0.0
1396, 0.0
1397, 0.0
1398, 0.0
1399, 0.0
1400, 0.0
1401, 0.0
1402, 0.0
1403, 0.0
1404, 0.0
1405, 0.0
1406, 0.0
1407, 0.0
1408, 0.0
1409, 0.0
1410, 0.0
1411, 0.0
1412, 0.0
1413, 0.0
1414, 0.0
1415, 0.0
1416, 0.0
1417, 0.0
1418, 0.0
1419, 0.0
1420, 0.0
1421, 0.0
1422, 0.0
1423, 0.0
1424, 0.0
1425, 0.0
1426, 0.0
1427, 0.0
1428, 0.0
1429, 0.0
1430, 0.0
1431, 0.0
1432, 0.0
1433, 0.0
1434, 0.0
1435, 0.0
1436, 0.0
1437, 0.0
1438, 0.0
1439, 0.0
1440, 0.0
1441, 0.0
1442, 0.0
1443, 0.0
1444, 0.0
1445, 0.0
1446, 0.0
1447, 0.0
1448, 0.0
1449, 0.0
1450, 0.0
1451, 0.0
1452, 0.0
1453, 0.0
1454, 0.0
1455, 0.0
1456, 0.0
1457, 0.0
1458, 0.0
1459, 0.0
1460, 0.0
1461, 0.0
1462, 0.0
1463, 0.0
1464, 0.0
1465, 0.0
1466, 0.0
1467, 0.0
1468, 0.0
1469, 0.0
1470, 0.0
1471, 0.0
1472, 0.0
1473, 0.0
1474, 0.0
1475, 0.0
1476, 0.0
1477, 0.0
1478, 0.0
1479, 0.0
1480, 0.0
1481, 0.0
1482, 0.0
1483, 0.0
1484, 0.0
1485, 0.0
1486, 0.0
1487, 0.0
1488, 0.0
1489, 0.0
1490, 0.0
1491, 0.0
1492, 0.0
1493, 0.0
1494, 0.0
1495, 0.0
1496, 0.0
1497, 0.0
1498, 0.0
1499, 0.0
1500, 0.0
1501, 0.0
1502, 0.0
1503, 0.0
1504, 0.0
1505, 0.0
1506, 0.0
1507, 0.0
1508, 0.0
1509, 0.0
1510, 0.0
1511, 0.0
1512, 0.0
1513, 0.0
1514, 0.0
1515, 0.0
1516, 0.0
1517, 0.0
1518, 0.0
1519, 0.0
1520, 0.0
1521, 0.0
1522, 0.0
1523, 0.0
1524, 0.0
1525, 0.0
1526, 0.0
1527, 0.0
1528, 0.0
1529, 0.0
1530, 0.0
1531, 0.0
1532, 0.0
1533, 0.0
1534, 0.0
1535, 0.0
1536, 0.0
1537, 0.0
1538, 0.0
1539, 0.0
1540, 0.0
1541, 0.0
1542, 0.0
1543, 0.0
1544, 0.0
1545, 0.0
1546, 0.0
1547, 0.0
1548, 0.0
1549, 0.0
1550, 0.0
1551, 0.0
1552, 0.0
1553, 0.0
1554, 0.0
1555, 0.0
1556, 0.0
1557, 0.0
1558, 0.0
1559, 0.0
1560, 0.0
1561, 0.0
1562, 0.0
1563, 0.0
1564, 0.0
1565, 0.0
1566, 0.0
1567, 0.0
1568, 0.0
1569, 0.0
1570, 0.0
1571, 0.0
1572, 0.0
1573, 0.0
1574, 0.0
1575, 0.0
1576, 0.0
1577, 0.0
1578, 0.0
1579, 0.0
1580, 0.0
1581, 0.0
1582, 0.0
1583, 0.0
1584, 0.0
1585, 0.0
1586, 0.0
1587, 0.0
1588, 0.0
1589, 0.0
1590, 0.0
1591, 0.0
1592, 0.0
1593, 0.0
1594, 0.0
1595, 0.0
1596, 0.0
1597, 0.0
1598, 0.0
1599, 0.0
