30, 0.0
31, 0.0
32, 0.0
33, 0.0
34, 0.0
35, 0.0
36, 0.0
37, 0.0
38, 0.0
39, 0.0
40, 0.0
41, 0.0
42, 0.0
43, 0.0
44, 0.0
45, 0.0
46, 0.0
47, 0.0
48, 0.0
49, 0.0
50, 0.0
51, 0.0
52, 0.0
53, 0.0
54, 0.0
55, 0.0
56, 0.0
57, 0.0
58, 0.0
59, 0.0
60, 0.0
61, 0.0
62, 0.0
63, 0.0
64, 0.0
65, 0.0
66, 0.0
67, 0.0
68, 0.0
69, 0.0
70, 0.0
71, 0.0
72, 0.0
73, 0.0
74, 0.0
75, 0.0
76, 0.0
77, 0.0
78, 0.0
79, 0.0
80, 0.0
81, 0.0
82, 0.0
83, 0.0
84, 0.0
85, 0.0
86, 0.0
87, 0.0
88, 0.0
89, 0.0
90, 0.0
91, 0.0
92, 0.0
93, 0.0
94, 0.0
95, 0.0
96, 0.0
97, 0.0
98, 0.0
99, 0.0
100, 0.0
101, 0.0
102, 0.0
103, 0.0
104, 0.0
105, 0.0
106, 0.0
107, 0.0
108, 0.0
109, 0.0
110, 0.0
111, 0.0
112, 0.0
113, 0.0
114, 0.0
115, 0.0
116, 0.0
117, 0.0
118, 0.0
119, 0.0
120, 0.0
121, 0.0
122, 0.0
123, 0.0
124, 0.0
125, 0.0
126, 0.0
127, 0.0
128, 0.0
129, 0.0
130, 0.0
131, 0.0
132, 0.0
133, 0.0
134, 0.0
135, 0.0
136, 0.0
137, 0.0
138, 0.0
139, 0.0
140, 0.0
141, 0.0
142, 0.0
143, 0.0
144, 0.0
145, 0.0
146, 0.0
147, 0.0
148, 0.0
149, 0.0
150, 0.0
151, 0.0
152, 0.0
153, 0.0
154, 0.0
155, 0.0
156, 0.0
157, 0.0
158, 0.0
159, 0.0
160, 0.0
161, 0.0
162, 0.0
163, 0.0
164, 0.0
165, 0.0
166, 0.0
167, 0.0
168, 0.0
169, 0.0
170, 0.0
171, 0.0
172.0, 0.00028101499502061067
173.0, 0.0016467230281187188
174.0, 0.004406470283386185
175.0, 0.008466815588565251
176.0, 0.012722488289853475
177.0, 0.012853313528081278
178.0, 0.011935929767837814
179.0, 0.011981849133401268
180.0, 0.01767693839722466
181.0, 0.017933640827327235
182.0, 0.019136027667223037
183.0, 0.016487108568520578
184.0, 0.008799545821477987
185.0, 0.006872511612830602
186.0, 0.006673525167867958
187.0, 0.002557315113556626
188.0, 0.001974977302242849
189.0, 0.00822286611975436
190.0, 0.008654950553488713
191.0, 0.008772294127558512
192.0, 0.011306228499563309
193.0, 0.014240621289708762
194.0, 0.015301395397162834
195.0, 0.019454295037069354
196.0, 0.02192276943067638
197.0, 0.02315157439781589
198.0, 0.030072331308227843
199.0, 0.03787165816057901
200.0, 0.04456468034885255
201.0, 0.05430162358523659
202.0, 0.06573461346937616
203.0, 0.07546442671115505
204.0, 0.07626901055082057
205.0, 0.07284741208834898
206.0, 0.07242812562296382
207.0, 0.0787532215681491
208.0, 0.08677307328288315
209.0, 0.09012338798586624
210.0, 0.09204010767594464
211.0, 0.0941669410746561
212.0, 0.0943224009666911
213.0, 0.08148365476817306
214.0, 0.06585396246491826
215.0, 0.052518012431065436
216.0, 0.042692631787171344
217.0, 0.033861715073651016
218.0, 0.03120415955769083
219.0, 0.030927378035903567
220.0, 0.033960902194352785
221.0, 0.044051932030878135
222.0, 0.04349207983966587
223.0, 0.04272726206000303
224.0, 0.0422920027715373
225.0, 0.03595177054902725
226.0, 0.021889246661571368
227.0, 0.011364088025734121
228.0, 0.003631021419074857
229.0, 0.004140599498792405
230.0, 0.011605852565710308
231.0, 0.016361478134121185
232.0, 0.015413123541930664
233.0, 0.018787300585804433
234.0, 0.021988176842231415
235.0, 0.017255450280196427
236.0, 0.01520168822641434
237.0, 0.013821916545478714
238.0, 0.011753306409902088
239.0, 0.009523563942113008
240.0, 0.008458037722058852
241.0, 0.00557484605499016
242.0, 0.0026836930442866217
243.0, 0.0004979486755194039
244.0, 0.001114055599730621
245.0, 0.0034952284978329745
246.0, 0.0037480713876811606
247.0, 0.009528245251851156
248.0, 0.014445215298861174
249.0, 0.009750539206219324
250.0, 0.011733461399786484
251.0, 0.018999516014717947
252.0, 0.02607505514542497
253.0, 0.030457485301012648
254.0, 0.03498268569394015
255.0, 0.04522640695875369
256.0, 0.0492690800846774
257.0, 0.052468307367520235
258.0, 0.06267876710849883
259.0, 0.08056766315256873
260.0, 0.09349660525343202
261.0, 0.10020729186445997
262.0, 0.10469245207705884
263.0, 0.11171255692914145
264.0, 0.12459780430160243
265.0, 0.13889104963691312
266.0, 0.15397452178100784
267.0, 0.16358226230425438
268.0, 0.16655938038670243
269.0, 0.17766220532101826
270.0, 0.1902857255398744
271.0, 0.19630325852969385
272.0, 0.20255745822311647
273.0, 0.21730336782173537
274.0, 0.22733443997065436
275.0, 0.2322850068158895
276.0, 0.23888414880441822
277.0, 0.2477064710446769
278.0, 0.25553457239994365
279.0, 0.2650445456599336
280.0, 0.2674998418950048
281.0, 0.2723744878758988
282.0, 0.2820988635415942
283.0, 0.2902596943792319
284.0, 0.2977398666582392
285.0, 0.3056759474265367
286.0, 0.31218761628718994
287.0, 0.3160547360354964
288.0, 0.31857514800285974
289.0, 0.31991844287837545
290.0, 0.32456124389088387
291.0, 0.3325634191826863
292.0, 0.3420810363336374
293.0, 0.3503087962608219
294.0, 0.3495797458393089
295.0, 0.35745465868382814
296.0, 0.3700364892093204
297.0, 0.3833330060278684
298.0, 0.401798174590267
299.0, 0.41382312532842
300.0, 0.4292773907551707
301.0, 0.4373542205297541
302.0, 0.4435003988692598
303.0, 0.4695805559952213
304.0, 0.4871913218509302
305.0, 0.49465219329825677
306.0, 0.5023719649925619
307.0, 0.5138585347733476
308.0, 0.5226733767853555
309.0, 0.5235876200942745
310.0, 0.5236695315708233
311.0, 0.5235200673343897
312.0, 0.5209747984186822
313.0, 0.5141663161110205
314.0, 0.5135378839132725
315.0, 0.5021942821414983
316.0, 0.4907727302225282
317.0, 0.48639439431634823
318.0, 0.47177920755509595
319.0, 0.46325893136998575
320.0, 0.45077466791444964
321.0, 0.43501308495631963
322.0, 0.42064603084473023
323.0, 0.4077515690719709
324.0, 0.3959767502672859
325.0, 0.38219284447945207
326.0, 0.3739636247485342
327.0, 0.3706730423051439
328.0, 0.3549719661327234
329.0, 0.3467040206019736
330.0, 0.34347977374033056
331.0, 0.33704254969534087
332.0, 0.32488781767403546
333.0, 0.3143692030692226
334.0, 0.3082785896785529
335.0, 0.30376554774342396
336.0, 0.299576412325589
337.0, 0.29598336513619167
338.0, 0.29337746877886145
339.0, 0.29158400536490037
340.0, 0.2896918420870615
341.0, 0.2918472583158578
342.0, 0.29607070637399296
343.0, 0.2975958438162601
344.0, 0.2995204518788244
345.0, 0.3113811787265871
346.0, 0.3198602416809633
347.0, 0.32525103927788585
348.0, 0.3373258517797417
349.0, 0.3508519945036923
350.0, 0.3712858733386435
351.0, 0.3872535753407619
352.0, 0.39970431612231294
353.0, 0.41262033813594573
354.0, 0.41530752793767445
355.0, 0.4160797540581897
356.0, 0.40009023557624473
357.0, 0.37699220566646074
358.0, 0.35793586962620966
359.0, 0.3337884598702834
360.0, 0.3138459106433164
361.0, 0.29676013763199044
362.0, 0.2798560253938753
363.0, 0.26258222252444113
364.0, 0.24714595442177184
365.0, 0.23657579179763583
366.0, 0.2280828589429847
367.0, 0.2189708731863399
368.0, 0.20841313165783515
369.0, 0.19941467566224347
370.0, 0.19558458553409824
371.0, 0.1912608262461457
372.0, 0.18716930759859135
373.0, 0.18188569929295084
374.0, 0.1734476586436424
375.0, 0.1692026108973247
376.0, 0.16491605133794765
377.0, 0.15919983118301592
378.0, 0.15219649357249884
379.0, 0.14545895720217208
380.0, 0.14365105696094943
381.0, 0.1362803256798134
382.0, 0.12978886105987433
383.0, 0.12306455327187317
384.0, 0.11350491614696782
385.0, 0.10621363206294937
386.0, 0.0968697489006031
387.0, 0.09035752860680091
388.0, 0.08536169233508294
389.0, 0.07918460290810155
390.0, 0.07185532357101007
391.0, 0.06270073272385394
392.0, 0.05461416680063943
393.0, 0.04707850480583671
394.0, 0.040221345465743165
395.0, 0.034127955299365645
396.0, 0.027265194995568977
397.0, 0.022379324737394027
398.0, 0.012385919219996263
399.0, 0.0046542307237005765
400.0, 0.0035053908584579464
401.0, 0.0016201760597917424
402.0, 0.004446641354432613
403.0, 0.00928855043254713
404.0, 0.010189150771595587
405.0, 0.008363401568127045
406.0, 0.010532539081682704
407.0, 0.015080386344431878
408.0, 0.016034751435806884
409.0, 0.01937882808824648
410.0, 0.02204833570765457
411.0, 0.02085578585344265
412.0, 0.019670506232919598
413.0, 0.009418265500477996
414.0, 0.006751835042014271
415.0, 0.0044162073285856545
416.0, 0.0014234304297441299
417.0, 0.004945966317396486
418.0, 0.016961635350701856
419.0, 0.02264299884953669
420.0, 0.028504262787407888
421.0, 0.03885453449420721
422.0, 0.05146395891534911
423.0, 0.06147257929519663
424.0, 0.07291684772023961
425.0, 0.08388572624420268
426.0, 0.09645041366780849
427.0, 0.11201317037180297
428.0, 0.129774949144714
429.0, 0.15021312945668752
430.0, 0.1690813758051777
431.0, 0.19342908593255476
432.0, 0.21829601984919061
433.0, 0.2372839279701022
434.0, 0.2594814458836547
435.0, 0.27700772871886153
436.0, 0.2875421249180801
437.0, 0.2915971772388652
438.0, 0.28745777345733603
439.0, 0.27248223578087155
440.0, 0.24803578590141115
441.0, 0.2249720149678154
442.0, 0.19631699854691723
443.0, 0.16620600189354584
444.0, 0.14307910751126557
445.0, 0.12901518304118878
446.0, 0.11019630747276225
447.0, 0.09284483301759351
448.0, 0.07899774769811173
449.0, 0.0677842055176488
450.0, 0.05816883352778459
451.0, 0.051362209514285294
452.0, 0.04688400659918486
453.0, 0.038169289321856904
454.0, 0.03332028191932931
455.0, 0.03365093167624515
456.0, 0.027699939987260922
457.0, 0.019706870339448623
458.0, 0.02062149604555114
459.0, 0.019391311255519787
460.0, 0.016871063144479156
461.0, 0.018864879930890505
462.0, 0.017188516351066368
463.0, 0.01636316675817272
464.0, 0.012540797798831601
465.0, 0.01055981906083282
466.0, 0.01094009135370645
467.0, 0.008840023587699357
468.0, 0.005911713752071035
469.0, 0.00343843244978299
470.0, 0.0035108172665661084
471.0, 0.003412475799081426
472.0, 0.0011941263140812074
473.0, 0.00015420182547355845
474.0, 0.0005582375038490656
475.0, 0.0014973257749907826
476.0, 0.0009621827318881861
477.0, 0.004869263351808033
478.0, 0.005356000796179843
479.0, 0.0012181684279043226
480.0, 0.003057559241176254
481.0, 0.002575566438193819
482.0, 0.0016056940033493444
483.0, 0.0009090810014214278
484.0, 0.0003386166948085416
485.0, 0.00013505265159258423
486.0, 0.0008380753802130446
487.0, 0.0018558738941647228
488.0, 0.004316548072828261
489.0, 0.006457944870545921
490.0, 0.006440774757237531
491.0, 0.009561726311240883
492.0, 0.01013876726829576
493.0, 0.013196924029434133
494.0, 0.013906982847132623
495.0, 0.011554356209998885
496.0, 0.011177815917824265
497.0, 0.012554860039101345
498.0, 0.012145804977159941
499.0, 0.015677295917616126
500.0, 0.01948641554258658
501.0, 0.019585990279962304
502.0, 0.01719744150654471
503.0, 0.015386408491200747
504.0, 0.017677195978730197
505.0, 0.017540993063010192
506.0, 0.01875917525113533
507.0, 0.02375831267677953
508.0, 0.027816301261097034
509.0, 0.02851787149860517
510.0, 0.0308216597229286
511.0, 0.03006222955261055
512.0, 0.02855776994383111
513.0, 0.02915177207715875
514.0, 0.030495545309431746
515.0, 0.03314158756077075
516.0, 0.03447697830130267
517.0, 0.03590431884354634
518.0, 0.03622338994307693
519.0, 0.03709974283490212
520.0, 0.040724245052884904
521.0, 0.03914564076111693
522.0, 0.03662172830198743
523.0, 0.03304224939223462
524.0, 0.03294482476311255
525.0, 0.03625790069998607
526.0, 0.0367848157312826
527.0, 0.03585794628174467
528.0, 0.0365109155640208
529.0, 0.03584418000441722
530.0, 0.036024531544960374
531.0, 0.03630183744795855
532.0, 0.034037859823617796
533.0, 0.03493451146729778
534.0, 0.03289050886367274
535.0, 0.03324232243043773
536.0, 0.03391476300362516
537.0, 0.03205498796072414
538.0, 0.028486865162609613
539.0, 0.02482248371763973
540.0, 0.02312332788132535
541.0, 0.02260553211290804
542.0, 0.02112522101291657
543.0, 0.018971883460187428
544.0, 0.017698075283666955
545.0, 0.016878603039802164
546.0, 0.014236946177682844
547.0, 0.01323935860002727
548.0, 0.011177806629595286
549.0, 0.009343840929491299
550.0, 0.009054116038521543
551.0, 0.006935157300401121
552.0, 0.007889941881875345
553.0, 0.008787634465820454
554.0, 0.006457793253851112
555.0, 0.005288488155594498
556.0, 0.005575038634396452
557.0, 0.003166713194091384
558.0, 0.006205912731215991
559.0, 0.004015410102336177
560.0, 0.0026187351673408496
561.0, 0.0030880245990215567
562.0, 0.003095627223086727
563.0, 0.00281952672886197
564.0, 0.0019965638014687007
565.0, 0.001896364385622952
566.0, 0.004887375151470525
567.0, 0.0018916215036757962
568.0, 0.004169197903172666
569.0, 0.0039448187726197625
570.0, 0.0029363001553310343
571.0, 0.0038633070266388936
572.0, 0.0012680446254130894
573.0, 0.0011128523560283738
574.0, 0.00045817144777864484
575.0, 0.0003377442172286858
576.0, 0.0015654743892037262
577.0, 0.0032404663735654785
578.0, 0.0005309730211087276
579.0, 0.0006371969701341566
580.0, 0.0007456973368916228
581.0, 0.002412634081256669
582.0, 0.006536069100279705
583.0, 0.010315279232001165
584.0, 0.008341629565316463
585.0, 0.01255894447811976
586.0, 0.016702100493027075
587.0, 0.016021543195624863
588.0, 0.016160664435869793
589.0, 0.018599546811348906
590.0, 0.01877727409829206
591.0, 0.022039631434628573
592.0, 0.023932138909591828
593.0, 0.024181585487351782
594.0, 0.026564426259425445
595.0, 0.03345113456015854
596.0, 0.03345751579733538
597.0, 0.040420423979496786
598.0, 0.04156950892499913
599.0, 0.041911420053500445
600.0, 0.04507601191798483
601.0, 0.0483558455446211
602.0, 0.052159313200163704
603.0, 0.05210154358034294
604.0, 0.059807975724077776
605.0, 0.06134304925442243
606.0, 0.06175196877167632
607.0, 0.06808045651975006
608.0, 0.07551428796251683
609.0, 0.07540482985371273
610.0, 0.07696977180554773
611.0, 0.07755118304461839
612.0, 0.07934409488046551
613.0, 0.08461214659442295
614.0, 0.09056496378870225
615.0, 0.0925406627778375
616.0, 0.0936267256379226
617.0, 0.09703682540439142
618.0, 0.09587496698213314
619.0, 0.09620513465876894
620.0, 0.10239564301706151
621.0, 0.10776343731741693
622.0, 0.10524614799832702
623.0, 0.11053051155178521
624.0, 0.11351807280566531
625.0, 0.11559003652800298
626.0, 0.11720555807691409
627.0, 0.11837594253412807
628.0, 0.12098358824387002
629.0, 0.12435724679740527
630.0, 0.12197857523499958
631.0, 0.12138161230723384
632.0, 0.12356761162044799
633.0, 0.12443516673883755
634.0, 0.12299085003730852
635.0, 0.12226161551136007
636.0, 0.12427462392931711
637.0, 0.12421369121108988
638.0, 0.12467230675401268
639.0, 0.12464344999033057
640.0, 0.12433285090623293
641.0, 0.12411454550113754
642.0, 0.12275872824024885
643.0, 0.1220886044990993
644.0, 0.11788564605438559
645.0, 0.11951403288098551
646.0, 0.11890673030611866
647.0, 0.116346073741314
648.0, 0.11497486309549743
649.0, 0.10978005495244993
650.0, 0.10866260951000524
651.0, 0.10557736141781049
652.0, 0.10212192703069041
653.0, 0.09977205186307422
654.0, 0.09844949665870674
655.0, 0.09654341103215588
656.0, 0.09288725466039677
657.0, 0.09031940225117256
658.0, 0.08894849251995221
659.0, 0.08335043362066907
660.0, 0.07777184602523604
661.0, 0.07489140882718018
662.0, 0.07162490391278979
663.0, 0.06617566551257942
664.0, 0.06541674337225253
665.0, 0.06128389870215244
666.0, 0.059036449204666164
667.0, 0.05341548829219287
668.0, 0.048748018473304906
669.0, 0.04906167743405427
670.0, 0.046483687498719464
671.0, 0.04248860934298335
672.0, 0.041582535759430876
673.0, 0.037154212813126794
674.0, 0.0354748464519405
675.0, 0.03543112354444174
676.0, 0.03257298317103471
677.0, 0.028781601597743373
678.0, 0.030255391176993825
679.0, 0.03240674112274708
680.0, 0.03057502275389377
681.0, 0.025068347703906174
682.0, 0.02270187620217741
683.0, 0.02295049846616613
684.0, 0.018927103214884482
685.0, 0.013015998147941753
686.0, 0.012866559047820726
687.0, 0.01150630269428697
688.0, 0.011539338305722551
689.0, 0.008922518838599918
690.0, 0.00680207203785355
691.0, 0.007689362165902307
692.0, 0.005221642330731859
693.0, 0.006437913028316892
694.0, 0.005568030121900654
695.0, 0.0058627091945909
696.0, 0.0062522334253827016
697.0, 0.005680292852338998
698.0, 0.0042417574523419006
699.0, 0.003286973812139298
700.0, 0.0052362260293250164
701.0, 0.0033948525828149155
702.0, 0.002607719095914236
703.0, 0.0021987166937526927
704.0, 0.0019606136959488627
705.0, 0.0033110568033333856
706.0, 0.004237411550370857
707.0, 0.0006722373427635047
708.0, 0.0008010703302011414
709.0, 0.0006929499116055402
710.0, 0.0011408459192500675
711.0, 0.0005130104820049743
712.0, 0.0013933378292390777
713.0, 0.0020267834329088757
714.0, 0.0007473343866860691
715.0, 0.0025672376861551917
716.0, 0.0013651910330033832
717.0, 0.0017110130565705516
718.0, 0.0003249209407138515
719.0, 0.0007892948467054259
720.0, 0.000633627235071
721.0, 0.0002488790517651774
722.0, 0.0007376754350147285
723.0, 0.0003726740632283053
724.0, 0.004219416685818641
725.0, 0.0015751188160006532
726.0, 0.002359698866845414
727.0, 0.0015355462370510217
728.0, 1.802361872695506e-05
729.0, 0.001722662859194069
730.0, 0.0007624975397066518
731.0, 0.0007553778432019091
732.0, 0.0021336877623108954
733.0, 0.0031852056060877277
734.0, 0.0014517638900570637
735.0, 0.0004893508987895697
736.0, 0.0006375516618459055
737.0, 0.001229570266542934
738.0, 0.0009976761050933649
739.0, 0.0009364000863762917
740.0, 0.00025254822369892365
741.0, 0.00047261351983072787
742.0, 0.0007690487097161012
743.0, 0.0018503956290551445
744.0, 0.0038074636857330746
745.0, 0.0014010578275913518
746.0, 0.004697016530952772
747.0, 0.005028014624150095
748.0, 0.004010296771515994
749.0, 0.0051273990531495554
750.0, 0.003481797958276948
751.0, 0.0017319947549831187
752.0, 0.003282949180531837
753.0, 0.0036971657054074613
754.0, 0.00347659920523036
755.0, 0.0023809099813136467
756.0, 0.0038260465709432515
757.0, 0.0030235633695953118
758.0, 0.002975798817994803
759.0, 0.004490730580405878
760.0, 0.00513628735742413
761.0, 0.0050460554190116455
762.0, 0.004052184664657341
763.0, 0.004526915658392801
764.0, 0.005467958650976129
765.0, 0.006820095511099608
766.0, 0.008293026675324985
767.0, 0.008828165011728482
768.0, 0.007855198031266877
769.0, 0.006404062724653783
770.0, 0.007987563353327815
771.0, 0.009981567844264131
772.0, 0.00905418655955525
773.0, 0.01147214621769127
774.0, 0.010284799092638327
775.0, 0.009584909886244887
776.0, 0.011661785427887367
777.0, 0.011431043490427745
778.0, 0.0122457266053683
779.0, 0.01052197094748449
780.0, 0.01236869339460477
781.0, 0.014400239961083012
782.0, 0.014625037925663234
783.0, 0.011995404757148833
784.0, 0.012305720846789197
785.0, 0.018019718897833117
786.0, 0.015287383451131217
787.0, 0.01490677672582358
788.0, 0.014534047279232309
789.0, 0.012840321559512374
790.0, 0.015491532749150114
791.0, 0.015062649507906992
792.0, 0.01295710455905478
793.0, 0.013529074750863518
794.0, 0.012580622469593041
795.0, 0.013182347442249274
796.0, 0.01408585470301964
797.0, 0.01295418606508501
798.0, 0.014079629713667568
799.0, 0.012984591474086572
800.0, 0.011211732132122313
801.0, 0.010437041014390424
802.0, 0.010330514673906019
803.0, 0.010697527105346223
804.0, 0.00789641169438361
805.0, 0.011223482845681853
806.0, 0.00977412424555367
807.0, 0.009107672669336474
808.0, 0.008558901962859872
809.0, 0.00811605707534819
810.0, 0.00922841965571708
811.0, 0.009601460632768215
812.0, 0.009298021106354422
813.0, 0.007389255289621935
814.0, 0.006477468488429213
815.0, 0.006430991477123823
816.0, 0.0068403653343543465
817.0, 0.00833870797664888
818.0, 0.007599714918215604
819.0, 0.00522698282203084
820.0, 0.005394530993097785
821.0, 0.004651940998047632
822.0, 0.006880402428404123
823.0, 0.004657929401408768
824.0, 0.003871421723282594
825.0, 0.006478967525777351
826.0, 0.0076996270334239395
827.0, 0.007708720747261452
828.0, 0.007609112761899589
829.0, 0.003973225917548977
830.0, 0.0054373968394034545
831.0, 0.004239767511712099
832.0, 0.003815318837066691
833.0, 0.006345096679973732
834.0, 0.006321129428808802
835.0, 0.004974535471895567
836.0, 0.005302947263627854
837.0, 0.006000587938089164
838.0, 0.004575707431833184
839.0, 0.0030160668668307838
840.0, 0.0028055124989171433
841.0, 0.004997409853654141
842.0, 0.004794930663744138
843.0, 0.004709379923381025
844.0, 0.004324874636446131
845.0, 0.0035981588722204015
846.0, 0.0043541239727769325
847.0, 0.00541342652184366
848.0, 0.004761886433806487
849.0, 0.003622462052671336
850.0, 0.0027358951466733904
851.0, 0.002780259158622866
852.0, 0.0018582632747162315
853.0, 0.004647192713816364
854.0, 0.005482620297555165
855.0, 0.0036460477657496095
856.0, 0.0036318628677776683
857.0, 0.0017068912073600877
858.0, 0.00390943888983212
859.0, 0.0039844371913652634
860.0, 0.0028017394041926227
861.0, 0.0020875456327027917
862.0, 0.002858296376999348
863.0, 0.0033359565668545353
864.0, 0.004476221290761938
865.0, 0.004842904620298352
866.0, 0.00042635843990679843
867.0, 0.002860152042205872
868.0, 0.004093210953008783
869.0, 0.0033228474645541047
870.0, 0.001927370610680321
871.0, 0.003117754949936324
872.0, 0.003178029903838717
873.0, 0.0012140636045777503
874.0, 0.00012651762366144265
875.0, 0.0011266007680589172
876.0, 0.0025228895982792134
877.0, 0.0005070924993519939
878.0, 0.0014764181948177006
879.0, 0.0007755233715720332
880.0, 0.0015420643940820327
881.0, 0.0006296571888737875
882.0, 0.0015871615607626636
883.0, 0.00048328402288760723
884.0, 0.0013044785807507777
885.0, 0.0015761344970605415
886.0, 0.0004017036826099398
887.0, 0.00033528229611939496
888.0, 0.002466546999853591
889.0, 0.0005905282447483364
890.0, 0.0007455881578064837
891.0, 0.0009278287116809696
892.0, 0.00025524924820839853
893.0, 0.0012743244550829855
894.0, 0.002055032549928718
895.0, 0.0009167699159343005
896.0, 0.0017277211395355329
897.0, 0.0009269372910272219
898.0, 0.00036801925496677705
899.0, 0.00023873768924606865
900.0, 0.0013662518445335119
901.0, 0.0018194003507770713
902.0, 0.002088346610610625
903.0, 0.0013614345140254332
904.0, 0.0003888545541547539
905.0, 0.0005582032842206978
906.0, 0.00045992025352459905
907.0, 0.0011678352853229763
908.0, 0.0015278868170740727
909.0, 0.0009759331935279787
910.0, 0.001135787470026725
911.0, 0.0016636076125556617
912.0, 0.002212873556649844
913.0, 0.001157085145618922
914.0, 0.00225161286872816
915.0, 0.003445514906662553
916.0, 0.003510455535608919
917.0, 0.0028157699917791506
918.0, 0.004028893785361816
919.0, 0.0025177276847656227
920.0, 0.0036172850537753705
921.0, 0.002906107014779226
922.0, 0.0004998445588263021
923.0, 0.001981104101684618
924.0, 0.0029186376014611517
925.0, 0.001401186761677869
926.0, 0.0008433896505927417
927.0, 0.0020176765304759396
928.0, 0.000969144756651155
929.0, 0.0018057204112953114
930.0, 0.002402181723001885
931.0, 0.0016993259430864338
932.0, 0.0002958213347118155
933.0, 0.0016446227272669106
934.0, 0.0012668997381210948
935.0, 0.0020659151761871115
936.0, 0.0004442532850740363
937.0, 0.0002026052522358591
938.0, 0.0006287946927780138
939.0, 0.0005778145438338095
940.0, 0.0013248717283417535
941.0, 0.0014695495421113375
942.0, 0.0008076408840298694
943.0, 0.0003297026585840039
944.0, 0.000566734770746515
945.0, 0.001966247330630577
946.0, 0.003308747536695657
947.0, 0.004967749246670628
948.0, 0.0055208359737171225
949.0, 0.0033919748448396994
950.0, 0.003655891027731172
951.0, 0.0052331708184004365
952.0, 0.0046972991018032016
953.0, 0.006899843193818072
954.0, 0.008074109444306083
955.0, 0.009020880649501718
956.0, 0.010376389198521437
957.0, 0.013834416262545213
958.0, 0.018696928326490284
959.0, 0.02312986569570304
960.0, 0.02618380998913164
961.0, 0.027664298457282955
962.0, 0.03540559178836083
963.0, 0.047246162092678096
964.0, 0.050928076713796684
965.0, 0.06419844322949883
966.0, 0.07744967507353313
967.0, 0.09205727063470255
968.0, 0.10661201764451643
969.0, 0.12347875089054636
970.0, 0.13822014740943164
971.0, 0.1454112253706576
972.0, 0.14476721864402323
973.0, 0.1334784760016758
974.0, 0.1202106145796622
975.0, 0.10470507358196342
976.0, 0.09271194169955993
977.0, 0.08319369642607626
978.0, 0.0730386900917323
979.0, 0.0660125405685022
980.0, 0.06245408242158206
981.0, 0.05890802482103828
982.0, 0.05562012773395973
983.0, 0.055543465291122994
984.0, 0.059031707798945746
985.0, 0.06312206342952573
986.0, 0.06510336583342835
987.0, 0.07565606712593059
988.0, 0.0791408843113014
989.0, 0.08984016559342944
990.0, 0.10552099673120219
991.0, 0.12345219491557681
992.0, 0.14781710681871416
993.0, 0.1780236940905491
994.0, 0.2156629813364645
995.0, 0.26251935905532375
996.0, 0.317394675577997
997.0, 0.38089955555334465
998.0, 0.4556396902448517
999.0, 0.541129555712822
1000.0, 0.6427821292652848
1001.0, 0.7581003981653308
1002.0, 0.8742012305503322
1003.0, 0.9647854857770041
1004.0, 0.9994616698775494
1005.0, 0.9499022962496788
1006.0, 0.8445551165607911
1007.0, 0.7133178119130884
1008.0, 0.5775533562562125
1009.0, 0.4611368574463058
1010.0, 0.368632401138277
1011.0, 0.2989332037147869
1012.0, 0.2415912351515332
1013.0, 0.19778688952267975
1014.0, 0.16546922600261657
1015.0, 0.140423080100256
1016.0, 0.11755444831646228
1017.0, 0.10351360234732306
1018.0, 0.09025853721049183
1019.0, 0.07678087546621518
1020.0, 0.06567432940184437
1021.0, 0.05717931949791024
1022.0, 0.049772538521432146
1023.0, 0.04239631579393422
1024.0, 0.03773330981072258
1025.0, 0.03295189302517599
1026.0, 0.026544831569076676
1027.0, 0.02598855924213174
1028.0, 0.02145719261555836
1029.0, 0.018384284483404335
1030.0, 0.014758739618855323
1031.0, 0.014677369460109646
1032.0, 0.012211834827536884
1033.0, 0.010409582949421955
1034.0, 0.009545863627846504
1035.0, 0.007330447840077226
1036.0, 0.005964404672392971
1037.0, 0.005178791247399598
1038.0, 0.006231361453866304
1039.0, 0.0056458920131470984
1040.0, 0.00046309825528163476
1041.0, 0.003487746541123408
1042.0, 0.0028030465063806067
1043.0, 0.003755583857178156
1044.0, 0.003435946089446353
1045.0, 0.002633224258624733
1046.0, 0.0020427466759015476
1047.0, 0.0018154417484283914
1048.0, 0.001032990338135803
1049.0, 0.0013950751828438915
1050.0, 3.057044758541167e-05
1051.0, 0.001231793719357635
1052.0, 0.0016727917599803437
1053.0, 0.001334147219534413
1054.0, 0.0006972779447928991
1055.0, 0.0011715172680090804
1056.0, 0.001068104799869604
1057.0, 0.000255093521251891
1058.0, 0.0001886310430010621
1059.0, 0.001143283468963048
1060.0, 0.0007244472535771576
1061.0, 0.0007590888607272751
1062.0, 0.000586787750510241
1063.0, 0.0011988240341792378
1064.0, 0.0009199388720779574
1065.0, 0.0026669744932976205
1066.0, 0.002781304426887434
1067.0, 0.0024287609787330302
1068.0, 0.0010161916396635312
1069.0, 0.0016183321351906903
1070.0, 0.0023655005187468866
1071.0, 0.0008501667506034753
1072.0, 0.002246071466575334
1073.0, 0.001512999201415083
1074.0, 0.0003864573749599444
1075.0, 0.0032970337149463283
1076.0, 0.0037620087223824046
1077.0, 0.0031070621453308544
1078.0, 0.004182874065141601
1079.0, 0.0042312313121322075
1080.0, 0.003522178752811421
1081.0, 0.0048458027024438025
1082.0, 0.005971626462966121
1083.0, 0.0049063785486091575
1084.0, 0.007005650720058035
1085.0, 0.007767409983538106
1086.0, 0.007588109636630504
1087.0, 0.009132987938985839
1088.0, 0.0074910799760108315
1089.0, 0.005717405167512157
1090.0, 0.006009053720435627
1091.0, 0.004395769753432328
1092.0, 0.00405602115698474
1093.0, 0.006988084093543415
1094.0, 0.012852967097077709
1095.0, 0.01201391930471952
1096.0, 0.00559386056827933
1097.0, 0.004422510169191063
1098.0, 0.005804444797634858
1099.0, 0.007743829217548351
1100.0, 0.006799950324989694
1101.0, 0.007585248379014851
1102.0, 0.007048038396802472
1103.0, 0.006805525603170824
1104.0, 0.00622253711139306
1105.0, 0.007656389405611491
1106.0, 0.005162028335241986
1107.0, 0.006962191259881604
1108.0, 0.008557302007835981
1109.0, 0.008194502105466907
1110.0, 0.006823018498151364
1111.0, 0.005446673724083903
1112.0, 0.005953635251076849
1113.0, 0.008634761190584112
1114.0, 0.008263745687148858
1115.0, 0.007661169933998471
1116.0, 0.01057503768682668
1117.0, 0.008037523801074104
1118.0, 0.007680791021776114
1119.0, 0.006877796488041939
1120.0, 0.009440772560652193
1121.0, 0.00924150112816184
1122.0, 0.00703335233255539
1123.0, 0.00964830260800751
1124.0, 0.010330401335099859
1125.0, 0.010380684442485404
1126.0, 0.010087892341204708
1127.0, 0.010217300595324186
1128.0, 0.009912291321277317
1129.0, 0.0075904731097171455
1130.0, 0.007050512420813582
1131.0, 0.009597479229285454
1132.0, 0.009652720447242292
1133.0, 0.007697570345620247
1134.0, 0.007843505560932228
1135.0, 0.007658105998372367
1136.0, 0.007006975587605949
1137.0, 0.006826244743454856
1138.0, 0.00684139771366115
1139.0, 0.0065008297681250216
1140.0, 0.007065121985359347
1141.0, 0.007843277137580075
1142.0, 0.008365154068736431
1143.0, 0.008554334095275411
1144.0, 0.005574005376181127
1145.0, 0.005997769847222593
1146.0, 0.005986136715553383
1147.0, 0.0031163878605034467
1148.0, 0.006293442479960082
1149.0, 0.007160916619012257
1150.0, 0.004117189520200847
1151.0, 0.005002881790117216
1152.0, 0.004623147098328595
1153.0, 0.003710763037187348
1154.0, 0.004986459416130925
1155.0, 0.0027327695979598313
1156.0, 0.001243042294474303
1157.0, 0.0015291874572456643
1158.0, 0.0030958012969013733
1159.0, 0.0031451057797104473
1160.0, 0.002638740019798769
1161.0, 0.00024100425812712158
1162.0, 0.0016369432678416515
1163.0, 0.001425056361475575
1164.0, 0.0019186797267559364
1165.0, 0.0010476260449646313
1166.0, 0.002614292467732918
1167.0, 0.0010217522278551535
1168.0, 0.0010913975563254128
1169.0, 0.0003610434396709924
1170.0, 0.000910670272074904
1171.0, 0.0008787492668588629
1172.0, 0.002177731825477994
1173.0, 0.003624513000280544
1174.0, 0.0036791583252915347
1175.0, 0.003080854236114221
1176.0, 0.0022968749236646478
1177.0, 0.0021116882867405315
1178.0, 0.0019007181864693669
1179.0, 0.003267880628969123
1180.0, 0.0035075018778799824
1181.0, 0.003916665554540017
1182.0, 0.004315920102189372
1183.0, 0.003309130168976922
1184.0, 0.0012229172793152548
1185.0, 0.004690579732415142
1186.0, 0.005293964779721798
1187.0, 0.004112199310168435
1188.0, 0.007646437617848875
1189.0, 0.006530425313455738
1190.0, 0.005932959267129658
1191.0, 0.0070045631042774505
1192.0, 0.007014553869755037
1193.0, 0.003864860895315094
1194.0, 0.004378596622610064
1195.0, 0.0068529688056918735
1196.0, 0.0061483040241956085
1197.0, 0.0066417730032262805
1198.0, 0.005946182935971234
1199.0, 0.004518367092256041
1200.0, 0.006886379804486277
1201.0, 0.008511544375445875
1202.0, 0.006065585227260056
1203.0, 0.003483885047684767
1204.0, 0.00345700678634833
1205.0, 0.004705198302088187
1206.0, 0.006548113427954684
1207.0, 0.007332254107284568
1208.0, 0.015022978532460375
1209.0, 0.008135282190725882
1210.0, 0.005641431242392923
1211.0, 0.004780640118480457
1212.0, 0.0028686791511362865
1213.0, 0.004346374614755215
1214.0, 0.0007619837715467887
1215.0, 0.001523515813584286
1216.0, 0.0024941678616313885
1217.0, 0.0008547994089573862
1218.0, 3.738962766852053e-05
1219.0, 0.0005318822994034574
1220, 0.0
1221, 0.0
1222, 0.0
1223, 0.0
1224, 0.0
1225, 0.0
1226, 0.0
1227, 0.0
1228, 0.0
1229, 0.0
1230, 0.0
1231, 0.0
1232, 0.0
1233, 0.0
1234, 0.0
1235, 0.0
1236, 0.0
1237, 0.0
1238, 0.0
1239, 0.0
1240, 0.0
1241, 0.0
1242, 0.0
1243, 0.0
1244, 0.0
1245, 0.0
1246, 0.0
1247, 0.0
1248, 0.0
1249, 0.0
1250, 0.0
1251, 0.0
1252, 0.0
1253, 0.0
1254, 0.0
1255, 0.0
1256, 0.0
1257, 0.0
1258, 0.0
1259, 0.0
1260, 0.0
1261, 0.0
1262, 0.0
1263, 0.0
1264, 0.0
1265, 0.0
1266, 0.0
1267, 0.0
1268, 0.0
1269, 0.0
1270, 0.0
1271, 0.0
1272, 0.0
1273, 0.0
1274, 0.0
1275, 0.0
1276, 0.0
1277, 0.0
1278, 0.0
1279, 0.0
1280, 0.0
1281, 0.0
1282, 0.0
1283, 0.0
1284, 0.0
1285, 0.0
1286, 0.0
1287, 0.0
1288, 0.0
1289, 0.0
1290, 0.0
1291, 0.0
1292, 0.0
1293, 0.0
1294, 0.0
1295, 0.0
1296, 0.0
1297, 0.0
1298, 0.0
1299, 0.0
1300, 0.0
1301, 0.0
1302, 0.0
1303, 0.0
1304, 0.0
1305, 0.0
1306, 0.0
1307, 0.0
1308, 0.0
1309, 0.0
1310, 0.0
1311, 0.0
1312, 0.0
1313, 0.0
1314, 0.0
1315, 0.0
1316, 0.0
1317, 0.0
1318, 0.0
1319, 0.0
1320, 0.0
1321, 0.0
1322, 0.0
1323, 0.0
1324, 0.0
1325, 0.0
1326, 0.0
1327, 0.0
1328, 0.0
1329, 0.0
1330, 0.0
1331, 0.0
1332, 0.0
1333, 0.0
1334, 0.0
1335, 0.0
1336, 0.0
1337, 0.0
1338, 0.0
1339, 0.0
1340, 0.0
1341, 0.0
1342, 0.0
1343, 0.0
1344, 0.0
1345, 0.0
1346, 0.0
1347, 0.0
1348, 0.0
1349, 0.0
1350, 0.0
1351, 0.0
1352, 0.0
1353, 0.0
1354, 0.0
1355, 0.0
1356, 0.0
1357, 0.0
1358, 0.0
1359, 0.0
1360, 0.0
1361, 0.0
1362, 0.0
1363, 0.0
1364, 0.0
1365, 0.0
1366, 0.0
1367, 0.0
1368, 0.0
1369, 0.0
1370, 0.0
1371, 0.0
1372, 0.0
1373, 0.0
1374, 0.0
1375, 0.0
1376, 0.0
1377, 0.0
1378, 0.0
1379, 0.0
1380, 0.0
1381, 0.0
1382, 0.0
1383, 0.0
1384, 0.0
1385, 0.0
1386, 0.0
1387, 0.0
1388, 0.0
1389, 0.0
1390, 0.0
1391, 0.0
1392, 0.0
1393, 0.0
1394, 0.0
1395, 0.0
1396, 0.0
1397, 0.0
1398, 0.0
1399, 0.0
1400, 0.0
1401, 0.0
1402, 0.0
1403, 0.0
1404, 0.0
1405, 0.0
1406, 0.0
1407, 0.0
1408, 0.0
1409, 0.0
1410, 0.0
1411, 0.0
1412, 0.0
1413, 0.0
1414, 0.0
1415, 0.0
1416, 0.0
1417, 0.0
1418, 0.0
1419, 0.0
1420, 0.0
1421, 0.0
1422, 0.0
1423, 0.0
1424, 0.0
1425, 0.0
1426, 0.0
1427, 0.0
1428, 0.0
1429, 0.0
1430, 0.0
1431, 0.0
1432, 0.0
1433, 0.0
1434, 0.0
1435, 0.0
1436, 0.0
1437, 0.0
1438, 0.0
1439, 0.0
1440, 0.0
1441, 0.0
1442, 0.0
1443, 0.0
1444, 0.0
1445, 0.0
1446, 0.0
1447, 0.0
1448, 0.0
1449, 0.0
1450, 0.0
1451, 0.0
1452, 0.0
1453, 0.0
1454, 0.0
1455, 0.0
1456, 0.0
1457, 0.0
1458, 0.0
1459, 0.0
1460, 0.0
1461, 0.0
1462, 0.0
1463, 0.0
1464, 0.0
1465, 0.0
1466, 0.0
1467, 0.0
1468, 0.0
1469, 0.0
1470, 0.0
1471, 0.0
1472, 0.0
1473, 0.0
1474, 0.0
1475, 0.0
1476, 0.0
1477, 0.0
1478, 0.0
1479, 0.0
1480, 0.0
1481, 0.0
1482, 0.0
1483, 0.0
1484, 0.0
1485, 0.0
1486, 0.0
1487, 0.0
1488, 0.0
1489, 0.0
1490, 0.0
1491, 0.0
1492, 0.0
1493, 0.0
1494, 0.0
1495, 0.0
1496, 0.0
1497, 0.0
1498, 0.0
1499, 0.0
1500, 0.0
1501, 0.0
1502, 0.0
1503, 0.0
1504, 0.0
1505, 0.0
1506, 0.0
1507, 0.0
1508, 0.0
1509, 0.0
1510, 0.0
1511, 0.0
1512, 0.0
1513, 0.0
1514, 0.0
1515, 0.0
1516, 0.0
1517, 0.0
1518, 0.0
1519, 0.0
1520, 0.0
1521, 0.0
1522, 0.0
1523, 0.0
1524, 0.0
1525, 0.0
1526, 0.0
1527, 0.0
1528, 0.0
1529, 0.0
1530, 0.0
1531, 0.0
1532, 0.0
1533, 0.0
1534, 0.0
1535, 0.0
1536, 0.0
1537, 0.0
1538, 0.0
1539, 0.0
1540, 0.0
1541, 0.0
1542, 0.0
1543, 0.0
1544, 0.0
1545, 0.0
1546, 0.0
1547, 0.0
1548, 0.0
1549, 0.0
1550, 0.0
1551, 0.0
1552, 0.0
1553, 0.0
1554, 0.0
1555, 0.0
1556, 0.0
1557, 0.0
1558, 0.0
1559, 0.0
1560, 0.0
1561, 0.0
1562, 0.0
1563, 0.0
1564, 0.0
1565, 0.0
1566, 0.0
1567, 0.0
1568, 0.0
1569, 0.0
1570, 0.0
1571, 0.0
1572, 0.0
1573, 0.0
1574, 0.0
1575, 0.0
1576, 0.0
1577, 0.0
1578, 0.0
1579, 0.0
1580, 0.0
1581, 0.0
1582, 0.0
1583, 0.0
1584, 0.0
1585, 0.0
1586, 0.0
1587, 0.0
1588, 0.0
1589, 0.0
1590, 0.0
1591, 0.0
1592, 0.0
1593, 0.0
1594, 0.0
1595, 0.0
1596, 0.0
1597, 0.0
1598, 0.0
1599, 0.0
