30, 0.0
31, 0.0
32, 0.0
33, 0.0
34, 0.0
35, 0.0
36, 0.0
37, 0.0
38, 0.0
39, 0.0
40, 0.0
41, 0.0
42, 0.0
43, 0.0
44, 0.0
45, 0.0
46, 0.0
47, 0.0
48, 0.0
49, 0.0
50, 0.0
51, 0.0
52, 0.0
53, 0.0
54, 0.0
55, 0.0
56, 0.0
57, 0.0
58, 0.0
59, 0.0
60, 0.0
61, 0.0
62, 0.0
63, 0.0
64, 0.0
65, 0.0
66, 0.0
67, 0.0
68, 0.0
69, 0.0
70, 0.0
71, 0.0
72, 0.0
73, 0.0
74, 0.0
75, 0.0
76, 0.0
77, 0.0
78, 0.0
79, 0.0
80, 0.0
81, 0.0
82, 0.0
83, 0.0
84, 0.0
85, 0.0
86, 0.0
87, 0.0
88, 0.0
89, 0.0
90, 0.0
91, 0.0
92, 0.0
93, 0.0
94, 0.0
95, 0.0
96, 0.0
97, 0.0
98, 0.0
99, 0.0
100, 0.0
101, 0.0
102, 0.0
103, 0.0
104, 0.0
105, 0.0
106, 0.0
107, 0.0
108, 0.0
109, 0.0
110, 0.0
111, 0.0
112, 0.0
113, 0.0
114, 0.0
115, 0.0
116, 0.0
117, 0.0
118, 0.0
119, 0.0
120, 0.0
121, 0.0
122, 0.0
123, 0.0
124, 0.0
125, 0.0
126, 0.0
127, 0.0
128, 0.0
129, 0.0
130, 0.0
131, 0.0
132, 0.0
133, 0.0
134, 0.0
135, 0.0
136, 0.0
137, 0.0
138, 0.0
139, 0.0
140, 0.0
141, 0.0
142, 0.0
143, 0.0
144.0, 0.0001984175984517572
145.0, 0.0013138255089819365
146.0, 0.0011899741612003856
147.0, 0.00039816052474389265
148.0, 0.0034423568749961863
149.0, 0.0034153808171841207
150.0, 0.0020501640611629603
151.0, 0.0031167549021397217
152.0, 0.0005534858868627838
153.0, 0.0026026362187717275
154.0, 0.008460421853334872
155.0, 0.010937532381177482
156.0, 0.006088732479636448
157.0, 0.006910725252997452
158.0, 0.012149085103944175
159.0, 0.017888681877579474
160.0, 0.022207093704237024
161.0, 0.02456278616270903
162.0, 0.030816253679072734
163.0, 0.03900060302404945
164.0, 0.04407085126635271
165.0, 0.04413325371245338
166.0, 0.05371678767096638
167.0, 0.06441390658614844
168.0, 0.06591282278127795
169.0, 0.06620742869785252
170.0, 0.07432461776265459
171.0, 0.08174537571828067
172.0, 0.08383505375773463
173.0, 0.08827288659436237
174.0, 0.0937623719639176
175.0, 0.10509325243713369
176.0, 0.11517690605716266
177.0, 0.11556474218905358
178.0, 0.12424539022325867
179.0, 0.1341763636304866
180.0, 0.14174057859677938
181.0, 0.14697023248029947
182.0, 0.1467286329966144
183.0, 0.15036217487220446
184.0, 0.15366936607639445
185.0, 0.1544504766300192
186.0, 0.15823147898292234
187.0, 0.15230814465145082
188.0, 0.13956455486517672
189.0, 0.13315941186654628
190.0, 0.14041112187704377
191.0, 0.1301571964968088
192.0, 0.11797582827727134
193.0, 0.10709469292279081
194.0, 0.09812110636278368
195.0, 0.09852203105748904
196.0, 0.08670375598779165
197.0, 0.07764927556792556
198.0, 0.07095226733991959
199.0, 0.054083383275110246
200.0, 0.041821461812114324
201.0, 0.02920419107742924
202.0, 0.02320606668632778
203.0, 0.02435607131000013
204.0, 0.0121421898070624
205.0, 0.010198794689870495
206.0, 0.009847312972648058
207.0, 0.006039353114178227
208.0, 0.006298041265055324
209.0, 0.0005475846679278671
210.0, 0.0023695140224944235
211.0, 0.0022883508100234044
212.0, 0.004304584580070787
213.0, 0.0017878162706636566
214.0, 0.0012617531612284588
215.0, 0.0022259257531455413
216.0, 0.009288988839721913
217.0, 0.010059667523825852
218.0, 0.01730691020051551
219.0, 0.0258735117794734
220.0, 0.035118099033894
221.0, 0.04600067612055014
222.0, 0.05790714769571086
223.0, 0.06826386730882639
224.0, 0.08008089607159202
225.0, 0.09479918884739284
226.0, 0.10934147867844157
227.0, 0.13079571562338407
228.0, 0.1436148362837306
229.0, 0.15050539297670618
230.0, 0.16616795876893775
231.0, 0.18288171258543465
232.0, 0.2009454006534714
233.0, 0.21026578759494435
234.0, 0.21559219058200985
235.0, 0.23798641298971468
236.0, 0.2525597624126524
237.0, 0.2625630237463939
238.0, 0.27451973394718665
239.0, 0.2903330002335839
240.0, 0.3026491179581311
241.0, 0.31119649573290753
242.0, 0.32064915079392914
243.0, 0.32969232920580793
244.0, 0.33037681879640823
245.0, 0.3302930467031472
246.0, 0.33547938269333216
247.0, 0.3343489090606633
248.0, 0.3229654407685219
249.0, 0.33137339286908424
250.0, 0.31654242392404175
251.0, 0.29312472499065817
252.0, 0.2771189380444825
253.0, 0.2671545741441833
254.0, 0.2528575632805826
255.0, 0.2332659133815582
256.0, 0.21895497757974242
257.0, 0.2122575664227728
258.0, 0.19880360715844986
259.0, 0.1873442929353637
260.0, 0.17324312135531497
261.0, 0.1573500357880861
262.0, 0.14411606560029377
263.0, 0.13933874779874833
264.0, 0.1224142497515435
265.0, 0.10255951350393866
266.0, 0.08846860010759608
267.0, 0.070460537548149
268.0, 0.05221810379594801
269.0, 0.03293422699200653
270.0, 0.01793533054975461
271.0, 0.012188667491742732
272.0, 0.00218064537360095
273.0, 0.0035869193936643247
274.0, 0.007678468819474191
275.0, 0.014797865190125152
276.0, 0.02384362492331068
277.0, 0.03336224090072404
278.0, 0.02716177891722849
279.0, 0.02237437393824122
280.0, 0.026896606573409178
281.0, 0.028056098353993992
282.0, 0.021314788459544497
283.0, 0.01693785106779372
284.0, 0.012901846249569861
285.0, 0.006065669218895925
286.0, 0.006194591912291484
287.0, 0.006554069768097347
288.0, 0.001819226081269742
289.0, 0.012516670793289044
290.0, 0.021695602269642622
291.0, 0.03622232337563283
292.0, 0.047956871948187624
293.0, 0.06070379249214174
294.0, 0.07572540526904153
295.0, 0.08441207591338527
296.0, 0.10127416243681861
297.0, 0.10995644551992188
298.0, 0.1155668503771787
299.0, 0.12866514816603794
300.0, 0.13736158711614238
301.0, 0.1508727789764287
302.0, 0.16386575265426034
303.0, 0.17918583367847254
304.0, 0.20056034569070602
305.0, 0.21318574736730134
306.0, 0.23024857272419882
307.0, 0.24721139775929146
308.0, 0.2656477269367344
309.0, 0.2910135959576713
310.0, 0.3077468787805202
311.0, 0.32319029843457164
312.0, 0.3428791734250693
313.0, 0.3662362660407938
314.0, 0.388253536312395
315.0, 0.40638643002067104
316.0, 0.42037425060543016
317.0, 0.43816564527494206
318.0, 0.4640384236644307
319.0, 0.4827322864235718
320.0, 0.5093406082437343
321.0, 0.5352682011769859
322.0, 0.5590391118874906
323.0, 0.5857911204474635
324.0, 0.6161535710103503
325.0, 0.6471361223354598
326.0, 0.6772032585967539
327.0, 0.7059523111468127
328.0, 0.735593829346768
329.0, 0.7702540344936623
330.0, 0.7888221548257583
331.0, 0.8162828870251241
332.0, 0.845502863746964
333.0, 0.8525813253422077
334.0, 0.878560789473254
335.0, 0.8977713224602735
336.0, 0.9183093411767842
337.0, 0.9398028005579387
338.0, 0.9486284536938863
339.0, 0.9640323813855013
340.0, 0.9772629196133529
341.0, 0.984084438274018
342.0, 0.9858603571325518
343.0, 0.9865826066412421
344.0, 0.99637319849316
345.0, 0.9998299827450882
346.0, 0.9992799874328464
347.0, 0.9993766549889292
348.0, 0.9949160113923401
349.0, 0.9863282054651895
350.0, 0.9710127779334413
351.0, 0.9545440912001342
352.0, 0.9379599767278362
353.0, 0.9098020690451553
354.0, 0.8912570814084128
355.0, 0.8569683811755049
356.0, 0.8212051817442746
357.0, 0.7969966337267506
358.0, 0.758098230266563
359.0, 0.7207878576201664
360.0, 0.6850065717850637
361.0, 0.6478609475354604
362.0, 0.6133320680657747
363.0, 0.5907396528493394
364.0, 0.5519226519875411
365.0, 0.5142977448350061
366.0, 0.48199633116844176
367.0, 0.44884987901305784
368.0, 0.4100975501753754
369.0, 0.38216553680357207
370.0, 0.356479414660459
371.0, 0.3257597686679768
372.0, 0.2898778783113978
373.0, 0.2706586270251906
374.0, 0.24335649540390702
375.0, 0.219496193040312
376.0, 0.2010406034684196
377.0, 0.18327049603363071
378.0, 0.1695783498516787
379.0, 0.16112575135736767
380.0, 0.14448923190483268
381.0, 0.13031005902003392
382.0, 0.12810956019677783
383.0, 0.119784250957003
384.0, 0.12150054224124922
385.0, 0.12456429536257863
386.0, 0.1253079921970563
387.0, 0.12399862853829902
388.0, 0.11872658760312077
389.0, 0.12851439671402165
390.0, 0.1368047885488907
391.0, 0.1402089011376247
392.0, 0.14339391008029514
393.0, 0.14592912754838402
394.0, 0.15104626545549862
395.0, 0.1600095432109526
396.0, 0.1645637604379544
397.0, 0.16667990623198312
398.0, 0.1805976367358428
399.0, 0.1869802801413412
400.0, 0.19903854926004305
401.0, 0.20566559689562952
402.0, 0.20808970810267757
403.0, 0.22043371960948438
404.0, 0.21849237208936198
405.0, 0.22458538305781495
406.0, 0.22318698274015145
407.0, 0.22343983074096802
408.0, 0.227141495251353
409.0, 0.22664690172586785
410.0, 0.2324577111562115
411.0, 0.22819128542581962
412.0, 0.22379607071892083
413.0, 0.22071813846526633
414.0, 0.22547014670144533
415.0, 0.22629694257765068
416.0, 0.2231667250638827
417.0, 0.22289460175203785
418.0, 0.22875306216217034
419.0, 0.2255788248049203
420.0, 0.23517620678326134
421.0, 0.2381704033087508
422.0, 0.2375030772678172
423.0, 0.2449837598240159
424.0, 0.25080865195517715
425.0, 0.2540497556562412
426.0, 0.26199343362294697
427.0, 0.27053204902685135
428.0, 0.2742107900229576
429.0, 0.2746496287719608
430.0, 0.2863183078688513
431.0, 0.2973448474410229
432.0, 0.2977893685663466
433.0, 0.2981361262065468
434.0, 0.3122749604963183
435.0, 0.3135486208751433
436.0, 0.30610248490122993
437.0, 0.2986033817836637
438.0, 0.2882511306035703
439.0, 0.26946935789343196
440.0, 0.24635549161832063
441.0, 0.21749892919225136
442.0, 0.18039767895536749
443.0, 0.15225130464537084
444.0, 0.13561311242862698
445.0, 0.10874123139822402
446.0, 0.09362424064127829
447.0, 0.06577144922160442
448.0, 0.043201890622030635
449.0, 0.033604277216981865
450.0, 0.021149555201864168
451.0, 0.010260753638983152
452.0, 0.0040501854042200094
453.0, 0.008239969514682755
454.0, 0.007016863274228437
455.0, 0.014109452499867087
456.0, 0.017212777717851128
457.0, 0.0199204422042646
458.0, 0.015688367966429015
459.0, 0.016217485564258068
460.0, 0.023595212419152387
461.0, 0.01583515571764616
462.0, 0.015428158808503397
463.0, 0.00927370274270158
464.0, 0.006623792780176446
465.0, 0.011174588364079337
466.0, 0.013393316516071275
467.0, 0.01084440825822113
468.0, 0.0049620862930202176
469.0, 0.0039044533129111024
470.0, 0.003412432698587143
471.0, 0.005000391980775695
472.0, 0.01032294374173866
473.0, 0.008841583174286865
474.0, 0.013291277728016674
475.0, 0.02080723447616179
476.0, 0.02686498147933866
477.0, 0.03595802269078161
478.0, 0.04849740327924861
479.0, 0.05280737347224633
480.0, 0.058114596091563005
481.0, 0.06816361764522887
482.0, 0.08058460648278054
483.0, 0.0962974953200638
484.0, 0.110374290050829
485.0, 0.11796796806402018
486.0, 0.12398345409592929
487.0, 0.13324359594350274
488.0, 0.14355711978215438
489.0, 0.15529187688615817
490.0, 0.1631974705004774
491.0, 0.16817312856865552
492.0, 0.17937182124639509
493.0, 0.19386397785718817
494.0, 0.19285227084611356
495.0, 0.20506290668610008
496.0, 0.21251866880293072
497.0, 0.2161698024789641
498.0, 0.22121250202106524
499.0, 0.2274220151118231
500.0, 0.23773420519576124
501.0, 0.23981701504841713
502.0, 0.24524167974938288
503.0, 0.25387195868897805
504.0, 0.25713853596378866
505.0, 0.25350177586167594
506.0, 0.2540163206036012
507.0, 0.25599146920663374
508.0, 0.2548550785223613
509.0, 0.24774160791924912
510.0, 0.23647634017645017
511.0, 0.2288909087609162
512.0, 0.21705042659771262
513.0, 0.2056037507197093
514.0, 0.19213924451858166
515.0, 0.17752655800807868
516.0, 0.16962847314634116
517.0, 0.1667510551911941
518.0, 0.14614445237827284
519.0, 0.1273948740538096
520.0, 0.11825518662576726
521.0, 0.11124787485824784
522.0, 0.09333537686768754
523.0, 0.0802267096382481
524.0, 0.07118534524917851
525.0, 0.06393774436766232
526.0, 0.05246322277810862
527.0, 0.03676878805558417
528.0, 0.03427282693781647
529.0, 0.024559918699784102
530.0, 0.01731997456143715
531.0, 0.01216139273816584
532.0, 0.005811081514930482
533.0, 0.0015008517946481412
534.0, 0.000734008197398286
535.0, 0.003048040979671482
536.0, 0.010619826417440161
537.0, 0.015296309169715104
538.0, 0.012530799434329252
539.0, 0.01040023929595789
540.0, 0.00954804543381637
541.0, 0.013831191361287533
542.0, 0.013213352997171413
543.0, 0.008481786247759146
544.0, 0.007277934534972306
545.0, 0.013815595309506068
546.0, 0.010994387227522101
547.0, 0.007366919233809065
548.0, 0.007599597616623667
549.0, 0.005797853484876537
550.0, 0.0019230869600435183
551.0, 0.002514246426849765
552.0, 0.0017972227785501085
553.0, 0.010260205440948
554.0, 0.01476667246036241
555.0, 0.013327660658402435
556.0, 0.01097178756850737
557.0, 0.015513433421751157
558.0, 0.01558752298937492
559.0, 0.019871982128091076
560.0, 0.02103840271489477
561.0, 0.0201739526082666
562.0, 0.028595814125470003
563.0, 0.026720945748742727
564.0, 0.02298450379141736
565.0, 0.024278467510955297
566.0, 0.02858456991672541
567.0, 0.03225865407066547
568.0, 0.03534156617312572
569.0, 0.038411590505547606
570.0, 0.04952388259860984
571.0, 0.055173620595137675
572.0, 0.05592693660724444
573.0, 0.060068283431871455
574.0, 0.07297357626774974
575.0, 0.07669459451966561
576.0, 0.08717656205443354
577.0, 0.0964939676942061
578.0, 0.10318599005463455
579.0, 0.11391001719383154
580.0, 0.13000638516639224
581.0, 0.13383627084985317
582.0, 0.14694130730571286
583.0, 0.16027487742695115
584.0, 0.17106401614277317
585.0, 0.18136623777689045
586.0, 0.19320575815433016
587.0, 0.21404318554232016
588.0, 0.2277270460851689
589.0, 0.23635158911345902
590.0, 0.23910836984424028
591.0, 0.24521455510553902
592.0, 0.2651631970657086
593.0, 0.27049022553328234
594.0, 0.2719774555441892
595.0, 0.2802475108462518
596.0, 0.2819890916626721
597.0, 0.2819751016805657
598.0, 0.290834649303197
599.0, 0.28548570870364676
600.0, 0.27788497005117196
601.0, 0.2808802790322208
602.0, 0.2806406866362147
603.0, 0.27492260636632443
604.0, 0.2723028439081263
605.0, 0.26712591082099996
606.0, 0.2661608283258482
607.0, 0.26911354790448583
608.0, 0.26712893127852444
609.0, 0.26338863681483665
610.0, 0.2628370978053468
611.0, 0.2588775355685552
612.0, 0.25842383480583425
613.0, 0.25785194577147297
614.0, 0.25494771362797514
615.0, 0.25232316343629485
616.0, 0.25156709424681606
617.0, 0.250208608617756
618.0, 0.24794019320702398
619.0, 0.24694145683689356
620.0, 0.2386537282591636
621.0, 0.22911766104779505
622.0, 0.22354771720199212
623.0, 0.2190302454187347
624.0, 0.21292194517793395
625.0, 0.19599069928428745
626.0, 0.19267719058028726
627.0, 0.1818897797429658
628.0, 0.16729015400537847
629.0, 0.16255836837924284
630.0, 0.14926551638715538
631.0, 0.1398828709522041
632.0, 0.1381240948925611
633.0, 0.1269641246192513
634.0, 0.11571474229223955
635.0, 0.11297529571671994
636.0, 0.1088473339480237
637.0, 0.09611366494911956
638.0, 0.08784197295763928
639.0, 0.08825604318652025
640.0, 0.08329577888039212
641.0, 0.07910806942360346
642.0, 0.08878133418375293
643.0, 0.0923705464436045
644.0, 0.08781302074854047
645.0, 0.0878472516904575
646.0, 0.09614091094284719
647.0, 0.10457350061291026
648.0, 0.11172685782218764
649.0, 0.12421578981059743
650.0, 0.13424363717471036
651.0, 0.13537830452219993
652.0, 0.14812688443805197
653.0, 0.16366282823158332
654.0, 0.17815215687926086
655.0, 0.19192434278013323
656.0, 0.19387867927116917
657.0, 0.21085881667153017
658.0, 0.22919222244351728
659.0, 0.2449662519092795
660.0, 0.25788757498595366
661.0, 0.2682267646729778
662.0, 0.2787101973412601
663.0, 0.29295938045285264
664.0, 0.30064037619944384
665.0, 0.3142232239658626
666.0, 0.33125416476724073
667.0, 0.34664783899214563
668.0, 0.35958425066694827
669.0, 0.369769515057141
670.0, 0.3813442589403033
671.0, 0.38631234871072545
672.0, 0.40071556212967563
673.0, 0.4126677963100486
674.0, 0.4118285080004674
675.0, 0.4069408288845285
676.0, 0.4040964918938355
677.0, 0.4007733395975128
678.0, 0.3868672710647061
679.0, 0.3685592145965486
680.0, 0.35421801071036935
681.0, 0.3405312122123334
682.0, 0.3182667632713447
683.0, 0.28453126096030446
684.0, 0.2653313000292954
685.0, 0.2426160271531794
686.0, 0.22199681503078805
687.0, 0.20254138076248246
688.0, 0.18031141795389066
689.0, 0.16746896092180086
690.0, 0.1474272974982806
691.0, 0.1273342678570644
692.0, 0.1140551799280397
693.0, 0.10020251123698891
694.0, 0.08440597516212056
695.0, 0.07192291010617011
696.0, 0.06355316662807911
697.0, 0.060978799353196805
698.0, 0.052048768651096484
699.0, 0.0450938299237327
700.0, 0.040031363967202326
701.0, 0.0348256483565925
702.0, 0.031975521898450654
703.0, 0.03152325911958894
704.0, 0.030003875743414857
705.0, 0.029442945513759703
706.0, 0.029420798129722724
707.0, 0.030251226292039503
708.0, 0.034388326120783116
709.0, 0.04112973976708603
710.0, 0.03887637912944426
711.0, 0.05272275145947244
712.0, 0.053715203670889014
713.0, 0.05683786760294985
714.0, 0.06033684621888314
715.0, 0.06373179666740698
716.0, 0.07069482278062553
717.0, 0.07236829516703656
718.0, 0.0746976429721495
719.0, 0.08288323110278963
720.0, 0.08846418015129255
721.0, 0.09087614928430007
722.0, 0.08919264579410055
723.0, 0.08592619313945948
724.0, 0.08983548734354593
725.0, 0.0852839768928994
726.0, 0.08104857347242408
727.0, 0.07645104710013967
728.0, 0.07254173733086818
729.0, 0.06827787525877296
730.0, 0.06055570439802628
731.0, 0.051564679932895055
732.0, 0.04689901771531422
733.0, 0.04155923820302878
734.0, 0.031832333082637554
735.0, 0.030343246433967602
736.0, 0.03113733987274012
737.0, 0.024334803549597835
738.0, 0.01877236305551981
739.0, 0.011972406960413793
740.0, 0.009024883300115479
741.0, 0.00555923398935286
742.0, 0.0020922727974068776
743.0, 0.001488752902460997
744.0, 0.0035026750166478092
745.0, 0.0021769817599428085
746.0, 0.006915672778376458
747.0, 0.00800117404487253
748.0, 0.012916961261356039
749.0, 0.013730201070071205
750.0, 0.012725669173539489
751.0, 0.013424036631112041
752.0, 0.01256281357614204
753.0, 0.01109687332843077
754.0, 0.011235790845512628
755.0, 0.009755248508585872
756.0, 0.009474516233496802
757.0, 0.008545883406102578
758.0, 0.007145268848581733
759.0, 0.006617485281902573
760.0, 0.005401069676158982
761.0, 0.0033845414132142636
762.0, 0.0018486672289932074
763.0, 0.002476800184139212
764.0, 0.0025433919770169633
765.0, 0.0006616253097614009
766.0, 0.003264013881123815
767.0, 0.0025394058344492053
768.0, 0.006125087640953148
769.0, 0.00716334852406797
770.0, 0.009353055079168456
771.0, 0.009484191755361663
772.0, 0.011366197794429059
773.0, 0.013910316161476926
774.0, 0.014488670415248671
775.0, 0.017889329218616738
776.0, 0.022696660237308524
777.0, 0.02235964987470287
778.0, 0.023863265860882013
779.0, 0.024713251759271852
780.0, 0.026023137416871796
781.0, 0.028398468338353276
782.0, 0.02918737090636993
783.0, 0.03212766474918856
784.0, 0.033486400167029765
785.0, 0.034685137828623314
786.0, 0.03672754141899427
787.0, 0.036397715849594135
788.0, 0.03816773957702161
789.0, 0.042222156324717625
790.0, 0.03983200360458578
791.0, 0.039386332990553115
792.0, 0.04088695856890908
793.0, 0.04223389378785733
794.0, 0.044523374921609335
795.0, 0.04626268843623293
796.0, 0.050245063291872026
797.0, 0.05295686750205307
798.0, 0.04757769597005467
799.0, 0.0499143835796828
800.0, 0.05305434637503721
801.0, 0.049284614138768265
802.0, 0.051083778498012385
803.0, 0.05314999899267466
804.0, 0.051296775994950625
805.0, 0.05033994384898802
806.0, 0.05097758082663207
807.0, 0.050164297332856676
808.0, 0.049447174493353056
809.0, 0.04582456882842461
810.0, 0.04241370014752427
811.0, 0.041385411336982786
812.0, 0.03897691519462623
813.0, 0.03460767634311211
814.0, 0.03320273906436914
815.0, 0.030498247712861828
816.0, 0.03155198068840136
817.0, 0.03207394080665942
818.0, 0.028861073913793892
819.0, 0.02591092489505467
820.0, 0.024507572360616833
821.0, 0.023225109751244144
822.0, 0.022641777658873593
823.0, 0.017037131149651552
824.0, 0.017419512753862415
825.0, 0.01656637497513419
826.0, 0.012731068144944561
827.0, 0.011932647829580737
828.0, 0.014112719541544985
829.0, 0.014761645573181124
830.0, 0.01312471410497559
831.0, 0.00982608169825674
832.0, 0.008091354985095021
833.0, 0.006725494858897963
834.0, 0.007491114600038346
835.0, 0.006786271834738593
836.0, 0.005483098983847213
837.0, 0.0058878065573136264
838.0, 0.005067500976212637
839.0, 0.003334194397901088
840.0, 0.0022362795094819183
841.0, 0.0014846080007955907
842.0, 0.003920169229349593
843.0, 0.003939367816871892
844.0, 0.0035221625942354917
845.0, 0.003580792911751849
846.0, 0.0017788725749534478
847.0, 0.003254532963410086
848.0, 0.0010077383930774926
849.0, 0.0015797854105572017
850.0, 0.0009286362785013809
851.0, 0.0009835093330940175
852.0, 0.0015269304103670129
853.0, 0.0021587719766766583
854.0, 0.001378689147633401
855.0, 0.0018860321288295494
856.0, 0.0033495974741072723
857.0, 0.0010108635987876853
858.0, 0.0030917536071105255
859.0, 0.0024498733176152743
860.0, 0.004699102870057167
861.0, 0.010095834087429142
862.0, 0.014462318436351922
863.0, 0.0169456454460909
864.0, 0.018652523146669285
865.0, 0.02143556859768713
866.0, 0.026919505043887536
867.0, 0.03306836057837334
868.0, 0.0385748238411936
869.0, 0.04353598047542426
870.0, 0.04964695348330515
871.0, 0.057028720617241214
872.0, 0.06407062482133018
873.0, 0.0726838430492121
874.0, 0.08191171494949742
875.0, 0.08749626375965497
876.0, 0.09982280666915543
877.0, 0.10984678006729923
878.0, 0.11639672362322327
879.0, 0.12476142719518411
880.0, 0.13598795336381245
881.0, 0.1453973874647846
882.0, 0.15181284585066412
883.0, 0.16163747675286746
884.0, 0.16768672597158535
885.0, 0.1703440225211876
886.0, 0.17157044212904055
887.0, 0.17359683191237452
888.0, 0.17637089723762706
889.0, 0.1779058773618265
890.0, 0.17581287584073468
891.0, 0.17064405012208247
892.0, 0.1729715552687951
893.0, 0.16806645045004023
894.0, 0.15980342783287707
895.0, 0.15403156495633805
896.0, 0.15006493202599155
897.0, 0.14291648457238654
898.0, 0.1352848061410367
899.0, 0.1329628383848821
900.0, 0.12582932675441774
901.0, 0.1177640218986251
902.0, 0.1112161793162493
903.0, 0.10465837836027783
904.0, 0.09828882112972095
905.0, 0.08970502559004126
906.0, 0.0855806095643566
907.0, 0.08359063525862254
908.0, 0.07466449982926808
909.0, 0.06874164002744221
910.0, 0.06532209202210779
911.0, 0.05585992154931773
912.0, 0.05058256010036768
913.0, 0.045499956141366274
914.0, 0.040716852637252644
915.0, 0.03694185538227024
916.0, 0.03291093535326963
917.0, 0.02990784781057434
918.0, 0.029084254182896573
919.0, 0.024919933224408723
920.0, 0.022335693372373015
921.0, 0.020040554751584144
922.0, 0.016867720044168658
923.0, 0.01454915437831435
924.0, 0.014305468164832923
925.0, 0.011316739128071079
926.0, 0.008272456812124542
927.0, 0.009616875851224223
928.0, 0.00776177133948431
929.0, 0.008592073013521823
930.0, 0.004217817497754066
931.0, 0.005030220240061945
932.0, 0.0059180492255411915
933.0, 0.0030470211682289473
934.0, 0.0024416703119501714
935.0, 0.003932045431127224
936.0, 0.0023302317804283824
937.0, 0.0013342950003816622
938.0, 0.0005039759944921707
939.0, 0.00371108216733585
940.0, 0.00410453381979348
941.0, 0.0030264190500321375
942.0, 0.001765542176498001
943.0, 0.004193845063895969
944.0, 0.009210425533147132
945.0, 0.012518610476701655
946.0, 0.015037656550630713
947.0, 0.01927666756715169
948.0, 0.020029856719584235
949.0, 0.022477249774220446
950.0, 0.02664617820655349
951.0, 0.029559747852852845
952.0, 0.031107630977424246
953.0, 0.03686143480193275
954.0, 0.042277260246582286
955.0, 0.04310047528226874
956.0, 0.044085187245710776
957.0, 0.04853476407705397
958.0, 0.053632784069021555
959.0, 0.05537215755771324
960.0, 0.05645282307915335
961.0, 0.060364050233151355
962.0, 0.06450471221989129
963.0, 0.06871284663980409
964.0, 0.06956919754535254
965.0, 0.06898981961864926
966.0, 0.0695563114237848
967.0, 0.06936473902747668
968.0, 0.06983827576150764
969.0, 0.07023077179485078
970.0, 0.06686065984583221
971.0, 0.06470027810352125
972.0, 0.062149755222288564
973.0, 0.057232916760291214
974.0, 0.05311880901519548
975.0, 0.048109298598828995
976.0, 0.04257267172993547
977.0, 0.037862931220741275
978.0, 0.03308960565316269
979.0, 0.031243355968370627
980.0, 0.022819225338831028
981.0, 0.019069646492923253
982.0, 0.0165674255963647
983.0, 0.01285991598140996
984.0, 0.008248345450305837
985.0, 0.004206301643669238
986.0, 0.001814868495669099
987.0, 0.00037267539822534646
988.0, 0.0011671348064035089
989.0, 0.0007866406308254743
990.0, 0.00010509949456691134
991.0, 0.0003380192266840056
992.0, 0.002116225893972663
993.0, 0.0011659587613194323
994.0, 0.0009864999685968926
995.0, 0.0003821735317531392
996.0, 0.0008682491802030988
997.0, 0.000877138364406007
998.0, 0.001831486283731452
999.0, 0.002149739455011377
1000.0, 0.0023139222293511465
1001.0, 0.0014277634494310584
1002.0, 0.004098999132807534
1003.0, 0.0019114211114996695
1004.0, 0.00620549342499084
1005.0, 0.010773290351977854
1006.0, 0.011400948914933989
1007.0, 0.013861571839462475
1008.0, 0.016113804255410345
1009.0, 0.017526734117970937
1010.0, 0.021532855051118814
1011.0, 0.02596522490899176
1012.0, 0.03131192177843527
1013.0, 0.03435468955223149
1014.0, 0.04101460519870537
1015.0, 0.0478007034632057
1016.0, 0.054769108741915165
1017.0, 0.06510260026650654
1018.0, 0.07014046956771253
1019.0, 0.07694346020789859
1020.0, 0.08806680061594693
1021.0, 0.09446514587584835
1022.0, 0.09744879977308946
1023.0, 0.10473815994793599
1024.0, 0.11316303144744663
1025.0, 0.12052199206688571
1026.0, 0.13317011995011735
1027.0, 0.1394232940274386
1028.0, 0.14416770464751033
1029.0, 0.1489072381690839
1030.0, 0.15463508719991528
1031.0, 0.16425755941115647
1032.0, 0.1689521558310292
1033.0, 0.16750741940904662
1034.0, 0.1734238063122538
1035.0, 0.17937664985733898
1036.0, 0.18606738675869014
1037.0, 0.19043945985331925
1038.0, 0.19408999730661028
1039.0, 0.1924538050857286
1040.0, 0.19603485895468867
1041.0, 0.2008983827683683
1042.0, 0.20335670174236958
1043.0, 0.2106874704165782
1044.0, 0.21821790578982878
1045.0, 0.22222172085961367
1046.0, 0.22723020451359502
1047.0, 0.22891768815429644
1048.0, 0.23535015234089685
1049.0, 0.23175963488536128
1050.0, 0.2402222400017149
1051.0, 0.24409116205754777
1052.0, 0.24838635715586901
1053.0, 0.2482552953128191
1054.0, 0.24984036804702542
1055.0, 0.24926157824161171
1056.0, 0.24517260654471276
1057.0, 0.24657669248374384
1058.0, 0.24427601227423446
1059.0, 0.22706954285911346
1060.0, 0.21352893336366235
1061.0, 0.19629503702195572
1062.0, 0.1816034409481985
1063.0, 0.16253488923901957
1064.0, 0.14555943914918146
1065.0, 0.12047655569419197
1066.0, 0.10519238419098778
1067.0, 0.09023779104429455
1068.0, 0.07386214232379007
1069.0, 0.05989688145611336
1070.0, 0.04983626294750388
1071.0, 0.04397197184545105
1072.0, 0.03709816513590199
1073.0, 0.026764117810858
1074.0, 0.01730081349523224
1075.0, 0.01563465100638303
1076.0, 0.01269753375778199
1077.0, 0.008749384938034297
1078.0, 0.010386350657371417
1079.0, 0.006201617909499
1080.0, 0.0022621230128684394
1081.0, 0.007356154231826271
1082.0, 0.00834029139236438
1083.0, 0.006144995140609394
1084.0, 0.0046433255174584565
1085.0, 0.005340321760198933
1086.0, 0.004560301381305202
1087.0, 0.005432091526215389
1088.0, 0.002243772677810024
1089.0, 0.005767658145759579
1090.0, 0.01156258412181057
1091.0, 0.01670186207987528
1092.0, 0.022719642189883236
1093.0, 0.03223725596706262
1094.0, 0.04066272772228781
1095.0, 0.048653234622198484
1096.0, 0.06533387191046024
1097.0, 0.07971494822647278
1098.0, 0.0873945639625514
1099.0, 0.10437504791105424
1100.0, 0.12467347965640557
1101.0, 0.14065130520586688
1102.0, 0.16006262560516715
1103.0, 0.18487664223306172
1104.0, 0.21182620959787793
1105.0, 0.24566103598442765
1106.0, 0.26620120439621053
1107.0, 0.29038057961227454
1108.0, 0.31961571717111553
1109.0, 0.3486871226158349
1110.0, 0.37376972665755515
1111.0, 0.3947674219745414
1112.0, 0.4107909402239442
1113.0, 0.4174718570645229
1114.0, 0.4215807377684618
1115.0, 0.41974565729763663
1116.0, 0.4118822826248866
1117.0, 0.40304819724462
1118.0, 0.37873916792462736
1119.0, 0.36194935502478653
1120.0, 0.3417236280468056
1121.0, 0.3007501774080891
1122.0, 0.26239412320452704
1123.0, 0.22667435345846293
1124.0, 0.19349302047516717
1125.0, 0.15994127966151442
1126.0, 0.1257067409259527
1127.0, 0.09322059322308571
1128.0, 0.06670522468972848
1129.0, 0.0552385479157199
1130.0, 0.042981228300442535
1131.0, 0.02352524124328121
1132.0, 0.01849589528446245
1133.0, 0.008357044405100735
1134.0, 0.009156301064405716
1135.0, 0.00907231077981059
1136.0, 0.0072542671774816206
1137.0, 0.008084824070916981
1138.0, 0.005181119556827363
1139.0, 0.0038060772976936524
1140.0, 0.0039416853278269924
1141.0, 0.003083301640558267
1142.0, 0.0008351317936396666
1143.0, 0.0001740714980665012
1144, 0.0
1145, 0.0
1146, 0.0
1147, 0.0
1148, 0.0
1149, 0.0
1150, 0.0
1151, 0.0
1152, 0.0
1153, 0.0
1154, 0.0
1155, 0.0
1156, 0.0
1157, 0.0
1158, 0.0
1159, 0.0
1160, 0.0
1161, 0.0
1162, 0.0
1163, 0.0
1164, 0.0
1165, 0.0
1166, 0.0
1167, 0.0
1168, 0.0
1169, 0.0
1170, 0.0
1171, 0.0
1172, 0.0
1173, 0.0
1174, 0.0
1175, 0.0
1176, 0.0
1177, 0.0
1178, 0.0
1179, 0.0
1180, 0.0
1181, 0.0
1182, 0.0
1183, 0.0
1184, 0.0
1185, 0.0
1186, 0.0
1187, 0.0
1188, 0.0
1189, 0.0
1190, 0.0
1191, 0.0
1192, 0.0
1193, 0.0
1194, 0.0
1195, 0.0
1196, 0.0
1197, 0.0
1198, 0.0
1199, 0.0
1200, 0.0
1201, 0.0
1202, 0.0
1203, 0.0
1204, 0.0
1205, 0.0
1206, 0.0
1207, 0.0
1208, 0.0
1209, 0.0
1210, 0.0
1211, 0.0
1212, 0.0
1213, 0.0
1214, 0.0
1215, 0.0
1216, 0.0
1217, 0.0
1218, 0.0
1219, 0.0
1220, 0.0
1221, 0.0
1222, 0.0
1223, 0.0
1224, 0.0
1225, 0.0
1226, 0.0
1227, 0.0
1228, 0.0
1229, 0.0
1230, 0.0
1231, 0.0
1232, 0.0
1233, 0.0
1234, 0.0
1235, 0.0
1236, 0.0
1237, 0.0
1238, 0.0
1239, 0.0
1240, 0.0
1241, 0.0
1242, 0.0
1243, 0.0
1244, 0.0
1245, 0.0
1246, 0.0
1247, 0.0
1248, 0.0
1249, 0.0
1250, 0.0
1251, 0.0
1252, 0.0
1253, 0.0
1254, 0.0
1255, 0.0
1256, 0.0
1257, 0.0
1258, 0.0
1259, 0.0
1260, 0.0
1261, 0.0
1262, 0.0
1263, 0.0
1264, 0.0
1265, 0.0
1266, 0.0
1267, 0.0
1268, 0.0
1269, 0.0
1270, 0.0
1271, 0.0
1272, 0.0
1273, 0.0
1274, 0.0
1275, 0.0
1276, 0.0
1277, 0.0
1278, 0.0
1279, 0.0
1280, 0.0
1281, 0.0
1282, 0.0
1283, 0.0
1284, 0.0
1285, 0.0
1286, 0.0
1287, 0.0
1288, 0.0
1289, 0.0
1290, 0.0
1291, 0.0
1292, 0.0
1293, 0.0
1294, 0.0
1295, 0.0
1296, 0.0
1297, 0.0
1298, 0.0
1299, 0.0
1300, 0.0
1301, 0.0
1302, 0.0
1303, 0.0
1304, 0.0
1305, 0.0
1306, 0.0
1307, 0.0
1308, 0.0
1309, 0.0
1310, 0.0
1311, 0.0
1312, 0.0
1313, 0.0
1314, 0.0
1315, 0.0
1316, 0.0
1317, 0.0
1318, 0.0
1319, 0.0
1320, 0.0
1321, 0.0
1322, 0.0
1323, 0.0
1324, 0.0
1325, 0.0
1326, 0.0
1327, 0.0
1328, 0.0
1329, 0.0
1330, 0.0
1331, 0.0
1332, 0.0
1333, 0.0
1334, 0.0
1335, 0.0
1336, 0.0
1337, 0.0
1338, 0.0
1339, 0.0
1340, 0.0
1341, 0.0
1342, 0.0
1343, 0.0
1344, 0.0
1345, 0.0
1346, 0.0
1347, 0.0
1348, 0.0
1349, 0.0
1350, 0.0
1351, 0.0
1352, 0.0
1353, 0.0
1354, 0.0
1355, 0.0
1356, 0.0
1357, 0.0
1358, 0.0
1359, 0.0
1360, 0.0
1361, 0.0
1362, 0.0
1363, 0.0
1364, 0.0
1365, 0.0
1366, 0.0
1367, 0.0
1368, 0.0
1369, 0.0
1370, 0.0
1371, 0.0
1372, 0.0
1373, 0.0
1374, 0.0
1375, 0.0
1376, 0.0
1377, 0.0
1378, 0.0
1379, 0.0
1380, 0.0
1381, 0.0
1382, 0.0
1383, 0.0
1384, 0.0
1385, 0.0
1386, 0.0
1387, 0.0
1388, 0.0
1389, 0.0
1390, 0.0
1391, 0.0
1392, 0.0
1393, 0.0
1394, 0.0
1395, 0.0
1396, 0.0
1397, 0.0
1398, 0.0
1399, 0.0
1400, 0.0
1401, 0.0
1402, 0.0
1403, 0.0
1404, 0.0
1405, 0.0
1406, 0.0
1407, 0.0
1408, 0.0
1409, 0.0
1410, 0.0
1411, 0.0
1412, 0.0
1413, 0.0
1414, 0.0
1415, 0.0
1416, 0.0
1417, 0.0
1418, 0.0
1419, 0.0
1420, 0.0
1421, 0.0
1422, 0.0
1423, 0.0
1424, 0.0
1425, 0.0
1426, 0.0
1427, 0.0
1428, 0.0
1429, 0.0
1430, 0.0
1431, 0.0
1432, 0.0
1433, 0.0
1434, 0.0
1435, 0.0
1436, 0.0
1437, 0.0
1438, 0.0
1439, 0.0
1440, 0.0
1441, 0.0
1442, 0.0
1443, 0.0
1444, 0.0
1445, 0.0
1446, 0.0
1447, 0.0
1448, 0.0
1449, 0.0
1450, 0.0
1451, 0.0
1452, 0.0
1453, 0.0
1454, 0.0
1455, 0.0
1456, 0.0
1457, 0.0
1458, 0.0
1459, 0.0
1460, 0.0
1461, 0.0
1462, 0.0
1463, 0.0
1464, 0.0
1465, 0.0
1466, 0.0
1467, 0.0
1468, 0.0
1469, 0.0
1470, 0.0
1471, 0.0
1472, 0.0
1473, 0.0
1474, 0.0
1475, 0.0
1476, 0.0
1477, 0.0
1478, 0.0
1479, 0.0
1480, 0.0
1481, 0.0
1482, 0.0
1483, 0.0
1484, 0.0
1485, 0.0
1486, 0.0
1487, 0.0
1488, 0.0
1489, 0.0
1490, 0.0
1491, 0.0
1492, 0.0
1493, 0.0
1494, 0.0
1495, 0.0
1496, 0.0
1497, 0.0
1498, 0.0
1499, 0.0
1500, 0.0
1501, 0.0
1502, 0.0
1503, 0.0
1504, 0.0
1505, 0.0
1506, 0.0
1507, 0.0
1508, 0.0
1509, 0.0
1510, 0.0
1511, 0.0
1512, 0.0
1513, 0.0
1514, 0.0
1515, 0.0
1516, 0.0
1517, 0.0
1518, 0.0
1519, 0.0
1520, 0.0
1521, 0.0
1522, 0.0
1523, 0.0
1524, 0.0
1525, 0.0
1526, 0.0
1527, 0.0
1528, 0.0
1529, 0.0
1530, 0.0
1531, 0.0
1532, 0.0
1533, 0.0
1534, 0.0
1535, 0.0
1536, 0.0
1537, 0.0
1538, 0.0
1539, 0.0
1540, 0.0
1541, 0.0
1542, 0.0
1543, 0.0
1544, 0.0
1545, 0.0
1546, 0.0
1547, 0.0
1548, 0.0
1549, 0.0
1550, 0.0
1551, 0.0
1552, 0.0
1553, 0.0
1554, 0.0
1555, 0.0
1556, 0.0
1557, 0.0
1558, 0.0
1559, 0.0
1560, 0.0
1561, 0.0
1562, 0.0
1563, 0.0
1564, 0.0
1565, 0.0
1566, 0.0
1567, 0.0
1568, 0.0
1569, 0.0
1570, 0.0
1571, 0.0
1572, 0.0
1573, 0.0
1574, 0.0
1575, 0.0
1576, 0.0
1577, 0.0
1578, 0.0
1579, 0.0
1580, 0.0
1581, 0.0
1582, 0.0
1583, 0.0
1584, 0.0
1585, 0.0
1586, 0.0
1587, 0.0
1588, 0.0
1589, 0.0
1590, 0.0
1591, 0.0
1592, 0.0
1593, 0.0
1594, 0.0
1595, 0.0
1596, 0.0
1597, 0.0
1598, 0.0
1599, 0.0
