30, 0.0
31, 0.0
32, 0.0
33, 0.0
34, 0.0
35, 0.0
36, 0.0
37, 0.0
38, 0.0
39, 0.0
40, 0.0
41, 0.0
42, 0.0
43, 0.0
44, 0.0
45, 0.0
46, 0.0
47, 0.0
48, 0.0
49, 0.0
50, 0.0
51, 0.0
52, 0.0
53, 0.0
54, 0.0
55, 0.0
56, 0.0
57, 0.0
58, 0.0
59, 0.0
60, 0.0
61, 0.0
62, 0.0
63, 0.0
64, 0.0
65, 0.0
66, 0.0
67, 0.0
68, 0.0
69, 0.0
70, 0.0
71, 0.0
72, 0.0
73, 0.0
74, 0.0
75, 0.0
76, 0.0
77, 0.0
78, 0.0
79, 0.0
80, 0.0
81, 0.0
82, 0.0
83, 0.0
84, 0.0
85, 0.0
86, 0.0
87, 0.0
88, 0.0
89, 0.0
90, 0.0
91, 0.0
92, 0.0
93, 0.0
94, 0.0
95, 0.0
96, 0.0
97, 0.0
98, 0.0
99, 0.0
100, 0.0
101, 0.0
102, 0.0
103, 0.0
104, 0.0
105, 0.0
106, 0.0
107, 0.0
108.0, 1.3005448574594748e-06
109.0, 0.0002614095163495952
110.0, 0.00020670417738424604
111.0, 0.00039411928528950097
112.0, 0.0021176579881381887
113.0, 0.001983598557293037
114.0, 0.0022306356775614786
115.0, 0.003433300680878899
116.0, 0.004582063488910286
117.0, 0.005074408130135201
118.0, 0.004627785792569823
119.0, 0.002560908998089399
120.0, 0.0013501271563809963
121.0, 0.0008365531389916457
122.0, 0.0011214270575322814
123.0, 0.003130310480801101
124.0, 0.002911096091612891
125.0, 0.0021619511402641324
126.0, 0.0021658087670733328
127.0, 0.0014246576467190632
128.0, 0.0008988915349981315
129.0, 0.0006845869946900064
130.0, 0.0009558657628541009
131.0, 0.0009149526436206517
132.0, 0.000875098246124106
133.0, 0.0009842183670217951
134.0, 0.0008603865597526557
135.0, 0.000597414945931835
136.0, 0.0005527085750096094
137.0, 0.001576900985628991
138.0, 0.0006934761163643526
139.0, 0.0008332447995264114
140.0, 0.002492553956352443
141.0, 0.0013496181934777155
142.0, 0.0012290987809455013
143.0, 0.0015391844003294854
144.0, 0.001709919133408187
145.0, 0.005739664656230924
146.0, 0.012420970468284404
147.0, 0.021607886472021384
148.0, 0.033534612463952826
149.0, 0.04687897967226799
150.0, 0.060536746551364894
151.0, 0.07391764055414725
152.0, 0.08748094941165781
153.0, 0.09088179623964796
154.0, 0.0843781630177697
155.0, 0.06656744462005625
156.0, 0.04871688418990237
157.0, 0.03413696794836434
158.0, 0.02376548505984143
159.0, 0.01522683018765375
160.0, 0.009700367669895562
161.0, 0.006396350812269425
162.0, 0.004984784405658204
163.0, 0.004318741138753519
164.0, 0.003937600939560442
165.0, 0.003500289335394753
166.0, 0.0016411451055722268
167.0, 0.0011165337613428246
168.0, 0.0011025325567449865
169.0, 0.0012504992700386557
170.0, 0.0013062377859787535
171.0, 0.0011329171229296723
172.0, 0.0009080083189423992
173.0, 0.0009658570849553344
174.0, 0.00156766797731709
175.0, 0.0013939200659020415
176.0, 0.00037486044406858667
177.0, 0.00033275250627071796
178.0, 0.0006429949499168065
179.0, 0.0007298212703259713
180.0, 9.89441934513075e-05
181.0, 0.00035399160169794213
182.0, 0.0003835806097330802
183.0, 0.0002906889487553091
184.0, 0.0004973795641353763
185.0, 0.0011520360403079629
186.0, 0.0013783877407523252
187.0, 0.0010322812073942122
188.0, 0.0023444676852607195
189.0, 0.002657234931571796
190.0, 0.0027785744046881222
191.0, 0.003539505975915632
192.0, 0.003014261201388595
193.0, 0.0031025689487307324
194.0, 0.003870039764347924
195.0, 0.0050359428516943755
196.0, 0.004866852268715641
197.0, 0.004851675629210737
198.0, 0.005538731439296597
199.0, 0.00583775425518654
200.0, 0.006555893287139865
201.0, 0.0071083792056451725
202.0, 0.00669415285571802
203.0, 0.007966130665159984
204.0, 0.008630801344350843
205.0, 0.008966692711168176
206.0, 0.011297272127275076
207.0, 0.013288234383131366
208.0, 0.013157609094398098
209.0, 0.010016819610019713
210.0, 0.006529025698952629
211.0, 0.004884947530711448
212.0, 0.0038712259886064756
213.0, 0.001950116503663057
214.0, 0.0036152994934314318
215.0, 0.003772813341741362
216.0, 0.0026231058105366804
217.0, 0.003587977118423481
218.0, 0.0044801158194486285
219.0, 0.005150091581326014
220.0, 0.005565506194002278
221.0, 0.007166571229394467
222.0, 0.008143773945850167
223.0, 0.009775707238190013
224.0, 0.013848093925635857
225.0, 0.017764074333972833
226.0, 0.02209447388050799
227.0, 0.02792160454280899
228.0, 0.03934993457279924
229.0, 0.05626672316820652
230.0, 0.08436643768250042
231.0, 0.12790096079843744
232.0, 0.20970622780124043
233.0, 0.3180191460787015
234.0, 0.44208295194823727
235.0, 0.5735086913885649
236.0, 0.7102084661030245
237.0, 0.8263767481617754
238.0, 0.8998171027098589
239.0, 0.862981567787827
240.0, 0.7268277070563274
241.0, 0.5643771116078575
242.0, 0.40047636474570697
243.0, 0.2890646979302921
244.0, 0.20354154909652541
245.0, 0.14004683149019553
246.0, 0.09868640673748957
247.0, 0.07431914902997301
248.0, 0.056919320251996176
249.0, 0.04558682306941413
250.0, 0.04011572537692416
251.0, 0.03519918531067882
252.0, 0.03294080837653745
253.0, 0.03332581947844661
254.0, 0.034103821583678515
255.0, 0.03715435584671867
256.0, 0.04371951044102575
257.0, 0.05490329307023862
258.0, 0.07749786978680025
259.0, 0.12245605563578545
260.0, 0.1933506767778882
261.0, 0.29919864730465484
262.0, 0.4372217408988109
263.0, 0.583714589780825
264.0, 0.7361920142465801
265.0, 0.8943171139155113
266.0, 0.9691039915369315
267.0, 0.9332526317486475
268.0, 0.7821125347610683
269.0, 0.5751773668335484
270.0, 0.4101852535569848
271.0, 0.28435892354376346
272.0, 0.19997997931753755
273.0, 0.15492127006429188
274.0, 0.1293829898577849
275.0, 0.12243767852544606
276.0, 0.1355533026564031
277.0, 0.17473874591051167
278.0, 0.2358222969904953
279.0, 0.31943231654576676
280.0, 0.4324832198041252
281.0, 0.5647668828095701
282.0, 0.6967796102485206
283.0, 0.8188031158368003
284.0, 0.896272728698857
285.0, 0.8713612619396383
286.0, 0.7722528118563373
287.0, 0.6114875725941273
288.0, 0.462449264517607
289.0, 0.3364059602021649
290.0, 0.2349667248841226
291.0, 0.16400756044500742
292.0, 0.12311074784936067
293.0, 0.09238193910818213
294.0, 0.06928140156808217
295.0, 0.05416733916122625
296.0, 0.043448804791709476
297.0, 0.03576628257063847
298.0, 0.030569773447064456
299.0, 0.025741561178529167
300.0, 0.02332369079385834
301.0, 0.021148171803084394
302.0, 0.017931920315758843
303.0, 0.016379687952080238
304.0, 0.014562913778320226
305.0, 0.012950971075625593
306.0, 0.012182101572767895
307.0, 0.010273376346123648
308.0, 0.009042910289167226
309.0, 0.008403081380730943
310.0, 0.007837283223037632
311.0, 0.008060920584668986
312.0, 0.007909863853130033
313.0, 0.007295090786084271
314.0, 0.007074548016890459
315.0, 0.007378026169136997
316.0, 0.007472546907101105
317.0, 0.006990233344651595
318.0, 0.0053401912127396135
319.0, 0.005110679857436215
320.0, 0.005250020567499248
321.0, 0.004935299705046905
322.0, 0.0068346246656723906
323.0, 0.008570240983182055
324.0, 0.010261338130892392
325.0, 0.012147266298469633
326.0, 0.01465107008439134
327.0, 0.019629697849767366
328.0, 0.026157006614124935
329.0, 0.031190764396928732
330.0, 0.03525431660924896
331.0, 0.03791769401647492
332.0, 0.038430181230641236
333.0, 0.033221754137227326
334.0, 0.02590929450619284
335.0, 0.019680280092322675
336.0, 0.01574369661849646
337.0, 0.011333658648355494
338.0, 0.00947325789989842
339.0, 0.008292813355406721
340.0, 0.006456924912249397
341.0, 0.005885646615290183
342.0, 0.0049788421939509445
343.0, 0.004235875484905972
344.0, 0.004335966742707735
345.0, 0.003205451725041397
346.0, 0.0029026276144321836
347.0, 0.0029668549944984776
348.0, 0.0020973702887588782
349.0, 0.0008562660832193566
350.0, 0.0008845257027268776
351.0, 0.0019515731180211964
352.0, 0.002234977824548439
353.0, 0.0011246388970814188
354.0, 0.0005275583105486811
355.0, 0.0008041000692532942
356.0, 0.000532098547392357
357.0, 0.0004330736155952187
358.0, 0.0004192815788212942
359.0, 0.0004318449778258728
360.0, 0.00014709461730470953
361.0, 8.508258496950461e-05
362.0, 0.0005025890897963348
363.0, 0.0016153151401784843
364.0, 0.0008626400599503866
365.0, 0.0007823035217956316
366.0, 0.0010516174670608257
367.0, 0.001303306002949586
368.0, 0.0004116540454576196
369.0, 0.0011650698354031936
370.0, 0.0028251822619132314
371.0, 0.0038351915434889335
372.0, 0.002436416039977326
373.0, 0.0015259181316338477
374.0, 0.0013846067859530433
375.0, 0.0018734450127738081
376.0, 0.0016735213896724487
377.0, 0.0013215321696604797
378.0, 0.0009943962733728082
379.0, 0.0009836985156099411
380.0, 0.000420322561844419
381.0, 0.00013039821767859796
382.0, 0.00032839876289394564
383.0, 0.0006284909273486804
384.0, 0.000577768235977096
385.0, 0.0007083146830665892
386.0, 0.0013133365944474828
387.0, 0.002848590940670022
388.0, 0.003470410966010326
389.0, 0.003555319707217952
390.0, 0.0033986515343395916
391.0, 0.005601511799775596
392.0, 0.0077385274968675795
393.0, 0.010247528482188985
394.0, 0.013559774877387819
395.0, 0.02213320223952359
396.0, 0.03227626886088033
397.0, 0.045040822993505716
398.0, 0.0620432646311956
399.0, 0.07554636807235181
400.0, 0.09091842307174397
401.0, 0.10495925490013953
402.0, 0.11141913852110193
403.0, 0.10587467915980589
404.0, 0.09450211603929116
405.0, 0.07867501344033678
406.0, 0.05975575114413524
407.0, 0.04498025764814832
408.0, 0.033397709743106296
409.0, 0.024798436958779063
410.0, 0.019179890190685164
411.0, 0.015988026241658678
412.0, 0.012934541998226572
413.0, 0.00978415401503906
414.0, 0.007576563597544832
415.0, 0.007298980458586177
416.0, 0.0067512455111779284
417.0, 0.0054574165570691535
418.0, 0.004217747804796335
419.0, 0.0027766195516186498
420.0, 0.0016145783647959439
421.0, 0.0009714436302393852
422.0, 0.0012696654551767512
423.0, 0.0008688039947986184
424.0, 0.0004730564749653196
425.0, 0.00042686072783065674
426.0, 0.000983820845668227
427.0, 0.0011663537070588255
428.0, 0.0012534780053777032
429.0, 0.0013813322528050554
430.0, 0.0013552241685500807
431.0, 0.0007117256553820893
432.0, 0.0009088621481462781
433.0, 0.0026977663670124394
434.0, 0.0006943211308416825
435.0, 0.0006439422710025242
436.0, 0.0011931664915965767
437.0, 0.0013247343517789438
438.0, 0.0012589706346708342
439.0, 0.0007891056116034573
440.0, 0.0004098894019685007
441.0, 0.0005642007726420351
442.0, 0.0004644591148014219
443.0, 0.0005238586176029503
444.0, 0.0005745350989201244
445.0, 0.00044300238197877864
446.0, 0.00048482286654804517
447.0, 0.0023552666808708024
448.0, 0.005395418040439613
449.0, 0.00885351850590119
450.0, 0.011174774582137932
451.0, 0.01669649461830191
452.0, 0.024187800570150998
453.0, 0.0320174734410226
454.0, 0.03909858332721912
455.0, 0.04256127476366949
456.0, 0.043298060708410795
457.0, 0.04257525627955848
458.0, 0.0352344695572292
459.0, 0.027660900561365744
460.0, 0.020479398631681557
461.0, 0.01416793703808285
462.0, 0.011877232987524978
463.0, 0.009704981060199734
464.0, 0.007253002586166996
465.0, 0.004244489119360265
466.0, 0.0032808830304835233
467.0, 0.003239705865738258
468.0, 0.0032801555939561524
469.0, 0.0021570264489121286
470.0, 0.0017672808474664663
471.0, 0.002178934840425674
472.0, 0.0026899836035185858
473.0, 0.0021255594152633957
474.0, 0.002608101401283823
475.0, 0.0020271991936014655
476.0, 0.0012866833649066516
477.0, 0.0021619763202598004
478.0, 0.0030970612503339605
479.0, 0.004200059935679903
480.0, 0.005532172664276279
481.0, 0.007192690231192104
482.0, 0.008956975328385476
483.0, 0.011531874648361496
484.0, 0.015339341686779816
485.0, 0.021035539611365926
486.0, 0.026886370963398482
487.0, 0.03205187374676339
488.0, 0.03659442112452329
489.0, 0.040675990305454025
490.0, 0.03952668347514407
491.0, 0.033485527871907395
492.0, 0.025479250176592506
493.0, 0.019768034384164405
494.0, 0.014587669915049693
495.0, 0.009345993955091687
496.0, 0.005544221875269198
497.0, 0.005362096083228847
498.0, 0.003420915057236158
499.0, 0.003062806550977724
500.0, 0.0034529879786081782
501.0, 0.003350994327213674
502.0, 0.0023742743782258057
503.0, 0.001745529149434145
504.0, 0.001140528425736984
505.0, 0.00013967995819421264
506.0, 0.0018305588285449242
507.0, 0.001953411217221106
508.0, 0.0017591307813527718
509.0, 0.002618583772425465
510.0, 0.0013076805971760732
511.0, 0.001761501741413898
512.0, 0.003416954023288142
513.0, 0.00571650804222937
514.0, 0.007506470444459727
515.0, 0.009686685502582303
516.0, 0.012510908558787287
517.0, 0.016049062760269052
518.0, 0.016681473721336337
519.0, 0.01747192410716144
520.0, 0.017917502023855204
521.0, 0.0176711447960315
522.0, 0.016887692648789584
523.0, 0.01439309568311053
524.0, 0.011679884797472957
525.0, 0.009607310955114643
526.0, 0.007878404091322738
527.0, 0.0056642438104177765
528.0, 0.005128338057937982
529.0, 0.00682807152772734
530.0, 0.006611980212860255
531.0, 0.00614533866580271
532.0, 0.005717711482710856
533.0, 0.005446036339804493
534.0, 0.005326366637568842
535.0, 0.0057635816584401455
536.0, 0.006096839839926132
537.0, 0.006020643381896068
538.0, 0.00513418745282002
539.0, 0.006128821132376175
540.0, 0.006581079034067613
541.0, 0.006750216702183396
542.0, 0.009562054199751193
543.0, 0.010635155902165582
544.0, 0.010752678510052209
545.0, 0.011261668024092094
546.0, 0.01527196311547214
547.0, 0.017780289531117467
548.0, 0.02050955555509965
549.0, 0.02397424948777605
550.0, 0.028750358195203534
551.0, 0.03554308293443037
552.0, 0.044362080607669455
553.0, 0.05543383165608057
554.0, 0.06910353452419407
555.0, 0.08775982718856928
556.0, 0.10624607540439933
557.0, 0.12415618597853519
558.0, 0.14124876942773357
559.0, 0.15009220083992805
560.0, 0.14958105555939183
561.0, 0.14073945881466843
562.0, 0.12477002849054973
563.0, 0.10575827349554875
564.0, 0.08655940491082452
565.0, 0.0694370290755526
566.0, 0.05579862554077035
567.0, 0.04548737021062672
568.0, 0.03591757267329488
569.0, 0.029570610415057274
570.0, 0.02660815998549259
571.0, 0.021222601101451796
572.0, 0.01759350448149224
573.0, 0.014554667318035742
574.0, 0.012158674391479487
575.0, 0.012003327956475343
576.0, 0.010024001273926062
577.0, 0.008763039569790562
578.0, 0.008081929296854995
579.0, 0.006274003813038693
580.0, 0.006537524506032703
581.0, 0.0069818084945758065
582.0, 0.007120230825464696
583.0, 0.006510570045427947
584.0, 0.00608253621324283
585.0, 0.005296079122559272
586.0, 0.004610056199213208
587.0, 0.0045984890000483865
588.0, 0.0049498383648750865
589.0, 0.004820167239650096
590.0, 0.004515463580885463
591.0, 0.0043108811881266695
592.0, 0.004483177353502078
593.0, 0.003984768671500927
594.0, 0.0032660019539817596
595.0, 0.0026054435679241776
596.0, 0.0022372316894107925
597.0, 0.0022532745823645645
598.0, 0.0022704812705146046
599.0, 0.002193546490342656
600.0, 0.002179909457804977
601.0, 0.002608462751224346
602.0, 0.0035570451561534986
603.0, 0.004399698918765557
604.0, 0.003556857085485065
605.0, 0.004580074690896338
606.0, 0.0052129555366004715
607.0, 0.0055442118571452275
608.0, 0.006084519662291602
609.0, 0.006356268493196994
610.0, 0.007156093654162487
611.0, 0.0073570209434959495
612.0, 0.00598273314076699
613.0, 0.00663691023353431
614.0, 0.0054496969665700735
615.0, 0.00411587666871261
616.0, 0.0037327415223473333
617.0, 0.00471260778181475
618.0, 0.003984094636769012
619.0, 0.003591205447585787
620.0, 0.003969663645408602
621.0, 0.003842793102472527
622.0, 0.003882800768969966
623.0, 0.005005263172878722
624.0, 0.006348306807455701
625.0, 0.005520861120324703
626.0, 0.006182977710495811
627.0, 0.004447920978893546
628.0, 0.0029158948266144935
629.0, 0.005475320977077009
630.0, 0.00435946712340481
631.0, 0.004862356170134915
632.0, 0.006236224488494672
633.0, 0.007711514094270361
634.0, 0.007909289314646472
635.0, 0.009231317840436827
636.0, 0.010773670247544893
637.0, 0.012858789528856015
638.0, 0.019286799183419225
639.0, 0.02086473077832859
640.0, 0.024621180159584536
641.0, 0.030669893268899334
642.0, 0.03470331408978786
643.0, 0.03619600595096753
644.0, 0.035659505255458274
645.0, 0.03310014727720731
646.0, 0.02851558166494016
647.0, 0.027090499052477176
648.0, 0.022587714009227634
649.0, 0.018069672008617196
650.0, 0.015927492691250687
651.0, 0.013511496816604863
652.0, 0.011718618442959995
653.0, 0.010320798336928219
654.0, 0.008989743980920062
655.0, 0.006687890158116045
656.0, 0.007381857363752144
657.0, 0.006047798492847128
658.0, 0.00340540004661246
659.0, 0.0036516277533677906
660.0, 0.005646040302362209
661.0, 0.004695476663081287
662.0, 0.0029003230234117034
663.0, 0.0031977099184893115
664.0, 0.0019224556988197807
665.0, 0.002534074388680774
666.0, 0.0028873312547285862
667.0, 0.0019300800844560457
668.0, 0.0024372273259571247
669.0, 0.0018959734945340613
670.0, 0.0018932313471434854
671.0, 0.002300000918720981
672.0, 0.0010724899209760656
673.0, 0.0008087794724538949
674.0, 0.001752197680615975
675.0, 0.002647960650900214
676.0, 0.0015350182194309907
677.0, 0.0023074653130348817
678.0, 0.0026077160123701942
679.0, 0.0026610375008672186
680.0, 0.0026603675239659473
681.0, 0.0022672780410986824
682.0, 0.0023602765502060445
683.0, 0.0025823556337672094
684.0, 0.0027389072024926013
685.0, 0.0026406576764494124
686.0, 0.001883148878827891
687.0, 0.0014251026720747508
688.0, 0.0010999149381985826
689.0, 0.0003456465057031992
690.0, 0.0019991742758965632
691.0, 0.0021230867470543036
692.0, 0.0013747055385076596
693.0, 0.000633837611639519
694.0, 0.001957222604066161
695.0, 0.0016785330044138073
696.0, 0.0016639097791162675
697.0, 0.0020624297165719022
698.0, 0.0005659395140567843
699.0, 0.0006806042269115027
700.0, 0.0017536322849999759
701.0, 0.0026469427420678605
702.0, 0.0016922645299790845
703.0, 0.0004695544653883346
704.0, 0.001145477404984048
705.0, 0.0019607494073174284
706.0, 0.0016706996499733435
707.0, 0.0023815653168194426
708.0, 0.0009968377379310296
709.0, 0.00020069663834205753
710.0, 0.0008282521689609602
711.0, 0.0024355367213282288
712.0, 0.0025930549166663327
713.0, 0.0018661098567676689
714.0, 0.0008777825298579456
715.0, 0.0003901829391175817
716.0, 0.0008242507220000815
717.0, 0.001188059800731567
718.0, 0.0012223210551438862
719.0, 0.0008568881059291738
720.0, 0.0006588573336467494
721.0, 0.0007540002415151037
722.0, 0.0007367115930193506
723.0, 0.0005335948058694238
724.0, 0.00022963956681605336
725.0, 0.0008702010181740633
726.0, 0.0008057930072425573
727.0, 0.001014050734260615
728.0, 0.002329904773186878
729.0, 0.0006899948522922246
730.0, 0.0006077527004486541
731.0, 0.0012051864128623294
732.0, 0.001839674691652588
733.0, 0.0016137081742443186
734.0, 0.0017424001908465637
735.0, 0.0011310076188835012
736.0, 0.00042497737171785414
737.0, 0.0008107555194222124
738.0, 0.0004391163243460479
739.0, 0.0010969284564787216
740.0, 0.0015250987766247733
741.0, 0.0010274881369898492
742.0, 0.00045754484292290996
743.0, 0.0003972499641235884
744.0, 0.0003055283734536731
745.0, 0.0005249976962831622
746.0, 0.002035073979187913
747.0, 0.0007321595141673879
748.0, 0.00027212285095972865
749.0, 0.0006563600148381146
750.0, 0.0014916244455320793
751.0, 0.0007075540019276713
752.0, 0.001037269743043364
753.0, 0.000874861264719008
754.0, 0.00035547328689203403
755.0, 0.001395890070235405
756.0, 0.0012569558001593079
757.0, 0.001250892159334763
758.0, 0.001388526596284988
759.0, 0.0014713437524644768
760.0, 0.0002915730331869304
761.0, 0.0012041406262009984
762.0, 0.0013634338872361652
763.0, 0.00021359604490482062
764.0, 0.00015626881961608772
765.0, 0.00048476624266651896
766.0, 0.0004930746767368756
767.0, 0.00029264989139165745
768.0, 0.0001724867270516266
769.0, 0.0007957584054694674
770.0, 0.0010284642334328848
771.0, 0.0011232085710341174
772.0, 0.0014401050780007965
773.0, 0.0028741205627357603
774.0, 0.0026142368483592195
775.0, 0.002485951337400344
776.0, 0.0025113621163210613
777.0, 0.0023225562655527976
778.0, 0.001883679502817438
779.0, 0.0019674152336613955
780.0, 0.0020042555048190467
781.0, 0.0019692435007132238
782.0, 0.003089400442347216
783.0, 0.001596970634296545
784.0, 0.0010210203650374056
785.0, 0.0013199539230227984
786.0, 0.0015761738149205587
787.0, 0.0026475490455244444
788.0, 0.0013826465974943328
789.0, 0.0013268805679972544
790.0, 0.00312219524921872
791.0, 0.001388209873204706
792.0, 0.0014181073839558576
793.0, 0.002640519438769861
794.0, 0.003470143575205738
795.0, 0.0020109316375825905
796.0, 0.0015550469143369686
797.0, 0.0023689558205042976
798.0, 0.0032593377852069088
799.0, 0.003487862673565032
800.0, 0.0026327617423919612
801.0, 0.002459951977837302
802.0, 0.0024001590423153385
803.0, 0.001964219978233855
804.0, 0.0007781758975596123
805.0, 0.0011040662519882364
806.0, 0.0013918422273230284
807.0, 0.0013848015816869987
808.0, 0.0011456111793311284
809.0, 0.00122118150915527
810.0, 0.0012619687398020213
811.0, 0.0015141765413987521
812.0, 0.0017039232773214282
813.0, 0.0015721496379204345
814.0, 0.0017602927816738833
815.0, 0.003179498829728172
816.0, 0.0034864650534477543
817.0, 0.0025077007624458524
818.0, 0.0019025053180938927
819.0, 0.0031434784647661543
820.0, 0.0051659002575054
821.0, 0.005508158117717573
822.0, 0.003013031152292441
823.0, 0.0035242543560170055
824.0, 0.004132416998566543
825.0, 0.002733141273000326
826.0, 0.0011537024881767923
827.0, 0.0036503388905764333
828.0, 0.0036892331729778257
829.0, 0.002717193279300741
830.0, 0.00338299544730423
831.0, 0.006115419397838802
832.0, 0.005442870403948827
833.0, 0.0045659189784768035
834.0, 0.004546726311031535
835.0, 0.0051316248381755285
836.0, 0.005727995003387308
837.0, 0.006325213503811031
838.0, 0.006858375785240254
839.0, 0.00749394470091842
840.0, 0.008045793321553703
841.0, 0.007791677693223125
842.0, 0.009577242370968369
843.0, 0.011269947974511455
844.0, 0.011316538609915964
845.0, 0.009593935678081403
846.0, 0.014205104637356612
847.0, 0.014300877891077897
848.0, 0.014470681320859814
849.0, 0.015892855932612467
850.0, 0.018410810226030076
851.0, 0.020251274927146196
852.0, 0.01989412452682374
853.0, 0.019756491416817776
854.0, 0.020578849065060474
855.0, 0.019739631354149585
856.0, 0.019637400927751212
857.0, 0.02027665707207628
858.0, 0.02059406494756178
859.0, 0.01945562456772404
860.0, 0.016884439611063572
861.0, 0.016009599070054496
862.0, 0.015567772819729844
863.0, 0.01493485296752548
864.0, 0.013710176186871212
865.0, 0.0126350340195169
866.0, 0.012601567108622917
867.0, 0.0121423376702976
868.0, 0.011012388983574208
869.0, 0.012206037860060852
870.0, 0.011371414220103182
871.0, 0.01077043044244287
872.0, 0.011198647560955758
873.0, 0.012691482285277111
874.0, 0.01010892582865707
875.0, 0.01041103494089484
876.0, 0.011292703176009949
877.0, 0.011394826602883688
878.0, 0.009599295225717506
879.0, 0.011556918793782466
880.0, 0.014101074135900388
881.0, 0.014179502822254818
882.0, 0.011624477683503751
883.0, 0.012600048595222952
884.0, 0.012939240916533062
885.0, 0.012626591917838886
886.0, 0.012446607046414081
887.0, 0.012982199415763026
888.0, 0.012294996140176298
889.0, 0.013803712622079545
890.0, 0.014684677651214405
891.0, 0.014570458951988918
892.0, 0.01421546204598733
893.0, 0.014772906953563932
894.0, 0.014992853369087816
895.0, 0.016024915456996462
896.0, 0.017667276147637037
897.0, 0.017733022438598273
898.0, 0.018821198268701916
899.0, 0.020545965720915247
900.0, 0.021983811299809225
901.0, 0.02253657428128209
902.0, 0.022829740828439322
903.0, 0.025658593569170055
904.0, 0.028172082475508328
905.0, 0.029386839828832625
906.0, 0.029314380001525468
907.0, 0.034667318048601764
908.0, 0.03661354945186968
909.0, 0.03938101458190365
910.0, 0.04286820237680763
911.0, 0.0442437932543523
912.0, 0.049755698583501894
913.0, 0.05687673492810336
914.0, 0.06288336597183991
915.0, 0.06824295377680807
916.0, 0.0787388420959993
917.0, 0.08370705410457487
918.0, 0.09127135121466207
919.0, 0.1023036361453611
920.0, 0.11597492858556924
921.0, 0.1277793731349429
922.0, 0.1385658793603798
923.0, 0.1503206875250197
924.0, 0.16351766130912096
925.0, 0.17760133196250785
926.0, 0.18614925522257905
927.0, 0.2037525042311972
928.0, 0.224186351242306
929.0, 0.2482233449762992
930.0, 0.28005663079636695
931.0, 0.33310959680754315
932.0, 0.3961050282808744
933.0, 0.4620964573448017
934.0, 0.5282588615356928
935.0, 0.5952042678063527
936.0, 0.6310703523415055
937.0, 0.614308484618662
938.0, 0.5679384684269377
939.0, 0.5058315220792621
940.0, 0.4223389729096602
941.0, 0.34519931629961725
942.0, 0.2864552365051642
943.0, 0.23882265600436145
944.0, 0.1954070909852171
945.0, 0.15837071137476194
946.0, 0.13564347054853879
947.0, 0.11866518976679837
948.0, 0.10433047960405703
949.0, 0.0906385346776662
950.0, 0.07787867270292632
951.0, 0.06941444810773782
952.0, 0.06311760769096757
953.0, 0.05689881236230431
954.0, 0.048970491194479826
955.0, 0.04431085818512637
956.0, 0.04174987553685583
957.0, 0.03986078639035388
958.0, 0.0377095089105706
959.0, 0.03457229492377197
960.0, 0.03163743656864835
961.0, 0.03198107384153736
962.0, 0.03055539045952816
963.0, 0.027189317143931847
964.0, 0.026221166672609073
965.0, 0.02732990622709257
966.0, 0.026532038570598954
967.0, 0.02562186463550384
968.0, 0.025408209528143638
969.0, 0.025287880912129922
970.0, 0.023819636803250603
971.0, 0.024203548793617524
972.0, 0.024249540981671144
973.0, 0.023676490918955018
974.0, 0.026764350280250537
975.0, 0.027913880764115034
976.0, 0.03129293211485081
977.0, 0.0350120280649069
978.0, 0.038258387785131825
979.0, 0.045006557844630354
980.0, 0.04864511357229172
981.0, 0.05534135942263372
982.0, 0.06224062138416868
983.0, 0.06712156235326631
984.0, 0.07509426955544724
985.0, 0.06920603766923758
986.0, 0.06403803790225827
987.0, 0.058481238728134086
988.0, 0.04955997883405854
989.0, 0.03940562325913585
990.0, 0.03601203254641205
991.0, 0.031296309071866216
992.0, 0.025519017372325287
993.0, 0.020949921882515054
994.0, 0.01962608271359197
995.0, 0.017106170153088993
996.0, 0.015757302941338737
997.0, 0.015363707147110002
998.0, 0.014918720883853721
999.0, 0.013695923578688872
1000.0, 0.013402439546717005
1001.0, 0.013028227422620295
1002.0, 0.012359872800924284
1003.0, 0.011550192352955752
1004.0, 0.011591118855249547
1005.0, 0.009786574839459824
1006.0, 0.00887455731469687
1007.0, 0.009111010539507991
1008.0, 0.009588016554161836
1009.0, 0.007734501131420986
1010.0, 0.007166374295382494
1011.0, 0.00648551983223735
1012.0, 0.005902931288995925
1013.0, 0.006223951149868964
1014.0, 0.0071344496548622635
1015.0, 0.006891238916820908
1016.0, 0.006048744751661703
1017.0, 0.005694014843851347
1018.0, 0.006849515237142635
1019.0, 0.006345699511814361
1020.0, 0.004437351198466126
1021.0, 0.004785780239015472
1022.0, 0.006523557692133357
1023.0, 0.006776905395551104
1024.0, 0.0042073726128743095
1025.0, 0.006200932238015318
1026.0, 0.006072329370903448
1027.0, 0.005088791460729159
1028.0, 0.007043924597614281
1029.0, 0.004729310877671649
1030.0, 0.0049751058744231845
1031.0, 0.004904318559170009
1032.0, 0.004121395460115063
1033.0, 0.003393270326376676
1034.0, 0.005010706914341787
1035.0, 0.004622096157504781
1036.0, 0.003929436701312514
1037.0, 0.0037650604112772256
1038.0, 0.0045249605339543145
1039.0, 0.005597957261260377
1040.0, 0.005718568682127854
1041.0, 0.006090404104062242
1042.0, 0.006631579178081899
1043.0, 0.006740450305183779
1044.0, 0.005044470715828768
1045.0, 0.006089192122645761
1046.0, 0.0059693461586767275
1047.0, 0.004610585118087377
1048.0, 0.003192410465809735
1049.0, 0.003959496362653104
1050.0, 0.005624213725557811
1051.0, 0.004032947760135791
1052.0, 0.002852660242029093
1053.0, 0.005036009210586666
1054.0, 0.004262001052752022
1055.0, 0.0038078771994491025
1056.0, 0.003213794744019804
1057.0, 0.0027252856444608953
1058.0, 0.0025126368806906354
1059.0, 0.002214774679930907
1060.0, 0.0023970603792630085
1061.0, 0.0023877625555613537
1062.0, 0.0025724213740363124
1063.0, 0.003239189047598039
1064.0, 0.0042472434767808495
1065.0, 0.004095420745528378
1066.0, 0.003148560762140516
1067.0, 0.0021383242597784475
1068.0, 0.0016879984526299852
1069.0, 0.0022182637339293
1070.0, 0.0013097033055030295
1071.0, 0.0005396256237326567
1072.0, 0.0015792508902623102
1073.0, 0.003077259275646648
1074.0, 0.0005307520973692012
1075.0, 0.0024546394364644572
1076.0, 0.0020741640284022396
1077.0, 0.0013566091605747928
1078.0, 0.0016610353074538594
1079.0, 0.0036918774228944756
1080.0, 0.005426645477981887
1081.0, 0.00419619477913637
1082.0, 0.004124767940133433
1083.0, 0.004016336748510491
1084.0, 0.0010229307433524272
1085.0, 0.001556339343347031
1086.0, 0.0010212738103162972
1087.0, 0.001093522449669265
1088.0, 0.0012579222487667354
1089.0, 0.0006998514586359781
1090.0, 0.0005562937425716474
1091.0, 0.0013148605653372032
1092.0, 0.0008925366808813136
1093.0, 0.0008945236587871576
1094.0, 0.002008387997047825
1095.0, 0.00035317696445122415
1096.0, 0.002203685099073283
1097.0, 0.001478015607493854
1098.0, 0.00035265837450937197
1099.0, 0.0004661434330770359
1100.0, 0.0012577788369387566
1101.0, 0.0017636489610492584
1102.0, 0.001642255278728794
1103.0, 0.0009502862932697909
1104.0, 0.00015125135522102648
1105.0, 4.246981705202408e-05
1106.0, 0.0005299696148558933
1107.0, 0.0005603745810572653
1108.0, 0.0005874308532373437
1109.0, 0.000548923389313114
1110.0, 0.00032815108442255775
1111.0, 0.0018700249581180993
1112.0, 0.0011779406538237436
1113.0, 0.0015799292511533619
1114.0, 0.0018838028402367057
1115.0, 0.0007196738288172029
1116.0, 0.0013243627375425573
1117.0, 0.0009292859453386773
1118.0, 0.0010278132635219064
1119.0, 0.001063772710225333
1120.0, 0.0008207715749283695
1121.0, 0.001336337533479173
1122.0, 0.00435632487335403
1123.0, 0.0049641943316359296
1124.0, 0.003817605104406505
1125.0, 0.0023520838228447897
1126.0, 0.002301608811060569
1127.0, 0.0004152290273595105
1128.0, 0.0014691103170924602
1129.0, 0.0012795445712945634
1130.0, 0.0010611532069253857
1131.0, 0.003404319985765387
1132.0, 0.0004622216981132489
1133.0, 0.00020213177002466147
1134.0, 0.0001889045226229655
1135.0, 0.0006421401943933183
1136.0, 0.0015559568845224447
1137.0, 0.00044055214611398363
1138.0, 0.001444690682019608
1139.0, 0.0020084324576060382
1140.0, 0.0014515684860147494
1141.0, 0.0003090491591246114
1142.0, 0.0004301071408547524
1143.0, 0.0001720757159246943
1144.0, 0.0004936693093155721
1145.0, 0.0008774517166703701
1146.0, 0.001052550767218989
1147.0, 0.0009233052387209067
1148.0, 0.0003502144106410878
1149.0, 0.0004391463345512673
1150.0, 0.0014740971033739845
1151.0, 0.0018663784515818463
1152.0, 0.0008369546515942025
1153.0, 0.0015969711831313597
1154.0, 0.002436107678657127
1155.0, 0.00227512351785743
1156.0, 0.0025685952110009735
1157.0, 0.0034477140239762304
1158.0, 0.0031507152947434685
1159.0, 0.004047362627511614
1160.0, 0.005628426978199944
1161.0, 0.007957043909753903
1162.0, 0.009600293281798261
1163.0, 0.00912499811669381
1164.0, 0.01017837178470995
1165.0, 0.010859253081520756
1166.0, 0.010684029677831927
1167.0, 0.010115003848874614
1168.0, 0.009470155091839953
1169.0, 0.008234538249673818
1170.0, 0.006199362373971769
1171.0, 0.005946170503196026
1172.0, 0.004489060245020628
1173.0, 0.0020592393081544313
1174.0, 0.0016506303770536651
1175.0, 0.000930707232349671
1176.0, 0.0014522257311420615
1177.0, 0.0023750854781557783
1178.0, 0.002202136509735022
1179.0, 0.0004260895790138025
1180.0, 0.0006513403573029961
1181.0, 0.001678500435164359
1182.0, 0.0019988753891244733
1183.0, 0.002256620581737525
1184.0, 0.0023127012514648155
1185.0, 0.0009324244909358462
1186.0, 0.0009937045441866907
1187.0, 0.0012643417282639632
1188.0, 0.0017282839191136564
1189.0, 0.002125682602007229
1190.0, 0.0022035382161164608
1191.0, 0.0022380810678277155
1192.0, 0.0017338287710472328
1193.0, 0.0017323332917767184
1194.0, 0.0016482934374738155
1195.0, 0.001294921661499568
1196.0, 0.0014011962109364805
1197.0, 0.0007836608500433335
1198.0, 0.0009168287993207001
1199.0, 0.000833983685202519
1200.0, 0.0006987802281637811
1201.0, 0.0009475473287258668
1202.0, 0.0001517318603960224
1203.0, 0.001716934092471157
1204.0, 0.0011924635318380798
1205.0, 0.0010298105931882732
1206.0, 0.0018936469397081734
1207.0, 0.00010822421057129036
1208.0, 0.0008815781098052027
1209.0, 0.0004222147679075985
1210.0, 9.739676217318225e-05
1211.0, 0.00019968735464544646
1212.0, 0.0004882360042500309
1213.0, 0.0011789976114972602
1214.0, 0.001136032898144056
1215.0, 0.0013411499339790415
1216.0, 0.0013481278064782687
1217.0, 0.001196206938961308
1218.0, 0.0017938319723175612
1219.0, 0.0016252899869421075
1220.0, 0.002058171375719825
1221.0, 0.0018736288643331717
1222.0, 0.0014285174772167585
1223.0, 0.0013526019157997903
1224.0, 0.0005010107857783479
1225.0, 0.0015412147125450503
1226.0, 0.0017064126119130463
1227.0, 0.002300234283531278
1228.0, 0.00271136225780954
1229.0, 0.00040782981531051936
1230.0, 0.0021307302028926458
1231.0, 0.0016028849946743398
1232.0, 0.000946827165852772
1233.0, 0.0005535580655002267
1234.0, 0.0006167896867722301
1235.0, 0.0023404957245169757
1236.0, 0.00262618631185496
1237.0, 0.0023454560252442087
1238.0, 0.0020011777006273593
1239.0, 0.0019057020499160817
1240.0, 0.0021567922829090484
1241.0, 0.0025521048955364388
1242.0, 0.0026464025142359892
1243.0, 0.002767331027554945
1244.0, 0.0030564655993166783
1245.0, 0.0033135844978710027
1246.0, 0.0029056678719514457
1247.0, 0.002659312363869104
1248.0, 0.002020282819258997
1249.0, 0.0018301180725311152
1250.0, 0.0018290739928268694
1251.0, 0.0016172553144447666
1252.0, 0.0021832349759011286
1253.0, 0.0016739227769619436
1254.0, 0.001463678288892307
1255.0, 0.001660293336502723
1256.0, 0.0016940687347200552
1257.0, 0.0007479319243519723
1258.0, 0.00010613799735168883
1259.0, 0.0016171994854802757
1260.0, 0.0019591723261452292
1261.0, 0.001429784019892291
1262.0, 0.0010049779270890444
1263.0, 0.0012579907316716253
1264.0, 0.0023448785264063494
1265.0, 0.001731214586691947
1266.0, 0.0007514312191916845
1267.0, 0.0005501422000501249
1268.0, 0.0016831628311217036
1269.0, 0.003331757924269565
1270.0, 0.004197286107262705
1271.0, 0.0017423278952632545
1272.0, 0.001929858906121342
1273.0, 0.003360745175413362
1274.0, 0.0004969428411331724
1275.0, 0.0030784400926291023
1276.0, 0.0027488566712273346
1277.0, 0.0019362338893899622
1278.0, 0.0016096777146639017
1279.0, 0.0022972986830582767
1280.0, 0.004012397157264926
1281.0, 0.0031946504885938948
1282.0, 0.0035865927725631046
1283.0, 0.0024112490389676076
1284.0, 0.0015927406868049558
1285.0, 0.0022731585228502192
1286.0, 0.0008200468103659057
1287.0, 0.0011253575801167606
1288.0, 0.0010473578179460473
1289.0, 0.0008895638892996283
1290.0, 0.0007591624046003109
1291.0, 0.0006138384972222105
1292.0, 0.00032676228461444505
1293.0, 0.0005342866614970283
1294.0, 0.001279865047044008
1295.0, 0.002092960323514043
1296.0, 0.002743894992777063
1297.0, 0.003241348618027137
1298.0, 0.0035673536052048937
1299.0, 0.002177432534362856
1300.0, 0.002893029089172346
1301.0, 0.002939750828342958
1302.0, 0.0015835135210629137
1303.0, 0.0011346398826949334
1304.0, 0.002024707561964544
1305.0, 0.0016859426177565746
1306.0, 0.0013958170682803355
1307.0, 0.0017236104141428862
1308.0, 0.002267005603811704
1309.0, 0.001650542155165866
1310.0, 0.000964974994221173
1311.0, 0.003149884505383116
1312.0, 0.0020858891535961797
1313.0, 0.001377954793574863
1314.0, 0.0029644794000163776
1315.0, 0.0001885145721092057
1316.0, 0.0013602828928889464
1317.0, 0.0008469135854941789
1318.0, 0.0015609634784636453
1319.0, 0.0025164335737008726
1320.0, 0.0024029451797289137
1321.0, 0.003132436126687222
1322.0, 0.0021643488347759875
1323.0, 0.0019746329092596854
1324.0, 0.0015350329660686595
1325.0, 0.0010543737749187435
1326.0, 0.0011688822929630189
1327.0, 0.0017391422331961138
1328.0, 0.001399813156740224
1329.0, 0.0018667472708903082
1330.0, 0.002099621683553203
1331.0, 0.002326108064190434
1332.0, 0.002855643688489023
1333.0, 0.001332704396005452
1334.0, 0.0006199012817071627
1335.0, 0.00104402844425833
1336.0, 0.0007873285291156787
1337.0, 9.260158435398545e-05
1338.0, 0.0001854380360421824
1339.0, 8.236190809847462e-05
1340.0, 0.0011430055070410373
1341.0, 0.0016363424757290406
1342.0, 0.001865450903289821
1343.0, 0.0016263110459069365
1344.0, 0.0008287678743183788
1345.0, 0.0019882741251158183
1346.0, 0.0027455309169180943
1347.0, 0.0022121463628740276
1348.0, 0.0030702887685485833
1349.0, 0.00387493850900101
1350.0, 0.0015222296152568708
1351.0, 0.0007753176542831346
1352.0, 0.003191306200049786
1353.0, 0.002499830639988349
1354.0, 0.0027780331622601815
1355.0, 0.004138107648060595
1356.0, 0.0034388802981088554
1357.0, 0.0005868218405347954
1358.0, 0.0034655699594715703
1359.0, 0.004117475409990777
1360.0, 0.002862211453334642
1361.0, 0.0018083605852586952
1362.0, 0.0024257084637399947
1363.0, 0.0007922550225073036
1364.0, 0.0018455142527258263
1365.0, 0.0023871491144796956
1366.0, 0.002083328013411886
1367.0, 0.001384135863503838
1368.0, 0.0011194538613819006
1369.0, 0.0021065228799892494
1370.0, 0.002226848272229954
1371.0, 0.0028756423797692884
1372.0, 0.003910397957671138
1373.0, 0.0033777160240909495
1374.0, 0.0006934508099771209
1375.0, 0.0028143220985278046
1376.0, 0.0022799007954936007
1377.0, 0.0042128388721455355
1378.0, 0.0032019990491905384
1379.0, 0.0009992498841876276
1380.0, 0.0013313896921387668
1381.0, 0.00135156254780184
1382.0, 0.0034283866655774545
1383.0, 0.00288980291135416
1384.0, 0.003254994297794853
1385.0, 0.0034609048526256254
1386.0, 0.0022337635153304976
1387.0, 0.002814824813251458
1388.0, 0.0022621524979247482
1389.0, 0.002800664134837757
1390.0, 0.0034208769414537776
1391.0, 0.0038352350326220225
1392.0, 0.0038430511276795697
1393.0, 0.0030704464966623823
1394.0, 0.004853776807215524
1395.0, 0.003940354150280611
1396.0, 0.0033519840252329244
1397.0, 0.003722983361831989
1398.0, 0.003948952781459287
1399.0, 0.002406272567424282
1400.0, 0.005374436630494993
1401.0, 0.004164624981674791
1402.0, 0.003109562199344401
1403.0, 0.003459761367872845
1404.0, 0.004074907590851834
1405.0, 0.003031360463914552
1406.0, 0.0043317307824511314
1407.0, 0.005910009540850316
1408.0, 0.003249414292190894
1409.0, 0.0027134896981353364
1410.0, 0.004464414680617664
1411.0, 0.004298052060070634
1412.0, 0.004207994647858326
1413.0, 0.006282044971660256
1414.0, 0.005323880244920436
1415.0, 0.0052821327415818594
1416.0, 0.005692037153183432
1417.0, 0.004901504337650585
1418.0, 0.005132194175223765
1419.0, 0.00429032457717046
1420.0, 0.004895525186628002
1421.0, 0.005090795946273866
1422.0, 0.005131114632580915
1423.0, 0.00532287106921914
1424.0, 0.004889364603842051
1425.0, 0.005061511453875619
1426.0, 0.0057152238936783615
1427.0, 0.0057629054134674135
1428.0, 0.00553216334150228
1429.0, 0.005665347308682193
1430.0, 0.006252991156795695
1431.0, 0.00461179323120902
1432.0, 0.003936630865188413
1433.0, 0.005163397108463613
1434.0, 0.006032379725976203
1435.0, 0.005763908770091405
1436.0, 0.005159900115479821
1437.0, 0.005566074837781692
1438.0, 0.006782812597902225
1439.0, 0.007009601595674739
1440.0, 0.005429084078384734
1441.0, 0.0052792796306189264
1442.0, 0.007659240117094791
1443.0, 0.007603561069505853
1444.0, 0.00631384339872213
1445.0, 0.008155411356762302
1446.0, 0.008028514408417434
1447.0, 0.007122853252233895
1448.0, 0.006762670724028956
1449.0, 0.006817961320034852
1450.0, 0.007403220094587633
1451.0, 0.0074445151598504355
1452.0, 0.00851983345816478
1453.0, 0.008802477838576135
1454.0, 0.007960309705992881
1455.0, 0.007036088745921822
1456.0, 0.007353155383758548
1457.0, 0.004625008086968481
1458.0, 0.006255577368918002
1459.0, 0.007485438598205425
1460.0, 0.007080388513995278
1461.0, 0.006079979401889734
1462.0, 0.0060789848837932816
1463.0, 0.003616619727400311
1464.0, 0.004603802164583151
1465.0, 0.005449878220839955
1466.0, 0.004607398176272939
1467.0, 0.004419228527397893
1468.0, 0.006664511363871252
1469.0, 0.003949477569137284
1470.0, 0.004361689861589752
1471.0, 0.004745244317831068
1472.0, 0.005296235005676372
1473.0, 0.004240215240647975
1474.0, 0.0028488200694166293
1475.0, 0.006050364366639681
1476.0, 0.0034603952155253482
1477.0, 0.004232666000703046
1478.0, 0.002794249210356042
1479.0, 0.0031323514906451844
1480.0, 0.004411578234913932
1481.0, 0.003587442294240231
1482.0, 0.005553582533674638
1483.0, 0.0032312677191365918
1484.0, 0.003949819045878562
1485.0, 0.003810508010784959
1486.0, 0.0033081310891364206
1487.0, 0.0033667384216942613
1488.0, 0.0031107260962034804
1489.0, 0.0024735255973997753
1490.0, 0.0025413373107776405
1491.0, 0.002178290246826601
1492.0, 0.002205637024896602
1493.0, 0.0028995144210877235
1494.0, 0.0038068940354503648
1495.0, 0.004128235866579675
1496.0, 0.0006073528457961712
1497.0, 0.0028557009822442235
1498.0, 0.002066788893090866
1499.0, 0.0011757367019568107
1500.0, 0.00188886917865853
1501.0, 0.0012264216106216961
1502.0, 0.0009299255501746217
1503.0, 0.0009601854966102753
1504.0, 0.0004396447210878626
1505.0, 0.0009263446296532618
1506.0, 0.0022374341018668305
1507.0, 0.0026028765701704075
1508.0, 0.00012334855920077175
1509.0, 0.001360000816151377
1510.0, 0.0005243509421291582
1511.0, 0.0002677375127557867
1512.0, 0.0006954772111171497
1513.0, 0.0016470840609997066
1514.0, 0.002656845119758641
1515.0, 0.0019576424821123907
1516.0, 0.0009401230504534346
1517.0, 0.0018303680594278877
1518.0, 0.0011354992662509528
1519.0, 0.0010045643319899346
1520.0, 0.0016290163303594794
1521.0, 3.3582534773317407e-06
1522.0, 1.6295996892835194e-07
1523, 0.0
1524, 0.0
1525, 0.0
1526, 0.0
1527, 0.0
1528, 0.0
1529, 0.0
1530, 0.0
1531, 0.0
1532, 0.0
1533, 0.0
1534, 0.0
1535, 0.0
1536, 0.0
1537, 0.0
1538, 0.0
1539, 0.0
1540, 0.0
1541, 0.0
1542, 0.0
1543, 0.0
1544, 0.0
1545, 0.0
1546, 0.0
1547, 0.0
1548, 0.0
1549, 0.0
1550, 0.0
1551, 0.0
1552, 0.0
1553, 0.0
1554, 0.0
1555, 0.0
1556, 0.0
1557, 0.0
1558, 0.0
1559, 0.0
1560, 0.0
1561, 0.0
1562, 0.0
1563, 0.0
1564, 0.0
1565, 0.0
1566, 0.0
1567, 0.0
1568, 0.0
1569, 0.0
1570, 0.0
1571, 0.0
1572, 0.0
1573, 0.0
1574, 0.0
1575, 0.0
1576, 0.0
1577, 0.0
1578, 0.0
1579, 0.0
1580, 0.0
1581, 0.0
1582, 0.0
1583, 0.0
1584, 0.0
1585, 0.0
1586, 0.0
1587, 0.0
1588, 0.0
1589, 0.0
1590, 0.0
1591, 0.0
1592, 0.0
1593, 0.0
1594, 0.0
1595, 0.0
1596, 0.0
1597, 0.0
1598, 0.0
1599, 0.0
