30, 0.0
31, 0.0
32, 0.0
33, 0.0
34, 0.0
35, 0.0
36, 0.0
37, 0.0
38, 0.0
39, 0.0
40, 0.0
41, 0.0
42, 0.0
43, 0.0
44, 0.0
45, 0.0
46, 0.0
47, 0.0
48, 0.0
49, 0.0
50, 0.0
51, 0.0
52, 0.0
53, 0.0
54, 0.0
55, 0.0
56, 0.0
57, 0.0
58, 0.0
59, 0.0
60, 0.0
61, 0.0
62, 0.0
63, 0.0
64, 0.0
65, 0.0
66, 0.0
67, 0.0
68, 0.0
69, 0.0
70, 0.0
71, 0.0
72, 0.0
73, 0.0
74, 0.0
75, 0.0
76, 0.0
77, 0.0
78, 0.0
79, 0.0
80, 0.0
81, 0.0
82, 0.0
83, 0.0
84, 0.0
85, 0.0
86, 0.0
87, 0.0
88, 0.0
89, 0.0
90, 0.0
91, 0.0
92, 0.0
93, 0.0
94, 0.0
95, 0.0
96, 0.0
97, 0.0
98, 0.0
99, 0.0
100, 0.0
101, 0.0
102, 0.0
103, 0.0
104, 0.0
105, 0.0
106, 0.0
107, 0.0
108, 0.0
109, 0.0
110, 0.0
111, 0.0
112, 0.0
113, 0.0
114, 0.0
115, 0.0
116, 0.0
117, 0.0
118, 0.0
119, 0.0
120, 0.0
121.0, 7.780228832260094e-05
122.0, 0.0007328106111888642
123.0, 0.001547238237706674
124.0, 0.001605112939615103
125.0, 0.001003482763043353
126.0, 0.0006832895031191093
127.0, 0.0005880582353151711
128.0, 0.0007310422641085309
129.0, 0.0010537654141020037
130.0, 0.001489869698800957
131.0, 0.0022198673510944946
132.0, 0.002365059839080332
133.0, 0.0014917803513096399
134.0, 0.0005344109956719271
135.0, 0.0018580034692152485
136.0, 0.0030860396670535787
137.0, 0.004236280271910965
138.0, 0.005486594577947377
139.0, 0.00611407377110146
140.0, 0.00717133390512317
141.0, 0.007150800148362503
142.0, 0.006520898585522349
143.0, 0.00761004622970835
144.0, 0.00813079826003548
145.0, 0.008209599372891322
146.0, 0.008525356541053885
147.0, 0.009650139620172266
148.0, 0.009207528902260327
149.0, 0.009947699161447261
150.0, 0.012097992227782933
151.0, 0.015017064693022754
152.0, 0.017825213081571763
153.0, 0.022360964626146205
154.0, 0.03253801977857188
155.0, 0.0470381750859916
156.0, 0.0583662090713788
157.0, 0.040972903056447095
158.0, 0.02026812099047406
159.0, 0.008126094596101729
160.0, 0.0048600545058461045
161.0, 0.0038255724412541406
162.0, 0.004902349030322232
163.0, 0.005546364831123472
164.0, 0.004597181452098964
165.0, 0.005076808758878434
166.0, 0.005888558165613522
167.0, 0.005904365448876788
168.0, 0.005320081756975875
169.0, 0.005035854756585415
170.0, 0.004800129496509722
171.0, 0.005128353000332295
172.0, 0.004979829954964359
173.0, 0.0033198630553588817
174.0, 0.0035789291313568497
175.0, 0.003406920933360531
176.0, 0.00297543007152587
177.0, 0.0028492375856471403
178.0, 0.0022561206567279475
179.0, 0.001816005753136143
180.0, 0.0018873415805220491
181.0, 0.002289508418673364
182.0, 0.002455776399685668
183.0, 0.002254356577161215
184.0, 0.0018757742511513863
185.0, 0.0017288814947170974
186.0, 0.001992974515314644
187.0, 0.0017385626325976836
188.0, 0.0017470530890489446
189.0, 0.0016449081791879315
190.0, 0.001068639787339122
191.0, 0.00034345167374531154
192.0, 0.0005099196151281662
193.0, 0.0004892554737444188
194.0, 0.00017902945093818256
195.0, 0.0003968968379844255
196.0, 0.0003050326499821036
197.0, 7.052989289550173e-05
198.0, 0.00032026260913147977
199.0, 0.00036278512355214347
200.0, 0.00018014633821611297
201.0, 0.000428518034859618
202.0, 0.0008471975785545163
203.0, 0.001199475366423428
204.0, 0.0014151951138766637
205.0, 0.001120341633913016
206.0, 0.0009810392767299165
207.0, 0.0011060425287521857
208.0, 0.0012326576210317625
209.0, 0.0013709835917149666
210.0, 0.0018680967051107255
211.0, 0.001540111282984667
212.0, 0.00043539247290482104
213.0, 0.0007505310888382234
214.0, 0.00038201876207391875
215.0, 0.0001578466356499707
216.0, 0.0005897399916388513
217.0, 0.001147603177515959
218.0, 0.0027816590016131204
219.0, 0.005437494436742582
220.0, 0.00873034175654604
221.0, 0.012767215782502563
222.0, 0.018519487400078277
223.0, 0.023155728239167436
224.0, 0.02885005654045426
225.0, 0.034471228643839426
226.0, 0.03696226497531725
227.0, 0.04160128379925577
228.0, 0.04709625850579882
229.0, 0.05421941712163166
230.0, 0.06329105529061008
231.0, 0.07240690629381381
232.0, 0.0852622219652109
233.0, 0.10188666279403862
234.0, 0.12446592228117856
235.0, 0.15772829961312032
236.0, 0.20354978455565728
237.0, 0.2667392052237958
238.0, 0.3168507940377391
239.0, 0.3445857364176323
240.0, 0.39766105708479393
241.0, 0.44338835043011415
242.0, 0.38233529035054953
243.0, 0.24266683476144713
244.0, 0.1306457673341935
245.0, 0.07422326698923466
246.0, 0.04630077026612982
247.0, 0.03285782562213939
248.0, 0.027778794777218806
249.0, 0.028782591156067412
250.0, 0.03461896905549022
251.0, 0.045930865538533865
252.0, 0.05773843255557827
253.0, 0.06377728451209996
254.0, 0.06492516698383942
255.0, 0.06879238057418174
256.0, 0.07557692472168064
257.0, 0.08447090959690921
258.0, 0.09579406546065687
259.0, 0.10914290094542614
260.0, 0.1242005285122614
261.0, 0.14125515666405425
262.0, 0.16360779437058656
263.0, 0.1989474825254039
264.0, 0.2524179037803963
265.0, 0.3365257976214224
266.0, 0.45769402380300395
267.0, 0.6176135796658053
268.0, 0.8324840415250977
269.0, 0.9816193481685452
270.0, 0.8779201508703
271.0, 0.5076392604971497
272.0, 0.2705326630546656
273.0, 0.168657468779594
274.0, 0.13713627561958586
275.0, 0.1321636811868353
276.0, 0.13796765286240242
277.0, 0.1399207921557574
278.0, 0.1338375366296835
279.0, 0.13531438258511921
280.0, 0.15239714343639618
281.0, 0.17732724128961455
282.0, 0.21576574587573405
283.0, 0.2752591192656413
284.0, 0.3559211722515304
285.0, 0.4537152689095326
286.0, 0.5645512677806008
287.0, 0.6235332898657371
288.0, 0.5645315323110984
289.0, 0.4126538955064613
290.0, 0.25699588537857426
291.0, 0.15453006949387382
292.0, 0.09612944198228479
293.0, 0.06364123799064537
294.0, 0.0448350907292288
295.0, 0.03243014517164899
296.0, 0.024581431652435905
297.0, 0.018934348402468285
298.0, 0.01489338589975911
299.0, 0.012211327422595657
300.0, 0.009383723320302177
301.0, 0.007452617740453852
302.0, 0.005999308480394083
303.0, 0.004681074025533207
304.0, 0.003546874939156857
305.0, 0.002206446620579173
306.0, 0.0008983937833572416
307.0, 0.00039408167364890604
308.0, 0.0003140569360904795
309.0, 0.001379812845034481
310.0, 0.0006753068427388803
311.0, 0.000812883152304853
312.0, 0.002058590590251196
313.0, 0.0036290702633150745
314.0, 0.0075331920005579575
315.0, 0.011176126555539128
316.0, 0.016222702840175487
317.0, 0.022014745686028337
318.0, 0.026281556262581787
319.0, 0.02798468260052855
320.0, 0.03229552758411269
321.0, 0.03771354725618115
322.0, 0.04307669152314066
323.0, 0.048851060120373165
324.0, 0.056351837047100964
325.0, 0.06569395814466122
326.0, 0.07768570686668458
327.0, 0.09305927755375737
328.0, 0.1132381121257602
329.0, 0.1469867947211482
330.0, 0.19079095397510842
331.0, 0.24057576088915464
332.0, 0.28983826649677696
333.0, 0.33226354627114585
334.0, 0.31813523367818386
335.0, 0.24731499341123947
336.0, 0.15801681163801704
337.0, 0.09536063846498903
338.0, 0.05887172573938136
339.0, 0.03863068041553497
340.0, 0.026242549616237364
341.0, 0.018140640301146076
342.0, 0.014254400302275873
343.0, 0.011168552651898523
344.0, 0.009068255867912657
345.0, 0.007096915941656666
346.0, 0.005435162594468547
347.0, 0.005542313150335786
348.0, 0.005199379820238708
349.0, 0.004976097880827023
350.0, 0.005379197406548049
351.0, 0.0064353731894336305
352.0, 0.007749923954862767
353.0, 0.009577440579227691
354.0, 0.012172686172766537
355.0, 0.015325633791528522
356.0, 0.019676677210751267
357.0, 0.027253591223745467
358.0, 0.03461030625836984
359.0, 0.04350984963232197
360.0, 0.04835175999956688
361.0, 0.04237427052153756
362.0, 0.025367833279435904
363.0, 0.011974407759919342
364.0, 0.003990346124418011
365.0, 0.0004887410645387174
366.0, 0.0015493839445873978
367.0, 0.00166650050151813
368.0, 0.002558555920367851
369.0, 0.003106603770818233
370.0, 0.0024653131462017866
371.0, 0.0009892356505712303
372.0, 0.0005943320248738188
373.0, 0.0007540367997607929
374.0, 0.00042370256289214704
375.0, 0.0007677431063125273
376.0, 0.002238507833855622
377.0, 0.002384538495378486
378.0, 0.00273139347084292
379.0, 0.004034094968653293
380.0, 0.005496737658159246
381.0, 0.005730542201978445
382.0, 0.006849008449765589
383.0, 0.007816437779419908
384.0, 0.008575846984449924
385.0, 0.009704187810513652
386.0, 0.01168578754124109
387.0, 0.014819796188385609
388.0, 0.01833001927545936
389.0, 0.021740546376473775
390.0, 0.024596617272134483
391.0, 0.026692617624123866
392.0, 0.03139929804843351
393.0, 0.03593620064541565
394.0, 0.041602743977895214
395.0, 0.04870602019203714
396.0, 0.05492892263619896
397.0, 0.06562827244704499
398.0, 0.07797689952744409
399.0, 0.09319331527981863
400.0, 0.11187522788555673
401.0, 0.13174258737261424
402.0, 0.15526352445262978
403.0, 0.1741252157703458
404.0, 0.18301728219586444
405.0, 0.1763314711535257
406.0, 0.14746002085001042
407.0, 0.11370614402095212
408.0, 0.08029421715685377
409.0, 0.05439338319181789
410.0, 0.03867576468417769
411.0, 0.027382764744455577
412.0, 0.01978725264213918
413.0, 0.014364930236322453
414.0, 0.010787210762649926
415.0, 0.00874132652364806
416.0, 0.007212966409702599
417.0, 0.005667811908345192
418.0, 0.004382866607270463
419.0, 0.003165917036279822
420.0, 0.002241645574713972
421.0, 0.0021312664091146217
422.0, 0.0010240117828614569
423.0, 0.00025964694849668537
424.0, 0.00023432211403608277
425.0, 0.00034819964925352897
426.0, 0.0005275700908128452
427.0, 0.0010870379412711185
428.0, 0.0012286495213034044
429.0, 0.0013018335796450365
430.0, 0.00135063771922921
431.0, 0.0009538757064397574
432.0, 0.0009314794163280981
433.0, 0.0007570256234028331
434.0, 0.00029091175742687586
435.0, 0.0011656711805479048
436.0, 0.001814740016481977
437.0, 0.0018260229712524466
438.0, 0.004788221207931446
439.0, 0.007948425301503553
440.0, 0.010686920097736
441.0, 0.014678751602803854
442.0, 0.01875871107866737
443.0, 0.024492487994837497
444.0, 0.029531703275589058
445.0, 0.03384624489196528
446.0, 0.03886913721023918
447.0, 0.045014215113373626
448.0, 0.05243300332192266
449.0, 0.06143961079515107
450.0, 0.07348699282338217
451.0, 0.0892926575392894
452.0, 0.10721666573091204
453.0, 0.1326810301789553
454.0, 0.16255331972680054
455.0, 0.19450281416348686
456.0, 0.22785469160055025
457.0, 0.25923825613027807
458.0, 0.2710095757693079
459.0, 0.25531967989096377
460.0, 0.21790178501607085
461.0, 0.17131286504039064
462.0, 0.12718788999903932
463.0, 0.09500662835587617
464.0, 0.0711197355237773
465.0, 0.05320657061938033
466.0, 0.04050514118017288
467.0, 0.0321499144832822
468.0, 0.025823766863411604
469.0, 0.02125127924133513
470.0, 0.018038027734023528
471.0, 0.01574818782909253
472.0, 0.013938314120051892
473.0, 0.012133242617820715
474.0, 0.01033390322632411
475.0, 0.00969264021923245
476.0, 0.009129112719175098
477.0, 0.007752446971422689
478.0, 0.007337594088812793
479.0, 0.006484805300064995
480.0, 0.005861452022731436
481.0, 0.005753302176749359
482.0, 0.005743882218479302
483.0, 0.005125277405506233
484.0, 0.005327255285820068
485.0, 0.005855283705299057
486.0, 0.006511160955696016
487.0, 0.0067343312587792425
488.0, 0.006114559971877918
489.0, 0.006780241632875416
490.0, 0.007658181361779052
491.0, 0.008417507565412454
492.0, 0.0087915974511156
493.0, 0.008515673392018105
494.0, 0.007782085582784216
495.0, 0.0067976057341244695
496.0, 0.0058949674606985185
497.0, 0.005189017684100443
498.0, 0.004394705711585513
499.0, 0.002992558739360629
500.0, 0.0018982996474027993
501.0, 0.001092175944507433
502.0, 0.0010594170773096895
503.0, 0.0013787487109212704
504.0, 0.0012448880610431252
505.0, 0.002638824781616976
506.0, 0.004332654235432651
507.0, 0.005368925336795654
508.0, 0.00633761608860436
509.0, 0.008172019350820566
510.0, 0.010325673979861894
511.0, 0.011645749959833855
512.0, 0.014976850272555435
513.0, 0.01935639817833215
514.0, 0.023518422858643143
515.0, 0.028509311411358138
516.0, 0.034615329088756155
517.0, 0.042081482557838855
518.0, 0.05242965940868874
519.0, 0.06305204361953472
520.0, 0.06917284470545153
521.0, 0.07128503650816231
522.0, 0.0663025186436538
523.0, 0.0528216041194324
524.0, 0.037087814218777576
525.0, 0.02470904361543071
526.0, 0.01508301717898669
527.0, 0.010378906690605573
528.0, 0.007412331015821008
529.0, 0.004906636248240226
530.0, 0.0028538705639743625
531.0, 0.0015426678432982682
532.0, 0.0015920168121534442
533.0, 0.002736939489000366
534.0, 0.003288716769888785
535.0, 0.002875605411995678
536.0, 0.0022694335803960628
537.0, 0.0026240223913346315
538.0, 0.004235689112905162
539.0, 0.004842288471895074
540.0, 0.005401006353119417
541.0, 0.006826573135581501
542.0, 0.008747802183344094
543.0, 0.011198456019839034
544.0, 0.014460983317387995
545.0, 0.017760874568431218
546.0, 0.021915107451819987
547.0, 0.02700741896624235
548.0, 0.031001149106063792
549.0, 0.03352678350566699
550.0, 0.03289759626146542
551.0, 0.02924680131533782
552.0, 0.02437920611537426
553.0, 0.02086999107438601
554.0, 0.019571223769062326
555.0, 0.01968956610522865
556.0, 0.021070760583614023
557.0, 0.02315926345228236
558.0, 0.025526314968053247
559.0, 0.02810370433234551
560.0, 0.03030725079396697
561.0, 0.03010224892836697
562.0, 0.027824518072950364
563.0, 0.024819096473656117
564.0, 0.0217553100009994
565.0, 0.016485425391942646
566.0, 0.012444228866866466
567.0, 0.00950568321901214
568.0, 0.0068572243975695765
569.0, 0.0047947803990800114
570.0, 0.004180514759471181
571.0, 0.003276978242095455
572.0, 0.0024991443604905016
573.0, 0.0021320920823813118
574.0, 0.0014240151223963013
575.0, 0.0003734608313756744
576.0, 0.0007222396768487165
577.0, 0.0009562166252340808
578.0, 0.00012659885356512685
579.0, 0.00036307572950878197
580.0, 0.00011168172548150639
581.0, 0.00024042814694608873
582.0, 0.0001491331278919237
583.0, 0.000221446102100058
584.0, 0.0006316500832718349
585.0, 0.0005888113394081785
586.0, 0.00024020552819809074
587.0, 3.1187439671318706e-05
588.0, 0.0005374206312239226
589.0, 0.0004971480929764435
590.0, 0.0005428906331828323
591.0, 0.0003758969678740044
592.0, 0.00012026683986812519
593.0, 0.0002945926613837211
594.0, 0.0010858431582828473
595.0, 0.0006392772495269461
596.0, 5.5330980143467406e-05
597.0, 6.048114845541954e-05
598.0, 0.00022544961135318622
599.0, 0.00021048504978158405
600.0, 0.00018167336193821218
601.0, 0.00044496855994324223
602.0, 9.536164691591439e-05
603.0, 0.0008182835222084056
604.0, 0.0008867731423397787
605.0, 0.0013297030777531253
606.0, 0.0006556607731962624
607.0, 0.0005310733574521378
608.0, 0.0007274899077463751
609.0, 0.001031468112810709
610.0, 0.0018165855220011538
611.0, 0.0014048597673339334
612.0, 0.001463707195863787
613.0, 0.0019918841416620347
614.0, 0.0023424304663786405
615.0, 0.002435753566872165
616.0, 0.002762307581701919
617.0, 0.002407586521579898
618.0, 0.002555988033642755
619.0, 0.0020839839264358727
620.0, 0.0020953766188169624
621.0, 0.002954710807297709
622.0, 0.002346421425958646
623.0, 0.0023825727184685563
624.0, 0.003044360364132738
625.0, 0.003936601843501513
626.0, 0.004577256542223809
627.0, 0.004696626231324149
628.0, 0.004645363191912142
629.0, 0.005471399568185182
630.0, 0.006304243417231468
631.0, 0.007037630593997624
632.0, 0.007423826796754502
633.0, 0.007610329310348408
634.0, 0.008790843584844282
635.0, 0.009569536035016028
636.0, 0.00969562026237402
637.0, 0.010359679665392234
638.0, 0.012126772206285167
639.0, 0.013792212692158237
640.0, 0.013860827927761932
641.0, 0.01494936664480742
642.0, 0.016070768694033462
643.0, 0.01705653291921629
644.0, 0.01732830093474351
645.0, 0.01640715223485064
646.0, 0.01552114490942171
647.0, 0.013780690396759316
648.0, 0.011422049608164108
649.0, 0.00855884385262225
650.0, 0.006262139584508073
651.0, 0.005105126167527546
652.0, 0.0036647804588243703
653.0, 0.003177390417986307
654.0, 0.0026686707722371915
655.0, 0.0019632557707653414
656.0, 0.001562884640369907
657.0, 0.0016422582558113202
658.0, 0.0014092864729041599
659.0, 0.0004902751325055819
660.0, 0.0006413100785183655
661.0, 0.0008971509940455656
662.0, 0.0011418197172313137
663.0, 0.001446208490059852
664.0, 0.0005363057699810441
665.0, 0.0005618230400959499
666.0, 0.000600345481168452
667.0, 0.0006178579638807903
668.0, 0.0004704334762038296
669.0, 0.000386871626805834
670.0, 0.0011358706283105858
671.0, 0.00032799045603904096
672.0, 0.0003184695570686575
673.0, 0.00020649279180075212
674.0, 0.0004036168362980977
675.0, 0.001057730034927187
676.0, 0.00074277439130447
677.0, 0.0008862138344351038
678.0, 0.0008064339241707669
679.0, 0.000681830438073404
680.0, 0.0009099856025632482
681.0, 0.001354672180126395
682.0, 0.0013612649986499534
683.0, 0.0006142913664733634
684.0, 0.0006501092059070401
685.0, 0.0009571912509822397
686.0, 0.0010309374871504862
687.0, 0.001155607270735725
688.0, 0.0015380085147523007
689.0, 0.0005643401585875967
690.0, 0.0014517627673901795
691.0, 0.0020026392639594134
692.0, 0.0018238495715450804
693.0, 0.0014339259493132389
694.0, 0.0009528148197493426
695.0, 0.000620840113388611
696.0, 0.0015458054184434244
697.0, 0.0013400347305765141
698.0, 0.0015080219074528618
699.0, 0.001711572973561776
700.0, 0.0011091670911043182
701.0, 0.0011282043048195323
702.0, 0.0018368022004871466
703.0, 0.0016241757850421214
704.0, 0.001534511078728765
705.0, 0.0015419115206838144
706.0, 0.0014380089182538202
707.0, 0.0016806776381170618
708.0, 0.0015646712568429346
709.0, 0.0015977617400855326
710.0, 0.0014060259162564683
711.0, 0.00115174737104383
712.0, 0.0011200097056263938
713.0, 0.0012288498991584373
714.0, 0.0010230347026120962
715.0, 0.0011773348350344107
716.0, 0.0012560389619366416
717.0, 0.0007436663657399853
718.0, 0.0005009332599718151
719.0, 0.001250113085916834
720.0, 0.0017634898558454074
721.0, 0.0011359412937802303
722.0, 0.0006187202272495415
723.0, 0.0008484183975114571
724.0, 0.00118905003421706
725.0, 0.0012360171097700043
726.0, 0.001123387087499646
727.0, 0.0012351900526847697
728.0, 0.0013982640207274518
729.0, 0.001700479529013991
730.0, 0.0016049586487833275
731.0, 0.0016813401790775027
732.0, 0.0022149007223301273
733.0, 0.0017244127443183735
734.0, 0.0016888216832211076
735.0, 0.0020415165351897547
736.0, 0.0021390603871046052
737.0, 0.0016802386792293806
738.0, 0.0015461434252289192
739.0, 0.0022282465966307194
740.0, 0.002045893438114723
741.0, 0.0018249725479709967
742.0, 0.0018085905252608666
743.0, 0.0018070566658086704
744.0, 0.001924973113117195
745.0, 0.002341755207755622
746.0, 0.0026183376929508765
747.0, 0.0026483384625752716
748.0, 0.0025357093639406664
749.0, 0.002372330082787423
750.0, 0.002422330906459347
751.0, 0.002413610618618403
752.0, 0.002082724727198719
753.0, 0.0027467460689762613
754.0, 0.0029122213869973374
755.0, 0.0028914876888101503
756.0, 0.0025220148939393296
757.0, 0.002142497560223668
758.0, 0.0022374876756877642
759.0, 0.002515711211209141
760.0, 0.0024704845456684247
761.0, 0.0028064186771301815
762.0, 0.0030566687689262797
763.0, 0.0026254660189329038
764.0, 0.0022803492242707292
765.0, 0.002581846287167269
766.0, 0.002082457744783799
767.0, 0.002912595905541795
768.0, 0.0029364550395132552
769.0, 0.0025491963003533573
770.0, 0.002300249526749682
771.0, 0.002365596957493266
772.0, 0.002483519735809468
773.0, 0.0020545252215473254
774.0, 0.0015911905757022633
775.0, 0.001524681422263443
776.0, 0.0015761137541328383
777.0, 0.0013241248257829586
778.0, 0.0009782110597658922
779.0, 0.0011105261395561153
780.0, 0.0010474734854931105
781.0, 0.0012346756004629783
782.0, 0.0006393136884937801
783.0, 0.0005549692495499897
784.0, 0.0005598360239425809
785.0, 0.00010874036993283532
786.0, 0.00048811304780449027
787.0, 0.0005556966308901285
788.0, 0.00038563564798806035
789.0, 0.0002761901374557526
790.0, 0.0002523611251407927
791.0, 0.00041458947174074357
792.0, 0.00011226157716731075
793.0, 0.0007517962182054113
794.0, 0.00011528410768171446
795.0, 0.0001983735962208001
796.0, 0.00012147419576734218
797.0, 0.00014054985151034093
798.0, 0.000828355528798906
799.0, 0.0013870995103002172
800.0, 0.001305749430339977
801.0, 0.0004472070610481491
802.0, 0.0003522677003493068
803.0, 0.0005549659332356921
804.0, 0.0005221092862995626
805.0, 0.00047573634828599573
806.0, 0.0007868486688081592
807.0, 0.0012584414199033542
808.0, 0.0010625000225484872
809.0, 0.000636172686968368
810.0, 0.000536799129111546
811.0, 0.000317751313677205
812.0, 0.0003038678906279438
813.0, 0.0008446067537002043
814.0, 0.000544693239396427
815.0, 8.91100089228905e-05
816.0, 0.00017474098063301945
817.0, 0.00010151138908546526
818.0, 0.0002464867207915867
819.0, 0.000712941885439207
820.0, 0.0005885109581133967
821.0, 0.0009704828059518822
822.0, 0.0010925816778926277
823.0, 0.0023509920760724644
824.0, 0.0031273417955207674
825.0, 0.0038952453288615984
826.0, 0.0049650850803028175
827.0, 0.005802784413071108
828.0, 0.006900249693639319
829.0, 0.009237258321331484
830.0, 0.011431382367350085
831.0, 0.013089429957500643
832.0, 0.015426902623436628
833.0, 0.01895192820364268
834.0, 0.023191180457427168
835.0, 0.027676987102699908
836.0, 0.03224451394861508
837.0, 0.03973419655068157
838.0, 0.0469613243740917
839.0, 0.053606239620692865
840.0, 0.06306432446444869
841.0, 0.07522211604252575
842.0, 0.08682978569596392
843.0, 0.10174761203957614
844.0, 0.11570271638217253
845.0, 0.13090048548852168
846.0, 0.14640667427085668
847.0, 0.16020196752297933
848.0, 0.17206033755472566
849.0, 0.18283796925959858
850.0, 0.1917258091075595
851.0, 0.19688927736379858
852.0, 0.2009213359901074
853.0, 0.20467635988433547
854.0, 0.20711107589045022
855.0, 0.20695571589810438
856.0, 0.20269963211067746
857.0, 0.1927082622674253
858.0, 0.1775043409823313
859.0, 0.16119932162641
860.0, 0.14186657073716905
861.0, 0.12200450686878482
862.0, 0.10361465794248477
863.0, 0.08766488587401101
864.0, 0.07510956653023695
865.0, 0.06392283327002422
866.0, 0.05417044728931991
867.0, 0.046776527854980134
868.0, 0.03931211817913054
869.0, 0.03423334295847003
870.0, 0.03093206615235456
871.0, 0.026418272328318115
872.0, 0.023799057119247936
873.0, 0.02111016378241854
874.0, 0.018391431617593754
875.0, 0.016512513051850593
876.0, 0.015258053808699119
877.0, 0.013796204758537153
878.0, 0.012162788360369426
879.0, 0.01119704721830443
880.0, 0.009953482736707297
881.0, 0.009653879237812132
882.0, 0.008783127222881697
883.0, 0.0076461102882513865
884.0, 0.0075663617137559916
885.0, 0.00798458228624966
886.0, 0.0077177426518609355
887.0, 0.008012067224732331
888.0, 0.010030002080690163
889.0, 0.010031637054383265
890.0, 0.011592946703346683
891.0, 0.013356778362802716
892.0, 0.014924007930935432
893.0, 0.017097746053492603
894.0, 0.019173880293661155
895.0, 0.020360066168008735
896.0, 0.023026353299350297
897.0, 0.027517029799294653
898.0, 0.03127965940983819
899.0, 0.03531780755439217
900.0, 0.039696107254120504
901.0, 0.044002598076834265
902.0, 0.0496078679706065
903.0, 0.056263741721579746
904.0, 0.06227064059364657
905.0, 0.0703809649238502
906.0, 0.07725002096760067
907.0, 0.08417293457440735
908.0, 0.09292187843424608
909.0, 0.10288328415932337
910.0, 0.11470427468166522
911.0, 0.12902506211594053
912.0, 0.14033592013734056
913.0, 0.15378239448429562
914.0, 0.17159558360539573
915.0, 0.19100529217906898
916.0, 0.21212919131205638
917.0, 0.2363029778592113
918.0, 0.26032530026051515
919.0, 0.2857227993982078
920.0, 0.3101505954399634
921.0, 0.33726451598409285
922.0, 0.3601592085096913
923.0, 0.37788454808408667
924.0, 0.38937379202420946
925.0, 0.3932477289106181
926.0, 0.39364293312785736
927.0, 0.37948328669137166
928.0, 0.36181194291205304
929.0, 0.34175446922828273
930.0, 0.3177360768412977
931.0, 0.2898309011991238
932.0, 0.26358998339836776
933.0, 0.24287758625327802
934.0, 0.2222017455583644
935.0, 0.2040640145754049
936.0, 0.18677489273275052
937.0, 0.17078002767781342
938.0, 0.15284805257470044
939.0, 0.133852444150984
940.0, 0.11668911166592062
941.0, 0.10120484005996566
942.0, 0.08533936877010573
943.0, 0.07479926025986786
944.0, 0.06541761147829703
945.0, 0.056791914783765225
946.0, 0.048934620403086306
947.0, 0.04236180289885205
948.0, 0.037372747159760286
949.0, 0.03307300752451805
950.0, 0.02884567673206311
951.0, 0.026591448010986684
952.0, 0.022367827950338023
953.0, 0.019416808645376423
954.0, 0.01724539605331273
955.0, 0.015068900038709167
956.0, 0.013630819855118066
957.0, 0.012376260021725202
958.0, 0.009313062002481505
959.0, 0.00746869848133706
960.0, 0.007032405086498893
961.0, 0.005688942562270794
962.0, 0.004706127935572278
963.0, 0.003612955121912168
964.0, 0.0026336063562433835
965.0, 0.002004302892288233
966.0, 0.0014419184140831121
967.0, 0.0016484933427240566
968.0, 0.0011041910408323703
969.0, 0.00022038018692413494
970.0, 0.00012340653761715097
971.0, 0.00056347578149065
972.0, 0.0009167390757238231
973.0, 0.000656677780215718
974.0, 0.0008140712478834284
975.0, 0.0010512382871227899
976.0, 0.0012277284698117572
977.0, 0.0017310168724350501
978.0, 0.0016156595027022927
979.0, 0.0011462865673966475
980.0, 0.001227561525562905
981.0, 0.0008945077841571154
982.0, 0.00012944217486318097
983.0, 0.0005179050216663895
984.0, 0.0013715258980940876
985.0, 0.0009044714367388608
986.0, 0.00035241575892489555
987.0, 0.00040989868028574404
988.0, 0.0004768212834516761
989.0, 0.00034720526721575707
990.0, 0.0009035179998440909
991.0, 0.0004657342633978456
992.0, 0.00025888317600777954
993.0, 0.0013388095999346608
994.0, 0.0027503186601388484
995.0, 0.003360299452574363
996.0, 0.004528679865510371
997.0, 0.005781177887641867
998.0, 0.00723190776603711
999.0, 0.008816874371590325
1000.0, 0.010617413243566498
1001.0, 0.013130380384704668
1002.0, 0.0143915883083775
1003.0, 0.01683575782403689
1004.0, 0.018817728532279827
1005.0, 0.02137718688830613
1006.0, 0.023708490320170653
1007.0, 0.02624438383925732
1008.0, 0.02834699150405685
1009.0, 0.02876896587363968
1010.0, 0.028982584721642828
1011.0, 0.028320487846823308
1012.0, 0.025683968369963266
1013.0, 0.022159394792247763
1014.0, 0.019016100669511444
1015.0, 0.01680439446794118
1016.0, 0.014594286560779119
1017.0, 0.012266850546583387
1018.0, 0.010557805536822283
1019.0, 0.008778259085008398
1020.0, 0.006933019642543671
1021.0, 0.006605064913375988
1022.0, 0.0060438271064489355
1023.0, 0.005279651671129793
1024.0, 0.004747866445240601
1025.0, 0.004268803533273953
1026.0, 0.003677198470439756
1027.0, 0.0031221434293687844
1028.0, 0.0028302412513703983
1029.0, 0.0031249815324444537
1030.0, 0.0022994731648262054
1031.0, 0.0024424416500199975
1032.0, 0.002129685525075711
1033.0, 0.002101743888460226
1034.0, 0.0017914458446436337
1035.0, 0.0013078631380099752
1036.0, 0.0013868604309384784
1037.0, 0.0013308428302708983
1038.0, 0.001889286049744996
1039.0, 0.0012899172111823453
1040.0, 0.0006947794416081326
1041.0, 0.0004532759390229358
1042.0, 0.0007501909396567782
1043.0, 0.0006726421714214172
1044.0, 0.00014294018080759766
1045.0, 0.0003636387590444636
1046.0, 0.001064811083415806
1047.0, 0.0002848001737440738
1048.0, 0.0008839251619581302
1049.0, 3.7979790224768864e-05
1050.0, 0.0005059715237455643
1051.0, 7.825518404385271e-05
1052.0, 0.0003990751560237852
1053.0, 0.0003207879380579408
1054.0, 0.0004946709585540438
1055.0, 0.0007306047967611559
1056.0, 0.00026731190271059383
1057.0, 0.00033284116347592595
1058.0, 0.001056171453180273
1059.0, 0.0006659201219736269
1060.0, 0.0007398688425055303
1061.0, 0.0009081609896270208
1062.0, 0.0009894777049958396
1063.0, 0.0007001357719479965
1064.0, 0.0005319307768000994
1065.0, 0.0010330605621723698
1066.0, 0.00034893285655023903
1067.0, 0.0006111881629065343
1068.0, 0.001238057651383681
1069.0, 0.0014835140474814873
1070.0, 0.0009999164256617873
1071.0, 0.00095357263617471
1072.0, 0.001070146006065375
1073.0, 0.0008936653954820415
1074.0, 0.000698682679771316
1075.0, 0.0005597119078920355
1076.0, 0.0005203307609724834
1077.0, 0.0007523335204570543
1078.0, 0.0002047057924754505
1079.0, 0.0006889747759749331
1080.0, 0.0010982261156685393
1081.0, 0.0005764505485279994
1082.0, 0.0004991956304013334
1083.0, 0.0005932569975622531
1084.0, 0.0004258171154768225
1085.0, 0.0006555617708272936
1086.0, 0.00022320342541051766
1087.0, 0.0007960927465972322
1088.0, 0.0010165212188868202
1089.0, 0.001240972175888644
1090.0, 0.0013456710621051336
1091.0, 0.0007275611785798901
1092.0, 0.000682382082254386
1093.0, 0.001605133566401393
1094.0, 0.0017539299620017272
1095.0, 0.0009030090267587958
1096.0, 0.0011335685826922132
1097.0, 0.0009057316346549373
1098.0, 0.0008027855360305453
1099.0, 0.0009949642663688199
1100.0, 0.0009218083171891907
1101.0, 0.0004401082021231199
1102.0, 0.00022615884935977155
1103.0, 0.0006369465614647964
1104.0, 0.0011660516880251355
1105.0, 0.0010218882395328314
1106.0, 0.0002918741749839131
1107.0, 0.0007947339711162306
1108.0, 0.001031453332042182
1109.0, 0.0007396695971321199
1110.0, 0.0009543475945574261
1111.0, 0.0007471046851312928
1112.0, 0.0006783103081351528
1113.0, 0.0009393137558103924
1114.0, 0.000937137957350133
1115.0, 0.0007058669698224603
1116.0, 0.0004999077810114948
1117.0, 0.0005083241524746986
1118.0, 0.0007064738539041993
1119.0, 0.0012205066970859206
1120.0, 0.0003549024818339045
1121.0, 0.0010090230047556524
1122.0, 0.0012258208928225582
1123.0, 0.0004804395905385015
1124.0, 0.0003618692435829796
1125.0, 0.0006022948976420794
1126.0, 0.0005754365000286372
1127.0, 0.0011675053395515556
1128.0, 0.000891073169859957
1129.0, 0.0013815196197217519
1130.0, 0.0012619642699387926
1131.0, 0.001141342058530594
1132.0, 0.00037695394965646563
1133.0, 0.0005706069567715149
1134.0, 0.0010633839407832304
1135.0, 0.0010817041760332585
1136.0, 0.0011764736374284075
1137.0, 0.0008679887156811225
1138.0, 0.0004717015967325839
1139.0, 0.0009360791024646267
1140.0, 0.0008768947153237454
1141.0, 0.0014046768331133347
1142.0, 0.0015690266100399862
1143.0, 0.0009216904914226119
1144.0, 0.0012441175153300984
1145.0, 0.0014039386766505027
1146.0, 0.000996854455249183
1147.0, 0.0011082900817757592
1148.0, 0.0010994764583477086
1149.0, 0.0018904412635914578
1150.0, 0.002379366734912634
1151.0, 0.001766987201621592
1152.0, 0.0016470071435644583
1153.0, 0.0023181799599233345
1154.0, 0.003361844443164773
1155.0, 0.0038451911111680335
1156.0, 0.0035915252393731935
1157.0, 0.003994252366114715
1158.0, 0.005572038889955943
1159.0, 0.006776943631535601
1160.0, 0.007084633608906945
1161.0, 0.00811479602016234
1162.0, 0.008849998915022323
1163.0, 0.00892370081385072
1164.0, 0.008631436951733547
1165.0, 0.008996094913693822
1166.0, 0.008529772400615178
1167.0, 0.00733873308826177
1168.0, 0.006143274561171926
1169.0, 0.0052681496277173145
1170.0, 0.004543315015952357
1171.0, 0.0032964083404401455
1172.0, 0.0026274860055372938
1173.0, 0.0023974008668006743
1174.0, 0.0018916962842099102
1175.0, 0.0017784082366297867
1176.0, 0.001721997514012006
1177.0, 0.0012714122115043257
1178.0, 0.0011069770266108167
1179.0, 0.0009671865202826115
1180.0, 0.000686378803673538
1181.0, 0.0008984750350203963
1182.0, 0.001211644909362098
1183.0, 0.0005857194541268666
1184.0, 0.00016619625310465005
1185.0, 0.00035113784662340166
1186.0, 0.0007837668322285721
1187.0, 0.0006468547393470662
1188.0, 0.0005410648994011008
1189.0, 0.0003528624968597465
1190.0, 0.0002558905196684234
1191.0, 0.0001976515341737461
1192.0, 0.00015225064857987529
1193.0, 0.00019974033355374664
1194.0, 0.00011600234131332547
1195.0, 0.00013103068132117637
1196.0, 0.0001903845937891489
1197.0, 0.00013625711612043928
1198.0, 0.0001818887885059236
1199.0, 0.0004652439242382039
1200.0, 0.0008905791864365603
1201.0, 0.0003910902446055511
1202.0, 6.801577805399449e-05
1203.0, 9.729773141808345e-05
1204.0, 0.0005686097363086898
1205.0, 0.0006173001685008668
1206.0, 0.00041518279380367665
1207.0, 0.0004910969946687852
1208.0, 0.00015947742592240096
1209.0, 0.0007524131969403328
1210.0, 0.0006878075144375149
1211.0, 0.00020825859303691464
1212.0, 0.00027613655393242067
1213.0, 0.00023306896911431856
1214.0, 0.0008289395938506719
1215.0, 0.0011561253333339273
1216.0, 0.0005175957024062436
1217.0, 2.2353090545273154e-05
1218.0, 0.000107019778860867
1219.0, 0.000156461500994217
1220.0, 0.00014150676455541514
1221.0, 0.000391999014165091
1222.0, 0.0004871047064592482
1223.0, 0.0005245443544833977
1224.0, 4.960215071071229e-05
1225.0, 8.354857053021623e-05
1226.0, 0.00017070360106978525
1227.0, 0.00023057044729193096
1228.0, 0.0006822963980810336
1229.0, 0.0003381544225226594
1230.0, 0.00028783563411496313
1231.0, 0.0004161213721452982
1232.0, 0.0001300193258093198
1233.0, 0.0001643537141884648
1234.0, 0.0005701350744246481
1235.0, 0.0002475178299421689
1236.0, 4.186774994220107e-05
1237.0, 0.0002743654488140539
1238.0, 0.0004691643585021399
1239.0, 0.00026804674130481856
1240.0, 0.00019416175330390383
1241.0, 0.0007832916168530598
1242.0, 0.0007758528514771901
1243.0, 0.00044993731640928557
1244.0, 0.0010208602243660318
1245.0, 0.0013190498214762435
1246.0, 0.0006136493695356388
1247.0, 0.00024992186398218355
1248.0, 2.535924079254802e-05
1249.0, 0.0008159872368681615
1250.0, 0.0010118725319545943
1251.0, 0.0011279225091437887
1252.0, 0.000603414470389437
1253.0, 0.0003912584602606813
1254.0, 0.00010413729259697331
1255.0, 7.713670256568837e-05
1256.0, 0.000269395108380727
1257.0, 0.000610780978997455
1258.0, 0.0008899374170888552
1259.0, 0.0010759298695955147
1260.0, 0.0010015650771725314
1261.0, 0.001844822317944133
1262.0, 0.001638383853050273
1263.0, 0.00032369558426598004
1264.0, 0.0003993303711246304
1265.0, 0.0006802538947755726
1266.0, 0.00048683204782862515
1267.0, 0.0016367510437123988
1268.0, 0.0009214404517557391
1269.0, 0.00016098197569438185
1270.0, 8.921689688659514e-05
1271.0, 0.0003269129270871471
1272.0, 0.0008469805780469841
1273.0, 0.0006786188309330115
1274.0, 0.0008982286191433144
1275.0, 0.0013297577659559475
1276.0, 0.0007898189992126364
1277.0, 0.0006054093887020606
1278.0, 0.0007462294608458841
1279.0, 0.0012276493437913712
1280.0, 0.00017399886017161164
1281.0, 0.0003337401369435652
1282.0, 0.001292426087267079
1283.0, 0.0009722572370698807
1284.0, 0.0007460128076343613
1285.0, 0.0008328374051018271
1286.0, 0.0008649921822136311
1287.0, 0.0006149448001477378
1288.0, 0.00012591632495002954
1289.0, 0.0005392809277961688
1290.0, 0.0007569918816095389
1291.0, 0.001060207462755124
1292.0, 0.0002040212578587527
1293.0, 0.00016453974006450122
1294.0, 0.00014364570072661527
1295.0, 0.0005331729699148769
1296.0, 0.0008277382568660039
1297.0, 0.00039058028531805246
1298.0, 2.1926337347751926e-05
1299.0, 0.00021338684533895937
1300.0, 0.0005120849911945361
1301.0, 0.0005446203096438259
1302.0, 0.0002026681122074698
1303.0, 0.0001431670851854779
1304, 0.0
1305, 0.0
1306, 0.0
1307, 0.0
1308, 0.0
1309, 0.0
1310, 0.0
1311, 0.0
1312, 0.0
1313, 0.0
1314, 0.0
1315, 0.0
1316, 0.0
1317, 0.0
1318, 0.0
1319, 0.0
1320, 0.0
1321, 0.0
1322, 0.0
1323, 0.0
1324, 0.0
1325, 0.0
1326, 0.0
1327, 0.0
1328, 0.0
1329, 0.0
1330, 0.0
1331, 0.0
1332, 0.0
1333, 0.0
1334, 0.0
1335, 0.0
1336, 0.0
1337, 0.0
1338, 0.0
1339, 0.0
1340, 0.0
1341, 0.0
1342, 0.0
1343, 0.0
1344, 0.0
1345, 0.0
1346, 0.0
1347, 0.0
1348, 0.0
1349, 0.0
1350, 0.0
1351, 0.0
1352, 0.0
1353, 0.0
1354, 0.0
1355, 0.0
1356, 0.0
1357, 0.0
1358, 0.0
1359, 0.0
1360, 0.0
1361, 0.0
1362, 0.0
1363, 0.0
1364, 0.0
1365, 0.0
1366, 0.0
1367, 0.0
1368, 0.0
1369, 0.0
1370, 0.0
1371, 0.0
1372, 0.0
1373, 0.0
1374, 0.0
1375, 0.0
1376, 0.0
1377, 0.0
1378, 0.0
1379, 0.0
1380, 0.0
1381, 0.0
1382, 0.0
1383, 0.0
1384, 0.0
1385, 0.0
1386, 0.0
1387, 0.0
1388, 0.0
1389, 0.0
1390, 0.0
1391, 0.0
1392, 0.0
1393, 0.0
1394, 0.0
1395, 0.0
1396, 0.0
1397, 0.0
1398, 0.0
1399, 0.0
1400, 0.0
1401, 0.0
1402, 0.0
1403, 0.0
1404, 0.0
1405, 0.0
1406, 0.0
1407, 0.0
1408, 0.0
1409, 0.0
1410, 0.0
1411, 0.0
1412, 0.0
1413, 0.0
1414, 0.0
1415, 0.0
1416, 0.0
1417, 0.0
1418, 0.0
1419, 0.0
1420, 0.0
1421, 0.0
1422, 0.0
1423, 0.0
1424, 0.0
1425, 0.0
1426, 0.0
1427, 0.0
1428, 0.0
1429, 0.0
1430, 0.0
1431, 0.0
1432, 0.0
1433, 0.0
1434, 0.0
1435, 0.0
1436, 0.0
1437, 0.0
1438, 0.0
1439, 0.0
1440, 0.0
1441, 0.0
1442, 0.0
1443, 0.0
1444, 0.0
1445, 0.0
1446, 0.0
1447, 0.0
1448, 0.0
1449, 0.0
1450, 0.0
1451, 0.0
1452, 0.0
1453, 0.0
1454, 0.0
1455, 0.0
1456, 0.0
1457, 0.0
1458, 0.0
1459, 0.0
1460, 0.0
1461, 0.0
1462, 0.0
1463, 0.0
1464, 0.0
1465, 0.0
1466, 0.0
1467, 0.0
1468, 0.0
1469, 0.0
1470, 0.0
1471, 0.0
1472, 0.0
1473, 0.0
1474, 0.0
1475, 0.0
1476, 0.0
1477, 0.0
1478, 0.0
1479, 0.0
1480, 0.0
1481, 0.0
1482, 0.0
1483, 0.0
1484, 0.0
1485, 0.0
1486, 0.0
1487, 0.0
1488, 0.0
1489, 0.0
1490, 0.0
1491, 0.0
1492, 0.0
1493, 0.0
1494, 0.0
1495, 0.0
1496, 0.0
1497, 0.0
1498, 0.0
1499, 0.0
1500, 0.0
1501, 0.0
1502, 0.0
1503, 0.0
1504, 0.0
1505, 0.0
1506, 0.0
1507, 0.0
1508, 0.0
1509, 0.0
1510, 0.0
1511, 0.0
1512, 0.0
1513, 0.0
1514, 0.0
1515, 0.0
1516, 0.0
1517, 0.0
1518, 0.0
1519, 0.0
1520, 0.0
1521, 0.0
1522, 0.0
1523, 0.0
1524, 0.0
1525, 0.0
1526, 0.0
1527, 0.0
1528, 0.0
1529, 0.0
1530, 0.0
1531, 0.0
1532, 0.0
1533, 0.0
1534, 0.0
1535, 0.0
1536, 0.0
1537, 0.0
1538, 0.0
1539, 0.0
1540, 0.0
1541, 0.0
1542, 0.0
1543, 0.0
1544, 0.0
1545, 0.0
1546, 0.0
1547, 0.0
1548, 0.0
1549, 0.0
1550, 0.0
1551, 0.0
1552, 0.0
1553, 0.0
1554, 0.0
1555, 0.0
1556, 0.0
1557, 0.0
1558, 0.0
1559, 0.0
1560, 0.0
1561, 0.0
1562, 0.0
1563, 0.0
1564, 0.0
1565, 0.0
1566, 0.0
1567, 0.0
1568, 0.0
1569, 0.0
1570, 0.0
1571, 0.0
1572, 0.0
1573, 0.0
1574, 0.0
1575, 0.0
1576, 0.0
1577, 0.0
1578, 0.0
1579, 0.0
1580, 0.0
1581, 0.0
1582, 0.0
1583, 0.0
1584, 0.0
1585, 0.0
1586, 0.0
1587, 0.0
1588, 0.0
1589, 0.0
1590, 0.0
1591, 0.0
1592, 0.0
1593, 0.0
1594, 0.0
1595, 0.0
1596, 0.0
1597, 0.0
1598, 0.0
1599, 0.0
