30, 0.0
31, 0.0
32, 0.0
33, 0.0
34, 0.0
35, 0.0
36, 0.0
37, 0.0
38, 0.0
39, 0.0
40, 0.0
41, 0.0
42, 0.0
43, 0.0
44, 0.0
45, 0.0
46, 0.0
47, 0.0
48, 0.0
49, 0.0
50, 0.0
51, 0.0
52, 0.0
53, 0.0
54, 0.0
55, 0.0
56, 0.0
57, 0.0
58, 0.0
59, 0.0
60, 0.0
61, 0.0
62, 0.0
63, 0.0
64, 0.0
65, 0.0
66, 0.0
67, 0.0
68, 0.0
69, 0.0
70, 0.0
71, 0.0
72, 0.0
73, 0.0
74, 0.0
75, 0.0
76, 0.0
77, 0.0
78, 0.0
79, 0.0
80, 0.0
81, 0.0
82, 0.0
83, 0.0
84, 0.0
85, 0.0
86, 0.0
87, 0.0
88, 0.0
89, 0.0
90, 0.0
91, 0.0
92, 0.0
93, 0.0
94, 0.0
95, 0.0
96, 0.0
97, 0.0
98, 0.0
99, 0.0
100, 0.0
101, 0.0
102, 0.0
103, 0.0
104, 0.0
105, 0.0
106, 0.0
107, 0.0
108, 0.0
109, 0.0
110, 0.0
111, 0.0
112, 0.0
113, 0.0
114, 0.0
115, 0.0
116, 0.0
117, 0.0
118, 0.0
119, 0.0
120, 0.0
121, 0.0
122, 0.0
123, 0.0
124, 0.0
125, 0.0
126, 0.0
127, 0.0
128, 0.0
129, 0.0
130, 0.0
131, 0.0
132, 0.0
133, 0.0
134, 0.0
135.0, 4.4263918591398645e-06
136.0, 0.0006571005900053714
137.0, 0.0059072107957356765
138.0, 0.022270750038700153
139.0, 0.04338370467584429
140.0, 0.05493693367113381
141.0, 0.05049479554187923
142.0, 0.05192811213285205
143.0, 0.06328406966483098
144.0, 0.08348079814758938
145.0, 0.10836801593572216
146.0, 0.13271408069636667
147.0, 0.1619376722540032
148.0, 0.19454399611433332
149.0, 0.2295878960747526
150.0, 0.2680774652498377
151.0, 0.3190070723976503
152.0, 0.38176541571896905
153.0, 0.4574815756581846
154.0, 0.544696377999819
155.0, 0.622472698988174
156.0, 0.6723840167582162
157.0, 0.6686792315640451
158.0, 0.6056384566922285
159.0, 0.5041005211463785
160.0, 0.37818046731024324
161.0, 0.26255072765148324
162.0, 0.17525696213547612
163.0, 0.11679758921679846
164.0, 0.07593529352992967
165.0, 0.05183307591250012
166.0, 0.03751723282473306
167.0, 0.024807856224739813
168.0, 0.022102567115652734
169.0, 0.019908880276744683
170.0, 0.020135451546799264
171.0, 0.024308405588520952
172.0, 0.022099507443694377
173.0, 0.012972983540137987
174.0, 0.010796772081086623
175.0, 0.014932901561825924
176.0, 0.013281763938813272
177.0, 0.012320434609054133
178.0, 0.010127903498542543
179.0, 0.009239739341413923
180.0, 0.011114398518587606
181.0, 0.007576201304209237
182.0, 0.004331886584755616
183.0, 0.007398954933183912
184.0, 0.014782291303446266
185.0, 0.01416015488887825
186.0, 0.018054831071160748
187.0, 0.01784103688522685
188.0, 0.01299750075997558
189.0, 0.011273042353901279
190.0, 0.010294729228710098
191.0, 0.0050320884716234075
192.0, 0.0010794750326638793
193.0, 0.002774859535411537
194.0, 0.0021367320321883272
195.0, 0.005594190919250454
196.0, 0.006859302819162682
197.0, 0.005359125918105684
198.0, 0.008527903197000343
199.0, 0.014663280657901595
200.0, 0.012999591298973457
201.0, 0.008249578474380922
202.0, 0.009480923982557444
203.0, 0.004128846531831206
204.0, 0.0005475284743693879
205.0, 0.0019401458536640582
206.0, 0.004431600645609686
207.0, 0.007143012519909844
208.0, 0.00919222270745519
209.0, 0.01057548979628311
210.0, 0.011768142695122281
211.0, 0.013331011261425708
212.0, 0.014985393853090237
213.0, 0.014346630331297693
214.0, 0.014150871658854251
215.0, 0.015660410628205078
216.0, 0.015963920768408617
217.0, 0.020833851679215285
218.0, 0.021753955212472743
219.0, 0.018968881197441587
220.0, 0.018751137235456437
221.0, 0.022960021191276592
222.0, 0.02592140668448024
223.0, 0.025008342550632515
224.0, 0.02267872002362853
225.0, 0.025722653825908826
226.0, 0.025286959607757203
227.0, 0.023465670128822703
228.0, 0.022246609084086107
229.0, 0.022293126416737436
230.0, 0.029969439972145996
231.0, 0.033196698127379895
232.0, 0.03531803031610161
233.0, 0.03807398437936758
234.0, 0.03250899443779256
235.0, 0.032016595694299016
236.0, 0.03520979057843498
237.0, 0.03895378739684592
238.0, 0.042473326151254716
239.0, 0.04670317709217875
240.0, 0.050411676194807215
241.0, 0.05394256337928335
242.0, 0.0576327393019069
243.0, 0.06092430643752828
244.0, 0.06554608507555498
245.0, 0.0674821416583509
246.0, 0.06896287922581207
247.0, 0.0751686848335536
248.0, 0.07786244144177085
249.0, 0.08035816242515702
250.0, 0.08299202374955375
251.0, 0.0873180261898657
252.0, 0.09658411143659452
253.0, 0.10838562530120949
254.0, 0.11136282524218429
255.0, 0.11448170706034809
256.0, 0.12467504135731802
257.0, 0.1282012957774543
258.0, 0.14376330855266578
259.0, 0.1562187440200261
260.0, 0.16120196995833994
261.0, 0.16886058069284446
262.0, 0.185217130387223
263.0, 0.20194562872461788
264.0, 0.218050129669442
265.0, 0.23447066536383793
266.0, 0.25044620219818514
267.0, 0.2718149411615381
268.0, 0.2874824287370583
269.0, 0.298747780103077
270.0, 0.3126184384702037
271.0, 0.31902294603180575
272.0, 0.3149654346483176
273.0, 0.30993539194612074
274.0, 0.30451312719714835
275.0, 0.2863346167617082
276.0, 0.2616212561333839
277.0, 0.23729567473525184
278.0, 0.21466735682478233
279.0, 0.1904913354271046
280.0, 0.16142892735273554
281.0, 0.14127307655720828
282.0, 0.12134674203572034
283.0, 0.10237634934560763
284.0, 0.0896381419081768
285.0, 0.07262319310995505
286.0, 0.06259068238718059
287.0, 0.05683406416581821
288.0, 0.05005885294453104
289.0, 0.04013723167180671
290.0, 0.0341038587892835
291.0, 0.026677911509333203
292.0, 0.020991546291407374
293.0, 0.019790413405433725
294.0, 0.019455664797456983
295.0, 0.01947731248460492
296.0, 0.01430953486180751
297.0, 0.008917508107603098
298.0, 0.009063945564803411
299.0, 0.010703826379720026
300.0, 0.012339265170031708
301.0, 0.01437605857642209
302.0, 0.014579866538664329
303.0, 0.011811217217759587
304.0, 0.017077138871519505
305.0, 0.018438540332803625
306.0, 0.024519835028497285
307.0, 0.03279476889560955
308.0, 0.0292390372399791
309.0, 0.036058676030549276
310.0, 0.04502466709314897
311.0, 0.0475096827249483
312.0, 0.04516359445792707
313.0, 0.05412856818134988
314.0, 0.06292419579488928
315.0, 0.07183966743894815
316.0, 0.0798910438398869
317.0, 0.08694838218900246
318.0, 0.09764840576818984
319.0, 0.10833405894277341
320.0, 0.11938349309950384
321.0, 0.1336066200359138
322.0, 0.1512250602575128
323.0, 0.16507849494563176
324.0, 0.18068004602987386
325.0, 0.19629019076672158
326.0, 0.21077020024018364
327.0, 0.22299912839050873
328.0, 0.2226233920956743
329.0, 0.21486548933900346
330.0, 0.2037841141408621
331.0, 0.1917843408411285
332.0, 0.17824876088848035
333.0, 0.15307798675458628
334.0, 0.12879891591128043
335.0, 0.11303886601617814
336.0, 0.10022452933382076
337.0, 0.07500590706701156
338.0, 0.06544294965447395
339.0, 0.05313645565545754
340.0, 0.03767534060105799
341.0, 0.0256211816340698
342.0, 0.020582663851151817
343.0, 0.018744640226876757
344.0, 0.015077290689365242
345.0, 0.010930208553545458
346.0, 0.0062633428495728295
347.0, 0.003490997789034203
348.0, 0.00232163361384051
349.0, 0.004617234233026545
350.0, 0.0025291902616864123
351.0, 0.0011819924257768098
352.0, 0.0037465791745290053
353.0, 0.0021312274143549374
354.0, 0.0022536121565079467
355.0, 0.0025604755150417293
356.0, 0.0020511452368304137
357.0, 0.0038284329382540882
358.0, 0.007580513480728873
359.0, 0.009294250465302996
360.0, 0.008937171419085857
361.0, 0.006159813223471345
362.0, 0.005202319974082771
363.0, 0.008401409639639732
364.0, 0.0052854712653668985
365.0, 6.589807412961195e-05
366.0, 0.00027262020607721324
367.0, 0.00020507852678039104
368.0, 0.003212367909964359
369.0, 0.0026632361434364075
370.0, 0.003726682103614571
371.0, 0.011373719042329158
372.0, 0.014207551431272461
373.0, 0.017494514148875765
374.0, 0.021260286856559552
375.0, 0.023942210713037534
376.0, 0.02525861085156658
377.0, 0.028241886814617614
378.0, 0.039215804372870776
379.0, 0.04433449200187454
380.0, 0.04819830597815995
381.0, 0.06261149743729333
382.0, 0.07370980995310289
383.0, 0.08983971958618686
384.0, 0.1023779236635149
385.0, 0.11694184455437293
386.0, 0.14150800299073032
387.0, 0.16242299113672884
388.0, 0.18806879874885973
389.0, 0.2126870828421193
390.0, 0.24097682477223195
391.0, 0.2758560920777602
392.0, 0.3091794784658402
393.0, 0.3511524750883193
394.0, 0.3868530330126249
395.0, 0.4239183583921115
396.0, 0.47341784177431745
397.0, 0.5331545917358522
398.0, 0.5745085787799945
399.0, 0.6310105673032939
400.0, 0.6995461520455865
401.0, 0.7678021355620281
402.0, 0.8348430818647777
403.0, 0.8880288953300692
404.0, 0.9410644923457092
405.0, 0.9842667568892215
406.0, 0.9989123426781981
407.0, 0.9711864206593808
408.0, 0.9267745868045597
409.0, 0.8625419918122473
410.0, 0.780803699780156
411.0, 0.6918996790191454
412.0, 0.6070832649307661
413.0, 0.5277507107689835
414.0, 0.4574510727913245
415.0, 0.3987879753907224
416.0, 0.34563725608004137
417.0, 0.2924612619819287
418.0, 0.26151118583731847
419.0, 0.22654157891618468
420.0, 0.1930233509693497
421.0, 0.16531074990447553
422.0, 0.14276932755118282
423.0, 0.1186775360593662
424.0, 0.10731775811747747
425.0, 0.08745752486286217
426.0, 0.0702417470892538
427.0, 0.06722992178102181
428.0, 0.055080468121872554
429.0, 0.046320750213943315
430.0, 0.03932346778255381
431.0, 0.035735823191048455
432.0, 0.035053037054901516
433.0, 0.0331069700297285
434.0, 0.029713600667613638
435.0, 0.024484990384653318
436.0, 0.023671655159078715
437.0, 0.024611875895788327
438.0, 0.020600545748870755
439.0, 0.01700221749657657
440.0, 0.024414112466854255
441.0, 0.02553414972525753
442.0, 0.02495748106915914
443.0, 0.031297702369534476
444.0, 0.032484832075433984
445.0, 0.04312914084110989
446.0, 0.04922660653230459
447.0, 0.051156971633232136
448.0, 0.056058081594197146
449.0, 0.06726473423445405
450.0, 0.07394109039352625
451.0, 0.08319962633528807
452.0, 0.0917850380879518
453.0, 0.10048342555145814
454.0, 0.11403769841840494
455.0, 0.1333188107476992
456.0, 0.1407511929228238
457.0, 0.14927563846108785
458.0, 0.16268158132970056
459.0, 0.17799757453889026
460.0, 0.19414838954059732
461.0, 0.2069459205951282
462.0, 0.22858924249340934
463.0, 0.24986343729312865
464.0, 0.26262408427134354
465.0, 0.27467587521497233
466.0, 0.2896141533813569
467.0, 0.30179153870531217
468.0, 0.30583942980800843
469.0, 0.30698736657437037
470.0, 0.3081147400242595
471.0, 0.29064998835974026
472.0, 0.2759573126864319
473.0, 0.255337712992964
474.0, 0.2364640962882776
475.0, 0.22287023918530413
476.0, 0.19749411423215038
477.0, 0.17616398030716043
478.0, 0.15910977325622655
479.0, 0.14047031476707336
480.0, 0.12064752599509947
481.0, 0.10353089775268633
482.0, 0.0848867616432909
483.0, 0.07514358926562459
484.0, 0.06557250571696793
485.0, 0.0555449483830205
486.0, 0.04740891140716287
487.0, 0.038907924668572264
488.0, 0.03188607858599104
489.0, 0.026062839063818993
490.0, 0.02091487158855293
491.0, 0.016142931588832843
492.0, 0.01107983875761729
493.0, 0.005894597720230305
494.0, 0.009956079231150654
495.0, 0.012037010179783566
496.0, 0.009321952596450541
497.0, 0.0047405338486328375
498.0, 0.0005044310684737634
499.0, 0.001005582449829501
500.0, 0.003606600745085632
501.0, 0.009825888007005002
502.0, 0.006384378524851501
503.0, 0.004909084652056918
504.0, 0.0037802949081235555
505.0, 0.002827314129919425
506.0, 0.0013185120766940445
507.0, 0.00013194428952382746
508.0, 0.0004197006627933342
509.0, 0.0007817519666716424
510.0, 0.006095590632079395
511.0, 0.0027533750056352585
512.0, 0.0011694660166776836
513.0, 0.0013942634069790982
514.0, 0.00186194042765017
515.0, 0.006487189723934145
516.0, 0.0035672705650396765
517.0, 0.0029059116232904923
518.0, 0.001699003925974097
519.0, 0.001444846685799523
520.0, 0.003896297012227593
521.0, 0.0035952172478719868
522.0, 0.0010367737455252125
523.0, 0.00576350177724152
524.0, 0.007516660068901897
525.0, 0.0020837047420713866
526.0, 0.0012901613831699825
527.0, 0.003415946432289765
528.0, 0.0031243674603571173
529.0, 0.0033779856361198708
530.0, 0.0021549703838953595
531.0, 0.0017850626704959567
532.0, 0.002764173274227263
533.0, 0.0014890694624763853
534.0, 0.004059511381285125
535.0, 0.006910931721648933
536.0, 0.0072017015382050634
537.0, 0.002971790333716374
538.0, 0.0009107181976351836
539.0, 0.007138034999336273
540.0, 0.00882963835134767
541.0, 0.008267587052676736
542.0, 0.008056289753035075
543.0, 0.0074865251106912105
544.0, 0.004332582797401654
545.0, 0.004246387147046329
546.0, 0.009220173045261059
547.0, 0.011412134223265128
548.0, 0.011512809916324104
549.0, 0.014497499656492604
550.0, 0.010837872462224995
551.0, 0.015394166700186628
552.0, 0.01895983465840772
553.0, 0.018017531020978042
554.0, 0.01478410137269921
555.0, 0.014013500161903655
556.0, 0.016870695155388322
557.0, 0.015765394930644102
558.0, 0.011311734652469875
559.0, 0.011121573692110153
560.0, 0.01749496193136906
561.0, 0.021293013112793455
562.0, 0.009623520755456012
563.0, 0.006311520951823708
564.0, 0.010126406785849612
565.0, 0.012311423812227523
566.0, 0.009712267606180259
567.0, 0.008647445538272715
568.0, 0.01795290570722038
569.0, 0.01673703203114893
570.0, 0.010892731588471719
571.0, 0.007738884083469982
572.0, 0.010068093275632363
573.0, 0.015243788079830312
574.0, 0.013985476484559792
575.0, 0.015318894534818606
576.0, 0.013888448415709803
577.0, 0.013705233571877022
578.0, 0.014850643793991357
579.0, 0.005761286377913904
580.0, 0.005529316735429349
581.0, 0.012604100706166833
582.0, 0.013219835322545748
583.0, 0.010571727800097078
584.0, 0.010038435973465057
585.0, 0.005898107830703526
586.0, 0.0009125736112818467
587.0, 0.0003803093220162757
588.0, 0.0059128948640373045
589.0, 0.005711509471186789
590.0, 0.00034105344161475487
591.0, 0.007176460911166746
592.0, 0.0048205528271492324
593.0, 0.00411468738424357
594.0, 0.005780118631927526
595.0, 0.00558303976747457
596.0, 0.004412684914119636
597.0, 0.006350781191296739
598.0, 0.0010196932112912606
599.0, 0.010887362021518205
600.0, 0.00813058646473237
601.0, 0.003875318642617881
602.0, 0.004957443868837438
603.0, 0.0011443884778794696
604.0, 0.000876333460241332
605.0, 0.008793941842681903
606.0, 0.010876062472194832
607.0, 0.011757950337462806
608.0, 0.010157352958887216
609.0, 0.002174150253899271
610.0, 0.0028546614137588745
611.0, 0.0032678001976889958
612.0, 0.005795522370473789
613.0, 0.0038966725745406294
614.0, 0.003774343330453384
615.0, 0.008456580961000932
616.0, 0.005394352326259835
617.0, 0.005300215430230403
618.0, 0.004642956536454154
619.0, 0.005909708451848036
620.0, 0.004858599242088408
621.0, 0.002059782565223738
622.0, 0.008114533972670871
623.0, 0.013526679857092019
624.0, 0.004031389266956888
625.0, 0.0024733437082666955
626.0, 0.009168576851594805
627.0, 0.009472955619330176
628.0, 0.0009158525642738918
629.0, 0.00469153178158394
630.0, 0.0045215698587694345
631.0, 0.0006590473543144552
632.0, 0.004287017746128263
633.0, 0.010364166655115074
634.0, 0.007899641201151105
635.0, 0.005905288764387785
636.0, 0.0027486444007475057
637.0, 0.001874669146685485
638.0, 0.006517726453341923
639.0, 0.007707160582999615
640.0, 0.005884576266047273
641.0, 0.008914945131832159
642.0, 0.004329584739459986
643.0, 0.005410167929045466
644.0, 0.008896517145916397
645.0, 0.008225391245907678
646.0, 0.005178645254919883
647.0, 0.004018712701673184
648.0, 0.005591571144100397
649.0, 0.005338898785818504
650.0, 0.0013838214156857076
651.0, 0.005007247606778909
652.0, 0.009139989129034229
653.0, 0.009568047563864547
654.0, 0.01296522159949018
655.0, 0.009776857413902058
656.0, 0.005814154778861292
657.0, 0.005495999626058078
658.0, 0.006576536844599113
659.0, 0.009170728965280367
660.0, 0.01148128581233295
661.0, 0.007640670688347076
662.0, 0.013144395274567372
663.0, 0.012322843449513081
664.0, 0.010494410021333202
665.0, 0.005378480110163629
666.0, 0.0011857253142401976
667.0, 0.005814494665391227
668.0, 0.007184552332555508
669.0, 0.002503975241331667
670.0, 0.0030117924712042173
671.0, 0.005496532623946361
672.0, 0.006207148923406198
673.0, 0.006962686590489271
674.0, 0.007822272604341651
675.0, 0.00626904445443396
676.0, 0.007582925584142506
677.0, 0.0088550674660929
678.0, 0.0066545631047065104
679.0, 0.003227617346124709
680.0, 0.003933013130578311
681.0, 0.004755741057844043
682.0, 0.004442929964530347
683.0, 0.011825448800591835
684.0, 0.007966499935802887
685.0, 0.005022788449683121
686.0, 0.010419292291952561
687.0, 0.0073947004827802
688.0, 0.0010915799717783026
689.0, 0.0020090503412649088
690.0, 0.00509627493986455
691.0, 0.011458027559608066
692.0, 0.00631260355355797
693.0, 0.0018110572448028748
694.0, 0.004214551848240944
695.0, 0.005618500580370716
696.0, 0.004514575335317746
697.0, 0.003053291910699821
698.0, 0.0040136452420337955
699.0, 0.004701409668630714
700.0, 0.0010379914782457122
701.0, 0.005397479960552369
702.0, 0.0006395136274958615
703.0, 0.0008828354524830656
704.0, 0.002530829566451335
705.0, 0.00509258655187184
706.0, 0.0027428863842630592
707.0, 0.0009712564630623361
708.0, 0.005311550248677814
709.0, 0.006119675451182576
710.0, 0.004589960417865555
711.0, 0.005263073940836206
712.0, 0.002963333994295374
713.0, 0.0022432201501180406
714.0, 0.00565979182633611
715.0, 0.003188026194783913
716.0, 0.007929871948596392
717.0, 0.003322671305859335
718.0, 0.004066335506036297
719.0, 0.0032786494437909318
720.0, 0.0036702086662710313
721.0, 0.009023435821480094
722.0, 0.007047322296335584
723.0, 0.006937285936959543
724.0, 0.009123633525553993
725.0, 0.006665430693047306
726.0, 0.005970710357494921
727.0, 0.009823722332554347
728.0, 0.01172789906753757
729.0, 0.007997300502618846
730.0, 0.0055162758268502265
731.0, 0.012197071989110566
732.0, 0.016569020408395026
733.0, 0.016414579137040662
734.0, 0.015427142965590423
735.0, 0.017732606146381332
736.0, 0.02150652895279122
737.0, 0.016414165416389022
738.0, 0.017117804959912844
739.0, 0.021728827821713998
740.0, 0.024356910156999034
741.0, 0.024412245395119776
742.0, 0.025248781745072495
743.0, 0.028886184981773498
744.0, 0.025510214555777917
745.0, 0.022837139428731085
746.0, 0.02027378500528409
747.0, 0.02387648239418756
748.0, 0.026692936372718544
749.0, 0.02416843362727088
750.0, 0.020626312495411723
751.0, 0.016141833994486803
752.0, 0.017373580821040603
753.0, 0.01572782370436291
754.0, 0.016966539980586344
755.0, 0.01656241719929416
756.0, 0.012348983532680338
757.0, 0.008156453545822335
758.0, 0.007282214735460828
759.0, 0.010240942099428173
760.0, 0.01035191178458323
761.0, 0.009351603480940725
762.0, 0.0060849767112616795
763.0, 0.0031298081410783577
764.0, 0.0021801912080918573
765.0, 0.0006474143740223708
766.0, 0.00083552777494142
767.0, 0.007708506866590734
768.0, 0.00580114561925485
769.0, 0.0015199456154023742
770.0, 0.0013885370934489162
771.0, 0.004484399822166296
772.0, 0.003083844227285428
773.0, 0.003830748005531898
774.0, 0.009001790902685974
775.0, 0.003313095282468988
776.0, 0.0028152121530500077
777.0, 0.0007579692844871365
778.0, 0.0006612361551840939
779.0, 0.0012047099642319293
780.0, 0.0011045550871228516
781.0, 0.0023686876900805612
782.0, 0.0018264571416702032
783.0, 0.0015965450744149204
784.0, 0.007274565497615443
785.0, 0.005040731453507618
786.0, 0.001649940954975429
787.0, 0.0017640186170233213
788.0, 0.001641985060561712
789.0, 0.010226261837588832
790.0, 0.00855647251943962
791.0, 0.005107074674561976
792.0, 0.010517364542547146
793.0, 0.012993735053441252
794.0, 0.0072971837008678035
795.0, 0.0014615504252336738
796.0, 0.00036556304674849164
797.0, 0.004891460848745135
798.0, 0.00615601404375274
799.0, 0.004470336731319779
800.0, 0.0009904085383929746
801.0, 0.0033423047791180547
802.0, 0.008516606204843633
803.0, 0.0009907427386045258
804.0, 0.0037779880816140136
805.0, 0.009741666123180705
806.0, 0.005547632262011903
807.0, 0.0038092277839400822
808.0, 0.0036340048172203996
809.0, 0.004439195589831242
810.0, 0.008561615563270935
811.0, 0.013675785864222783
812.0, 0.009691602658723972
813.0, 0.00511715426010665
814.0, 0.007955805823021368
815.0, 0.0024061344583207445
816.0, 0.006556493491953009
817.0, 0.013936187626747434
818.0, 0.011753071819734168
819.0, 0.007000473365917083
820.0, 0.008561299377408866
821.0, 0.009758434450239243
822.0, 0.016907966000697272
823.0, 0.014938704359453513
824.0, 0.010671567368509357
825.0, 0.009423956134346228
826.0, 0.00971653531749455
827.0, 0.009778090447010569
828.0, 0.010420114268952996
829.0, 0.01236972196323352
830.0, 0.01230345978101397
831.0, 0.013404569700971381
832.0, 0.015532178257811944
833.0, 0.016134968748909757
834.0, 0.016738199875240205
835.0, 0.018607297738720142
836.0, 0.01764178531274877
837.0, 0.0218857209934587
838.0, 0.016908385283370426
839.0, 0.017927313292838008
840.0, 0.018854918175529495
841.0, 0.021471976199172522
842.0, 0.025524076852771544
843.0, 0.026380216785788745
844.0, 0.025559966730542172
845.0, 0.024603400492098422
846.0, 0.027379378556266435
847.0, 0.03235346935010797
848.0, 0.03545154040211271
849.0, 0.035773826008561556
850.0, 0.03394199439301447
851.0, 0.03329175500184276
852.0, 0.035849211247092484
853.0, 0.03688244543922359
854.0, 0.032307662933558995
855.0, 0.03358647424504855
856.0, 0.03487609434808842
857.0, 0.035922382627209974
858.0, 0.03223826417769014
859.0, 0.029824157086623587
860.0, 0.03425798324926171
861.0, 0.03404688999797169
862.0, 0.03050409914362498
863.0, 0.03078314225105563
864.0, 0.024343779244233
865.0, 0.016923159378613023
866.0, 0.021249808659707763
867.0, 0.023026711516555533
868.0, 0.01659871521069724
869.0, 0.016036644411876615
870.0, 0.015784102826040067
871.0, 0.019308326045649308
872.0, 0.016823695457791422
873.0, 0.015611168119245624
874.0, 0.013451855049356972
875.0, 0.01016613289190285
876.0, 0.008943818398284072
877.0, 0.009589714268874892
878.0, 0.010240493526661973
879.0, 0.012264114325577866
880.0, 0.011019168493888776
881.0, 0.007928045576987982
882.0, 0.005249815903780931
883.0, 0.004506761363077633
884.0, 0.007146241316520345
885.0, 0.010074075575611524
886.0, 0.009984281380915004
887.0, 0.008475060025132009
888.0, 0.007871392107975954
889.0, 0.004665226134821511
890.0, 0.010923097603474142
891.0, 0.011411155012066593
892.0, 0.012464643672415003
893.0, 0.00979846376274194
894.0, 0.007443921835037323
895.0, 0.010835347280615254
896.0, 0.012637045803229677
897.0, 0.009680643676119515
898.0, 0.009014607935352272
899.0, 0.009583943849480544
900.0, 0.008616005857131013
901.0, 0.01405462760481151
902.0, 0.016043781257053732
903.0, 0.015463744350321426
904.0, 0.017332558228095207
905.0, 0.011710721914292585
906.0, 0.00617218142308789
907.0, 0.010594416236510919
908.0, 0.01905297659499022
909.0, 0.0208821678917414
910.0, 0.02084662561531143
911.0, 0.023994644095166107
912.0, 0.030710477590372227
913.0, 0.03583424855160059
914.0, 0.03718439341838837
915.0, 0.04072009550200524
916.0, 0.04011541153761573
917.0, 0.03780413028073569
918.0, 0.037708876139011895
919.0, 0.03878791470503623
920.0, 0.04107593131031011
921.0, 0.041858225875214865
922.0, 0.03579240629963732
923.0, 0.030495901979630535
924.0, 0.028492505498243458
925.0, 0.026068074632643483
926.0, 0.026073878192936224
927.0, 0.020414147391130406
928.0, 0.014137693498436464
929.0, 0.013546768072354838
930.0, 0.011962209424850094
931.0, 0.010108125302626758
932.0, 0.010028394643719563
933.0, 0.005788917285644255
934.0, 0.00028599899808315007
935.0, 0.0034646189187057417
936.0, 0.006377368744484315
937.0, 0.0070666536879198
938.0, 0.004850261678810494
939.0, 0.002976911968594379
940.0, 0.0012512299529047401
941.0, 0.0014967962220606764
942.0, 7.000806139557554e-05
943.0, 0.0016439086689087818
944.0, 0.0008201904164002612
945.0, 0.0008927102062206454
946.0, 0.0010527814289423183
947.0, 0.00020236561824092875
948.0, 0.0003975047544404847
949.0, 0.0013290240068558707
950.0, 0.0007691525852712061
951.0, 0.0007777076356880879
952.0, 0.0012156093996873129
953.0, 0.0025670558883320463
954.0, 0.0007711036641530282
955.0, 0.004287036438021465
956.0, 0.0003587167805728361
957.0, 0.004607128077040501
958.0, 0.0004882225256348466
959.0, 0.004434474595480231
960.0, 0.0016529395628697597
961.0, 0.0031891680732359065
962.0, 0.000953059119758674
963.0, 0.003740932909792704
964.0, 0.010703169154452694
965.0, 0.002117601481682224
966.0, 0.003932243227506346
967.0, 0.000622871141522366
968.0, 0.0037240640186601737
969.0, 0.0064010202025805265
970.0, 0.006886092084539459
971.0, 0.0053430348640214525
972.0, 0.003656973615305862
973.0, 0.005511762590485355
974.0, 0.008139729349057526
975.0, 0.005546558730253952
976.0, 0.008896359409823706
977.0, 0.005126509127895962
978.0, 0.0008279932537570879
979.0, 0.002389885693705569
980.0, 0.007043425393412676
981.0, 0.005601712592503832
982.0, 0.004539264580784929
983.0, 0.008150846566910182
984.0, 0.007055969449856865
985.0, 0.009516446823159814
986.0, 0.009176074365563345
987.0, 0.004626413307987218
988.0, 0.0028468310159332163
989.0, 0.00368805747138257
990.0, 0.004382701137250425
991.0, 0.003572139978438098
992.0, 0.004982999748863188
993.0, 0.005932853793265784
994.0, 0.0042745290397864875
995.0, 0.006175940971757261
996.0, 0.004699784137988571
997.0, 0.003689940433795228
998.0, 0.004013351213356188
999.0, 0.0027988759069311146
1000.0, 0.0014438613571757211
1001.0, 0.007691284042688342
1002.0, 0.0037901442564787246
1003.0, 0.0033665403987246374
1004.0, 0.00558950562781346
1005.0, 0.0009901628751024028
1006.0, 0.0006484246271038121
1007.0, 0.0021954624471007766
1008.0, 0.0033291979222082706
1009.0, 0.008498319316813194
1010.0, 0.005190776688482031
1011.0, 0.008692577859983362
1012.0, 0.006940801355397546
1013.0, 0.0024764023028799624
1014.0, 0.003347085241435735
1015.0, 0.004611379645794263
1016.0, 0.007709206735528041
1017.0, 0.010420393739114771
1018.0, 0.005550257624513939
1019.0, 0.0059144897737012135
1020.0, 0.001943023926351145
1021.0, 0.002105069843459511
1022.0, 0.006372342748577272
1023.0, 0.008783861930402143
1024.0, 0.0047556131783087815
1025.0, 0.004585964629680757
1026.0, 0.010222772260208662
1027.0, 0.01120440092881383
1028.0, 0.006462265045723947
1029.0, 0.008982298552850303
1030.0, 0.010323417773914063
1031.0, 0.007121961211634399
1032.0, 0.007169551841355408
1033.0, 0.005141208625521015
1034.0, 0.0034521073205422857
1035.0, 0.004214035124529984
1036.0, 0.008319956669649194
1037.0, 0.00871492469786434
1038.0, 0.004527969690375065
1039.0, 0.004120947801107661
1040.0, 0.010643059606478832
1041.0, 0.015053588039618834
1042.0, 0.0079219676807718
1043.0, 0.015508436967988305
1044.0, 0.010149843406728731
1045.0, 0.01388113511993849
1046.0, 0.013246111039747573
1047.0, 0.015256346012159853
1048.0, 0.02282350982201972
1049.0, 0.02114844348791614
1050.0, 0.015018215019123942
1051.0, 0.01594004642170346
1052.0, 0.015570649304586357
1053.0, 0.009942185254083122
1054.0, 0.015457488079387962
1055.0, 0.013642274486165768
1056.0, 0.008463599988466377
1057.0, 0.01452137307137143
1058.0, 0.010365058816008327
1059.0, 0.014219523086216832
1060.0, 0.008106552751291334
1061.0, 0.006445668235435306
1062.0, 0.008147057884478327
1063.0, 0.008155416865158175
1064.0, 0.008058006045276858
1065.0, 0.0024096278897241265
1066.0, 0.0023138182983212068
1067.0, 0.002965437625757818
1068.0, 0.0008936485788311056
1069.0, 0.0016665543859903612
1070.0, 0.0052696945303823154
1071.0, 0.005939430600025734
1072.0, 0.007970819665494991
1073.0, 0.004812483156122759
1074.0, 0.003589958441875447
1075.0, 0.0013577503414416805
1076.0, 0.0018190589112301453
1077.0, 0.002857305760036146
1078.0, 0.007397883571931732
1079.0, 0.0031161445634544107
1080.0, 0.002572910865500729
1081.0, 0.001071425763051836
1082.0, 0.0013014360383103328
1083.0, 0.005825260379948126
1084.0, 0.004388124781543649
1085.0, 0.005337645188605857
1086.0, 0.002291051267384253
1087.0, 0.00449516816318186
1088.0, 0.007629282566916145
1089.0, 0.00732126425907017
1090.0, 0.0029083032635750954
1091.0, 0.003749134788430107
1092.0, 0.006429383315283959
1093.0, 0.0049408689976998665
1094.0, 0.006654523351572824
1095.0, 0.005163451200745113
1096.0, 0.007721814896826675
1097.0, 0.006021040822513718
1098.0, 0.00543787324822437
1099.0, 0.0066580506093234775
1100.0, 0.004131697183569219
1101.0, 0.0074652303159317155
1102.0, 0.006484169716290841
1103.0, 0.0027564869752956392
1104.0, 0.003380432483264141
1105.0, 0.0057574903277830495
1106.0, 0.004870315392799888
1107.0, 0.004856566843059641
1108.0, 0.005396572353660593
1109.0, 0.004719103223314413
1110.0, 0.0009447785473146583
1111.0, 0.0038297426536790012
1112.0, 0.0011342256663685343
1113.0, 0.004909328253916746
1114.0, 0.0038224018591057826
1115.0, 0.0034131738270148787
1116.0, 0.007959956799077518
1117.0, 0.0017226518893456912
1118.0, 0.0028226253225973846
1119.0, 0.0004937630672753447
1120.0, 0.0014576818532126556
1121.0, 0.003207358983372224
1122.0, 0.0038371899952778293
1123.0, 0.005415551879344032
1124.0, 0.005293035540090516
1125.0, 0.0018796321965762158
1126.0, 0.004200047403709034
1127.0, 0.003111281139473048
1128.0, 0.005079867326484518
1129.0, 0.004456447717504232
1130.0, 0.004385787225039755
1131.0, 0.005386174028815274
1132.0, 0.006547478475764989
1133.0, 0.0008487291370253829
1134.0, 0.0019824007975679336
1135.0, 0.0005250138951811721
1136.0, 9.9822984021827e-05
1137.0, 0.0007520778354853544
1138.0, 0.002248799172118654
1139.0, 0.004072499152451232
1140.0, 0.0026497477104518883
1141.0, 0.0007938504038046214
1142.0, 0.0025809424825755565
1143.0, 0.0029842963924641137
1144.0, 0.0038403139601136645
1145.0, 0.003909879844458123
1146.0, 8.241836345041409e-05
1147.0, 0.004530066484696808
1148.0, 0.005018279355456815
1149.0, 0.004641538557592972
1150.0, 0.002468596866672825
1151.0, 0.003684140034504292
1152.0, 0.0016784345470921174
1153.0, 0.005726515021961863
1154.0, 0.005348319751531307
1155.0, 0.0037543265891635735
1156.0, 0.0005772924462832524
1157.0, 0.004349439579522799
1158.0, 0.0031178332189419743
1159.0, 0.0053122815526711244
1160.0, 0.00560308440126028
1161.0, 0.005079256809186255
1162.0, 0.0021703150646915272
1163.0, 0.00066308153711801
1164.0, 0.00246481331644464
1165.0, 0.003887481822239841
1166.0, 0.0025461073090683353
1167.0, 0.004437062733920018
1168.0, 0.0020375361500281105
1169.0, 0.001551460432488259
1170.0, 0.007121822678512274
1171.0, 0.0025522163361632283
1172.0, 0.0023904143867720076
1173.0, 0.0008880505583287086
1174.0, 0.006301331383560229
1175.0, 0.003349230911008701
1176.0, 0.001871359680938689
1177.0, 0.007975650859951361
1178.0, 0.006676595559523328
1179.0, 0.006808482632963916
1180.0, 0.007714783651195571
1181.0, 0.007987023791748869
1182.0, 0.007812247846874957
1183.0, 0.005937110928974605
1184.0, 0.0062850138230815195
1185.0, 0.008170798277898376
1186.0, 0.007731948513399747
1187.0, 0.0026108015903918945
1188.0, 0.0055468600018189216
1189.0, 0.0043046625868278735
1190.0, 0.008340361652472381
1191.0, 0.005667623020266433
1192.0, 0.0007830132841955994
1193.0, 0.007885285776096157
1194.0, 0.008457107353676807
1195.0, 0.002167871273700192
1196.0, 0.004846050969853312
1197.0, 0.004404758187183915
1198.0, 0.0023152622974845767
1199.0, 0.0029134631058711806
1200.0, 0.004003531887858067
1201.0, 0.0070042195542948
1202.0, 0.010862187111717561
1203.0, 0.012283705557441356
1204.0, 0.011861188520034935
1205.0, 0.01179199514276509
1206.0, 0.01105766721209821
1207.0, 0.007450665309120074
1208.0, 0.009169349637262202
1209.0, 0.001799504003195751
1210.0, 0.004499925581306379
1211.0, 0.009395408103230847
1212.0, 0.008800015090240991
1213.0, 0.013353204217226695
1214.0, 0.010360098039356416
1215.0, 0.008355627931917502
1216.0, 0.006384703186620575
1217.0, 0.005718716984379603
1218.0, 0.007082992901380303
1219.0, 0.013621034134884637
1220.0, 0.008861499906701435
1221.0, 0.003773987328227638
1222.0, 0.0039748589581330585
1223.0, 0.004243205143009677
1224.0, 0.006921744769222091
1225.0, 0.008025949943475646
1226.0, 0.009564368842145067
1227.0, 0.006290791285822679
1228.0, 0.004350262395320359
1229.0, 0.0030020273120223845
1230.0, 0.002321821048255106
1231.0, 0.003924034106235732
1232.0, 0.011462167005412706
1233.0, 0.002777672399454507
1234.0, 0.0009557649605982749
1235.0, 0.001001696276289713
1236.0, 0.005701092867559863
1237.0, 0.013198321681708182
1238.0, 0.011297088107067704
1239.0, 0.006581523239442016
1240.0, 0.00010271644396145471
1241.0, 0.0033100845905076697
1242.0, 0.007129859136342527
1243.0, 0.00948000082723694
1244.0, 0.011068333694496564
1245.0, 0.00751841284041147
1246.0, 0.00571308612466358
1247.0, 0.006206311751694306
1248.0, 0.006198901800997921
1249.0, 0.008599900893195815
1250.0, 0.006613738491246501
1251.0, 0.004289754669069423
1252.0, 0.005860937158838208
1253.0, 0.008162850392579937
1254.0, 0.006214248794787378
1255.0, 0.008434165767458007
1256.0, 0.011379599555682015
1257.0, 0.010919122182661688
1258.0, 0.005071912144825698
1259.0, 0.0009643040654177846
1260.0, 0.0008258218333775977
1261.0, 0.0044504811867675225
1262.0, 0.006616779678624821
1263.0, 0.008557707651666146
1264.0, 0.007298211255916814
1265.0, 0.007733372595372379
1266.0, 0.009651833846661068
1267.0, 0.005372408942976334
1268.0, 0.00048805915910008055
1269.0, 0.0020724975436283177
1270.0, 0.0037144212560648996
1271.0, 0.004111297555714702
1272.0, 0.005454022981510418
1273.0, 0.003534671531243559
1274.0, 0.002875373726193801
1275.0, 0.006398257684393422
1276.0, 0.010983927709069412
1277.0, 0.008052898976420994
1278.0, 0.006958927214947147
1279.0, 0.003043088796840127
1280.0, 0.00220184633573399
1281.0, 0.005645098305837236
1282.0, 0.003876573213855818
1283.0, 0.0009182565088989411
1284.0, 0.0005178090091528618
1285.0, 0.0013582053618606137
1286, 0.0
1287, 0.0
1288, 0.0
1289, 0.0
1290, 0.0
1291, 0.0
1292, 0.0
1293, 0.0
1294, 0.0
1295, 0.0
1296, 0.0
1297, 0.0
1298, 0.0
1299, 0.0
1300, 0.0
1301, 0.0
1302, 0.0
1303, 0.0
1304, 0.0
1305, 0.0
1306, 0.0
1307, 0.0
1308, 0.0
1309, 0.0
1310, 0.0
1311, 0.0
1312, 0.0
1313, 0.0
1314, 0.0
1315, 0.0
1316, 0.0
1317, 0.0
1318, 0.0
1319, 0.0
1320, 0.0
1321, 0.0
1322, 0.0
1323, 0.0
1324, 0.0
1325, 0.0
1326, 0.0
1327, 0.0
1328, 0.0
1329, 0.0
1330, 0.0
1331, 0.0
1332, 0.0
1333, 0.0
1334, 0.0
1335, 0.0
1336, 0.0
1337, 0.0
1338, 0.0
1339, 0.0
1340, 0.0
1341, 0.0
1342, 0.0
1343, 0.0
1344, 0.0
1345, 0.0
1346, 0.0
1347, 0.0
1348, 0.0
1349, 0.0
1350, 0.0
1351, 0.0
1352, 0.0
1353, 0.0
1354, 0.0
1355, 0.0
1356, 0.0
1357, 0.0
1358, 0.0
1359, 0.0
1360, 0.0
1361, 0.0
1362, 0.0
1363, 0.0
1364, 0.0
1365, 0.0
1366, 0.0
1367, 0.0
1368, 0.0
1369, 0.0
1370, 0.0
1371, 0.0
1372, 0.0
1373, 0.0
1374, 0.0
1375, 0.0
1376, 0.0
1377, 0.0
1378, 0.0
1379, 0.0
1380, 0.0
1381, 0.0
1382, 0.0
1383, 0.0
1384, 0.0
1385, 0.0
1386, 0.0
1387, 0.0
1388, 0.0
1389, 0.0
1390, 0.0
1391, 0.0
1392, 0.0
1393, 0.0
1394, 0.0
1395, 0.0
1396, 0.0
1397, 0.0
1398, 0.0
1399, 0.0
1400, 0.0
1401, 0.0
1402, 0.0
1403, 0.0
1404, 0.0
1405, 0.0
1406, 0.0
1407, 0.0
1408, 0.0
1409, 0.0
1410, 0.0
1411, 0.0
1412, 0.0
1413, 0.0
1414, 0.0
1415, 0.0
1416, 0.0
1417, 0.0
1418, 0.0
1419, 0.0
1420, 0.0
1421, 0.0
1422, 0.0
1423, 0.0
1424, 0.0
1425, 0.0
1426, 0.0
1427, 0.0
1428, 0.0
1429, 0.0
1430, 0.0
1431, 0.0
1432, 0.0
1433, 0.0
1434, 0.0
1435, 0.0
1436, 0.0
1437, 0.0
1438, 0.0
1439, 0.0
1440, 0.0
1441, 0.0
1442, 0.0
1443, 0.0
1444, 0.0
1445, 0.0
1446, 0.0
1447, 0.0
1448, 0.0
1449, 0.0
1450, 0.0
1451, 0.0
1452, 0.0
1453, 0.0
1454, 0.0
1455, 0.0
1456, 0.0
1457, 0.0
1458, 0.0
1459, 0.0
1460, 0.0
1461, 0.0
1462, 0.0
1463, 0.0
1464, 0.0
1465, 0.0
1466, 0.0
1467, 0.0
1468, 0.0
1469, 0.0
1470, 0.0
1471, 0.0
1472, 0.0
1473, 0.0
1474, 0.0
1475, 0.0
1476, 0.0
1477, 0.0
1478, 0.0
1479, 0.0
1480, 0.0
1481, 0.0
1482, 0.0
1483, 0.0
1484, 0.0
1485, 0.0
1486, 0.0
1487, 0.0
1488, 0.0
1489, 0.0
1490, 0.0
1491, 0.0
1492, 0.0
1493, 0.0
1494, 0.0
1495, 0.0
1496, 0.0
1497, 0.0
1498, 0.0
1499, 0.0
1500, 0.0
1501, 0.0
1502, 0.0
1503, 0.0
1504, 0.0
1505, 0.0
1506, 0.0
1507, 0.0
1508, 0.0
1509, 0.0
1510, 0.0
1511, 0.0
1512, 0.0
1513, 0.0
1514, 0.0
1515, 0.0
1516, 0.0
1517, 0.0
1518, 0.0
1519, 0.0
1520, 0.0
1521, 0.0
1522, 0.0
1523, 0.0
1524, 0.0
1525, 0.0
1526, 0.0
1527, 0.0
1528, 0.0
1529, 0.0
1530, 0.0
1531, 0.0
1532, 0.0
1533, 0.0
1534, 0.0
1535, 0.0
1536, 0.0
1537, 0.0
1538, 0.0
1539, 0.0
1540, 0.0
1541, 0.0
1542, 0.0
1543, 0.0
1544, 0.0
1545, 0.0
1546, 0.0
1547, 0.0
1548, 0.0
1549, 0.0
1550, 0.0
1551, 0.0
1552, 0.0
1553, 0.0
1554, 0.0
1555, 0.0
1556, 0.0
1557, 0.0
1558, 0.0
1559, 0.0
1560, 0.0
1561, 0.0
1562, 0.0
1563, 0.0
1564, 0.0
1565, 0.0
1566, 0.0
1567, 0.0
1568, 0.0
1569, 0.0
1570, 0.0
1571, 0.0
1572, 0.0
1573, 0.0
1574, 0.0
1575, 0.0
1576, 0.0
1577, 0.0
1578, 0.0
1579, 0.0
1580, 0.0
1581, 0.0
1582, 0.0
1583, 0.0
1584, 0.0
1585, 0.0
1586, 0.0
1587, 0.0
1588, 0.0
1589, 0.0
1590, 0.0
1591, 0.0
1592, 0.0
1593, 0.0
1594, 0.0
1595, 0.0
1596, 0.0
1597, 0.0
1598, 0.0
1599, 0.0
