30, 0.0
31, 0.0
32, 0.0
33, 0.0
34, 0.0
35, 0.0
36, 0.0
37, 0.0
38, 0.0
39, 0.0
40, 0.0
41, 0.0
42, 0.0
43, 0.0
44, 0.0
45, 0.0
46, 0.0
47, 0.0
48, 0.0
49, 0.0
50, 0.0
51, 0.0
52, 0.0
53, 0.0
54, 0.0
55, 0.0
56, 0.0
57, 0.0
58, 0.0
59, 0.0
60, 0.0
61, 0.0
62, 0.0
63, 0.0
64, 0.0
65, 0.0
66, 0.0
67, 0.0
68, 0.0
69, 0.0
70, 0.0
71, 0.0
72, 0.0
73, 0.0
74, 0.0
75, 0.0
76, 0.0
77, 0.0
78, 0.0
79, 0.0
80, 0.0
81, 0.0
82, 0.0
83, 0.0
84, 0.0
85, 0.0
86, 0.0
87, 0.0
88, 0.0
89, 0.0
90, 0.0
91, 0.0
92, 0.0
93, 0.0
94, 0.0
95, 0.0
96, 0.0
97, 0.0
98, 0.0
99, 0.0
100, 0.0
101, 0.0
102, 0.0
103, 0.0
104, 0.0
105, 0.0
106, 0.0
107, 0.0
108, 0.0
109, 0.0
110, 0.0
111, 0.0
112, 0.0
113, 0.0
114.0, 0.9930690360839732
115.0, 0.9975601830026015
116.0, 0.994188268487395
117.0, 0.999157635492611
118.0, 0.9961368335941246
119.0, 0.9901564915209439
120.0, 0.9917296013555856
121.0, 0.9904552427324725
122.0, 0.9890969901223755
123.0, 0.9894706585091538
124.0, 0.991081260981388
125.0, 0.9900827634143307
126.0, 0.992252948823219
127.0, 0.9922291497079704
128.0, 0.9903400429315864
129.0, 0.9956626428118914
130.0, 0.9929071265585427
131.0, 0.9882718986493614
132.0, 0.9846791400375067
133.0, 0.979975408437549
134.0, 0.9824647370306449
135.0, 0.9859222440799917
136.0, 0.9859203303245412
137.0, 0.9794104840854501
138.0, 0.9780520368174532
139.0, 0.9787175609022731
140.0, 0.9773709151262222
141.0, 0.9725769273249283
142.0, 0.9696717089773955
143.0, 0.9696321658805246
144.0, 0.9672981090602775
145.0, 0.9620452664937702
146.0, 0.9604832664305168
147.0, 0.9594146506467429
148.0, 0.9594816389376464
149.0, 0.9596555480748348
150.0, 0.9568939958425982
151.0, 0.9598644719439272
152.0, 0.9613451284097311
153.0, 0.9588952550476442
154.0, 0.9546186644623338
155.0, 0.9536441393715053
156.0, 0.9519045088677415
157.0, 0.9501690176374814
158.0, 0.9489680159294882
159.0, 0.9451838965293151
160.0, 0.9435099452824719
161.0, 0.9435319280675836
162.0, 0.9421945548006042
163.0, 0.9371573914744056
164.0, 0.9388438728384139
165.0, 0.9388412897680443
166.0, 0.9371463757496123
167.0, 0.9376788641467105
168.0, 0.9366891760046793
169.0, 0.9359699770019787
170.0, 0.9347957965552193
171.0, 0.9324347380869455
172.0, 0.9303921366601882
173.0, 0.9288586997894911
174.0, 0.9266715915591938
175.0, 0.9248319705135907
176.0, 0.9248977782426451
177.0, 0.9206860926214935
178.0, 0.9170947418543456
179.0, 0.9169261688382643
180.0, 0.9183140468279293
181.0, 0.9115773299464085
182.0, 0.910656976856776
183.0, 0.9096321877646965
184.0, 0.9041941905713845
185.0, 0.8999117605855292
186.0, 0.8995593126265938
187.0, 0.8976858352348429
188.0, 0.8941340139681552
189.0, 0.89313293409652
190.0, 0.8888006333043378
191.0, 0.8901383141136734
192.0, 0.889425038191228
193.0, 0.8810793848598831
194.0, 0.8820731662408283
195.0, 0.8812668070228813
196.0, 0.8757758350521986
197.0, 0.8704942369186126
198.0, 0.8719934770772597
199.0, 0.8682552573529391
200.0, 0.8641394295600378
201.0, 0.8623860542371434
202.0, 0.8628529504857374
203.0, 0.8598435145250104
204.0, 0.8564022635509526
205.0, 0.8526516867498656
206.0, 0.8487140772655404
207.0, 0.8463923473993992
208.0, 0.8452641803443842
209.0, 0.842000388099587
210.0, 0.8382050003185217
211.0, 0.8380349305229586
212.0, 0.8370250604811045
213.0, 0.8324846946550498
214.0, 0.8295450841686678
215.0, 0.8294026090552667
216.0, 0.8254285697054412
217.0, 0.8227899998569193
218.0, 0.8201150292665801
219.0, 0.818216730138399
220.0, 0.818294842329087
221.0, 0.814111580415899
222.0, 0.8093562698834136
223.0, 0.8061773011631753
224.0, 0.8056603434409966
225.0, 0.8079791531532207
226.0, 0.8015444552813128
227.0, 0.7964398351437674
228.0, 0.795837360381604
229.0, 0.7945380979631954
230.0, 0.79039535686042
231.0, 0.7865479182959652
232.0, 0.7841016559559926
233.0, 0.7829019350798537
234.0, 0.782582630619056
235.0, 0.782945836715518
236.0, 0.7795506286140207
237.0, 0.7748100832735708
238.0, 0.7736240460863854
239.0, 0.7740706917768367
240.0, 0.7713209283849517
241.0, 0.7674162648098715
242.0, 0.7647477831491806
243.0, 0.763870274756369
244.0, 0.7633374915182
245.0, 0.762534684806922
246.0, 0.7592058356405088
247.0, 0.7523576896699973
248.0, 0.7538072827880072
249.0, 0.7532704148735884
250.0, 0.7503678543770261
251.0, 0.7487819631962311
252.0, 0.7491929776429556
253.0, 0.7469266203855854
254.0, 0.7449822104543744
255.0, 0.7435263396191
256.0, 0.7422218622527662
257.0, 0.7441869765366863
258.0, 0.7414657140696056
259.0, 0.7383174967307621
260.0, 0.7364566957243388
261.0, 0.7347738779644011
262.0, 0.7373945058917621
263.0, 0.7371934419327313
264.0, 0.7355005060772802
265.0, 0.7348966284652975
266.0, 0.7349286282143529
267.0, 0.7319841999263678
268.0, 0.7317106995834571
269.0, 0.733428290848901
270.0, 0.7329091757336422
271.0, 0.7314105646453923
272.0, 0.7323649265172534
273.0, 0.7314170130450967
274.0, 0.727910803559686
275.0, 0.7275764038363908
276.0, 0.726453977131086
277.0, 0.7297477905870675
278.0, 0.7333275677718487
279.0, 0.732496973502681
280.0, 0.7308185551714248
281.0, 0.7275397777537936
282.0, 0.7286539046686809
283.0, 0.7315990799751878
284.0, 0.7301346312056202
285.0, 0.7262665913594106
286.0, 0.7274917465993209
287.0, 0.7282681656368786
288.0, 0.7269656074490162
289.0, 0.7282231682204546
290.0, 0.7297396001133298
291.0, 0.7304384516570716
292.0, 0.7315085973635083
293.0, 0.7320808214574314
294.0, 0.7290378789353897
295.0, 0.7344901329441287
296.0, 0.7325022909171546
297.0, 0.7275839065854813
298.0, 0.7305835686931472
299.0, 0.7344946112379901
300.0, 0.7366733470379353
301.0, 0.7373210590686683
302.0, 0.7373502654600175
303.0, 0.7373705815225411
304.0, 0.737259546173393
305.0, 0.7382403574014391
306.0, 0.7376253507520731
307.0, 0.7356906906984632
308.0, 0.736165738888806
309.0, 0.738465692900887
310.0, 0.7394620256703442
311.0, 0.7392298113546043
312.0, 0.7391637844878775
313.0, 0.7407567029247802
314.0, 0.7409656329304486
315.0, 0.7432053941975775
316.0, 0.7470968097587306
317.0, 0.7489400025769973
318.0, 0.7463157807091667
319.0, 0.7451905610530981
320.0, 0.7456912989485996
321.0, 0.7468700936710877
322.0, 0.7480449250243403
323.0, 0.7481846999569273
324.0, 0.7494534787199087
325.0, 0.7495647157197991
326.0, 0.749264547530055
327.0, 0.7509497228023492
328.0, 0.751416016524805
329.0, 0.7497548122882518
330.0, 0.7514400365104431
331.0, 0.7561425101244516
332.0, 0.7575719209002107
333.0, 0.7539552249324276
334.0, 0.7522548278119695
335.0, 0.7543391448262186
336.0, 0.7574050850945031
337.0, 0.756152514598602
338.0, 0.7578670254603355
339.0, 0.7568365418872214
340.0, 0.7555538525053888
341.0, 0.7566960143447509
342.0, 0.7575166454776783
343.0, 0.7573344810759264
344.0, 0.7585882553437586
345.0, 0.7586835553662581
346.0, 0.7572632522682845
347.0, 0.7602042684328407
348.0, 0.7598312395048902
349.0, 0.7571167593547815
350.0, 0.7552140146877412
351.0, 0.7553411409417834
352.0, 0.7540581565761687
353.0, 0.7536966050728008
354.0, 0.7535898267948751
355.0, 0.75212440231345
356.0, 0.749899024964276
357.0, 0.7518225986511129
358.0, 0.751055829790397
359.0, 0.7484608297513052
360.0, 0.7458129031941805
361.0, 0.7441378869754471
362.0, 0.7447573487556792
363.0, 0.7455688273051345
364.0, 0.742637856031439
365.0, 0.7390921087294668
366.0, 0.7391946106701757
367.0, 0.7413057182627787
368.0, 0.7378447443334047
369.0, 0.7373855359301593
370.0, 0.7375452454585795
371.0, 0.7337954839764611
372.0, 0.7326591165402692
373.0, 0.7319606243430021
374.0, 0.7313733301855032
375.0, 0.7298267380656491
376.0, 0.7264771922262884
377.0, 0.7226718858831368
378.0, 0.7218607869730077
379.0, 0.7200362411834199
380.0, 0.7182019354116244
381.0, 0.7192130735355104
382.0, 0.7179327259624596
383.0, 0.7178495028602165
384.0, 0.7164090682378593
385.0, 0.7130016036687986
386.0, 0.7110078853503199
387.0, 0.7130051792275673
388.0, 0.7116437539320526
389.0, 0.7065017895898054
390.0, 0.702519237310786
391.0, 0.7025892101894479
392.0, 0.7045745613578842
393.0, 0.6996766052596355
394.0, 0.698332414256702
395.0, 0.6975366784508167
396.0, 0.6941529284784302
397.0, 0.6938003750507461
398.0, 0.6958593928173243
399.0, 0.6943927167560849
400.0, 0.6907135300367738
401.0, 0.6871267886944806
402.0, 0.6835155133212747
403.0, 0.6813350521444916
404.0, 0.6817698642330068
405.0, 0.681798822449805
406.0, 0.6806356932628955
407.0, 0.6806651062658985
408.0, 0.679603238466341
409.0, 0.6768621582571572
410.0, 0.6734439046783945
411.0, 0.6723261148639951
412.0, 0.6747020011551678
413.0, 0.6731012265815233
414.0, 0.6698585719598888
415.0, 0.6677820245644316
416.0, 0.6675841553080113
417.0, 0.6681203439899795
418.0, 0.6654738034427682
419.0, 0.664322485737579
420.0, 0.6658971008885888
421.0, 0.6671950490807524
422.0, 0.6649109636834049
423.0, 0.6637023694610575
424.0, 0.6594321836621556
425.0, 0.6590077084218732
426.0, 0.6603573124556972
427.0, 0.6582282769276183
428.0, 0.6558490681800215
429.0, 0.6559268541332033
430.0, 0.6587329734854946
431.0, 0.657674958708144
432.0, 0.6530623866463281
433.0, 0.6518817298930727
434.0, 0.6536028310428759
435.0, 0.6507146342728126
436.0, 0.6509255945095457
437.0, 0.6524759310590774
438.0, 0.6487868312007008
439.0, 0.6494743614015247
440.0, 0.651912690424318
441.0, 0.6504474762952812
442.0, 0.6487966907453964
443.0, 0.6491468518424192
444.0, 0.6440209847380397
445.0, 0.6430987636825524
446.0, 0.643227571554821
447.0, 0.6437191716605011
448.0, 0.6439947811303174
449.0, 0.6421094779857388
450.0, 0.6390361507070417
451.0, 0.6384499858222409
452.0, 0.6394017410764057
453.0, 0.639979439198837
454.0, 0.6391568885537159
455.0, 0.6372481943511855
456.0, 0.6357202334469608
457.0, 0.6353506157711974
458.0, 0.635371627692899
459.0, 0.6345739231564295
460.0, 0.6327971996202757
461.0, 0.6368791433810815
462.0, 0.6369256370267415
463.0, 0.633478199864386
464.0, 0.6317880023041115
465.0, 0.6332246580774379
466.0, 0.6314603747919386
467.0, 0.6325108270242602
468.0, 0.6310155746014767
469.0, 0.6283131323124154
470.0, 0.6292244165623311
471.0, 0.6293593581533758
472.0, 0.6233081927177222
473.0, 0.6211223249320467
474.0, 0.6216423607892975
475.0, 0.6215676603921634
476.0, 0.6235284615460469
477.0, 0.6218994503581189
478.0, 0.621170942883157
479.0, 0.6206040721069065
480.0, 0.6194141875912772
481.0, 0.6181305872846838
482.0, 0.6154290575933464
483.0, 0.6166675462171122
484.0, 0.6134436019604067
485.0, 0.6107724037944958
486.0, 0.6122055868519721
487.0, 0.610235852984075
488.0, 0.6098963015183503
489.0, 0.6074968483646953
490.0, 0.605477437058703
491.0, 0.6052293167664891
492.0, 0.6049027801091765
493.0, 0.603783611354892
494.0, 0.6040256325920559
495.0, 0.6029677992410808
496.0, 0.6013744612539347
497.0, 0.600510197202682
498.0, 0.5987628208416379
499.0, 0.5942149823785283
500.0, 0.5952934673463585
501.0, 0.5955720690391823
502.0, 0.5935123719679101
503.0, 0.5923611564438473
504.0, 0.5931542543783122
505.0, 0.5892507188638919
506.0, 0.5882078829786731
507.0, 0.5872071000499156
508.0, 0.5843327205656637
509.0, 0.5825370660892615
510.0, 0.5801501907602655
511.0, 0.5799308905119738
512.0, 0.577499102867515
513.0, 0.5740417711387175
514.0, 0.5723570148246674
515.0, 0.5718607790910246
516.0, 0.5703708980813399
517.0, 0.5682915670642262
518.0, 0.5667734116515268
519.0, 0.5640721880468929
520.0, 0.5593927006214805
521.0, 0.5566116499366336
522.0, 0.5531040433669304
523.0, 0.5527652508818454
524.0, 0.5520928011010288
525.0, 0.5495228134119974
526.0, 0.5478544934159625
527.0, 0.5464778705945121
528.0, 0.540551645643734
529.0, 0.5383216231385828
530.0, 0.5364989275545434
531.0, 0.5320997148932353
532.0, 0.529399849484127
533.0, 0.5266821819393511
534.0, 0.5241381429760709
535.0, 0.5217917517664712
536.0, 0.5185035267760986
537.0, 0.514789107105386
538.0, 0.5146258916797322
539.0, 0.5141186269077087
540.0, 0.5108233671238346
541.0, 0.5077472794217307
542.0, 0.5061418166449808
543.0, 0.5041886415849751
544.0, 0.4999414234349416
545.0, 0.4954820600555231
546.0, 0.4943110120035672
547.0, 0.49327791078196676
548.0, 0.49106510023085215
549.0, 0.48931724331461607
550.0, 0.4875702384447261
551.0, 0.4850858642683628
552.0, 0.483620574032477
553.0, 0.4814844677122098
554.0, 0.47878361167420813
555.0, 0.4783196656202116
556.0, 0.4753648928515264
557.0, 0.47336297778002284
558.0, 0.4725443500481533
559.0, 0.471349019492563
560.0, 0.4679920684471281
561.0, 0.4626733331397893
562.0, 0.4598783278116765
563.0, 0.45913910474757286
564.0, 0.4607311077582845
565.0, 0.4590126976465529
566.0, 0.45279370120652523
567.0, 0.45058377677273775
568.0, 0.4506258177842827
569.0, 0.4506889004172596
570.0, 0.44949854175681436
571.0, 0.44500320521221565
572.0, 0.44026510751157627
573.0, 0.4408352590368045
574.0, 0.436161308727608
575.0, 0.4306393941296626
576.0, 0.43050893702994586
577.0, 0.4311739884271592
578.0, 0.4280384587279119
579.0, 0.42349603335524566
580.0, 0.4220369415882025
581.0, 0.4221488073159833
582.0, 0.4168731702380684
583.0, 0.4125462261629883
584.0, 0.41342768291443543
585.0, 0.41016999659460746
586.0, 0.4054267462892375
587.0, 0.40041820284043245
588.0, 0.3993758361606698
589.0, 0.3993912433905137
590.0, 0.3967994233195674
591.0, 0.3923163909952011
592.0, 0.3910574661319197
593.0, 0.3871342403858319
594.0, 0.38276463664671784
595.0, 0.37892012419975696
596.0, 0.37653823594250885
597.0, 0.3762297114773057
598.0, 0.3730261111003767
599.0, 0.3689306923576672
600.0, 0.365976383671111
601.0, 0.36123616416355137
602.0, 0.3559471831296313
603.0, 0.3542986488532409
604.0, 0.35470266895906205
605.0, 0.3520033003271889
606.0, 0.34719572614659533
607.0, 0.3452093881881932
608.0, 0.34367434941427616
609.0, 0.33824661318630245
610.0, 0.3374970697890552
611.0, 0.3351351212746503
612.0, 0.3324217326998531
613.0, 0.33156583012825447
614.0, 0.3297737730839663
615.0, 0.32537005833435156
616.0, 0.3222095027208626
617.0, 0.3209463980501323
618.0, 0.32033896569841025
619.0, 0.3188612499436952
620.0, 0.31651704024405597
621.0, 0.3131469318801535
622.0, 0.30872593177664664
623.0, 0.30831887984549583
624.0, 0.3082947270529358
625.0, 0.30617358490268903
626.0, 0.30331743645795467
627.0, 0.300279210922101
628.0, 0.29705386355869645
629.0, 0.296307081588696
630.0, 0.2948245839217495
631.0, 0.293669252781677
632.0, 0.2925324099178261
633.0, 0.29071525189435676
634.0, 0.2890949552580296
635.0, 0.28933990643192775
636.0, 0.28592813548837953
637.0, 0.283803535720054
638.0, 0.28349014590619864
639.0, 0.28309561993977655
640.0, 0.2808081340944052
641.0, 0.27731709949374456
642.0, 0.27736225079036575
643.0, 0.27441087106299983
644.0, 0.2744240593723542
645.0, 0.2717232588121028
646.0, 0.2686764822001796
647.0, 0.2699365466413781
648.0, 0.2664656661932524
649.0, 0.2658542039873802
650.0, 0.2652458761019281
651.0, 0.2668234526931678
652.0, 0.26472241271009234
653.0, 0.2594241042090679
654.0, 0.2584922172757153
655.0, 0.2529829011669917
656.0, 0.25413915758855865
657.0, 0.2540551372451933
658.0, 0.2512285506708128
659.0, 0.24964997698586838
660.0, 0.24959474778745147
661.0, 0.24771797077010882
662.0, 0.24505964805696942
663.0, 0.23948003134767554
664.0, 0.23886321073811193
665.0, 0.23881556557960965
666.0, 0.23540447614782242
667.0, 0.23413918298866093
668.0, 0.23367662659788055
669.0, 0.23270612062183615
670.0, 0.23040613477997152
671.0, 0.22819446670754384
672.0, 0.22752391455494514
673.0, 0.22656590152255773
674.0, 0.22242747169036353
675.0, 0.21961389220250707
676.0, 0.21734493797470922
677.0, 0.21435847642696507
678.0, 0.21281762932676407
679.0, 0.21364650212937716
680.0, 0.21314751345773347
681.0, 0.20779009156255365
682.0, 0.20350677227793276
683.0, 0.20460832355040348
684.0, 0.2032500519740053
685.0, 0.20082460050126524
686.0, 0.19913928949647214
687.0, 0.1948312870906836
688.0, 0.1953053292964217
689.0, 0.19463498839902013
690.0, 0.19096800136306444
691.0, 0.1871473059296643
692.0, 0.18544815531904849
693.0, 0.18530427248205253
694.0, 0.18466656182343671
695.0, 0.1831440613729913
696.0, 0.1796059574547162
697.0, 0.1760909163018828
698.0, 0.17442537871504019
699.0, 0.17274139935569516
700.0, 0.1707364434310697
701.0, 0.17202624396281682
702.0, 0.16631310821767772
703.0, 0.16657568509850176
704.0, 0.16567660228830566
705.0, 0.16437948936976443
706.0, 0.16354567124325098
707.0, 0.16183524730008905
708.0, 0.15951494043457046
709.0, 0.15763695883883697
710.0, 0.15503852657869097
711.0, 0.1547604233470927
712.0, 0.15336912825780996
713.0, 0.15150078622402033
714.0, 0.1512515560535249
715.0, 0.1497684613690876
716.0, 0.14791177591842294
717.0, 0.14511026355062687
718.0, 0.14434260663300993
719.0, 0.1430330256908903
720.0, 0.1420302711083808
721.0, 0.1416988418446549
722.0, 0.13794207883280726
723.0, 0.13650191951210833
724.0, 0.13630208897833881
725.0, 0.13738627617641705
726.0, 0.1355781802249014
727.0, 0.1321874650960254
728.0, 0.1309137523546734
729.0, 0.1302058389005865
730.0, 0.1266576602871966
731.0, 0.1288612344636826
732.0, 0.12683116983338868
733.0, 0.12424886169787622
734.0, 0.12448677639324654
735.0, 0.12409974271515814
736.0, 0.1218551286167421
737.0, 0.12105408589991785
738.0, 0.12081374925497608
739.0, 0.11960990666906493
740.0, 0.11675167712587932
741.0, 0.1147276297366044
742.0, 0.11445165262714002
743.0, 0.11300783821025626
744.0, 0.11045353936282312
745.0, 0.11488156570656112
746.0, 0.1144394700554843
747.0, 0.11065323780322633
748.0, 0.10858650613023657
749.0, 0.1070133789154078
750.0, 0.10495698356464123
751.0, 0.10802363003975722
752.0, 0.10722110044373434
753.0, 0.10431060910768421
754.0, 0.10449899982813397
755.0, 0.10362334283434567
756.0, 0.10222066749338313
757.0, 0.10183267924948888
758.0, 0.09980830914767118
759.0, 0.10049665864084537
760.0, 0.09813515792523643
761.0, 0.09710979241526008
762.0, 0.09722724947714258
763.0, 0.09664495113472067
764.0, 0.09512617264606904
765.0, 0.09381760252603902
766.0, 0.09321179488954347
767.0, 0.090934179583983
768.0, 0.0941159133454764
769.0, 0.08986686548215062
770.0, 0.08918787894832457
771.0, 0.0918422567738443
772.0, 0.08758819950914974
773.0, 0.08733346675656717
774.0, 0.08502431225590258
775.0, 0.08353148656605652
776.0, 0.0817556555706483
777.0, 0.08118357763005625
778.0, 0.08224271264066375
779.0, 0.08235135319815717
780.0, 0.08024021169629106
781.0, 0.07983259179046509
782.0, 0.08087711446344874
783.0, 0.07920916309010786
784.0, 0.07763309130147636
785.0, 0.07531303970324886
786.0, 0.07326443123931364
787.0, 0.07292545110432426
788.0, 0.07263920272402426
789.0, 0.07183681016027194
790.0, 0.0691421103496007
791.0, 0.06865918744803408
792.0, 0.06957943816313157
793.0, 0.06883250453407684
794.0, 0.0664999168957547
795.0, 0.0651772297253104
796.0, 0.06530741080630921
797.0, 0.06425990791774082
798.0, 0.06253006320453192
799.0, 0.0630899825673691
800.0, 0.06252994625000723
801.0, 0.06009248568633056
802.0, 0.058681995501437906
803.0, 0.059106083388538656
804.0, 0.058410455195177985
805.0, 0.05794881782097665
806.0, 0.05690795028768696
807.0, 0.0544258942576394
808.0, 0.05268109422888336
809.0, 0.052687909467393615
810.0, 0.053498513611850866
811.0, 0.05356426729501547
812.0, 0.05218849470330782
813.0, 0.05117151575207959
814.0, 0.048667034142506095
815.0, 0.0478528198218363
816.0, 0.04890691561048965
817.0, 0.048823199241703745
818.0, 0.04711864927191785
819.0, 0.04608224350511523
820.0, 0.04602167140402766
821.0, 0.04427030528174762
822.0, 0.04422916022457207
823.0, 0.04545026603113694
824.0, 0.045206649995171724
825.0, 0.04408347955112487
826.0, 0.043823433719756555
827.0, 0.044241484766860864
828.0, 0.0439202013183292
829.0, 0.04464174189527972
830.0, 0.0432914975173308
831.0, 0.04449541347100317
832.0, 0.04602485617078087
833.0, 0.04337566999069709
834.0, 0.042112477880893784
835.0, 0.04601774424122971
836.0, 0.045254476156722595
837.0, 0.04568125218487811
838.0, 0.043495190697467004
839.0, 0.0476785593442643
840.0, 0.04820920298671444
841.0, 0.04778131317001207
842.0, 0.04892349150128691
843.0, 0.04932289182142973
844.0, 0.05086887554972067
845.0, 0.05157742181323489
846.0, 0.05124462315116437
847.0, 0.05276933810636953
848.0, 0.054107502178202205
849.0, 0.05621603760910445
850.0, 0.056915451172039416
851.0, 0.05766969744476805
852.0, 0.06084608298046788
853.0, 0.061299265365963036
854.0, 0.061392975919431145
855.0, 0.0634868632807552
856.0, 0.06477729754955137
857.0, 0.06730890590767558
858.0, 0.07102062461440364
859.0, 0.07183213533093388
860.0, 0.06973214818450754
861.0, 0.0697386767878335
862.0, 0.07301538988983525
863.0, 0.07270120727136656
864.0, 0.07619281227854373
865.0, 0.07717855249007284
866.0, 0.07726960287699623
867.0, 0.08017093056763401
868.0, 0.08392785267759478
869.0, 0.08505383336683844
870.0, 0.08539566918580903
871.0, 0.08714809763502414
872.0, 0.08875618767994572
873.0, 0.08909378906883185
874.0, 0.09371360012113869
875.0, 0.09551891211308176
876.0, 0.09495577288826439
877.0, 0.09669520953531122
878.0, 0.09799188819833689
879.0, 0.0968916414192165
880.0, 0.10220157236687794
881.0, 0.10083533741286797
882.0, 0.1046495024600717
883.0, 0.10754486027183958
884.0, 0.1077472620024177
885.0, 0.10852653875505898
886.0, 0.1097227320276104
887.0, 0.11172107262921126
888.0, 0.11494091713937774
889.0, 0.11271920020444204
890.0, 0.11539505733022025
891.0, 0.12012724698535172
892.0, 0.12080729310235512
893.0, 0.12018338137154429
894.0, 0.12261368360782969
895.0, 0.12532490621678458
896.0, 0.12483723612109167
897.0, 0.12611526859809685
898.0, 0.1284101925458471
899.0, 0.1290173646414813
900.0, 0.1322855590913684
901.0, 0.13499152711932907
902.0, 0.13575741508234745
903.0, 0.13621754104641823
904.0, 0.13700309654384382
905.0, 0.13796022952218043
906.0, 0.13969288944843478
907.0, 0.13858344838018005
908.0, 0.14238859668509238
909.0, 0.1459559142800991
910.0, 0.1464892256919389
911.0, 0.14676870699871486
912.0, 0.1483502400260364
913.0, 0.1512709004677274
914.0, 0.15398631100838667
915.0, 0.15400501679055026
916.0, 0.15656761270261912
917.0, 0.15596503714362692
918.0, 0.15694662777962948
919.0, 0.15828323822167897
920.0, 0.159244800309433
921.0, 0.1624328098836936
922.0, 0.16393575410033515
923.0, 0.1642442245351272
924.0, 0.16510070805558635
925.0, 0.1671294664296699
926.0, 0.1665387819994464
927.0, 0.16877540831619006
928.0, 0.17070159539996657
929.0, 0.17197457838826125
930.0, 0.17211404720488066
931.0, 0.1728558731198304
932.0, 0.17375879451530685
933.0, 0.17401395074871898
934.0, 0.1772026396626557
935.0, 0.1780991041100346
936.0, 0.17856641270799462
937.0, 0.18021268963776177
938.0, 0.1779055664922585
939.0, 0.17950391239638042
940.0, 0.18379532456890924
941.0, 0.1832152588555533
942.0, 0.180768588287451
943.0, 0.1824722672773046
944.0, 0.18391781236878302
945.0, 0.18379638561144465
946.0, 0.18774110859677037
947.0, 0.1883245420165285
948.0, 0.19086540302204577
949.0, 0.19165058975406604
950.0, 0.1893866915189929
951.0, 0.19047249721155426
952.0, 0.19305857884182775
953.0, 0.19130008119416853
954.0, 0.19241538749820591
955.0, 0.193007783362396
956.0, 0.19436048270412165
957.0, 0.19601062081991463
958.0, 0.19622448260620312
959.0, 0.19625216950997523
960.0, 0.1968085370368853
961.0, 0.19748861775075763
962.0, 0.19818763795044197
963.0, 0.19913949708399475
964.0, 0.1999919416453168
965.0, 0.20162781506651045
966.0, 0.1995680492370447
967.0, 0.20200632828005366
968.0, 0.20021202096761131
969.0, 0.20117711218596143
970.0, 0.20107277816334715
971.0, 0.20320963734062875
972.0, 0.2061431202435326
973.0, 0.20407923586461355
974.0, 0.20401972922369999
975.0, 0.2056302075096547
976.0, 0.20630301727314362
977.0, 0.20392704399218645
978.0, 0.205890231831736
979.0, 0.20788576934155764
980.0, 0.2082568249207321
981.0, 0.20729682090962856
982.0, 0.20811564014035425
983.0, 0.21007120244733732
984.0, 0.2115939131254602
985.0, 0.21177633101061474
986.0, 0.20917077952310795
987.0, 0.20835326913329108
988.0, 0.20900004830457183
989.0, 0.2089218732211152
990.0, 0.2094966652181275
991.0, 0.21262468256136066
992.0, 0.21327044063493467
993.0, 0.2102482804267538
994.0, 0.20915624087565043
995.0, 0.21033788121536615
996.0, 0.21275700990268565
997.0, 0.20865505252692704
998.0, 0.21351828747848503
999.0, 0.2142151242365574
1000.0, 0.21123829974333574
1001.0, 0.21323322643705672
1002.0, 0.21209220941273316
1003.0, 0.21169557960133759
1004.0, 0.21445059830498964
1005.0, 0.21271549671889978
1006.0, 0.209630190788067
1007.0, 0.21222408153025976
1008.0, 0.21149998419104166
1009.0, 0.21368950163952605
1010.0, 0.2120131653347452
1011.0, 0.211892240285315
1012.0, 0.21162319723080375
1013.0, 0.2088954302919615
1014.0, 0.20962922814493273
1015.0, 0.21143982684589657
1016.0, 0.20921868825444176
1017.0, 0.2086020809812087
1018.0, 0.20774960547611315
1019.0, 0.20596950760327795
1020.0, 0.2054697724887247
1021.0, 0.20649805160612333
1022.0, 0.20658883000162495
1023.0, 0.20186498198583663
1024.0, 0.20072315619283004
1025.0, 0.20355497030579664
1026.0, 0.20423061982069732
1027.0, 0.20284791056870338
1028.0, 0.20260639591043664
1029.0, 0.2002794785786719
1030.0, 0.19783535625627144
1031.0, 0.19626376568726445
1032.0, 0.19515044335207551
1033.0, 0.1948991054230723
1034.0, 0.1904319909339255
1035.0, 0.19274288886060256
1036.0, 0.19335500913528758
1037.0, 0.18951064838765247
1038.0, 0.1879807452337279
1039.0, 0.1877290558771747
1040.0, 0.1845013772535603
1041.0, 0.18187376274146505
1042.0, 0.18258821329328
1043.0, 0.18280856701836318
1044.0, 0.18085924892953745
1045.0, 0.17707811202503745
1046.0, 0.17799075352158036
1047.0, 0.17557050753438827
1048.0, 0.1751215678321155
1049.0, 0.17364878592911012
1050.0, 0.16967755378087673
1051.0, 0.1665036473436404
1052.0, 0.1640777589539714
1053.0, 0.1623091100254572
1054.0, 0.16300793887283457
1055.0, 0.1610973305945575
1056.0, 0.15616402662039308
1057.0, 0.1569606853269556
1058.0, 0.1561902368484394
1059.0, 0.15145954066390604
1060.0, 0.1483386387764345
1061.0, 0.14670096127176738
1062.0, 0.1438262328128196
1063.0, 0.14338104861779172
1064.0, 0.14269293877289213
1065.0, 0.13836278781852457
1066.0, 0.13800809207810388
1067.0, 0.1359887621131874
1068.0, 0.13224830173428773
1069.0, 0.12966636695130487
1070.0, 0.1297230763953668
1071.0, 0.12739941536975405
1072.0, 0.12577682064278442
1073.0, 0.1256579744685921
1074.0, 0.12266865322218203
1075.0, 0.11779118339235131
1076.0, 0.11425134262402968
1077.0, 0.11296358447120745
1078.0, 0.11147740364347512
1079.0, 0.10807571014448791
1080.0, 0.10753063916311566
1081.0, 0.10678193090437559
1082.0, 0.10461032761049419
1083.0, 0.10280345894421342
1084.0, 0.0998891986618855
1085.0, 0.09522604512441474
1086.0, 0.09551894100270565
1087.0, 0.09571971396701287
1088.0, 0.09297835262732541
1089.0, 0.08887999140881574
1090.0, 0.08634284679503888
1091.0, 0.08401920712171726
1092.0, 0.08091039893821045
1093.0, 0.08289882197776897
1094.0, 0.07903624066803579
1095.0, 0.07661508270444407
1096.0, 0.0743673720792893
1097.0, 0.07241581167714843
1098.0, 0.07338528795027496
1099.0, 0.07202546559589074
1100.0, 0.0675698949461316
1101.0, 0.06451405357358715
1102.0, 0.06421739762034982
1103.0, 0.06331298212014776
1104.0, 0.06180099803518383
1105.0, 0.06046316119585073
1106.0, 0.05795621751203786
1107.0, 0.057997325970929714
1108.0, 0.058438702558365085
1109.0, 0.05516345974320352
1110.0, 0.05129787916633949
1111.0, 0.05200772941572071
1112.0, 0.05057676287930074
1113.0, 0.0482979959661834
1114.0, 0.04628147585151846
1115.0, 0.045160495336200805
1116.0, 0.04498754898562781
1117.0, 0.04654101637359723
1118.0, 0.04289702271439041
1119.0, 0.03910253127751574
1120.0, 0.04271370818453234
1121.0, 0.036188253801585135
1122.0, 0.03766405781023051
1123.0, 0.03789611832515468
1124.0, 0.03755918395006944
1125.0, 0.034028596332325384
1126.0, 0.033487072742289146
1127.0, 0.03115420616878516
1128.0, 0.03113917586084663
1129.0, 0.030964712792155884
1130.0, 0.031232800328154765
1131.0, 0.03065483632762746
1132.0, 0.030864799443633163
1133.0, 0.0303604486665084
1134.0, 0.02781182527560868
1135.0, 0.026730225771494778
1136.0, 0.025360313506787246
1137.0, 0.025656616462327437
1138.0, 0.024085013617622
1139.0, 0.023810209549336447
1140.0, 0.02362837020094431
1141.0, 0.02303288244570662
1142.0, 0.02161238493560085
1143.0, 0.01806191439782055
1144.0, 0.019937803541459912
1145.0, 0.0182095307353209
1146.0, 0.01647274659895347
1147.0, 0.01580055191145734
1148.0, 0.015823601676181
1149.0, 0.015792153940378927
1150.0, 0.015884355106398546
1151.0, 0.016390392792859355
1152.0, 0.014758175404616297
1153.0, 0.01620183150044694
1154.0, 0.016094200746826194
1155.0, 0.013334750230595539
1156.0, 0.013156055316604492
1157.0, 0.012867159745821392
1158.0, 0.011456973008424763
1159.0, 0.013231377431406847
1160.0, 0.012388027535285397
1161.0, 0.012201798054593023
1162.0, 0.012326185421915022
1163.0, 0.010627405343331195
1164.0, 0.009956592813822595
1165.0, 0.009672696878035908
1166.0, 0.009518913923657136
1167.0, 0.009953957249939306
1168.0, 0.009546692687051371
1169.0, 0.009665316471266965
1170.0, 0.009187539887570696
1171.0, 0.009488303470687813
1172.0, 0.008998788303215958
1173.0, 0.008770443899109205
1174.0, 0.005915008983937001
1175.0, 0.007268347628492976
1176.0, 0.0063708205079418285
1177.0, 0.00690050261679198
1178.0, 0.008051735448717054
1179.0, 0.008693911771577382
1180.0, 0.007608701071044408
1181.0, 0.004883981360201399
1182.0, 0.0037723233813212235
1183.0, 0.004338793902436013
1184.0, 0.005118455191773163
1185.0, 0.004994800084130625
1186.0, 0.003993630384508861
1187.0, 0.003761452108524955
1188.0, 0.0025686720328631186
1189.0, 0.003489858991797004
1190.0, 0.00021060587727988008
1191.0, 0.0009624070410362985
1192.0, 0.0036256083743665497
1193.0, 0.004847749208360125
1194.0, 0.0032349770972338273
1195.0, 0.001875865876908787
1196.0, 0.0033088708060688963
1197.0, 0.0030000306512767685
1198.0, 0.0028799360671125742
1199.0, 0.004061294949250923
1200.0, 0.004898083282768683
1201.0, 0.005661231759483131
1202.0, 0.004867662103938507
1203.0, 0.003877448893298081
1204.0, 0.004350271394892708
1205.0, 0.0035495471483323613
1206.0, 0.004300744804500786
1207.0, 0.0062623909774855045
1208.0, 0.004806245357789269
1209.0, 0.00349600983036321
1210.0, 0.005194186829581297
1211.0, 0.003639616659048801
1212.0, 0.0046999940500833046
1213.0, 0.003450924473434663
1214.0, 0.0036149639165082826
1215.0, 0.004743971311126551
1216.0, 0.0021983803031961303
1217.0, 0.002677316673521344
1218.0, 0.0044240589046632625
1219.0, 0.004624277828268161
1220.0, 0.004731059417594156
1221.0, 0.004880854340163223
1222.0, 0.003940175998873695
1223.0, 0.005057496785941622
1224.0, 0.004676471528233056
1225.0, 0.0032669964006976234
1226.0, 0.005077414106481453
1227.0, 0.00414149117088786
1228.0, 0.0025266898582795606
1229.0, 0.006170088431598743
1230.0, 0.007889896210457943
1231.0, 0.008491770701999034
1232.0, 0.009234851694980124
1233.0, 0.004365287999725936
1234.0, 0.005291833443721182
1235.0, 0.009095424027872591
1236.0, 0.008323063067783725
1237.0, 0.008889610811605487
1238.0, 0.00978564457918089
1239.0, 0.008947893828904466
1240.0, 0.007747530083747825
1241.0, 0.007996067012421662
1242.0, 0.007862685554963143
1243.0, 0.006345695864718914
1244.0, 0.007470749342549513
1245.0, 0.01037064455322066
1246.0, 0.010401537061770084
1247.0, 0.009883775369701338
1248.0, 0.009052880882423685
1249.0, 0.008307740997899382
1250.0, 0.012054915898304184
1251.0, 0.012503469629782882
1252.0, 0.011451718343416495
1253.0, 0.010555674298512339
1254.0, 0.010943203963447551
1255.0, 0.01082959194718595
1256.0, 0.011906515837643144
1257.0, 0.013815377792476649
1258.0, 0.01484363167935238
1259.0, 0.01446619049733391
1260.0, 0.015650970386202136
1261.0, 0.013820640355802646
1262.0, 0.01484882672633726
1263.0, 0.019355764865531675
1264.0, 0.018858692863812483
1265.0, 0.017723704634775333
1266.0, 0.017753763252282596
1267.0, 0.016827989749875077
1268.0, 0.01846995175874071
1269.0, 0.019410678941280235
1270.0, 0.019221659570093627
1271.0, 0.021342899384987006
1272.0, 0.022949183932286826
1273.0, 0.02214573947662103
1274.0, 0.025696900593802346
1275.0, 0.0264900091969563
1276.0, 0.023600144231005107
1277.0, 0.023765017136898985
1278.0, 0.023184373037397118
1279.0, 0.02593064873176555
1280.0, 0.025547189602752093
1281.0, 0.026789345915882553
1282.0, 0.026385875875433756
1283.0, 0.025168549113554997
1284.0, 0.028746671661007032
1285.0, 0.028532221491780557
1286, 0.0
1287, 0.0
1288, 0.0
1289, 0.0
1290, 0.0
1291, 0.0
1292, 0.0
1293, 0.0
1294, 0.0
1295, 0.0
1296, 0.0
1297, 0.0
1298, 0.0
1299, 0.0
1300, 0.0
1301, 0.0
1302, 0.0
1303, 0.0
1304, 0.0
1305, 0.0
1306, 0.0
1307, 0.0
1308, 0.0
1309, 0.0
1310, 0.0
1311, 0.0
1312, 0.0
1313, 0.0
1314, 0.0
1315, 0.0
1316, 0.0
1317, 0.0
1318, 0.0
1319, 0.0
1320, 0.0
1321, 0.0
1322, 0.0
1323, 0.0
1324, 0.0
1325, 0.0
1326, 0.0
1327, 0.0
1328, 0.0
1329, 0.0
1330, 0.0
1331, 0.0
1332, 0.0
1333, 0.0
1334, 0.0
1335, 0.0
1336, 0.0
1337, 0.0
1338, 0.0
1339, 0.0
1340, 0.0
1341, 0.0
1342, 0.0
1343, 0.0
1344, 0.0
1345, 0.0
1346, 0.0
1347, 0.0
1348, 0.0
1349, 0.0
1350, 0.0
1351, 0.0
1352, 0.0
1353, 0.0
1354, 0.0
1355, 0.0
1356, 0.0
1357, 0.0
1358, 0.0
1359, 0.0
1360, 0.0
1361, 0.0
1362, 0.0
1363, 0.0
1364, 0.0
1365, 0.0
1366, 0.0
1367, 0.0
1368, 0.0
1369, 0.0
1370, 0.0
1371, 0.0
1372, 0.0
1373, 0.0
1374, 0.0
1375, 0.0
1376, 0.0
1377, 0.0
1378, 0.0
1379, 0.0
1380, 0.0
1381, 0.0
1382, 0.0
1383, 0.0
1384, 0.0
1385, 0.0
1386, 0.0
1387, 0.0
1388, 0.0
1389, 0.0
1390, 0.0
1391, 0.0
1392, 0.0
1393, 0.0
1394, 0.0
1395, 0.0
1396, 0.0
1397, 0.0
1398, 0.0
1399, 0.0
1400, 0.0
1401, 0.0
1402, 0.0
1403, 0.0
1404, 0.0
1405, 0.0
1406, 0.0
1407, 0.0
1408, 0.0
1409, 0.0
1410, 0.0
1411, 0.0
1412, 0.0
1413, 0.0
1414, 0.0
1415, 0.0
1416, 0.0
1417, 0.0
1418, 0.0
1419, 0.0
1420, 0.0
1421, 0.0
1422, 0.0
1423, 0.0
1424, 0.0
1425, 0.0
1426, 0.0
1427, 0.0
1428, 0.0
1429, 0.0
1430, 0.0
1431, 0.0
1432, 0.0
1433, 0.0
1434, 0.0
1435, 0.0
1436, 0.0
1437, 0.0
1438, 0.0
1439, 0.0
1440, 0.0
1441, 0.0
1442, 0.0
1443, 0.0
1444, 0.0
1445, 0.0
1446, 0.0
1447, 0.0
1448, 0.0
1449, 0.0
1450, 0.0
1451, 0.0
1452, 0.0
1453, 0.0
1454, 0.0
1455, 0.0
1456, 0.0
1457, 0.0
1458, 0.0
1459, 0.0
1460, 0.0
1461, 0.0
1462, 0.0
1463, 0.0
1464, 0.0
1465, 0.0
1466, 0.0
1467, 0.0
1468, 0.0
1469, 0.0
1470, 0.0
1471, 0.0
1472, 0.0
1473, 0.0
1474, 0.0
1475, 0.0
1476, 0.0
1477, 0.0
1478, 0.0
1479, 0.0
1480, 0.0
1481, 0.0
1482, 0.0
1483, 0.0
1484, 0.0
1485, 0.0
1486, 0.0
1487, 0.0
1488, 0.0
1489, 0.0
1490, 0.0
1491, 0.0
1492, 0.0
1493, 0.0
1494, 0.0
1495, 0.0
1496, 0.0
1497, 0.0
1498, 0.0
1499, 0.0
1500, 0.0
1501, 0.0
1502, 0.0
1503, 0.0
1504, 0.0
1505, 0.0
1506, 0.0
1507, 0.0
1508, 0.0
1509, 0.0
1510, 0.0
1511, 0.0
1512, 0.0
1513, 0.0
1514, 0.0
1515, 0.0
1516, 0.0
1517, 0.0
1518, 0.0
1519, 0.0
1520, 0.0
1521, 0.0
1522, 0.0
1523, 0.0
1524, 0.0
1525, 0.0
1526, 0.0
1527, 0.0
1528, 0.0
1529, 0.0
1530, 0.0
1531, 0.0
1532, 0.0
1533, 0.0
1534, 0.0
1535, 0.0
1536, 0.0
1537, 0.0
1538, 0.0
1539, 0.0
1540, 0.0
1541, 0.0
1542, 0.0
1543, 0.0
1544, 0.0
1545, 0.0
1546, 0.0
1547, 0.0
1548, 0.0
1549, 0.0
1550, 0.0
1551, 0.0
1552, 0.0
1553, 0.0
1554, 0.0
1555, 0.0
1556, 0.0
1557, 0.0
1558, 0.0
1559, 0.0
1560, 0.0
1561, 0.0
1562, 0.0
1563, 0.0
1564, 0.0
1565, 0.0
1566, 0.0
1567, 0.0
1568, 0.0
1569, 0.0
1570, 0.0
1571, 0.0
1572, 0.0
1573, 0.0
1574, 0.0
1575, 0.0
1576, 0.0
1577, 0.0
1578, 0.0
1579, 0.0
1580, 0.0
1581, 0.0
1582, 0.0
1583, 0.0
1584, 0.0
1585, 0.0
1586, 0.0
1587, 0.0
1588, 0.0
1589, 0.0
1590, 0.0
1591, 0.0
1592, 0.0
1593, 0.0
1594, 0.0
1595, 0.0
1596, 0.0
1597, 0.0
1598, 0.0
1599, 0.0
