30, 0.0
31, 0.0
32, 0.0
33, 0.0
34, 0.0
35, 0.0
36, 0.0
37, 0.0
38, 0.0
39, 0.0
40, 0.0
41, 0.0
42, 0.0
43, 0.0
44, 0.0
45, 0.0
46, 0.0
47, 0.0
48, 0.0
49, 0.0
50, 0.0
51, 0.0
52, 0.0
53, 0.0
54, 0.0
55, 0.0
56, 0.0
57, 0.0
58, 0.0
59, 0.0
60, 0.0
61.0, 0.000126561952751706
62.0, 0.0003024078204808448
63.0, 0.00026027938527495813
64.0, 0.0023373141924984573
65.0, 0.003354697779896963
66.0, 0.0013765675892567454
67.0, 0.0013401018605570662
68.0, 0.0023558944380067323
69.0, 0.0038411855926415695
70.0, 0.0036407580298692594
71.0, 0.00460064652413376
72.0, 0.00593282472585084
73.0, 0.007237869401312412
74.0, 0.008496020918020921
75.0, 0.007102973126588397
76.0, 0.0038188538129831024
77.0, 0.002522717726656282
78.0, 0.0020447337171993615
79.0, 0.002340259399571616
80.0, 0.0035835125583468805
81.0, 0.0040755396113402505
82.0, 0.0026730625957870394
83.0, 0.0001243882936164133
84.0, 0.0003752803979789692
85.0, 0.001107551775206092
86.0, 0.001356389700555146
87.0, 0.00030864489637081834
88.0, 0.0002874296144755694
89.0, 0.0009339970095494955
90.0, 0.0018081531971819846
91.0, 0.0008702990880861119
92.0, 0.0020529978454274576
93.0, 0.0036872938758965653
94.0, 0.0047342402651736875
95.0, 0.0053633748519889245
96.0, 0.005413213523856761
97.0, 0.005216841964387386
98.0, 0.006335197168098307
99.0, 0.006934077049741412
100.0, 0.00817985799122867
101.0, 0.010969030389977373
102.0, 0.012907599337525269
103.0, 0.013385953643363513
104.0, 0.013114776554862798
105.0, 0.014941634664831772
106.0, 0.015068637927487125
107.0, 0.019158658754174027
108.0, 0.031145047103538392
109.0, 0.033320485650321766
110.0, 0.033225950890261945
111.0, 0.03374138833350419
112.0, 0.04398657611098925
113.0, 0.03476067831008606
114.0, 0.02401743677099282
115.0, 0.019649957111766054
116.0, 0.019964835364756406
117.0, 0.020220451411654485
118.0, 0.02009437689756604
119.0, 0.01874594721055864
120.0, 0.019152381449489074
121.0, 0.01872519544728498
122.0, 0.01657147118734131
123.0, 0.01888800536277003
124.0, 0.018763735259318483
125.0, 0.01787141988425099
126.0, 0.019352627273292965
127.0, 0.018746519425616025
128.0, 0.017681457790494185
129.0, 0.016574656502237734
130.0, 0.015913659379170362
131.0, 0.014994262291703914
132.0, 0.014912086719807066
133.0, 0.01751074036426918
134.0, 0.01536411863420814
135.0, 0.01506420299010051
136.0, 0.017089342594430134
137.0, 0.015171067451203864
138.0, 0.014177186137668012
139.0, 0.014173939830586782
140.0, 0.015502067834340591
141.0, 0.016812473836998194
142.0, 0.017012590309514297
143.0, 0.016187397809658215
144.0, 0.015170175274541337
145.0, 0.014444397489513266
146.0, 0.013749236504657241
147.0, 0.012929951650043894
148.0, 0.013291177471772149
149.0, 0.014546994664080338
150.0, 0.016561147454578328
151.0, 0.01914961357156341
152.0, 0.019685239474466983
153.0, 0.019072305264951246
154.0, 0.01755783656760676
155.0, 0.01642229705530947
156.0, 0.0183451111827491
157.0, 0.02196188519404985
158.0, 0.02533456673753627
159.0, 0.028315257483730198
160.0, 0.028085272597882717
161.0, 0.024592543214324004
162.0, 0.024279750437080517
163.0, 0.023534544961642093
164.0, 0.023470147756119088
165.0, 0.025361711278495555
166.0, 0.02624367292162658
167.0, 0.029983098598320365
168.0, 0.037249417410632736
169.0, 0.05005047554901434
170.0, 0.055511308533158915
171.0, 0.05734231487638606
172.0, 0.05694269146450993
173.0, 0.050433219267076425
174.0, 0.039473351313911186
175.0, 0.02777711248846339
176.0, 0.02348631391733113
177.0, 0.01692226954871412
178.0, 0.011772936125204648
179.0, 0.009041879536972799
180.0, 0.008591108145175302
181.0, 0.010157759766292315
182.0, 0.01087600595422849
183.0, 0.007439912513199595
184.0, 0.0070117883846983154
185.0, 0.007474193007402611
186.0, 0.008487829928854027
187.0, 0.009555420490534398
188.0, 0.008395661965103449
189.0, 0.007872116806080366
190.0, 0.009445932820649944
191.0, 0.006702208646988212
192.0, 0.006483752609153521
193.0, 0.007312597449211299
194.0, 0.006539180059270795
195.0, 0.0056758664963799995
196.0, 0.0058782958355946754
197.0, 0.0072398998183431955
198.0, 0.00825561195885168
199.0, 0.01070886705391652
200.0, 0.01288985404509022
201.0, 0.013345293675819847
202.0, 0.014115938711290422
203.0, 0.013765757813332745
204.0, 0.012439642842738234
205.0, 0.010594955419943205
206.0, 0.007012390612370462
207.0, 0.003939004468132349
208.0, 0.002199599874514435
209.0, 0.002825062384284455
210.0, 0.0036093369933908005
211.0, 0.003483208523157855
212.0, 0.0009732630368651778
213.0, 0.0018391626764763
214.0, 0.0016656733446319882
215.0, 0.0010900006538728383
216.0, 0.004612755012913471
217.0, 0.00323992897036975
218.0, 0.002206844368371956
219.0, 0.0036891379940249967
220.0, 0.0033804228940541407
221.0, 0.003909184999027583
222.0, 0.005139454517067602
223.0, 0.0070310066804986845
224.0, 0.00799626394801286
225.0, 0.009430083876759504
226.0, 0.011426910252914774
227.0, 0.01355622602262849
228.0, 0.013294632299332575
229.0, 0.011916842976588507
230.0, 0.009972941308878179
231.0, 0.010462024055614055
232.0, 0.011891984764761004
233.0, 0.014051172455934156
234.0, 0.016754168904463813
235.0, 0.019250616262184623
236.0, 0.021910069423326725
237.0, 0.024993547229891923
238.0, 0.029611399436844734
239.0, 0.03028973368819896
240.0, 0.02977131525426059
241.0, 0.02925681960204546
242.0, 0.026222858042530214
243.0, 0.023258701773661152
244.0, 0.020199223821402518
245.0, 0.01677260689305173
246.0, 0.015143479456914334
247.0, 0.013692737334224447
248.0, 0.012216439859463976
249.0, 0.010764125093058343
250.0, 0.011097775342303095
251.0, 0.010547782082149034
252.0, 0.008086813219987495
253.0, 0.009735826091088797
254.0, 0.009591500791237346
255.0, 0.0075358414155575135
256.0, 0.003040630553220682
257.0, 0.004466066270957446
258.0, 0.004846102866778704
259.0, 0.004138247287640756
260.0, 0.004440895276533919
261.0, 0.0032631460586220124
262.0, 0.0019408853005632239
263.0, 0.0010863994045437189
264.0, 0.0029606571286935617
265.0, 0.0025089823111167633
266.0, 0.0022027097935195007
267.0, 0.004318410562058002
268.0, 0.001574282065601514
269.0, 0.001583579412420177
270.0, 0.0028896535416390455
271.0, 0.0012856427176080939
272.0, 0.0042186798973020455
273.0, 0.005830876461684979
274.0, 0.005203601017186292
275.0, 0.0050966495717719665
276.0, 0.005231518996440009
277.0, 0.0046648145900516115
278.0, 0.0027948211593779074
279.0, 0.0008149025388716802
280.0, 0.0003380415733954707
281.0, 0.0005037478008982121
282.0, 0.00014154368909752963
283.0, 0.0024381543979336115
284.0, 0.0026885346795710125
285.0, 0.0011319060351643515
286.0, 0.0003798639401575266
287.0, 0.0024470118105145797
288.0, 0.002697511121826516
289.0, 0.000161129745381244
290.0, 0.0021941440008656212
291.0, 0.0026951515448528996
292.0, 0.00198404368311184
293.0, 0.00015474914197018737
294.0, 0.0018955040365216287
295.0, 0.00221359700816788
296.0, 0.0014865751729404334
297.0, 0.0004517679104481763
298.0, 0.0028824931240091023
299.0, 0.003956680752750028
300.0, 0.003574762171282245
301.0, 0.004294092302996779
302.0, 0.008905443734059298
303.0, 0.011970816968863216
304.0, 0.0119645590880815
305.0, 0.016475877963084713
306.0, 0.021953894112038946
307.0, 0.027793254505982967
308.0, 0.03354544134036624
309.0, 0.038916306277575745
310.0, 0.04859516717140531
311.0, 0.05955038393269199
312.0, 0.06635121685643627
313.0, 0.07022951060194799
314.0, 0.06899503270312761
315.0, 0.06305377576169975
316.0, 0.054719812771468
317.0, 0.04378776508831913
318.0, 0.03316614717757915
319.0, 0.024339440567650993
320.0, 0.022287996806777764
321.0, 0.019144277579747543
322.0, 0.015570420489369515
323.0, 0.011976949952043478
324.0, 0.009959617441493372
325.0, 0.009247568533455298
326.0, 0.008603546303298532
327.0, 0.006327855871125209
328.0, 0.0058007026984508315
329.0, 0.004856885271298564
330.0, 0.0037469765509317546
331.0, 0.003629141660094879
332.0, 0.00886758494982213
333.0, 0.01180746708476207
334.0, 0.011179320794486839
335.0, 0.00934046551100217
336.0, 0.009521122679294157
337.0, 0.009412502557819929
338.0, 0.008196703043014331
339.0, 0.009002249235936663
340.0, 0.008510251245180418
341.0, 0.0075826342718611625
342.0, 0.006879710857236834
343.0, 0.005582735307306315
344.0, 0.005393912732244139
345.0, 0.005379440989732486
346.0, 0.004090324030715076
347.0, 0.003948922098097939
348.0, 0.004620620588399046
349.0, 0.005518987736067582
350.0, 0.005156477046867524
351.0, 0.00627516128085364
352.0, 0.007019712561206468
353.0, 0.007407669306608286
354.0, 0.009587894013475222
355.0, 0.011598955760854358
356.0, 0.013087254380051165
357.0, 0.014714988619854614
358.0, 0.02571627546060647
359.0, 0.034672698571054046
360.0, 0.04350518642130636
361.0, 0.05340977744076371
362.0, 0.05857787649854722
363.0, 0.057366864307179556
364.0, 0.05185445122007898
365.0, 0.04401740836916335
366.0, 0.03339264109932965
367.0, 0.025520704718523562
368.0, 0.019481905929841715
369.0, 0.013190696966965945
370.0, 0.013606901547977649
371.0, 0.014020754520316769
372.0, 0.0132111605184631
373.0, 0.0100075431282588
374.0, 0.016289335827531098
375.0, 0.020289523756586714
376.0, 0.021873815768599234
377.0, 0.03496616021044004
378.0, 0.04154984818169502
379.0, 0.04447983391602906
380.0, 0.044773163189802304
381.0, 0.04305764238796948
382.0, 0.03960067259186751
383.0, 0.034873466980523835
384.0, 0.029104547421605297
385.0, 0.02290562077681638
386.0, 0.01909761223643415
387.0, 0.015834739097528874
388.0, 0.011476388704930923
389.0, 0.007041146623266375
390.0, 0.005558425145869432
391.0, 0.004775348956649892
392.0, 0.0015906574933485722
393.0, 0.00043530620130055315
394.0, 7.40135645714256e-05
395.0, 0.00030594791796841736
396.0, 0.0009569127631710501
397.0, 0.00042204452939907807
398.0, 0.0013457366595397591
399.0, 0.0027596814479992713
400.0, 0.0009099820819361662
401.0, 0.0023555425356624766
402.0, 0.002091255744390188
403.0, 0.00023084335170919117
404.0, 0.0015955527875981617
405.0, 0.0030649433719986564
406.0, 0.002651890186058559
407.0, 0.0005930310056547184
408.0, 0.0023841872851818454
409.0, 0.0025516067261203037
410.0, 0.003072975955256571
411.0, 0.004388339073490804
412.0, 0.002431353957229248
413.0, 0.00228654541614092
414.0, 0.0031250029008785536
415.0, 0.004453925039893881
416.0, 0.005055715575991418
417.0, 0.0049615867343119945
418.0, 0.0053398549005991315
419.0, 0.007065377680033854
420.0, 0.008537859420851382
421.0, 0.011297056350500736
422.0, 0.015012067238312676
423.0, 0.01940138112942165
424.0, 0.024239816638007693
425.0, 0.03091818608819833
426.0, 0.03942826433249677
427.0, 0.04983697525494601
428.0, 0.0652299733068645
429.0, 0.08141959523586764
430.0, 0.09662824046771017
431.0, 0.10824775557157615
432.0, 0.11035881408192148
433.0, 0.10730022355621613
434.0, 0.09842424424342845
435.0, 0.08132749335428202
436.0, 0.07024179467662466
437.0, 0.05783327519240024
438.0, 0.045090377211974036
439.0, 0.03644508343630856
440.0, 0.032026584194544724
441.0, 0.02615228861913509
442.0, 0.01959410322497266
443.0, 0.01708175420331079
444.0, 0.013308905297401748
445.0, 0.013097959855818388
446.0, 0.015940150416518018
447.0, 0.017014572648239877
448.0, 0.013397759867397467
449.0, 0.011372350701199109
450.0, 0.01167346409436951
451.0, 0.011471318673865718
452.0, 0.013732479770160021
453.0, 0.015799997272691137
454.0, 0.01684901311194318
455.0, 0.01636787548844699
456.0, 0.015557206999994844
457.0, 0.017146033899930874
458.0, 0.021381144564666603
459.0, 0.024900196877981697
460.0, 0.029445195255159148
461.0, 0.03555901480212788
462.0, 0.04304069523379413
463.0, 0.049372558979449824
464.0, 0.0630605243422908
465.0, 0.07834394178289592
466.0, 0.09388403767655829
467.0, 0.11499296573222262
468.0, 0.1282275555938557
469.0, 0.13837620085710411
470.0, 0.14560056167641267
471.0, 0.13736007268430453
472.0, 0.12148478988699213
473.0, 0.10524230212723028
474.0, 0.09114522960595264
475.0, 0.07452605476144894
476.0, 0.06324941486939524
477.0, 0.053845573174139405
478.0, 0.04449321167010804
479.0, 0.032603518781207104
480.0, 0.02781685706763539
481.0, 0.025248008331380745
482.0, 0.022405491324312656
483.0, 0.016723067989083646
484.0, 0.013275928272422959
485.0, 0.012586085696161299
486.0, 0.014018347125621838
487.0, 0.009748238402964725
488.0, 0.011303066914352377
489.0, 0.012712250367089816
490.0, 0.011539211214403924
491.0, 0.010023726153348973
492.0, 0.008050801032116547
493.0, 0.007171193597161963
494.0, 0.008149027352460893
495.0, 0.011404737848646936
496.0, 0.01527343610162226
497.0, 0.01837408313864941
498.0, 0.020968772736852256
499.0, 0.02909702300863848
500.0, 0.03367025699958319
501.0, 0.035762943207299405
502.0, 0.03529096502533867
503.0, 0.029258411601852607
504.0, 0.02697659595524303
505.0, 0.023971343266314272
506.0, 0.019340328443952164
507.0, 0.017447533811177723
508.0, 0.013832275904988992
509.0, 0.010166505408112543
510.0, 0.006984084948296514
511.0, 0.0041426895340438
512.0, 0.0031035272832487942
513.0, 0.0022819955578156654
514.0, 0.0016188912350885605
515.0, 0.0029441231223598036
516.0, 0.001825520461200393
517.0, 0.000837157978067238
518.0, 0.0004986386007764602
519.0, 0.0002172275207450698
520.0, 0.00027149015797532227
521.0, 0.0003228655073884212
522.0, 0.0003867078408382776
523.0, 0.0007574096849851528
524.0, 0.0003188950532789527
525.0, 0.0010892552663906456
526.0, 0.002765251616995641
527.0, 0.0035368848723211256
528.0, 0.0017386544254611455
529.0, 0.0006415692471758029
530.0, 0.0008456252751537712
531.0, 0.0026358763250234904
532.0, 0.0028077323642055354
533.0, 0.0029597499676379275
534.0, 0.003588818263283922
535.0, 0.005293361871017504
536.0, 0.0033813008094886795
537.0, 0.0037596853611529956
538.0, 0.004856122250696074
539.0, 0.0036350340109217805
540.0, 0.004674084286422023
541.0, 0.004090720801040674
542.0, 0.004016977956425701
543.0, 0.0072334393103842855
544.0, 0.003710003912568584
545.0, 0.00513928230247421
546.0, 0.007584552355952131
547.0, 0.007229466459021824
548.0, 0.010949108899024956
549.0, 0.011597193137002868
550.0, 0.011389462123199775
551.0, 0.012029937615645834
552.0, 0.013548045919556955
553.0, 0.018561658586034674
554.0, 0.025633212552840852
555.0, 0.03404606190599585
556.0, 0.04483369522807978
557.0, 0.05590357547658915
558.0, 0.07102915195440856
559.0, 0.09080822642548382
560.0, 0.10848776183864775
561.0, 0.13086584758877723
562.0, 0.14567336120033333
563.0, 0.14891854993410564
564.0, 0.14073844688874643
565.0, 0.11746156914150638
566.0, 0.09585027318839383
567.0, 0.07865127774755025
568.0, 0.06274353702554056
569.0, 0.051554089571352775
570.0, 0.038501078222266685
571.0, 0.027310391388331853
572.0, 0.027686520550998663
573.0, 0.022978270759803198
574.0, 0.017087153859081782
575.0, 0.011441523813971568
576.0, 0.007618015775897345
577.0, 0.004446792103635172
578.0, 0.0030244507686386455
579.0, 0.0032220189201145424
580.0, 0.004746009954986777
581.0, 0.0029864717995968753
582.0, 0.0025814652020207064
583.0, 0.0023797730181459656
584.0, 0.0015951743279254288
585.0, 0.0008639922355566665
586.0, 0.0008544071484310534
587.0, 0.0015602288349580878
588.0, 0.002733411676386803
589.0, 0.002804863551295266
590.0, 0.0012563021857385735
591.0, 0.00024305683956706334
592.0, 0.0005812821298152762
593.0, 0.0027330492002380895
594.0, 0.0016040383142123763
595.0, 0.001050069182479562
596.0, 0.001666476921688116
597.0, 0.003059736581414185
598.0, 0.0023699154236239673
599.0, 0.001398407136669726
600.0, 0.0007381903968463947
601.0, 0.001002842516802158
602.0, 0.0018339915973641975
603.0, 0.0012592986780866652
604.0, 0.0017609329123830487
605.0, 0.005517662122963026
606.0, 0.002588236344691521
607.0, 0.001437813865326589
608.0, 0.0022646842774910374
609.0, 0.0044565883110193666
610.0, 0.0015817759271043418
611.0, 0.000678556631388148
612.0, 0.002172323779203905
613.0, 0.005691724885014944
614.0, 0.0088485922802477
615.0, 0.003466548294152858
616.0, 0.0015149738704813638
617.0, 0.003136480022907198
618.0, 0.0018213515176618961
619.0, 0.007100083123872525
620.0, 0.007033512415897916
621.0, 0.0057696661522243205
622.0, 0.01147181701313113
623.0, 0.009283395255856402
624.0, 0.006227363834181728
625.0, 0.006025733110155221
626.0, 0.011110062020380562
627.0, 0.007310875467443314
628.0, 0.008889056172228783
629.0, 0.010554986270241352
630.0, 0.010523643759471174
631.0, 0.015822659926502464
632.0, 0.016712357455319276
633.0, 0.013546208824022302
634.0, 0.009946260959866568
635.0, 0.01709381720212084
636.0, 0.016828905962499224
637.0, 0.01578245418395646
638.0, 0.015602706042176295
639.0, 0.017416297664612133
640.0, 0.017754659017651366
641.0, 0.01823863268071982
642.0, 0.019418243579867614
643.0, 0.02178333283261438
644.0, 0.02609177542170657
645.0, 0.02828822136484896
646.0, 0.02802210792798767
647.0, 0.027225971355198865
648.0, 0.03927411939213709
649.0, 0.03724503663445176
650.0, 0.03841623898092162
651.0, 0.044790296918917775
652.0, 0.047166511570960745
653.0, 0.04865678384618141
654.0, 0.05527287847234134
655.0, 0.061998389569894535
656.0, 0.059965423393581824
657.0, 0.07398748025630075
658.0, 0.08110272735425363
659.0, 0.08905825796313423
660.0, 0.10377900983288081
661.0, 0.11210237844427284
662.0, 0.12861108156784323
663.0, 0.1494594055120454
664.0, 0.17345526318703172
665.0, 0.20293535407982413
666.0, 0.2427979668742186
667.0, 0.2926948204879421
668.0, 0.3515630067413623
669.0, 0.4172156056566989
670.0, 0.5230608345261103
671.0, 0.6392605055973675
672.0, 0.7547438168963946
673.0, 0.8603935369447189
674.0, 0.970841688096048
675.0, 0.9929866410098839
676.0, 0.9640957486748819
677.0, 0.9013013309182443
678.0, 0.7816082692357837
679.0, 0.6690437871188534
680.0, 0.5677571023677833
681.0, 0.47841596947899634
682.0, 0.3999499784574263
683.0, 0.34328719261612917
684.0, 0.29860620624227574
685.0, 0.26179199791883595
686.0, 0.22910513558744294
687.0, 0.21478144472466293
688.0, 0.1888701477590165
689.0, 0.1684081971490494
690.0, 0.1602015482103308
691.0, 0.1471013618820318
692.0, 0.14038738421732336
693.0, 0.13596242509571058
694.0, 0.13362016655884418
695.0, 0.13526621116189178
696.0, 0.13896438560304566
697.0, 0.14393297731630333
698.0, 0.148137231187646
699.0, 0.15037113904854854
700.0, 0.17158488594258195
701.0, 0.17908298409373372
702.0, 0.18934972620244575
703.0, 0.20740166719510256
704.0, 0.21633075550467398
705.0, 0.21248174450756543
706.0, 0.21274669388734105
707.0, 0.21100491176912886
708.0, 0.1887867054606447
709.0, 0.1812116229275527
710.0, 0.16154158309665503
711.0, 0.13683010299892143
712.0, 0.1149857179538232
713.0, 0.1002829629042804
714.0, 0.08204942293776697
715.0, 0.07213012202843241
716.0, 0.07019983892850422
717.0, 0.05967916211758045
718.0, 0.05405282890595962
719.0, 0.0519557159131823
720.0, 0.05058567428862748
721.0, 0.04637637968366054
722.0, 0.04467147075232905
723.0, 0.048779679818262756
724.0, 0.052192055768231466
725.0, 0.052263988098056546
726.0, 0.05758662581131606
727.0, 0.05759940578578452
728.0, 0.05844928109115112
729.0, 0.06211874401630063
730.0, 0.06948465970994032
731.0, 0.06467822486567137
732.0, 0.06173471311445043
733.0, 0.05978481312315778
734.0, 0.056931037249471676
735.0, 0.04813642909977525
736.0, 0.041192177269165395
737.0, 0.03600964014393561
738.0, 0.03277774095226202
739.0, 0.0321577406085239
740.0, 0.025951080805437673
741.0, 0.02441661934391842
742.0, 0.02593114363433051
743.0, 0.026803220916685272
744.0, 0.01778204181628005
745.0, 0.019336719390349262
746.0, 0.02034481699819576
747.0, 0.017954683797966123
748.0, 0.022310913839474544
749.0, 0.022489932141367675
750.0, 0.01840627740741791
751.0, 0.01571576106725279
752.0, 0.022158952858863983
753.0, 0.023557502324815384
754.0, 0.022696711427745438
755.0, 0.023314180962302398
756.0, 0.026536626895764047
757.0, 0.027116477810087834
758.0, 0.03512110674136477
759.0, 0.04188978410825501
760.0, 0.04564400304106285
761.0, 0.04648171943672418
762.0, 0.05870184802766045
763.0, 0.06404466126313776
764.0, 0.06464424985879284
765.0, 0.06164762275725287
766.0, 0.051878054229712874
767.0, 0.05052104308985476
768.0, 0.043701177016803025
769.0, 0.03313167503011711
770.0, 0.02737957696008137
771.0, 0.023678836230301533
772.0, 0.015862993649482557
773.0, 0.01344307497505053
774.0, 0.02032066670895837
775.0, 0.02137907494011851
776.0, 0.010566823904902236
777.0, 0.008479632042507434
778.0, 0.013688719541967426
779.0, 0.015259704222498342
780.0, 0.011691186555131003
781.0, 0.01031401290323907
782.0, 0.009943963954378344
783.0, 0.010239037165653348
784.0, 0.014307476731591858
785.0, 0.015691503523115533
786.0, 0.014869830584361752
787.0, 0.013955387520962061
788.0, 0.016142633025112717
789.0, 0.012175602772051573
790.0, 0.008453359653650367
791.0, 0.008821429288607966
792.0, 0.013387793824612606
793.0, 0.012433588826560314
794.0, 0.010096382788602075
795.0, 0.009386405937339944
796.0, 0.011999776629183093
797.0, 0.01884520514753409
798.0, 0.008670865944726915
799.0, 0.004371412677461456
800.0, 0.005707019272709101
801.0, 0.009315337681261089
802.0, 0.004005727156235161
803.0, 0.01078463534657429
804.0, 0.01260010525025602
805.0, 0.008730553985156207
806.0, 0.0021066205689011623
807.0, 0.007467767187689985
808.0, 0.006021396303667057
809.0, 0.008194317465769665
810.0, 0.014140866509773444
811.0, 0.013228801375961274
812.0, 0.003884770874474303
813.0, 0.01067269739813728
814.0, 0.015482345883168578
815.0, 0.0046138117946719764
816.0, 0.009806659247544891
817.0, 0.014822025090101408
818.0, 0.012029115928701477
819.0, 0.006093826565267885
820.0, 0.009628007870327705
821.0, 0.005697142008254143
822.0, 0.006204635689126978
823.0, 0.009204917196165622
824.0, 0.0115779478322708
825.0, 0.00595779839322327
826.0, 0.010086110472114537
827.0, 0.007610552605384734
828.0, 0.001984157661276417
829.0, 0.001433469949162219
830.0, 0.01034493516595668
831.0, 0.008234390742884016
832.0, 0.0060604829194152695
833.0, 0.00664643898912119
834.0, 0.005139953180448595
835.0, 0.006974207264089037
836.0, 0.005571522316398049
837.0, 0.0035345738478778097
838.0, 0.0032653113974133933
839.0, 0.003429953403845703
840.0, 0.0019617469411812045
841.0, 0.0018204235975056468
842.0, 0.003987200610507088
843.0, 0.008607285378347146
844.0, 0.007573462324782691
845.0, 0.008446567385997748
846.0, 0.006677032722973281
847.0, 0.003293437506942171
848.0, 0.00875945900510324
849.0, 0.0067858253295388455
850.0, 0.003008987383114169
851.0, 0.0062501826675303036
852.0, 0.020064865664173676
853.0, 0.014704437417019278
854.0, 0.006631465741571845
855.0, 0.00520317740726781
856.0, 0.006681484901013611
857.0, 0.0012037307351118916
858.0, 0.006145760594654736
859.0, 0.010391412171842942
860.0, 0.011098683839923216
861.0, 0.008473759253243287
862.0, 0.007472620577430032
863.0, 0.00828054770119478
864.0, 0.010144780151466068
865.0, 0.012323623103822946
866.0, 0.01326705386411646
867.0, 0.006673773401720191
868.0, 0.01617289475528131
869.0, 0.016345764072871773
870.0, 0.011780128403344702
871.0, 0.01750608645215914
872.0, 0.02519634493982994
873.0, 0.03459077861353815
874.0, 0.04128012670019651
875.0, 0.044397889265047244
876.0, 0.04661464991404519
877.0, 0.04765888843929607
878.0, 0.04350244856189383
879.0, 0.03876544888231853
880.0, 0.03488106555825725
881.0, 0.0220353551908146
882.0, 0.015996543384734017
883.0, 0.011291208140986157
884.0, 0.007323054104650535
885.0, 0.004249464743045127
886.0, 0.001263323644977651
887.0, 0.003406148472885901
888.0, 0.0036264014634676445
889.0, 0.0020433865898704436
890.0, 0.0025812893242917255
891.0, 0.008590634017437829
892.0, 0.010913500758516671
893.0, 0.007708981470882382
894.0, 0.003313183986553938
895.0, 0.011803936968919335
896.0, 0.004974990313293324
897.0, 0.004300917036965075
898.0, 0.004186516040169415
899.0, 0.001432149739077682
900.0, 0.005549707182548786
901.0, 0.018403594543794845
902.0, 0.01344639530866679
903.0, 0.0027778621805135835
904.0, 0.003357417480553032
905.0, 0.009198093550663334
906.0, 0.01300555739470805
907.0, 0.017169847417078492
908.0, 0.016575286354669205
909.0, 0.0037612625498364854
910.0, 0.001208241733677528
911.0, 0.007319655779726593
912.0, 0.009589023758257324
913.0, 0.006499400136136608
914.0, 0.006042950872533814
915.0, 0.01110339443381327
916.0, 0.009697440276754827
917.0, 0.009588399790163422
918.0, 0.012123411790850493
919.0, 0.006684448970537233
920.0, 0.016459777399411596
921.0, 0.016289354548525474
922.0, 0.010010273115576568
923.0, 0.004394670460086189
924.0, 0.008367874973863683
925.0, 0.005865616212934612
926.0, 0.002328485044132611
927.0, 0.0020714856048334156
928.0, 0.006998917121857945
929.0, 0.005616219311721294
930.0, 0.002453759450716189
931.0, 0.000897127505852615
932.0, 0.002139178565779289
933.0, 0.0059372267185190735
934.0, 0.003772443602159978
935.0, 0.0051173184790637375
936.0, 0.0045337947913611934
937.0, 0.002351219552864817
938.0, 0.0020835216522257817
939.0, 0.006826427800009677
940.0, 0.010786117334818665
941.0, 0.01220517483906485
942.0, 0.01053903105534415
943.0, 0.006289775770220214
944.0, 0.003252615963324523
945.0, 0.005407059522290978
946.0, 0.01192561612181555
947.0, 0.016230080291061003
948.0, 0.0029874978769233625
949.0, 0.003994596603091613
950.0, 0.00988018870829396
951.0, 0.012418564487099583
952.0, 0.01042734458539187
953.0, 0.01597447094030964
954.0, 0.013935342859995785
955.0, 0.007190248008781461
956.0, 0.011452648169743698
957.0, 0.028122247502421177
958.0, 0.01856599836463842
959.0, 0.029883998240232038
960.0, 0.03897851569430661
961.0, 0.046121190026355854
962.0, 0.05557540696787775
963.0, 0.0761884089874124
964.0, 0.08314730421623469
965.0, 0.0948839750047761
966.0, 0.10514131975669237
967.0, 0.10356730320297847
968.0, 0.07836959795261501
969.0, 0.0718510980760157
970.0, 0.06446100664742987
971.0, 0.05409737459249038
972.0, 0.0435993868316928
973.0, 0.04266446427515615
974.0, 0.03182802434111158
975.0, 0.037071024612794067
976.0, 0.045267618042118395
977.0, 0.03792177247541785
978.0, 0.031854636497134575
979.0, 0.04987903640784832
980.0, 0.04756349010861771
981.0, 0.04055456646112987
982.0, 0.05441585692185669
983.0, 0.04800440946260429
984.0, 0.04768220225158681
985.0, 0.048980581606889215
986.0, 0.049155641402545316
987.0, 0.04629228415860752
988.0, 0.04134640943111006
989.0, 0.03818834021508746
990.0, 0.033274537134848556
991.0, 0.03710916184328169
992.0, 0.05855957100604567
993.0, 0.04934577890178475
994.0, 0.047864384011253695
995.0, 0.05920473217246679
996.0, 0.07022191683567336
997.0, 0.0649918035919228
998.0, 0.06351003662632869
999.0, 0.06577302456433254
1000.0, 0.06203652491342449
1001.0, 0.06050714855022835
1002.0, 0.07081983679809402
1003.0, 0.06311269215716216
1004.0, 0.05283913597551665
1005.0, 0.053887284128150546
1006.0, 0.054483745566972275
1007.0, 0.04277362501874612
1008.0, 0.06770477070456238
1009.0, 0.07760344072146791
1010.0, 0.07912236638671873
1011.0, 0.08729779585711404
1012.0, 0.11166174128679478
1013.0, 0.11229926452041936
1014.0, 0.12458758228649153
1015.0, 0.15460471939060919
1016.0, 0.19327964579298376
1017.0, 0.23453512869130283
1018.0, 0.3108911374552591
1019.0, 0.40751807953992797
1020.0, 0.5254360924612073
1021.0, 0.6574806611719746
1022.0, 0.7752287444421799
1023.0, 0.770843398265854
1024.0, 0.7395732333000055
1025.0, 0.6243069849149965
1026.0, 0.47468133011088925
1027.0, 0.35182053928746265
1028.0, 0.29645122534456136
1029.0, 0.220219782986043
1030.0, 0.17887484328644035
1031.0, 0.15723193838969066
1032.0, 0.13324850839280494
1033.0, 0.08934487798130934
1034.0, 0.09301714957570607
1035.0, 0.08148510702326194
1036.0, 0.0673511321745716
1037.0, 0.0656554651655839
1038.0, 0.0860252045554907
1039.0, 0.06359535236248955
1040.0, 0.08833025933023825
1041.0, 0.11034999200164572
1042.0, 0.10743553206342933
1043.0, 0.09848857297742797
1044.0, 0.14232705200863854
1045.0, 0.14478575233885457
1046.0, 0.15420367915291627
1047.0, 0.18120049325725765
1048.0, 0.201555401643363
1049.0, 0.17324945439761943
1050.0, 0.18418329173800557
1051.0, 0.18461151925059202
1052.0, 0.16014116741722859
1053.0, 0.12173026995420683
1054.0, 0.12628129209395103
1055.0, 0.09159839670603878
1056.0, 0.08710371195541942
1057.0, 0.09166618402828487
1058.0, 0.0641255537105403
1059.0, 0.05068381671996676
1060.0, 0.06776564060331472
1061.0, 0.06417822684327483
1062.0, 0.05635903782030874
1063.0, 0.06524382205529061
1064.0, 0.07397259861635375
1065.0, 0.05789720276096989
1066.0, 0.05878512856285256
1067.0, 0.06430449385187037
1068.0, 0.061010788273084954
1069.0, 0.04684110147526516
1070.0, 0.07529752851248757
1071.0, 0.07031018420628823
1072.0, 0.0586667379312231
1073.0, 0.06326498049464878
1074.0, 0.09411275394137777
1075.0, 0.04928418834422588
1076.0, 0.05973882311161529
1077.0, 0.060098507245009265
1078.0, 0.04446286212054544
1079.0, 0.04526151841791416
1080.0, 0.054452276593780505
1081.0, 0.042821448827857864
1082.0, 0.03834499712931566
1083.0, 0.043792583173889975
1084.0, 0.04877858080868204
1085.0, 0.023961286491618772
1086.0, 0.038796813604954794
1087.0, 0.04566584382867822
1088.0, 0.038504684219695814
1089.0, 0.028448322561615
1090.0, 0.04993647536676582
1091.0, 0.019639213309285634
1092.0, 0.03869799324024756
1093.0, 0.0519079633759423
1094.0, 0.03681934301588367
1095.0, 0.02574483380420472
1096.0, 0.045109872525991745
1097.0, 0.046313227736715035
1098.0, 0.032957194970115636
1099.0, 0.025389788423014578
1100.0, 0.04476184516181025
1101.0, 0.02340213158740894
1102.0, 0.021726220583217295
1103.0, 0.028822662440297697
1104.0, 0.025236859179187943
1105.0, 0.008072573143208962
1106.0, 0.044629546930876965
1107.0, 0.01805386023511352
1108.0, 0.015538720431656
1109.0, 0.02808394117301566
1110.0, 0.03344860086538204
1111.0, 0.008223888756476614
1112.0, 0.034439322031842814
1113.0, 0.027926439656586814
1114.0, 0.01355052980182949
1115.0, 0.011507716734623356
1116.0, 0.030423756250385188
1117.0, 0.014062063273717968
1118.0, 0.021427241919397814
1119.0, 0.023642874678941498
1120.0, 0.015750145199672112
1121.0, 0.005949445193034218
1122.0, 0.021349929920316105
1123.0, 0.017944468744350742
1124.0, 0.015975329304564745
1125.0, 0.016754223317692506
1126.0, 0.021082134958011936
1127.0, 0.031952565331662006
1128.0, 0.032927594724313905
1129.0, 0.0371977240696123
1130.0, 0.022105541290043395
1131.0, 0.01611509720420002
1132.0, 0.0594593087607754
1133.0, 0.03779228079486591
1134.0, 0.036016676771161875
1135.0, 0.054202131338627516
1136.0, 0.06886344103049756
1137.0, 0.06655892740525952
1138.0, 0.07393664462719138
1139.0, 0.06871838589049382
1140.0, 0.05647700401201445
1141.0, 0.051117290608789515
1142.0, 0.050521967428832415
1143.0, 0.03816445542487243
1144.0, 0.027234097279862403
1145.0, 0.05540064312618058
1146.0, 0.043516933542938986
1147.0, 0.017451067558887475
1148.0, 0.02543829265127428
1149.0, 0.04964047481929529
1150.0, 0.021867761300208545
1151.0, 0.03914857349062793
1152.0, 0.045906874707791194
1153.0, 0.02153979909396445
1154.0, 0.012884624836430304
1155.0, 0.04523860709545822
1156.0, 0.024219483754982202
1157.0, 0.03546475298462919
1158.0, 0.052256575947694825
1159.0, 0.023964153075998654
1160.0, 0.044069037695932976
1161.0, 0.05783224171189379
1162.0, 0.05242729404050324
1163.0, 0.04541662194504327
1164.0, 0.05371928036480448
1165.0, 0.08347912645506625
1166.0, 0.031382950167166704
1167.0, 0.05204284302736686
1168.0, 0.06508137752080213
1169.0, 0.05484599349623639
1170.0, 0.04230167090874037
1171.0, 0.05231712537399709
1172.0, 0.047059219110271396
1173.0, 0.04900262507624529
1174.0, 0.05877476123746383
1175.0, 0.05991070118531063
1176.0, 0.021658670318613127
1177.0, 0.07020187978567466
1178.0, 0.05587249444428404
1179.0, 0.03387314054936666
1180.0, 0.03874554841154701
1181.0, 0.0691775849591591
1182.0, 0.025689461616430664
1183.0, 0.046986563616677045
1184.0, 0.07275674363532134
1185.0, 0.06068290276542332
1186.0, 0.03255968237190394
1187.0, 0.07143998912871309
1188.0, 0.046888147783284026
1189.0, 0.04365317113112469
1190.0, 0.04818573186233244
1191.0, 0.047900992145380406
1192.0, 0.040263622499641015
1193.0, 0.05099893904740127
1194.0, 0.05310112141932993
1195.0, 0.02631209136820996
1196.0, 0.04073411415802562
1197.0, 0.07360107458524283
1198.0, 0.035705066690656755
1199.0, 0.025911045467562763
1200.0, 0.04195361550478548
1201.0, 0.04440007279315684
1202.0, 0.04339293117719991
1203.0, 0.048760011916570103
1204.0, 0.046008478765799075
1205.0, 0.03638245257894599
1206.0, 0.05142959966638096
1207.0, 0.05315687219078759
1208.0, 0.03636669435134808
1209.0, 0.022467174897283
1210.0, 0.060702171712242056
1211.0, 0.03118901672433045
1212.0, 0.030242541933636666
1213.0, 0.04676757091040955
1214.0, 0.050598846748423645
1215.0, 0.018390769657108813
1216.0, 0.080741433492205
1217.0, 0.04570612326347157
1218.0, 0.017779616174996262
1219.0, 0.04054613200563733
1220.0, 0.08856099109272578
1221.0, 0.03568426480985145
1222.0, 0.04485660292224282
1223.0, 0.06178391003495599
1224.0, 0.04114252827943644
1225.0, 0.032951695376905246
1226.0, 0.09270357540915529
1227.0, 0.05949929155990072
1228.0, 0.028714380048271322
1229.0, 0.06331107694432266
1230.0, 0.06916119408208514
1231.0, 0.04161625884074914
1232.0, 0.07066528793201296
1233.0, 0.07760026642228261
1234.0, 0.044780215301364064
1235.0, 0.05887988299734115
1236.0, 0.07798484165165376
1237.0, 0.060389403057922335
1238.0, 0.023785082412687793
1239.0, 0.0975676046103557
1240.0, 0.08066261419012491
1241.0, 0.05888251161703282
1242.0, 0.06314367822641634
1243.0, 0.0799720344623002
1244.0, 0.04711659829076818
1245.0, 0.08938224945974385
1246.0, 0.09323259537996638
1247.0, 0.06769760185044896
1248.0, 0.06354551379335627
1249.0, 0.11505952120192711
1250.0, 0.07432784870023242
1251.0, 0.07644472992221775
1252.0, 0.10523370939712696
1253.0, 0.09553749273934206
1254.0, 0.06788672257654306
1255.0, 0.11091141454095826
1256.0, 0.12390765933644568
1257.0, 0.06703723511803963
1258.0, 0.07916833886931574
1259.0, 0.10176887336595573
1260.0, 0.08824658729735284
1261.0, 0.07050854652497457
1262.0, 0.08925949645245783
1263.0, 0.07529836684532948
1264.0, 0.08017930614195662
1265.0, 0.0915904015682154
1266.0, 0.08180598940316577
1267.0, 0.03733737872715915
1268.0, 0.10273668864256451
1269.0, 0.09289311270903126
1270.0, 0.07245431758078055
1271.0, 0.0754002079249766
1272.0, 0.09299204521558305
1273.0, 0.051536060863665994
1274.0, 0.05200675880801659
1275.0, 0.09425291171633862
1276.0, 0.06898827103854585
1277.0, 0.02757751783121175
1278.0, 0.06161958467849954
1279.0, 0.10075422524870548
1280.0, 0.04637144691786576
1281.0, 0.07005442428482296
1282.0, 0.06662562700410928
1283.0, 0.03940686147737904
1284.0, 0.05501068592783498
1285.0, 0.0972215611110802
1286.0, 0.0327365717913052
1287.0, 0.04597774173693916
1288.0, 0.06861221630595864
1289.0, 0.05749609373030401
1290.0, 0.028786813950003907
1291.0, 0.09172250616974036
1292.0, 0.04245188744356597
1293.0, 0.01877484786166048
1294.0, 0.04723670092340994
1295.0, 0.06813737421731914
1296.0, 0.0072857291731144355
1297.0, 0.0313152410314853
1298.0, 0.04490069365538898
1299.0, 0.028055187849260258
1300.0, 0.03374688801861612
1301.0, 0.05834643283382377
1302.0, 0.04933309759736172
1303.0, 0.016995816678966356
1304.0, 0.06311545369039082
1305.0, 0.044436174260890436
1306.0, 0.029662555025559933
1307.0, 0.03772173394870248
1308.0, 0.02335702760436597
1309.0, 0.0030028971675309553
1310.0, 0.03078657873377709
1311.0, 0.03886650208623479
1312.0, 0.024475146477199002
1313.0, 0.021769117376582076
1314.0, 0.06158733731303459
1315.0, 0.023112711263050235
1316.0, 0.02955900524830225
1317.0, 0.05302997548325188
1318.0, 0.045251496194338
1319.0, 0.02431413903857477
1320.0, 0.043588384672221855
1321.0, 0.03238878240193161
1322.0, 0.016530228842884603
1323.0, 0.04391694316117568
1324.0, 0.03742914118403959
1325.0, 0.005645730168690563
1326.0, 0.017815242345901493
1327.0, 0.05565093720228709
1328.0, 0.020182513762540738
1329.0, 0.030043092720693852
1330.0, 0.05342798122160441
1331.0, 0.049958869213879015
1332.0, 0.016391572372496967
1333.0, 0.061067820632264166
1334.0, 0.04223141066392109
1335.0, 0.014573478799658972
1336.0, 0.04362461714868949
1337.0, 0.06609303686790398
1338.0, 0.01172107338070659
1339.0, 0.013437549450661637
1340.0, 0.05806075820692481
1341.0, 0.03298239242736993
1342.0, 0.03539051616558609
1343.0, 0.058748705021153286
1344.0, 0.05500284226617336
1345.0, 0.016189767492604784
1346.0, 0.0893301356038426
1347.0, 0.033956416013238254
1348.0, 0.007059966552078398
1349.0, 0.03941921475980721
1350.0, 0.07442540167095556
1351.0, 0.016844261237436146
1352.0, 0.03519051286441084
1353.0, 0.0743078940670112
1354.0, 0.05779774052622303
1355.0, 0.05686728922489574
1356.0, 0.08222448185044852
1357.0, 0.03253738071240686
1358.0, 0.016819698954321522
1359.0, 0.06921496808036082
1360.0, 0.04890946901038638
1361.0, 0.01721647102687417
1362.0, 0.04011345106377209
1363.0, 0.1102254954233412
1364.0, 0.03475760660436729
1365.0, 0.07637383314650925
1366.0, 0.09433472950849366
1367.0, 0.06464823430245997
1368.0, 0.038425726610668606
1369.0, 0.06388357207420166
1370.0, 0.04681372155119594
1371.0, 0.017666905752177546
1372.0, 0.06145987985637311
1373.0, 0.047052954405337355
1374.0, 0.01327720092979488
1375.0, 0.038392967386241574
1376.0, 0.09540513066925604
1377.0, 0.014767616607357321
1378.0, 0.06416670991627621
1379.0, 0.08817087839393059
1380.0, 0.057055392280612786
1381.0, 0.04646284936449249
1382.0, 0.16088175132388463
1383.0, 0.1013861127639384
1384.0, 0.06875859029269549
1385.0, 0.11120423372672683
1386.0, 0.10149895124752051
1387.0, 0.05239888039134186
1388.0, 0.07681803383355798
1389.0, 0.12140259084205704
1390.0, 0.0548127691619473
1391.0, 0.09001664098732388
1392.0, 0.12347571453268139
1393.0, 0.09643644894441264
1394.0, 0.05406687475439969
1395.0, 0.15612752691729045
1396.0, 0.09638487576619881
1397.0, 0.0652813648464581
1398.0, 0.11325728141986248
1399.0, 0.122604141475827
1400.0, 0.06786914965342321
1401.0, 0.07617442779216152
1402.0, 0.1311033825690523
1403.0, 0.06689939247432389
1404.0, 0.10705076374267952
1405.0, 0.11335702477525783
1406.0, 0.07044327657094192
1407.0, 0.06618234644119309
1408.0, 0.12125836011369431
1409.0, 0.08112054946393034
1410.0, 0.06926242254902187
1411.0, 0.10895835312047103
1412.0, 0.11757446660874606
1413.0, 0.07475466132800515
1414.0, 0.09731967955946152
1415.0, 0.14880268447037834
1416.0, 0.05092923282862867
1417.0, 0.08518457308562474
1418.0, 0.124690063322455
1419.0, 0.08869571561928669
1420.0, 0.03966636094375183
1421.0, 0.16790144325300643
1422.0, 0.07703302283297306
1423.0, 0.06488947859983156
1424.0, 0.12385853058271923
1425.0, 0.12879019437153427
1426.0, 0.05505054434518332
1427.0, 0.08088078485508071
1428.0, 0.15530752198249886
1429.0, 0.06533373437998327
1430.0, 0.10423139046548217
1431.0, 0.13519393539680172
1432.0, 0.09010104926300612
1433.0, 0.04359309952623094
1434.0, 0.1282156346750043
1435.0, 0.0975511940288171
1436.0, 0.05250607721481153
1437.0, 0.09141058961171136
1438.0, 0.10454193382343761
1439.0, 0.061052704910640465
1440.0, 0.11482107111381978
1441.0, 0.13659286482382982
1442.0, 0.051091365315662426
1443.0, 0.10221634728221901
1444.0, 0.1383915490909541
1445.0, 0.09001477241284295
1446.0, 0.04262636202399568
1447.0, 0.19379111686060801
1448.0, 0.07709500633562752
1449.0, 0.07594499563432416
1450.0, 0.12326088263843223
1451.0, 0.11503812299559969
1452.0, 0.072055937930652
1453.0, 0.11682325833067167
1454.0, 0.18906969485102718
1455.0, 0.047597937292761024
1456.0, 0.10992779194500132
1457.0, 0.13727428489275942
1458.0, 0.08905646249297292
1459.0, 0.06644360308082503
1460.0, 0.16121710343849416
1461.0, 0.11120906694648437
1462.0, 0.07991022738556665
1463.0, 0.15009236065402257
1464.0, 0.13780446354398082
1465.0, 0.07552462145229981
1466.0, 0.1062039705879605
1467.0, 0.17611039254152877
1468.0, 0.05693164569517535
1469.0, 0.11786691000168631
1470.0, 0.1614140509876805
1471.0, 0.10299083182846328
1472.0, 0.05557620056589113
1473.0, 0.16251965261929008
1474.0, 0.10320141424197596
1475.0, 0.01732489936728538
1476.0, 0.149139280436689
1477.0, 0.10314321995220511
1478.0, 0.04205028906912797
1479.0, 0.11579806686265044
1480.0, 0.15348570242798507
1481.0, 0.04328273559550297
1482.0, 0.10256580572774615
1483.0, 0.1417060640213958
1484.0, 0.08245777277830593
1485.0, 0.0699507014062767
1486.0, 0.15204934959015717
1487.0, 0.07990093131341269
1488.0, 0.008700078251240043
1489.0, 0.1453787376088647
1490.0, 0.12422106477566189
1491.0, 0.05378501888038085
1492.0, 0.05586720687997583
1493.0, 0.105644281413004
1494.0, 0.0005298171137222623
1495.0, 5.5919874256885234e-05
1496, 0.0
1497, 0.0
1498, 0.0
1499, 0.0
1500, 0.0
1501, 0.0
1502, 0.0
1503, 0.0
1504, 0.0
1505, 0.0
1506, 0.0
1507, 0.0
1508, 0.0
1509, 0.0
1510, 0.0
1511, 0.0
1512, 0.0
1513, 0.0
1514, 0.0
1515, 0.0
1516, 0.0
1517, 0.0
1518, 0.0
1519, 0.0
1520, 0.0
1521, 0.0
1522, 0.0
1523, 0.0
1524, 0.0
1525, 0.0
1526, 0.0
1527, 0.0
1528, 0.0
1529, 0.0
1530, 0.0
1531, 0.0
1532, 0.0
1533, 0.0
1534, 0.0
1535, 0.0
1536, 0.0
1537, 0.0
1538, 0.0
1539, 0.0
1540, 0.0
1541, 0.0
1542, 0.0
1543, 0.0
1544, 0.0
1545, 0.0
1546, 0.0
1547, 0.0
1548, 0.0
1549, 0.0
1550, 0.0
1551, 0.0
1552, 0.0
1553, 0.0
1554, 0.0
1555, 0.0
1556, 0.0
1557, 0.0
1558, 0.0
1559, 0.0
1560, 0.0
1561, 0.0
1562, 0.0
1563, 0.0
1564, 0.0
1565, 0.0
1566, 0.0
1567, 0.0
1568, 0.0
1569, 0.0
1570, 0.0
1571, 0.0
1572, 0.0
1573, 0.0
1574, 0.0
1575, 0.0
1576, 0.0
1577, 0.0
1578, 0.0
1579, 0.0
1580, 0.0
1581, 0.0
1582, 0.0
1583, 0.0
1584, 0.0
1585, 0.0
1586, 0.0
1587, 0.0
1588, 0.0
1589, 0.0
1590, 0.0
1591, 0.0
1592, 0.0
1593, 0.0
1594, 0.0
1595, 0.0
1596, 0.0
1597, 0.0
1598, 0.0
1599, 0.0
