30, 0.0
31, 0.0
32, 0.0
33, 0.0
34, 0.0
35, 0.0
36, 0.0
37, 0.0
38, 0.0
39, 0.0
40, 0.0
41, 0.0
42, 0.0
43, 0.0
44, 0.0
45, 0.0
46, 0.0
47, 0.0
48, 0.0
49, 0.0
50, 0.0
51, 0.0
52, 0.0
53, 0.0
54, 0.0
55, 0.0
56, 0.0
57, 0.0
58, 0.0
59, 0.0
60, 0.0
61, 0.0
62, 0.0
63, 0.0
64, 0.0
65, 0.0
66, 0.0
67, 0.0
68, 0.0
69, 0.0
70, 0.0
71, 0.0
72, 0.0
73, 0.0
74, 0.0
75, 0.0
76, 0.0
77, 0.0
78, 0.0
79, 0.0
80, 0.0
81, 0.0
82, 0.0
83, 0.0
84, 0.0
85, 0.0
86, 0.0
87, 0.0
88, 0.0
89, 0.0
90, 0.0
91, 0.0
92, 0.0
93, 0.0
94, 0.0
95, 0.0
96, 0.0
97, 0.0
98, 0.0
99, 0.0
100, 0.0
101, 0.0
102, 0.0
103, 0.0
104, 0.0
105, 0.0
106, 0.0
107, 0.0
108, 0.0
109, 0.0
110, 0.0
111, 0.0
112, 0.0
113, 0.0
114, 0.0
115, 0.0
116, 0.0
117, 0.0
118, 0.0
119, 0.0
120.0, 6.99177060530288e-05
121.0, 0.0007204832979790818
122.0, 0.00444949388537654
123.0, 0.04129673880520699
124.0, 0.06516821724144752
125.0, 0.06861252666351532
126.0, 0.07066227289273505
127.0, 0.10467869172271883
128.0, 0.13549513794626147
129.0, 0.1606393526678891
130.0, 0.1841475887943641
131.0, 0.18835823580652217
132.0, 0.17350469974491448
133.0, 0.15040686673452477
134.0, 0.1263070359295773
135.0, 0.11956127642581764
136.0, 0.11553700119278913
137.0, 0.1134165151704835
138.0, 0.11758313695998086
139.0, 0.13076655419498098
140.0, 0.13186614469530158
141.0, 0.11216399046046018
142.0, 0.09140637395628262
143.0, 0.09000305841342784
144.0, 0.08354919582509553
145.0, 0.07922456819666021
146.0, 0.08134169241712583
147.0, 0.08503936328019557
148.0, 0.07024364900788534
149.0, 0.05968241990379649
150.0, 0.053489492194503885
151.0, 0.04989100068497965
152.0, 0.050503761524833074
153.0, 0.04257635810588208
154.0, 0.039739974877806845
155.0, 0.038775070807540016
156.0, 0.02982304038089983
157.0, 0.020979450460184585
158.0, 0.01822423961108377
159.0, 0.016017888434178833
160.0, 0.010307876580445964
161.0, 0.009090483323699558
162.0, 0.011688687529683698
163.0, 0.013159323360608691
164.0, 0.01171746397557188
165.0, 0.008589085040924366
166.0, 0.001006152803561765
167.0, 0.002925604457367428
168.0, 0.0005437316157722275
169.0, 0.0005568282780836452
170.0, 0.006986664931945221
171.0, 0.01477683718151262
172.0, 0.01594637767897941
173.0, 0.009934125198436054
174.0, 0.014276167548067632
175.0, 0.015967657306428004
176.0, 0.017411493857871267
177.0, 0.01995568415520053
178.0, 0.019607036668771366
179.0, 0.025663099944728388
180.0, 0.028888927781401497
181.0, 0.028033412743260492
182.0, 0.028172357740031916
183.0, 0.033703119086980024
184.0, 0.03616410090068074
185.0, 0.038959876021636426
186.0, 0.04574418538032524
187.0, 0.052670559319422286
188.0, 0.05567742955682935
189.0, 0.05156236199748247
190.0, 0.0454458629540298
191.0, 0.04550024147020075
192.0, 0.04398121864686497
193.0, 0.04186766734437003
194.0, 0.04028169525269223
195.0, 0.039722901118090945
196.0, 0.04107361869302558
197.0, 0.0416881600682856
198.0, 0.042948113653129893
199.0, 0.046068713991611894
200.0, 0.05004818320487118
201.0, 0.050276123376540256
202.0, 0.04708324914933999
203.0, 0.042851178321293024
204.0, 0.039605052863943786
205.0, 0.03612776274805021
206.0, 0.03363985378631927
207.0, 0.027641544662935846
208.0, 0.017045984534230806
209.0, 0.011032604707099868
210.0, 0.011520309928902137
211.0, 0.009731601999694571
212.0, 0.005350407011757523
213.0, 0.004458818739928872
214.0, 0.002190237661386139
215.0, 0.0023980332952823875
216.0, 0.006336665315720472
217.0, 0.007036698463693517
218.0, 0.0054981260114631975
219.0, 0.005265967863307853
220.0, 0.007289250546183875
221.0, 0.009692824906612926
222.0, 0.009337501085960669
223.0, 0.013383256010100202
224.0, 0.010867439354301187
225.0, 0.005516178545991813
226.0, 0.0036135858860007744
227.0, 0.0028089600541489727
228.0, 0.002850531174096054
229.0, 0.0034726693321014976
230.0, 0.003128489666621002
231.0, 0.0009722577308817502
232.0, 0.006114153691783454
233.0, 0.011535657867921139
234.0, 0.015510091260024785
235.0, 0.0183007855701389
236.0, 0.023154254055682208
237.0, 0.02421813875126897
238.0, 0.03334808040417722
239.0, 0.04715024202969743
240.0, 0.047950691303645473
241.0, 0.05807090059201942
242.0, 0.06181658959415895
243.0, 0.06397330472876087
244.0, 0.07344470203352502
245.0, 0.0844324301739919
246.0, 0.09024448293008899
247.0, 0.09516113377480896
248.0, 0.10068263040762936
249.0, 0.10476302944200563
250.0, 0.11178979495301744
251.0, 0.12106354319179893
252.0, 0.12431935706203914
253.0, 0.11832229988485785
254.0, 0.11660190940672682
255.0, 0.12084136006771641
256.0, 0.11801502411456512
257.0, 0.11293550511836029
258.0, 0.11788952341797956
259.0, 0.10939253344524963
260.0, 0.10785197823679264
261.0, 0.1069547697218021
262.0, 0.10175474515642537
263.0, 0.10408586088571807
264.0, 0.09930076650997943
265.0, 0.09521435426170581
266.0, 0.09440364511364459
267.0, 0.09438022587308458
268.0, 0.09263734217572434
269.0, 0.0877333723728515
270.0, 0.08545467810156006
271.0, 0.08624861817481128
272.0, 0.08356735696813647
273.0, 0.0862356438733896
274.0, 0.0918295012070876
275.0, 0.09412294289210058
276.0, 0.0899457417098589
277.0, 0.08908981761516015
278.0, 0.09009647732306528
279.0, 0.09280131162104491
280.0, 0.0957093551439481
281.0, 0.09616429568728568
282.0, 0.09927832405196359
283.0, 0.10289137678962489
284.0, 0.10677261081915444
285.0, 0.11217461174980085
286.0, 0.12000171184160581
287.0, 0.13342204566630295
288.0, 0.1449604695923471
289.0, 0.15225667979337726
290.0, 0.15698097946455788
291.0, 0.16255165211305972
292.0, 0.16543749166976865
293.0, 0.15504276784942675
294.0, 0.13594485353155328
295.0, 0.12404836345024149
296.0, 0.11757903954278812
297.0, 0.0984569689919108
298.0, 0.08569829854327972
299.0, 0.0800971679613145
300.0, 0.04809098442287721
301.0, 0.0277685764116649
302.0, 0.01779893048045299
303.0, 0.014003639491876383
304.0, 0.012568598319382819
305.0, 0.0058829303556258376
306.0, 0.00246700473268662
307.0, 0.0031019109410910534
308.0, 0.004161826882602626
309.0, 0.0026756464490273963
310.0, 0.0031468432064446737
311.0, 0.0038723666085193342
312.0, 0.009536661554307855
313.0, 0.017802027663142306
314.0, 0.01829381632953708
315.0, 0.020798876703098716
316.0, 0.03227775244148622
317.0, 0.042822242437960074
318.0, 0.04558320972599147
319.0, 0.050317270373684574
320.0, 0.05255171411227325
321.0, 0.05442237186979397
322.0, 0.058446837090168215
323.0, 0.06330533405435655
324.0, 0.05926905973500403
325.0, 0.05669544509640825
326.0, 0.057115189805172634
327.0, 0.057744906682942736
328.0, 0.05566688975623165
329.0, 0.06329035318102333
330.0, 0.0677228450177028
331.0, 0.07542752102541245
332.0, 0.08619248563315245
333.0, 0.08581471827911055
334.0, 0.1004032913970963
335.0, 0.11309019436708664
336.0, 0.12362144810119596
337.0, 0.13629170655016828
338.0, 0.14588943384272224
339.0, 0.18129836664026847
340.0, 0.19527021191070534
341.0, 0.1895793641260008
342.0, 0.19226222552007383
343.0, 0.20266256875569624
344.0, 0.21313377747620701
345.0, 0.2205681406843828
346.0, 0.2236547985331438
347.0, 0.2221513920415613
348.0, 0.21771455056984923
349.0, 0.21786824874762434
350.0, 0.21830269200721802
351.0, 0.21510983552200752
352.0, 0.2089784625529641
353.0, 0.19903579906829288
354.0, 0.19255015963346253
355.0, 0.18525837028658207
356.0, 0.17683382397727898
357.0, 0.17405939301795953
358.0, 0.16960861915805756
359.0, 0.17314728186744757
360.0, 0.17537031016332216
361.0, 0.17315257920913907
362.0, 0.18014754048606485
363.0, 0.18763430356188576
364.0, 0.19051580825555417
365.0, 0.19865101671904217
366.0, 0.21497622941360164
367.0, 0.223698669041635
368.0, 0.23740323111098183
369.0, 0.25251173464778726
370.0, 0.26857106874109044
371.0, 0.2861731322518385
372.0, 0.3061482776582603
373.0, 0.3220717761488624
374.0, 0.33384876120363977
375.0, 0.3454747962731368
376.0, 0.35928826259460855
377.0, 0.3679486622088343
378.0, 0.36233441751291023
379.0, 0.3498937858335136
380.0, 0.33587889070661514
381.0, 0.31887235590015484
382.0, 0.29109613816758284
383.0, 0.2613171536240121
384.0, 0.2346366025953928
385.0, 0.2086336466662872
386.0, 0.18126711134336068
387.0, 0.16524984861182587
388.0, 0.1552158104317123
389.0, 0.1445703768679336
390.0, 0.13093449407121127
391.0, 0.11690087439052056
392.0, 0.10839839559484349
393.0, 0.09349810041400626
394.0, 0.08384110996055386
395.0, 0.07899982840254209
396.0, 0.06841892569972303
397.0, 0.06517483287862864
398.0, 0.05766669354288366
399.0, 0.05246874728238489
400.0, 0.05039281930544902
401.0, 0.04504734748007057
402.0, 0.038203879349538235
403.0, 0.03231690807027505
404.0, 0.03147440326016632
405.0, 0.030984959472819436
406.0, 0.022863827507705763
407.0, 0.020654173188701032
408.0, 0.016634073775569733
409.0, 0.008877522782161019
410.0, 0.002751565277324799
411.0, 0.004124125867003461
412.0, 0.0017928684231819478
413.0, 0.0037471422341525703
414.0, 0.003413060702836763
415.0, 0.0019019790559203422
416.0, 0.010033016213737441
417.0, 0.012689684948058272
418.0, 0.0127099506338611
419.0, 0.012502033742714068
420.0, 0.013508811843747371
421.0, 0.015634006132572174
422.0, 0.014799122102095472
423.0, 0.00944767006619161
424.0, 0.007918433231946659
425.0, 0.008439352541740256
426.0, 0.004039084381563334
427.0, 0.0027377407397234294
428.0, 0.003247771363044358
429.0, 0.007393851294675557
430.0, 0.010285281252314902
431.0, 0.017044722306793044
432.0, 0.022744765240905202
433.0, 0.028838398180990408
434.0, 0.03981673465787612
435.0, 0.04650087468935146
436.0, 0.04385272296176071
437.0, 0.05777415735771536
438.0, 0.06282211143855641
439.0, 0.0754961388008071
440.0, 0.09197633362889843
441.0, 0.10347095859985894
442.0, 0.12179161068765101
443.0, 0.13101822470303412
444.0, 0.14534564612008102
445.0, 0.16301500526118964
446.0, 0.17943400079156108
447.0, 0.20040303763661893
448.0, 0.19814367815388298
449.0, 0.2419911198175084
450.0, 0.2867970974016721
451.0, 0.29516698437367994
452.0, 0.2975674762140619
453.0, 0.31165207313570564
454.0, 0.3096602864604748
455.0, 0.3065054950821396
456.0, 0.3165328315177497
457.0, 0.33070024729057784
458.0, 0.3402868719264072
459.0, 0.3562084450324745
460.0, 0.37411254702648616
461.0, 0.3902573122780628
462.0, 0.40614914564415716
463.0, 0.4196660711423671
464.0, 0.4390745256885477
465.0, 0.45002980922234986
466.0, 0.4559294334381076
467.0, 0.46797157113466004
468.0, 0.4831675268058091
469.0, 0.48843681115779153
470.0, 0.49093867862089235
471.0, 0.4909678644930347
472.0, 0.4881122703295686
473.0, 0.4878811192915942
474.0, 0.4911592773811139
475.0, 0.4906657231974124
476.0, 0.48995200519001464
477.0, 0.49350950533751886
478.0, 0.49992412380347867
479.0, 0.5055521113937144
480.0, 0.5179758922010056
481.0, 0.5302071653482631
482.0, 0.5437893381344897
483.0, 0.5666320644817006
484.0, 0.5848438606432343
485.0, 0.6084237156281973
486.0, 0.638322881984399
487.0, 0.6683405715940041
488.0, 0.696128537947049
489.0, 0.7327315299919812
490.0, 0.766821065919634
491.0, 0.7975820420515611
492.0, 0.8361089076261009
493.0, 0.8822495993713931
494.0, 0.909836665206751
495.0, 0.9300797189094455
496.0, 0.9451818623587588
497.0, 0.9647050413702604
498.0, 0.9864404190800534
499.0, 0.9968479052877922
500.0, 0.9963565261055465
501.0, 0.9995443275532185
502.0, 0.9972296115167857
503.0, 0.9811934479848367
504.0, 0.9518190455642582
505.0, 0.9198538800535369
506.0, 0.8844446911369229
507.0, 0.8303954933208155
508.0, 0.7724905533840634
509.0, 0.721329351040328
510.0, 0.6595918128522712
511.0, 0.597686226106704
512.0, 0.5372783164495677
513.0, 0.4854530676453926
514.0, 0.43800962870127963
515.0, 0.386745318775997
516.0, 0.3428194364118995
517.0, 0.3024384577628882
518.0, 0.2696807251508332
519.0, 0.2395932788436783
520.0, 0.20800516697373006
521.0, 0.18391821333744657
522.0, 0.16181593960446147
523.0, 0.14367328164744803
524.0, 0.12683757432265244
525.0, 0.11012771090844395
526.0, 0.09721328225011247
527.0, 0.09104247889484943
528.0, 0.07804876136516443
529.0, 0.06813851124019404
530.0, 0.061221118137925544
531.0, 0.05108316182536787
532.0, 0.04323221829199402
533.0, 0.030900716567612084
534.0, 0.02462315484209523
535.0, 0.023459208565564764
536.0, 0.02146773720247198
537.0, 0.016029131740218538
538.0, 0.013170517675265432
539.0, 0.0040095794107942945
540.0, 0.003356493413295118
541.0, 0.004873966584522481
542.0, 0.0027895020741124685
543.0, 0.0010563567857436703
544.0, 0.0028052400640635774
545.0, 0.0020952202358588234
546.0, 0.0008471451001406382
547.0, 0.0011586214771098508
548.0, 0.0009521501687750174
549.0, 0.001972331683161255
550.0, 0.0007975058730890681
551.0, 0.0040764129099497785
552.0, 0.006495322191455132
553.0, 0.006265814569849926
554.0, 0.00575921703701329
555.0, 0.010504254327918447
556.0, 0.011562577126063626
557.0, 0.015795457868990948
558.0, 0.022196646042754557
559.0, 0.01948329529794195
560.0, 0.01839937548161843
561.0, 0.02816827177368636
562.0, 0.03689479095815527
563.0, 0.03972218646595018
564.0, 0.0390881012573062
565.0, 0.038574625775071446
566.0, 0.04121584795712381
567.0, 0.04505372123582085
568.0, 0.04470737688594298
569.0, 0.04091962818583167
570.0, 0.03951705749745516
571.0, 0.0416599805114668
572.0, 0.03832130884327068
573.0, 0.03670104335642902
574.0, 0.03834342999817824
575.0, 0.03898204405449769
576.0, 0.034639293926200986
577.0, 0.031860652846264784
578.0, 0.02764536941402703
579.0, 0.021402080943002194
580.0, 0.019198460136910848
581.0, 0.021770197477546445
582.0, 0.017057821316011693
583.0, 0.010812628845886333
584.0, 0.011232629198487406
585.0, 0.01068189761531145
586.0, 0.007293720310560523
587.0, 0.006273673749742722
588.0, 0.005968246187102153
589.0, 0.0021751119225154047
590.0, 0.003618617792767952
591.0, 0.002630264842281589
592.0, 0.0033720075178512296
593.0, 0.00029995827534931807
594.0, 0.0009291092877922383
595.0, 0.009067691065018469
596.0, 0.008981825541674517
597.0, 0.004186555835692476
598.0, 0.003679562500390506
599.0, 0.0030149998528188546
600.0, 0.0007101240436369126
601.0, 0.00047806947969356484
602.0, 0.001220932705892298
603.0, 0.0013028517523851729
604.0, 0.0015901610426919878
605.0, 0.0019934952126424072
606.0, 0.0037267956298207157
607.0, 0.001438766445067159
608.0, 0.0027745185001199976
609.0, 0.00695211882433929
610.0, 0.005657451664814546
611.0, 0.0007814120824093843
612.0, 0.0010335616539995725
613.0, 0.0007831303886979004
614.0, 0.0018367377887714444
615.0, 0.001116130500031098
616.0, 0.002649319753637484
617.0, 0.0030603514620020054
618.0, 0.0014565581978734782
619.0, 0.002549327825665805
620.0, 0.003258846236091007
621.0, 0.0036956149056804693
622.0, 0.0003401432170525462
623.0, 0.001580329213927683
624.0, 0.0018739286197860506
625.0, 0.0005278567391133761
626.0, 0.0027423678367584654
627.0, 0.007064559812995116
628.0, 0.004701501175648857
629.0, 0.005188821476316974
630.0, 0.00940258713000814
631.0, 0.010979444609423501
632.0, 0.011989332826288272
633.0, 0.014238379628873367
634.0, 0.013512212144658801
635.0, 0.015006279727261023
636.0, 0.013654902256169941
637.0, 0.012621364109835448
638.0, 0.013709247895087828
639.0, 0.016105463557936895
640.0, 0.017526509699163303
641.0, 0.015176756754399095
642.0, 0.0142454715689025
643.0, 0.013862490008678322
644.0, 0.015463699906859071
645.0, 0.017328315561797238
646.0, 0.013857135130739235
647.0, 0.01746538888811179
648.0, 0.020203456884011494
649.0, 0.01862032125630611
650.0, 0.015555577519768101
651.0, 0.015764853849837817
652.0, 0.019279549240679504
653.0, 0.018501002715889996
654.0, 0.018497212741726023
655.0, 0.018950066441466504
656.0, 0.01811460077740853
657.0, 0.022949242593096674
658.0, 0.0194989796400258
659.0, 0.020017359376387982
660.0, 0.020625337502019437
661.0, 0.022395993077588185
662.0, 0.023230118127995227
663.0, 0.024539149970573867
664.0, 0.024305928543269066
665.0, 0.02173262239654801
666.0, 0.02564833918488858
667.0, 0.024518768654997282
668.0, 0.026575842390158935
669.0, 0.025660447177247463
670.0, 0.02674743259653634
671.0, 0.027109722563587166
672.0, 0.03094320455365784
673.0, 0.03123603430670079
674.0, 0.03558176194224495
675.0, 0.03635885426725086
676.0, 0.03423655757674707
677.0, 0.03766502591716015
678.0, 0.040246699915740515
679.0, 0.044620996638762636
680.0, 0.04648048868327495
681.0, 0.04751766819915384
682.0, 0.051880225046812584
683.0, 0.057648817247903994
684.0, 0.04843061162204493
685.0, 0.05299578379744906
686.0, 0.059003035535340566
687.0, 0.060847285753995686
688.0, 0.06474467923631574
689.0, 0.06091280030777906
690.0, 0.06559680065253537
691.0, 0.0693585661894747
692.0, 0.07106897260564789
693.0, 0.06977440269865455
694.0, 0.06615883003434314
695.0, 0.06589633476816299
696.0, 0.06661247846086266
697.0, 0.06496939416713716
698.0, 0.06200795073219221
699.0, 0.057532146498557105
700.0, 0.052175366704695025
701.0, 0.04870270101603786
702.0, 0.04724673060493971
703.0, 0.04342094251133591
704.0, 0.03946364061229456
705.0, 0.03724905572786458
706.0, 0.03733192126768224
707.0, 0.037868023598218684
708.0, 0.02931271323102914
709.0, 0.02516388107054511
710.0, 0.02661111639918622
711.0, 0.026567760441999426
712.0, 0.024909281750977175
713.0, 0.022898446654200263
714.0, 0.016112337763563286
715.0, 0.017452223222793554
716.0, 0.016285054916684312
717.0, 0.013459171545111654
718.0, 0.010575577497894183
719.0, 0.008323745635639368
720.0, 0.007933213329473863
721.0, 0.009929279324739216
722.0, 0.00911987843646652
723.0, 0.007558071214237274
724.0, 0.005146872256866551
725.0, 0.003703247032922286
726.0, 0.0046594789482195
727.0, 0.0032660082624213754
728.0, 0.0028200327364926495
729.0, 0.0060765290282594605
730.0, 0.004372719239125049
731.0, 0.0011733652966801364
732.0, 0.0025197627842009148
733.0, 0.0006785670908505866
734.0, 0.0008045137920198737
735.0, 0.0025672051702009127
736.0, 0.001912010857804724
737.0, 0.002105557299654089
738.0, 0.006099580938307656
739.0, 0.0062031478720254735
740.0, 0.0010489021388798924
741.0, 0.0006181500618879548
742.0, 0.003928482219559883
743.0, 0.006318124698262203
744.0, 0.006822911257348359
745.0, 0.005539718899739169
746.0, 0.002348137961851257
747.0, 0.004462666413813478
748.0, 0.001994960260020884
749.0, 0.004069395794566734
750.0, 0.007128997016129084
751.0, 0.007912699157611948
752.0, 0.008974285210734559
753.0, 0.010727873332103201
754.0, 0.0060599145550322584
755.0, 0.006668047996484101
756.0, 0.007582978897010797
757.0, 0.007396161647934851
758.0, 0.008947490784027018
759.0, 0.01159916370545426
760.0, 0.01068294429537621
761.0, 0.012299035385512247
762.0, 0.011813267949411907
763.0, 0.01232918186773521
764.0, 0.014068801825434313
765.0, 0.014704475332397932
766.0, 0.01505920586756803
767.0, 0.017842384222185308
768.0, 0.020046752525508096
769.0, 0.01828421490143045
770.0, 0.017531810346577758
771.0, 0.017310555644129002
772.0, 0.01558960598690418
773.0, 0.018977922366170085
774.0, 0.01380591911005156
775.0, 0.016348580752592663
776.0, 0.016037138918134016
777.0, 0.015947745091071233
778.0, 0.017751139714719245
779.0, 0.015143047379433167
780.0, 0.013176002071275592
781.0, 0.010634087991648226
782.0, 0.009999476944735469
783.0, 0.012048470842476577
784.0, 0.015143058336811826
785.0, 0.016373082035097044
786.0, 0.014179795729182156
787.0, 0.012094916466333748
788.0, 0.011399667353232822
789.0, 0.016424191916549903
790.0, 0.019409155113796456
791.0, 0.015563201534518841
792.0, 0.010829206826714835
793.0, 0.014847570283507269
794.0, 0.008433730445609383
795.0, 0.011519337397083482
796.0, 0.007246176874037505
797.0, 0.005746239483963223
798.0, 0.004318880066015391
799.0, 0.005967463457029981
800.0, 0.0053169459880745675
801.0, 0.006443870830536288
802.0, 0.004828548813790337
803.0, 0.0011826048267713327
804.0, 0.006705168833088867
805.0, 0.008534448382372802
806.0, 0.0043189139349796716
807.0, 0.004128681294908935
808.0, 0.0018967906878386053
809.0, 0.0007290904949333947
810.0, 0.002574427246521317
811.0, 0.003868640512473339
812.0, 0.0031167692316473737
813.0, 0.0013383261376974434
814.0, 0.0012741350199214215
815.0, 0.0005734354318401818
816.0, 0.000545104593760554
817.0, 0.0027012328446446125
818.0, 0.00021126880762715244
819.0, 0.0016067017465029455
820.0, 0.0016920758039893804
821.0, 0.0017320810587653568
822.0, 0.0008364285764119512
823.0, 0.0037539113475712053
824.0, 0.003599885569373888
825.0, 0.0005247257205820331
826.0, 0.002364659374743375
827.0, 0.0032670766068474155
828.0, 0.002745291273903232
829.0, 0.005490374585567319
830.0, 0.0032465613724752484
831.0, 0.0010314971540741178
832.0, 0.002971701523499306
833.0, 0.0041462280842008235
834.0, 0.0034053112804841566
835.0, 0.006335518377569039
836.0, 0.003618903429260515
837.0, 0.0022273633362297476
838.0, 0.005500128878111468
839.0, 0.008088802582361242
840.0, 0.0055308457221499435
841.0, 0.002763739500779264
842.0, 0.007694879195436023
843.0, 0.01055216034317637
844.0, 0.006018516001818028
845.0, 0.005384963999468629
846.0, 0.003644462001966994
847.0, 0.004102399202930408
848.0, 0.006546965341274856
849.0, 0.005908869878835975
850.0, 0.009470329775573338
851.0, 0.006159847858143936
852.0, 0.005170362767294091
853.0, 0.004341409313734917
854.0, 0.007182805793717104
855.0, 0.007255306762132153
856.0, 0.00935732762694346
857.0, 0.008632097299037574
858.0, 0.005785540025978332
859.0, 0.009121870851877463
860.0, 0.01002651455815773
861.0, 0.007412618332590173
862.0, 0.007985588687967908
863.0, 0.008526819368193057
864.0, 0.006877994645448691
865.0, 0.008824684393278815
866.0, 0.006098485477351751
867.0, 0.007285328805290641
868.0, 0.010318998060988889
869.0, 0.0107417556045812
870.0, 0.010785122734339205
871.0, 0.011594184797743247
872.0, 0.006650939452113524
873.0, 0.008065048805068795
874.0, 0.009313134486240103
875.0, 0.003863875374103125
876.0, 0.006395485580642043
877.0, 0.011831614797352678
878.0, 0.00979006865234262
879.0, 0.005598441076450103
880.0, 0.0038732784084764696
881.0, 0.0018409502505589317
882.0, 0.008083584888021814
883.0, 0.008517399050605425
884.0, 0.005472188335089308
885.0, 0.004930334350502257
886.0, 0.006490078689831318
887.0, 0.00543253517330534
888.0, 0.000609742304449362
889.0, 0.0027093977206721818
890.0, 0.0036627076602924772
891.0, 0.0035721913935077535
892.0, 0.002379818452946375
893.0, 0.002430910973698323
894.0, 0.0034975296616894594
895.0, 0.005332191362586092
896.0, 0.0014530336365980658
897.0, 0.0015545016614702473
898.0, 0.0004884018091985048
899.0, 0.0006289559929240594
900.0, 0.001190604373672272
901.0, 0.0016817055021763523
902.0, 0.0034777461762145636
903.0, 0.0007356769273348796
904.0, 0.00015451897276089942
905.0, 0.001857054739318393
906.0, 0.0023329530499703933
907.0, 0.00041441771706047956
908.0, 0.0009213729428465016
909.0, 0.00043842866395556114
910.0, 0.003168645568720395
911.0, 0.0009904804576073973
912.0, 0.0010558686034324032
913.0, 0.0013361211525932933
914.0, 0.004329038889064068
915.0, 0.0041756740885748505
916.0, 0.007467731749162928
917.0, 0.0077354759513481395
918.0, 0.005146381069998323
919.0, 0.00912377610280869
920.0, 0.011962983954572898
921.0, 0.013553073301048471
922.0, 0.01342306505566484
923.0, 0.01504447983862467
924.0, 0.015767076944435708
925.0, 0.016022095321921767
926.0, 0.025096192230500535
927.0, 0.02544658640269056
928.0, 0.0302570148686857
929.0, 0.028997058702907377
930.0, 0.02762631923064596
931.0, 0.029093128900238734
932.0, 0.03380778276312577
933.0, 0.037389671436808054
934.0, 0.03286899259155884
935.0, 0.041428220904333166
936.0, 0.039319432154276884
937.0, 0.037007572668818864
938.0, 0.03839756422397633
939.0, 0.038709245742055615
940.0, 0.03906063870095351
941.0, 0.04220629857803044
942.0, 0.04135699125071662
943.0, 0.03961905751056019
944.0, 0.040760917086400665
945.0, 0.04707601817961522
946.0, 0.04758579517980076
947.0, 0.041576285322182396
948.0, 0.039625272036588215
949.0, 0.04520098384292947
950.0, 0.04801632217719059
951.0, 0.04720860284473058
952.0, 0.041620499904427455
953.0, 0.04647175168443567
954.0, 0.04444664268548278
955.0, 0.042506542707538036
956.0, 0.042397093110320735
957.0, 0.04052358653977804
958.0, 0.03968688604559264
959.0, 0.034927762086141075
960.0, 0.03333506804556938
961.0, 0.02979589867560548
962.0, 0.029136425007946085
963.0, 0.026661616114080685
964.0, 0.02248238029462465
965.0, 0.018545999941190182
966.0, 0.014288818332495918
967.0, 0.010838221242783856
968.0, 0.006476986227483337
969.0, 0.007510689588370587
970.0, 0.0031864215799822207
971.0, 0.005956783505530947
972.0, 0.01038003787012037
973.0, 0.00935022108081018
974.0, 0.005933927479877933
975.0, 0.0036098645886375983
976.0, 0.004436708314060154
977.0, 0.008990331275735841
978.0, 0.00997469798411633
979.0, 0.010853445236195665
980.0, 0.016011915692989917
981.0, 0.01927775758948359
982.0, 0.01940458189182806
983.0, 0.02180203649828233
984.0, 0.023095230833104628
985.0, 0.027880026142035566
986.0, 0.0366200577759347
987.0, 0.04088955952358556
988.0, 0.04542741188087909
989.0, 0.046752014803864345
990.0, 0.04875786257398508
991.0, 0.05503255013239902
992.0, 0.05963597994656703
993.0, 0.06308971708553764
994.0, 0.06268155890067859
995.0, 0.06711520033463117
996.0, 0.06829385077225664
997.0, 0.06753989092077146
998.0, 0.0683032706986029
999.0, 0.06946308217196054
1000.0, 0.06780587018337106
1001.0, 0.06156278492076189
1002.0, 0.055346870254987295
1003.0, 0.054924416554865955
1004.0, 0.05113229822851441
1005.0, 0.053467560945212586
1006.0, 0.049998944650431525
1007.0, 0.04432519655144708
1008.0, 0.045572069749386726
1009.0, 0.04868726041397792
1010.0, 0.0470201069741338
1011.0, 0.04400533388952101
1012.0, 0.0369544390423177
1013.0, 0.03946730454345741
1014.0, 0.041910249628666976
1015.0, 0.0410977492257837
1016.0, 0.04014981204386106
1017.0, 0.04005804335290081
1018.0, 0.03798480427549668
1019.0, 0.03308049084284582
1020.0, 0.03339587128745661
1021.0, 0.03177473829991402
1022.0, 0.02762823788572747
1023.0, 0.02737072669818767
1024.0, 0.026407506820004843
1025.0, 0.02565950361199255
1026.0, 0.025281482953640338
1027.0, 0.023273857092938596
1028.0, 0.022318316033974776
1029.0, 0.01763724819593655
1030.0, 0.01470904913589728
1031.0, 0.016064612575997176
1032.0, 0.018598602246941834
1033.0, 0.015167788211219203
1034.0, 0.014222222590119876
1035.0, 0.016116524788908577
1036.0, 0.015038067551426192
1037.0, 0.015694812565669576
1038.0, 0.012329287565415396
1039.0, 0.009712499250591264
1040.0, 0.00899525390413312
1041.0, 0.007606561958568529
1042.0, 0.007792991513827792
1043.0, 0.007785325476820949
1044.0, 0.006408104492030976
1045.0, 0.0042527841904302765
1046.0, 0.004436478276825638
1047.0, 0.011286580318721432
1048.0, 0.006136107295023968
1049.0, 0.004306896467630487
1050.0, 0.0008670381182578777
1051.0, 0.0027944868766540476
1052.0, 0.0051172099964870285
1053.0, 0.00404855980831708
1054.0, 0.0015145466548393328
1055.0, 0.004345765399170876
1056.0, 0.0016237659962463585
1057.0, 0.0004409980033208996
1058.0, 0.003861123054851843
1059.0, 0.0015205674720478628
1060.0, 0.0020743731405746535
1061.0, 0.0011152480598950387
1062.0, 0.001540847824437701
1063.0, 0.0018535511428997445
1064.0, 0.0017605364077489928
1065.0, 0.004305323626169933
1066.0, 0.0030863956087033915
1067.0, 0.006587053002717818
1068.0, 0.0006763530529223473
1069.0, 0.0018220113036026948
1070.0, 0.0037324290315751242
1071.0, 0.0008820106902564991
1072.0, 0.0014098068018394729
1073.0, 0.0027353208547925487
1074.0, 0.005228264212697402
1075.0, 0.003152606514761858
1076.0, 0.006220998537653948
1077.0, 0.004768961107279194
1078.0, 0.00899418835235023
1079.0, 0.013818294527782759
1080.0, 0.01783885254106374
1081.0, 0.017989196627790256
1082.0, 0.014810668181256864
1083.0, 0.015610303098397784
1084.0, 0.02260242259924108
1085.0, 0.026093409367442463
1086.0, 0.023422214928874915
1087.0, 0.029926345217892707
1088.0, 0.03153684962299389
1089.0, 0.0336993808543426
1090.0, 0.035080454979551395
1091.0, 0.04002873540384706
1092.0, 0.04551664490313946
1093.0, 0.04849813469156826
1094.0, 0.051420619004130856
1095.0, 0.055469439123506756
1096.0, 0.061018110811861974
1097.0, 0.06272268187953571
1098.0, 0.05553500798563318
1099.0, 0.06314971579446477
1100.0, 0.06617275588064422
1101.0, 0.06623006040769304
1102.0, 0.06951195997805286
1103.0, 0.06866609198517788
1104.0, 0.06455186480925729
1105.0, 0.0677846105334267
1106.0, 0.06914532805076101
1107.0, 0.066632506791543
1108.0, 0.06799981783172449
1109.0, 0.07255504703001986
1110.0, 0.07044290551607413
1111.0, 0.06849333026762959
1112.0, 0.06806462249385402
1113.0, 0.06980979242544967
1114.0, 0.0699070620263856
1115.0, 0.06471651360187074
1116.0, 0.0658530670041739
1117.0, 0.06739238445019943
1118.0, 0.06312655117256408
1119.0, 0.06727523585613726
1120.0, 0.06752379508370072
1121.0, 0.06824590275166693
1122.0, 0.06652286679576212
1123.0, 0.06344937695023525
1124.0, 0.06411443406447129
1125.0, 0.0659543908422625
1126.0, 0.0632903154547021
1127.0, 0.06068430960572791
1128.0, 0.05699846342354906
1129.0, 0.05642640726552217
1130.0, 0.056300816184069014
1131.0, 0.05513358452840367
1132.0, 0.050426032242923614
1133.0, 0.05180280228208789
1134.0, 0.046529642604503846
1135.0, 0.03983012965538877
1136.0, 0.04469275479979706
1137.0, 0.04415244008958601
1138.0, 0.03892404282300241
1139.0, 0.04018102377748181
1140.0, 0.043793890783420816
1141.0, 0.04036188455705874
1142.0, 0.04071265811376195
1143.0, 0.03724294199258115
1144.0, 0.033934579805785216
1145.0, 0.03559602943461719
1146.0, 0.03744442607195581
1147.0, 0.03902741875013895
1148.0, 0.04102842702103397
1149.0, 0.03503400730950201
1150.0, 0.036407678271317606
1151.0, 0.039682446124471464
1152.0, 0.04520069320618442
1153.0, 0.043964818768778446
1154.0, 0.04475776972802938
1155.0, 0.04466687800245641
1156.0, 0.042714784352727284
1157.0, 0.04168401686631091
1158.0, 0.03984091641512655
1159.0, 0.03557641996608179
1160.0, 0.034069628958746614
1161.0, 0.03958462611143556
1162.0, 0.03814228883322524
1163.0, 0.0372466272689126
1164.0, 0.03966971085066654
1165.0, 0.039590268013553004
1166.0, 0.03556363728644498
1167.0, 0.03750893881161916
1168.0, 0.03797731428270282
1169.0, 0.034017410738196086
1170.0, 0.034122762634858105
1171.0, 0.03174473486123434
1172.0, 0.03340250506261468
1173.0, 0.03052813032091635
1174.0, 0.02900726002518071
1175.0, 0.02984706229892934
1176.0, 0.02601719498327102
1177.0, 0.02710411250609338
1178.0, 0.030594916647351963
1179.0, 0.02888915373684161
1180.0, 0.026073045563163467
1181.0, 0.026488299164388295
1182.0, 0.02519363724616971
1183.0, 0.021912236115838073
1184.0, 0.0212545490970875
1185.0, 0.020896201207376935
1186.0, 0.015801786305339436
1187.0, 0.016966954408466645
1188.0, 0.017451955569320138
1189.0, 0.015853054908366214
1190.0, 0.014704044524407245
1191.0, 0.01224861022781745
1192.0, 0.011536114205608808
1193.0, 0.010432225706147475
1194.0, 0.004899439330093554
1195.0, 0.007912940306716349
1196.0, 0.008478786136949386
1197.0, 0.008511520332633749
1198.0, 0.00811357694857526
1199.0, 0.0075391539926310345
1200.0, 0.006164576424902616
1201.0, 0.005661048196569315
1202.0, 0.007653082705846054
1203.0, 0.006150386767086979
1204.0, 0.0030567325143661434
1205.0, 0.0028620239390226834
1206.0, 0.003049024586446744
1207.0, 0.002903493237369496
1208.0, 0.0031707621290324004
1209.0, 0.0025299682273447295
1210.0, 0.0006149474917080171
1211.0, 0.0017692019527330235
1212.0, 0.0010529117004942318
1213.0, 0.0009390041284324421
1214.0, 0.0012728561524175362
1215.0, 0.0005450255197082357
1216.0, 0.0007797347550422155
1217.0, 0.001329902117546698
1218.0, 0.0011910022161321454
1219.0, 0.0013136546407988407
1220.0, 0.00038591320617017776
1221.0, 0.001388027279574015
1222.0, 0.0005765484258018668
1223.0, 0.0016877262834355672
1224.0, 0.001900563587044361
1225.0, 0.0010299094957576147
1226.0, 0.0006054924759951767
1227.0, 0.002906608938569569
1228.0, 0.003762933885929189
1229.0, 0.0010168106517618133
1230.0, 0.001081667457064749
1231.0, 0.00045594024768956173
1232.0, 0.0010270048969711675
1233.0, 0.0015352237565265873
1234.0, 0.0027308188956093053
1235.0, 0.0010180892919131495
1236.0, 0.0007364745892660866
1237.0, 0.0010228931486241596
1238.0, 0.0021202814110518817
1239.0, 0.001528903260656202
1240.0, 0.003439879012799374
1241.0, 0.0032049450364289977
1242.0, 0.0009348440303977657
1243.0, 0.0023685669583382676
1244.0, 0.0036038197948871
1245.0, 0.00309054423890705
1246.0, 0.0007967647265398571
1247.0, 0.0013488763034366948
1248.0, 0.0019837671911388413
1249.0, 0.0034602580915974583
1250.0, 0.0027312438325165335
1251.0, 0.0017749622260479101
1252.0, 0.0025930607454396543
1253.0, 0.0008759994015689915
1254.0, 0.0032847319281513092
1255.0, 0.008649143131834798
1256.0, 0.006697667425953124
1257.0, 0.0029805725938532508
1258.0, 0.005431095374163412
1259.0, 0.008589053298431768
1260.0, 0.006210201232219788
1261.0, 0.009397521208196556
1262.0, 0.005197580317201383
1263.0, 0.005178329317397573
1264.0, 0.0038748385415443396
1265.0, 0.00693688308641305
1266.0, 0.00632243560486983
1267.0, 0.003905799118192422
1268.0, 0.003725765709982733
1269.0, 0.0016450053974625305
1270.0, 0.004393341035333466
1271.0, 0.006641155734663464
1272.0, 0.005663902884337409
1273.0, 0.0070252857420690555
1274.0, 0.003896767970556519
1275.0, 0.007477501065446276
1276.0, 0.007787359466122803
1277.0, 0.006435308427489974
1278.0, 0.006030592359987841
1279.0, 0.00488594071775638
1280.0, 0.006586108293077804
1281.0, 0.005618576839608606
1282.0, 0.007520394283576194
1283.0, 0.007198892504437887
1284.0, 0.0046854012578511255
1285.0, 0.005779142388941115
1286.0, 0.006916506055787299
1287.0, 0.0063097845879077075
1288.0, 0.004066657445296919
1289.0, 0.0038468745797214645
1290.0, 0.004599071439075119
1291.0, 0.0031872484445384605
1292.0, 0.004071119887459483
1293.0, 0.0033459145655999594
1294.0, 0.0009827290537114041
1295.0, 0.0024458430108589358
1296.0, 0.000771821405287802
1297.0, 0.00028212881939150667
1298.0, 0.004891486471727919
1299.0, 0.0024916895675288447
1300.0, 0.00010680740894092344
1301.0, 0.002448404313577856
1302.0, 0.0021184103924436265
1303, 0.0
1304, 0.0
1305, 0.0
1306, 0.0
1307, 0.0
1308, 0.0
1309, 0.0
1310, 0.0
1311, 0.0
1312, 0.0
1313, 0.0
1314, 0.0
1315, 0.0
1316, 0.0
1317, 0.0
1318, 0.0
1319, 0.0
1320, 0.0
1321, 0.0
1322, 0.0
1323, 0.0
1324, 0.0
1325, 0.0
1326, 0.0
1327, 0.0
1328, 0.0
1329, 0.0
1330, 0.0
1331, 0.0
1332, 0.0
1333, 0.0
1334, 0.0
1335, 0.0
1336, 0.0
1337, 0.0
1338, 0.0
1339, 0.0
1340, 0.0
1341, 0.0
1342, 0.0
1343, 0.0
1344, 0.0
1345, 0.0
1346, 0.0
1347, 0.0
1348, 0.0
1349, 0.0
1350, 0.0
1351, 0.0
1352, 0.0
1353, 0.0
1354, 0.0
1355, 0.0
1356, 0.0
1357, 0.0
1358, 0.0
1359, 0.0
1360, 0.0
1361, 0.0
1362, 0.0
1363, 0.0
1364, 0.0
1365, 0.0
1366, 0.0
1367, 0.0
1368, 0.0
1369, 0.0
1370, 0.0
1371, 0.0
1372, 0.0
1373, 0.0
1374, 0.0
1375, 0.0
1376, 0.0
1377, 0.0
1378, 0.0
1379, 0.0
1380, 0.0
1381, 0.0
1382, 0.0
1383, 0.0
1384, 0.0
1385, 0.0
1386, 0.0
1387, 0.0
1388, 0.0
1389, 0.0
1390, 0.0
1391, 0.0
1392, 0.0
1393, 0.0
1394, 0.0
1395, 0.0
1396, 0.0
1397, 0.0
1398, 0.0
1399, 0.0
1400, 0.0
1401, 0.0
1402, 0.0
1403, 0.0
1404, 0.0
1405, 0.0
1406, 0.0
1407, 0.0
1408, 0.0
1409, 0.0
1410, 0.0
1411, 0.0
1412, 0.0
1413, 0.0
1414, 0.0
1415, 0.0
1416, 0.0
1417, 0.0
1418, 0.0
1419, 0.0
1420, 0.0
1421, 0.0
1422, 0.0
1423, 0.0
1424, 0.0
1425, 0.0
1426, 0.0
1427, 0.0
1428, 0.0
1429, 0.0
1430, 0.0
1431, 0.0
1432, 0.0
1433, 0.0
1434, 0.0
1435, 0.0
1436, 0.0
1437, 0.0
1438, 0.0
1439, 0.0
1440, 0.0
1441, 0.0
1442, 0.0
1443, 0.0
1444, 0.0
1445, 0.0
1446, 0.0
1447, 0.0
1448, 0.0
1449, 0.0
1450, 0.0
1451, 0.0
1452, 0.0
1453, 0.0
1454, 0.0
1455, 0.0
1456, 0.0
1457, 0.0
1458, 0.0
1459, 0.0
1460, 0.0
1461, 0.0
1462, 0.0
1463, 0.0
1464, 0.0
1465, 0.0
1466, 0.0
1467, 0.0
1468, 0.0
1469, 0.0
1470, 0.0
1471, 0.0
1472, 0.0
1473, 0.0
1474, 0.0
1475, 0.0
1476, 0.0
1477, 0.0
1478, 0.0
1479, 0.0
1480, 0.0
1481, 0.0
1482, 0.0
1483, 0.0
1484, 0.0
1485, 0.0
1486, 0.0
1487, 0.0
1488, 0.0
1489, 0.0
1490, 0.0
1491, 0.0
1492, 0.0
1493, 0.0
1494, 0.0
1495, 0.0
1496, 0.0
1497, 0.0
1498, 0.0
1499, 0.0
1500, 0.0
1501, 0.0
1502, 0.0
1503, 0.0
1504, 0.0
1505, 0.0
1506, 0.0
1507, 0.0
1508, 0.0
1509, 0.0
1510, 0.0
1511, 0.0
1512, 0.0
1513, 0.0
1514, 0.0
1515, 0.0
1516, 0.0
1517, 0.0
1518, 0.0
1519, 0.0
1520, 0.0
1521, 0.0
1522, 0.0
1523, 0.0
1524, 0.0
1525, 0.0
1526, 0.0
1527, 0.0
1528, 0.0
1529, 0.0
1530, 0.0
1531, 0.0
1532, 0.0
1533, 0.0
1534, 0.0
1535, 0.0
1536, 0.0
1537, 0.0
1538, 0.0
1539, 0.0
1540, 0.0
1541, 0.0
1542, 0.0
1543, 0.0
1544, 0.0
1545, 0.0
1546, 0.0
1547, 0.0
1548, 0.0
1549, 0.0
1550, 0.0
1551, 0.0
1552, 0.0
1553, 0.0
1554, 0.0
1555, 0.0
1556, 0.0
1557, 0.0
1558, 0.0
1559, 0.0
1560, 0.0
1561, 0.0
1562, 0.0
1563, 0.0
1564, 0.0
1565, 0.0
1566, 0.0
1567, 0.0
1568, 0.0
1569, 0.0
1570, 0.0
1571, 0.0
1572, 0.0
1573, 0.0
1574, 0.0
1575, 0.0
1576, 0.0
1577, 0.0
1578, 0.0
1579, 0.0
1580, 0.0
1581, 0.0
1582, 0.0
1583, 0.0
1584, 0.0
1585, 0.0
1586, 0.0
1587, 0.0
1588, 0.0
1589, 0.0
1590, 0.0
1591, 0.0
1592, 0.0
1593, 0.0
1594, 0.0
1595, 0.0
1596, 0.0
1597, 0.0
1598, 0.0
1599, 0.0
