30, 0.0
31, 0.0
32, 0.0
33, 0.0
34, 0.0
35, 0.0
36, 0.0
37, 0.0
38, 0.0
39, 0.0
40, 0.0
41, 0.0
42, 0.0
43, 0.0
44, 0.0
45, 0.0
46, 0.0
47, 0.0
48, 0.0
49, 0.0
50, 0.0
51, 0.0
52, 0.0
53, 0.0
54, 0.0
55, 0.0
56, 0.0
57, 0.0
58, 0.0
59, 0.0
60, 0.0
61, 0.0
62, 0.0
63, 0.0
64, 0.0
65, 0.0
66, 0.0
67, 0.0
68, 0.0
69, 0.0
70, 0.0
71, 0.0
72, 0.0
73, 0.0
74, 0.0
75, 0.0
76, 0.0
77, 0.0
78, 0.0
79, 0.0
80, 0.0
81, 0.0
82, 0.0
83, 0.0
84, 0.0
85, 0.0
86, 0.0
87, 0.0
88, 0.0
89, 0.0
90, 0.0
91, 0.0
92, 0.0
93, 0.0
94, 0.0
95, 0.0
96, 0.0
97, 0.0
98, 0.0
99, 0.0
100, 0.0
101, 0.0
102, 0.0
103, 0.0
104, 0.0
105, 0.0
106, 0.0
107, 0.0
108, 0.0
109, 0.0
110, 0.0
111, 0.0
112, 0.0
113, 0.0
114, 0.0
115, 0.0
116, 0.0
117, 0.0
118, 0.0
119, 0.0
120, 0.0
121, 0.0
122, 0.0
123, 0.0
124, 0.0
125, 0.0
126, 0.0
127, 0.0
128, 0.0
129, 0.0
130.0, 0.004023429540397214
131.0, 0.005379267711673673
132.0, 0.0006832533856665305
133.0, 0.000552508027100712
134.0, 0.0003335167595454925
135.0, 0.0012254367742965048
136.0, 0.00856524274612976
137.0, 0.014432656597042366
138.0, 0.01883931846248685
139.0, 0.02224936704779174
140.0, 0.02243396453172255
141.0, 0.01893144575504639
142.0, 0.01808478127873139
143.0, 0.020597183043722316
144.0, 0.020956513535345434
145.0, 0.018241741760039072
146.0, 0.021866796102887276
147.0, 0.02628653540270437
148.0, 0.021133390930369613
149.0, 0.022163180053260848
150.0, 0.023468235705054182
151.0, 0.02476369419105099
152.0, 0.02684701687947392
153.0, 0.026260423366602753
154.0, 0.024874809090794973
155.0, 0.027858338512836957
156.0, 0.03176574881338441
157.0, 0.034147366574664974
158.0, 0.039957800550610094
159.0, 0.04802060552899329
160.0, 0.05574620729288827
161.0, 0.06959866602275457
162.0, 0.0796212017654074
163.0, 0.09125631281702098
164.0, 0.10512559092449328
165.0, 0.11954616041971435
166.0, 0.13733027399683428
167.0, 0.1516570950668259
168.0, 0.1671492499858333
169.0, 0.187670212457732
170.0, 0.20855527696908358
171.0, 0.23242067523893878
172.0, 0.2550661576058106
173.0, 0.275587608627842
174.0, 0.2982882295309971
175.0, 0.31989890267743576
176.0, 0.34143271690857324
177.0, 0.3622815013902927
178.0, 0.3796180334957085
179.0, 0.38931150621590804
180.0, 0.3970627826838232
181.0, 0.40156181061178425
182.0, 0.3999486094647795
183.0, 0.395111615626816
184.0, 0.38420932207163777
185.0, 0.3638017632656694
186.0, 0.3373980722498203
187.0, 0.3139793030408826
188.0, 0.283167121283351
189.0, 0.24815022697509048
190.0, 0.21308909922680647
191.0, 0.1801991698254383
192.0, 0.1463473859132305
193.0, 0.1164621299939857
194.0, 0.09057443581878391
195.0, 0.06809419338990011
196.0, 0.05313533353618869
197.0, 0.038103715847063596
198.0, 0.024950015159326596
199.0, 0.01618913155539097
200.0, 0.01021473419614243
201.0, 0.002361668125282742
202.0, 0.0019926758847705847
203.0, 0.0021269421365821693
204.0, 0.0015019612540937166
205.0, 0.003870617126763432
206.0, 0.004280816108395678
207.0, 0.001865072066672314
208.0, 0.001025796431419935
209.0, 0.0008770339410763327
210.0, 0.003143284848748258
211.0, 0.009108055291387746
212.0, 0.011858186851116295
213.0, 0.010214990784639586
214.0, 0.01751418044229092
215.0, 0.025391282769058436
216.0, 0.03128810162895759
217.0, 0.037072413476100755
218.0, 0.04373035599441808
219.0, 0.047486293937282736
220.0, 0.05341547113872941
221.0, 0.06494868584533937
222.0, 0.0775540411490701
223.0, 0.08698064235242038
224.0, 0.09371721063161488
225.0, 0.10024898646576585
226.0, 0.10972908804314305
227.0, 0.12371306317741165
228.0, 0.1400255980559889
229.0, 0.15449020223501903
230.0, 0.1658476631725105
231.0, 0.18169305463787705
232.0, 0.19729092143656488
233.0, 0.2132006643448111
234.0, 0.23205000524582572
235.0, 0.25603271536034655
236.0, 0.27495881730805216
237.0, 0.2940254555104446
238.0, 0.31808251859358067
239.0, 0.3468214623659551
240.0, 0.37135767542695153
241.0, 0.3924364342557755
242.0, 0.4184565446686646
243.0, 0.45077236230509066
244.0, 0.4829483094997552
245.0, 0.5068208997024981
246.0, 0.5286615630044279
247.0, 0.550220555634579
248.0, 0.5699268216240755
249.0, 0.583388334033629
250.0, 0.5979839385785304
251.0, 0.6082399255044078
252.0, 0.6071189289311889
253.0, 0.5919114507290827
254.0, 0.5871670274563522
255.0, 0.5803277107295867
256.0, 0.5644903358814216
257.0, 0.539601116181528
258.0, 0.521801018870679
259.0, 0.4987443764317265
260.0, 0.4743883902283097
261.0, 0.45384459809076155
262.0, 0.4383513929350404
263.0, 0.42538584535220464
264.0, 0.40597015942132764
265.0, 0.3858557584470765
266.0, 0.37519735059497283
267.0, 0.3688502610245313
268.0, 0.3608346886606611
269.0, 0.35188317963668486
270.0, 0.3446313043546146
271.0, 0.3426038304790713
272.0, 0.33319383975368533
273.0, 0.3227883304342137
274.0, 0.3156081263514746
275.0, 0.30940617169739515
276.0, 0.29055928476115567
277.0, 0.2691391723327323
278.0, 0.24960730864938832
279.0, 0.23208505251610337
280.0, 0.21480407987683411
281.0, 0.19757900947039395
282.0, 0.181827671778106
283.0, 0.1694287008701646
284.0, 0.1590270325538115
285.0, 0.1405176352110181
286.0, 0.1306907653257106
287.0, 0.12064125987131491
288.0, 0.1075735068757647
289.0, 0.09722693280983943
290.0, 0.08832850024058198
291.0, 0.08166831630778593
292.0, 0.07259185070422644
293.0, 0.06177000707207172
294.0, 0.05775117011947923
295.0, 0.05214126237806553
296.0, 0.046216382707351546
297.0, 0.04008871880109848
298.0, 0.03338679988378738
299.0, 0.030561375241460437
300.0, 0.02745723894450519
301.0, 0.025677888795745316
302.0, 0.023447149236800878
303.0, 0.016429008941656522
304.0, 0.01580725367656288
305.0, 0.017140479961573148
306.0, 0.01627039369725795
307.0, 0.012886658772067495
308.0, 0.009817384423384746
309.0, 0.009547782875108766
310.0, 0.007987285605698481
311.0, 0.007195748325734595
312.0, 0.004079010402638192
313.0, 0.0010319887470852931
314.0, 0.001385644721554299
315.0, 0.0025847907768612034
316.0, 0.005987368189134545
317.0, 0.0062530142710625035
318.0, 0.0075908656294818525
319.0, 0.010820668584539478
320.0, 0.010630234406036533
321.0, 0.0055333334833079255
322.0, 0.003864715667708059
323.0, 0.006532835508790569
324.0, 0.005315538662180016
325.0, 0.001477476555489524
326.0, 0.0011302489266118278
327.0, 0.006262405919579179
328.0, 0.006577307279268531
329.0, 0.007381253959643303
330.0, 0.011753183729880962
331.0, 0.013259274117264833
332.0, 0.015988874644011337
333.0, 0.02297269886708405
334.0, 0.028256662769796888
335.0, 0.02789352221014489
336.0, 0.02759661530836917
337.0, 0.034697391402141405
338.0, 0.040443355224207875
339.0, 0.045106498435147635
340.0, 0.05230404073505408
341.0, 0.053415022608249256
342.0, 0.05523099915543242
343.0, 0.060202793410721274
344.0, 0.06623713754965234
345.0, 0.07053290629362197
346.0, 0.07812135081907384
347.0, 0.08629578070140168
348.0, 0.09261432473528375
349.0, 0.09805059661690092
350.0, 0.10679145807031559
351.0, 0.1158505758963944
352.0, 0.12050155965623592
353.0, 0.1280372967485609
354.0, 0.14153410097257188
355.0, 0.14922008538723586
356.0, 0.15329758369719562
357.0, 0.1592011015048615
358.0, 0.16553662460982907
359.0, 0.16992974261695126
360.0, 0.17778731449234372
361.0, 0.1776447490390464
362.0, 0.17661792472335736
363.0, 0.17942840740026333
364.0, 0.18389044643081323
365.0, 0.1818768387475709
366.0, 0.17673521470194758
367.0, 0.17156028542464832
368.0, 0.16804085918861728
369.0, 0.1660591975640757
370.0, 0.15589474338838016
371.0, 0.1536190009767582
372.0, 0.15356762992464054
373.0, 0.14839647732498198
374.0, 0.14068010208756263
375.0, 0.13110839311253378
376.0, 0.12175145102504448
377.0, 0.11545489752410068
378.0, 0.11210262872163818
379.0, 0.10456641612959498
380.0, 0.0973784680798209
381.0, 0.09259666081047639
382.0, 0.08586161844337037
383.0, 0.0754685356055144
384.0, 0.07192752662241976
385.0, 0.06870114778454098
386.0, 0.06292596029648559
387.0, 0.05555694360581201
388.0, 0.04989390501233837
389.0, 0.050228602586519205
390.0, 0.045632322258387654
391.0, 0.03951551300044125
392.0, 0.0342163996032795
393.0, 0.02899258238400035
394.0, 0.024729818625519703
395.0, 0.021749958800600155
396.0, 0.01752058469679879
397.0, 0.011830170757910931
398.0, 0.007193166123136777
399.0, 0.0068897938442814685
400.0, 0.006064531539245835
401.0, 0.002732347851708872
402.0, 0.0014205479580101357
403.0, 0.0028891908422465982
404.0, 0.001243846698618412
405.0, 0.004080564680765231
406.0, 0.005507764252116895
407.0, 0.004035700377869575
408.0, 0.0060760232170531695
409.0, 0.004883412451835493
410.0, 0.00281664512118667
411.0, 0.0009171845913150103
412.0, 0.0005921567806015802
413.0, 0.0015153470383867723
414.0, 0.002475383305270937
415.0, 0.00672291845581315
416.0, 0.011446092930925536
417.0, 0.015954496331896828
418.0, 0.023652635891986313
419.0, 0.028260227645241217
420.0, 0.030909640474700004
421.0, 0.03459244777524249
422.0, 0.03966817799587918
423.0, 0.043634261468256635
424.0, 0.052191904014526995
425.0, 0.05584708953105845
426.0, 0.06302270451402991
427.0, 0.07640132812325241
428.0, 0.08266539332355609
429.0, 0.07939239107216359
430.0, 0.0839156258492918
431.0, 0.09376868397002269
432.0, 0.10350275005923153
433.0, 0.11430551826108307
434.0, 0.12173257948767868
435.0, 0.1345208252836682
436.0, 0.14649973471603184
437.0, 0.15418181979154252
438.0, 0.16491845554570647
439.0, 0.17892487752643266
440.0, 0.18879702892830041
441.0, 0.19924581588301454
442.0, 0.21324671583019247
443.0, 0.2259348359214291
444.0, 0.23332375036527706
445.0, 0.24423126403274747
446.0, 0.25609200278230504
447.0, 0.2663450775506673
448.0, 0.2732911111612082
449.0, 0.2839256730136023
450.0, 0.29026918181200956
451.0, 0.2984073247489025
452.0, 0.3042376770546516
453.0, 0.3125228627132964
454.0, 0.31852608133548893
455.0, 0.324027921226104
456.0, 0.32849938633549725
457.0, 0.32845321942405825
458.0, 0.32296948443828954
459.0, 0.31720734712613324
460.0, 0.31204032855498254
461.0, 0.303761599506021
462.0, 0.2967751511436257
463.0, 0.28971970427848653
464.0, 0.27805263448150047
465.0, 0.2637427455487572
466.0, 0.24908483538598364
467.0, 0.23552034244480355
468.0, 0.2216140619085021
469.0, 0.20840251743528715
470.0, 0.20259893333319196
471.0, 0.19467185911295246
472.0, 0.1845357714288947
473.0, 0.17594833023566736
474.0, 0.1680150691107912
475.0, 0.16269529848191813
476.0, 0.15688336768261008
477.0, 0.14998804541726052
478.0, 0.14341302604329698
479.0, 0.1382027635925119
480.0, 0.13830397777035405
481.0, 0.14014519655572544
482.0, 0.14096840715409661
483.0, 0.14350276057104522
484.0, 0.15143792764179032
485.0, 0.14767846221518052
486.0, 0.15077697334386875
487.0, 0.1553525651087409
488.0, 0.1591086616576562
489.0, 0.1663863978137114
490.0, 0.1717277097314174
491.0, 0.1835432902732067
492.0, 0.19320074314725028
493.0, 0.2001717476299582
494.0, 0.21187751664627832
495.0, 0.2265628930000972
496.0, 0.23957793174216802
497.0, 0.250821237254559
498.0, 0.26288518170901193
499.0, 0.277487517680038
500.0, 0.29431932702865266
501.0, 0.30531454190776824
502.0, 0.3126595842551872
503.0, 0.312696457613267
504.0, 0.30502938177651906
505.0, 0.2968829107132279
506.0, 0.2838756934175083
507.0, 0.25945245630036834
508.0, 0.2351527387706987
509.0, 0.21299375406706347
510.0, 0.18361234597924675
511.0, 0.1546263333541825
512.0, 0.12854858388890117
513.0, 0.10645888852672218
514.0, 0.08556704174335743
515.0, 0.06415472765341793
516.0, 0.048213178171895715
517.0, 0.03735956409012907
518.0, 0.02739239133948973
519.0, 0.01773438123519453
520.0, 0.0093948891910868
521.0, 0.0038595017469649456
522.0, 0.0003159685687392392
523.0, 0.0017071915999988061
524.0, 0.007034591823296425
525.0, 0.010651084682989965
526.0, 0.01158225171698189
527.0, 0.010413339714457247
528.0, 0.008744785644851484
529.0, 0.009330630854531001
530.0, 0.008980593943705978
531.0, 0.007925073079023454
532.0, 0.006591692990774048
533.0, 0.003837663883167003
534.0, 0.0008053593249525838
535.0, 0.0007752158155202333
536.0, 0.001621104005540436
537.0, 0.0019414151197020618
538.0, 0.00850220615216606
539.0, 0.011731662637776256
540.0, 0.01579529211615388
541.0, 0.02105817037411207
542.0, 0.02409193238940104
543.0, 0.02774619825816559
544.0, 0.030960678229829383
545.0, 0.034775615471277214
546.0, 0.03933554684467666
547.0, 0.04265664689423968
548.0, 0.04268559431083788
549.0, 0.049810530584949865
550.0, 0.053326644490813854
551.0, 0.055877948228724286
552.0, 0.06020291438719733
553.0, 0.06425935554077676
554.0, 0.06498478894121137
555.0, 0.06907255677205681
556.0, 0.07332350669056206
557.0, 0.07522498571837576
558.0, 0.07800477118082258
559.0, 0.0813026852978505
560.0, 0.08586821132150013
561.0, 0.08834452185632495
562.0, 0.0905267353355518
563.0, 0.09507457133849041
564.0, 0.10076945751037576
565.0, 0.10078069246432027
566.0, 0.10652727410464148
567.0, 0.1120041373320516
568.0, 0.11342650850908999
569.0, 0.11289467122613858
570.0, 0.11635707098633898
571.0, 0.12412669466266213
572.0, 0.12857911436424863
573.0, 0.13166143548751907
574.0, 0.1352995384006623
575.0, 0.13901719717896296
576.0, 0.1418424183574561
577.0, 0.14617278559453092
578.0, 0.14713240657151552
579.0, 0.14913858653495563
580.0, 0.15111986009664083
581.0, 0.15321488642090686
582.0, 0.15454684501290653
583.0, 0.16031814137943942
584.0, 0.1651202051152076
585.0, 0.16479386993799566
586.0, 0.16290434628583841
587.0, 0.17030507655195468
588.0, 0.17086392896946404
589.0, 0.1731927192260659
590.0, 0.1780033286382906
591.0, 0.1836383783939367
592.0, 0.19055181627613396
593.0, 0.1963998805287066
594.0, 0.20473507885941106
595.0, 0.21252702167096357
596.0, 0.21886505130493442
597.0, 0.22583551502740903
598.0, 0.23488698211083486
599.0, 0.24136128584981276
600.0, 0.2496754521709316
601.0, 0.2571970605915146
602.0, 0.2635744431430712
603.0, 0.27107776599193567
604.0, 0.2781947894842905
605.0, 0.28712257732344554
606.0, 0.29532280668532973
607.0, 0.30424981593395145
608.0, 0.31600126603015116
609.0, 0.3271196693344087
610.0, 0.3232386651402152
611.0, 0.31613183136461903
612.0, 0.3095401863232066
613.0, 0.3017808487165398
614.0, 0.2914823290442848
615.0, 0.27965852334812746
616.0, 0.2646252860467822
617.0, 0.2497395302840018
618.0, 0.23447595094017828
619.0, 0.2185966285183664
620.0, 0.20486502481244462
621.0, 0.19780306447414797
622.0, 0.19490097054827876
623.0, 0.17979238902960934
624.0, 0.16396561989912997
625.0, 0.15380551997038522
626.0, 0.146130671961413
627.0, 0.13981993136333906
628.0, 0.1349576569976699
629.0, 0.13098897086691397
630.0, 0.12399268591630294
631.0, 0.11582803485252538
632.0, 0.1110534879841326
633.0, 0.10538277173413817
634.0, 0.10422570536756019
635.0, 0.09734384592631731
636.0, 0.09083195429778781
637.0, 0.08867121452582023
638.0, 0.08402614114521674
639.0, 0.08107886488424866
640.0, 0.0782374124559904
641.0, 0.07733327743042087
642.0, 0.07467073607065346
643.0, 0.0698141268259245
644.0, 0.06892097811818956
645.0, 0.06740931565399423
646.0, 0.0677993988642651
647.0, 0.06344279672293936
648.0, 0.05827744219395459
649.0, 0.057366673462418236
650.0, 0.05598645760327628
651.0, 0.05541689038536033
652.0, 0.05206449815970659
653.0, 0.049082739581807824
654.0, 0.048006493396500184
655.0, 0.046859735177192545
656.0, 0.04277850009871465
657.0, 0.03638007077815393
658.0, 0.03261948809737492
659.0, 0.030830477229385145
660.0, 0.027354062276456387
661.0, 0.022135893491893502
662.0, 0.022445165469528596
663.0, 0.01898433426902284
664.0, 0.01496151861761482
665.0, 0.01078906888459223
666.0, 0.008541827987041931
667.0, 0.009151726949731879
668.0, 0.006371709004026887
669.0, 0.0021024844515268055
670.0, 0.0035741971065964794
671.0, 0.0019949297014419005
672.0, 0.0003182171129658043
673.0, 0.002540869998341166
674.0, 0.0023495009319680505
675.0, 0.0014001365158364738
676.0, 0.002424715787234572
677.0, 0.005645058912239931
678.0, 0.005480753385717494
679.0, 0.0025954103905957413
680.0, 0.0023701029982617795
681.0, 0.005603543609637438
682.0, 0.004765381409638719
683.0, 0.004681352769105892
684.0, 0.004791540325257634
685.0, 0.00310667727643955
686.0, 0.003912710786302761
687.0, 0.003976841349697947
688.0, 0.004052350630814912
689.0, 0.0012559230563013789
690.0, 0.0008917158614448731
691.0, 0.000852385023702243
692.0, 0.00042919020460539304
693.0, 0.0007992015412112761
694.0, 0.0005937328778404444
695.0, 0.0007853126745429739
696.0, 0.001802198271251134
697.0, 0.002342706334708213
698.0, 0.0018860546211191393
699.0, 0.0015707713801527984
700.0, 0.0009272803741228905
701.0, 0.0008434222032644564
702.0, 0.0015828284411758314
703.0, 0.0005081236600878327
704.0, 0.00013908371587783807
705.0, 0.0010535793530889138
706.0, 0.0005533130846654983
707.0, 0.000972491245171428
708.0, 0.0009532669222772968
709.0, 0.0030545896516554687
710.0, 0.003408678082922606
711.0, 0.0041261281212154576
712.0, 0.001307929825189109
713.0, 0.0024164997989877513
714.0, 0.004915935341779788
715.0, 0.006152619880727175
716.0, 0.006427697823390108
717.0, 0.0063244887363639885
718.0, 0.006156144124840064
719.0, 0.005599722009197525
720.0, 0.006049989192654878
721.0, 0.006160758912983219
722.0, 0.0066052159972795075
723.0, 0.010148536701260716
724.0, 0.007707817474290368
725.0, 0.008055038220648701
726.0, 0.010353226956542953
727.0, 0.008941574703079236
728.0, 0.01127207959733795
729.0, 0.008961162901465215
730.0, 0.009403840340239833
731.0, 0.010074177314403876
732.0, 0.009371836353290138
733.0, 0.00909305634921826
734.0, 0.009186918485590436
735.0, 0.008242707668847667
736.0, 0.008929689455265998
737.0, 0.009765996663373645
738.0, 0.0072317593634529925
739.0, 0.00573252944869326
740.0, 0.005152672115832256
741.0, 0.004312761088729296
742.0, 0.005496377392270461
743.0, 0.0026228964930244685
744.0, 0.0006990823622780685
745.0, 0.0028199379218954083
746.0, 0.00038225987054711294
747.0, 0.0002235767265400875
748.0, 0.0012031969714812395
749.0, 0.0004708672390580284
750.0, 0.000641831469306739
751.0, 0.0008013278894552841
752.0, 0.000669070864512472
753.0, 0.00039146491760702563
754.0, 0.0026451955215351076
755.0, 0.0017270957156522125
756.0, 0.0023010380037651957
757.0, 0.006178180443070187
758.0, 0.003472759467463494
759.0, 0.000745379057121981
760.0, 0.0015510861985081616
761.0, 0.0015546703650534844
762.0, 0.0006826008038923191
763.0, 0.000853463778869334
764.0, 0.0008228864874609644
765.0, 0.0015348639512707681
766.0, 0.0008027765138869789
767.0, 0.002376579362905185
768.0, 0.002333571218956858
769.0, 0.0006281849189732566
770.0, 0.0014522766922128037
771.0, 0.002138444489657274
772.0, 0.00217190816846057
773.0, 0.0008936619062582306
774.0, 0.0005896537403823018
775.0, 0.0009146318349746572
776.0, 0.0018711280494673
777.0, 0.0005626146962056224
778.0, 0.0019524978888643247
779.0, 0.0037513781967527136
780.0, 0.002364599227849703
781.0, 0.0019876728187758416
782.0, 0.0036028597493273098
783.0, 0.002054232161637422
784.0, 0.0033736575680506746
785.0, 0.007341733708760133
786.0, 0.008714518859710479
787.0, 0.007764042752823944
788.0, 0.011503805970913607
789.0, 0.0074876478840884145
790.0, 0.009368107264739661
791.0, 0.011100221967140065
792.0, 0.01362307154066948
793.0, 0.01625635803432545
794.0, 0.016420678718402106
795.0, 0.01758340215116429
796.0, 0.015795113551250503
797.0, 0.019984257109139147
798.0, 0.021482382962639105
799.0, 0.020200649046044152
800.0, 0.019675475686583895
801.0, 0.02401869380842319
802.0, 0.02355455343234073
803.0, 0.025763737509238233
804.0, 0.028088543222093813
805.0, 0.03382547003079901
806.0, 0.03784468402936908
807.0, 0.03832705384997566
808.0, 0.03866543687961847
809.0, 0.04119705056451287
810.0, 0.0423386245227033
811.0, 0.046785213633888656
812.0, 0.05076715060904553
813.0, 0.05078080434490583
814.0, 0.050395727578456215
815.0, 0.052511082685565875
816.0, 0.05671227975957833
817.0, 0.05652052547496234
818.0, 0.05861677541881304
819.0, 0.05992550105482996
820.0, 0.06174434646626095
821.0, 0.06063539905944958
822.0, 0.06114834101095916
823.0, 0.06036086344934528
824.0, 0.059450171566731616
825.0, 0.05780616378272475
826.0, 0.0615025820016106
827.0, 0.05825266439531285
828.0, 0.058496382720672514
829.0, 0.059874621611239125
830.0, 0.06237568792032828
831.0, 0.06286077957572003
832.0, 0.05676416484844579
833.0, 0.053561174832826894
834.0, 0.053907986558625436
835.0, 0.051653535508404576
836.0, 0.046053073775630476
837.0, 0.046797301879775724
838.0, 0.044994079141664284
839.0, 0.040306322949480757
840.0, 0.036436959093700726
841.0, 0.0360421744974252
842.0, 0.036511873826148
843.0, 0.03259712918653564
844.0, 0.030236928294086755
845.0, 0.02855249202943426
846.0, 0.02609132965242696
847.0, 0.024191413588579354
848.0, 0.02288148127874647
849.0, 0.020577354546182307
850.0, 0.01850789678139344
851.0, 0.01651801125982438
852.0, 0.01512389089916369
853.0, 0.015339124882768018
854.0, 0.014255398205410016
855.0, 0.010483538104482874
856.0, 0.007429545412834854
857.0, 0.0044157421690799795
858.0, 0.005277412944970909
859.0, 0.005064646378544585
860.0, 0.005511948750268706
861.0, 0.005611598557578911
862.0, 0.0037222153083637495
863.0, 0.0015471057240090307
864.0, 0.0014634587551966075
865.0, 0.0018201422067602975
866.0, 0.0023621166772848467
867.0, 0.0022353930958077094
868.0, 0.0017677491775417928
869.0, 0.0011966197659218829
870.0, 0.0003607614011567485
871.0, 0.0004772042169951604
872.0, 0.00012415456376880377
873.0, 0.0003636300916424493
874.0, 0.0006767765710993502
875.0, 0.003414640327115327
876.0, 0.006990266121718936
877.0, 0.009464418495111064
878.0, 0.012448216432824373
879.0, 0.016048399631987727
880.0, 0.019154060300506842
881.0, 0.02490589864057542
882.0, 0.030419585974593433
883.0, 0.03542519342682981
884.0, 0.03799963597861153
885.0, 0.041056617616119985
886.0, 0.04731257920490177
887.0, 0.052052174734643256
888.0, 0.05612823528222801
889.0, 0.060237389964333796
890.0, 0.06529064488524654
891.0, 0.06832933700293822
892.0, 0.07171679817432604
893.0, 0.07697042264937541
894.0, 0.07998028679258863
895.0, 0.08290930795250497
896.0, 0.08775234495058425
897.0, 0.08757614407232633
898.0, 0.0884979209343016
899.0, 0.091674514449189
900.0, 0.09240958077144969
901.0, 0.08913861359811986
902.0, 0.08575262917280797
903.0, 0.08998790346246653
904.0, 0.08922373629417253
905.0, 0.08648873659506165
906.0, 0.08386002900277374
907.0, 0.08043605513209742
908.0, 0.07726273203178294
909.0, 0.07330825753777633
910.0, 0.07209678789128056
911.0, 0.06872208203034703
912.0, 0.0647907466380167
913.0, 0.06016146997600957
914.0, 0.055282279135371176
915.0, 0.05111216458816061
916.0, 0.047500091689521046
917.0, 0.043480472784858885
918.0, 0.04025035612790017
919.0, 0.03465280416256214
920.0, 0.03188739017837441
921.0, 0.028492682811466667
922.0, 0.02403958709151912
923.0, 0.021508873208812156
924.0, 0.020272560732803275
925.0, 0.015827385283609115
926.0, 0.014741338576480977
927.0, 0.013393158522914323
928.0, 0.01122075922394251
929.0, 0.007996561205151664
930.0, 0.0036226349152715153
931.0, 0.0001534847277359626
932.0, 0.002128758410337306
933.0, 0.002376813038937078
934.0, 0.005298422750614998
935.0, 0.006805088585036055
936.0, 0.008207140052466064
937.0, 0.009801208317442734
938.0, 0.01196378284188788
939.0, 0.012784314128478604
940.0, 0.011830622267493372
941.0, 0.011271073940733893
942.0, 0.00963052812287474
943.0, 0.00561905098716468
944.0, 0.0048077329812836155
945.0, 0.003321571052703157
946.0, 0.0018733409868851767
947.0, 0.0008898435067110526
948.0, 0.008400403971717537
949.0, 0.01271896189261786
950.0, 0.02070247565603877
951.0, 0.026679936143631712
952.0, 0.0342789455402172
953.0, 0.04770660697050471
954.0, 0.06406533441979256
955.0, 0.07741569526011173
956.0, 0.08864602377995602
957.0, 0.10595047854227492
958.0, 0.12838982910983038
959.0, 0.1493516496838247
960.0, 0.17586223021280167
961.0, 0.20612468806617856
962.0, 0.2358936975988506
963.0, 0.2667793938611396
964.0, 0.3026812974710773
965.0, 0.34234467689198306
966.0, 0.38719485963310885
967.0, 0.4262382297449722
968.0, 0.47037384148401096
969.0, 0.5201591055202353
970.0, 0.5683055557881337
971.0, 0.6156181165390392
972.0, 0.6693636718230898
973.0, 0.7265730985212532
974.0, 0.7694445385214298
975.0, 0.8182353309129919
976.0, 0.8604797432264779
977.0, 0.8977600330962637
978.0, 0.9303089013296136
979.0, 0.9576095527683411
980.0, 0.9777514065673218
981.0, 0.9885885971075993
982.0, 0.9994653431732219
983.0, 0.9924666158560941
984.0, 0.9881395954083122
985.0, 0.9816066821913926
986.0, 0.9751334733574877
987.0, 0.9653539728988548
988.0, 0.9558410103498571
989.0, 0.9560364077481682
990.0, 0.9509691397229872
991.0, 0.9431808255166955
992.0, 0.947166400055129
993.0, 0.9421738288829745
994.0, 0.9354412433124902
995.0, 0.9347939874482919
996.0, 0.9349150794637948
997.0, 0.9287727503541291
998.0, 0.9184675708588955
999.0, 0.9198316803087241
1000.0, 0.91953413368153
1001.0, 0.9182493850266181
1002.0, 0.9155488887700118
1003.0, 0.9069721029084173
1004.0, 0.897571143280871
1005.0, 0.8917045272630219
1006.0, 0.8853822535742203
1007.0, 0.8780639111884692
1008.0, 0.8718105563026458
1009.0, 0.8605995348581362
1010.0, 0.855382559119114
1011.0, 0.8478158280718868
1012.0, 0.8408147757514451
1013.0, 0.8397918312918066
1014.0, 0.8378581695762107
1015.0, 0.8297746352798084
1016.0, 0.8336486866103912
1017.0, 0.8266730108180677
1018.0, 0.8294434684051776
1019.0, 0.8155742465866029
1020.0, 0.8035751330714619
1021.0, 0.7908715972016006
1022.0, 0.7689764725651438
1023.0, 0.7443437952634542
1024.0, 0.7185499012411728
1025.0, 0.685906372376754
1026.0, 0.6534066265462897
1027.0, 0.6252002707965706
1028.0, 0.5893933299085226
1029.0, 0.555103342240441
1030.0, 0.523532780249271
1031.0, 0.49108431915625467
1032.0, 0.4609120923099267
1033.0, 0.434756859790408
1034.0, 0.40883294222250344
1035.0, 0.38077607118558654
1036.0, 0.3552832318210163
1037.0, 0.3309277645858646
1038.0, 0.30963485676993646
1039.0, 0.28742874805552143
1040.0, 0.26488136447527766
1041.0, 0.24316319648023776
1042.0, 0.21800932340781665
1043.0, 0.20153467121580754
1044.0, 0.18217704708378812
1045.0, 0.16868440907213175
1046.0, 0.1552384448724096
1047.0, 0.13834428250867
1048.0, 0.12239450874726465
1049.0, 0.10650459271446752
1050.0, 0.09172790653341094
1051.0, 0.08462653278412918
1052.0, 0.07328533736631823
1053.0, 0.06375281933242319
1054.0, 0.05839605776720924
1055.0, 0.04953507967679587
1056.0, 0.0392319492692318
1057.0, 0.03211404911620892
1058.0, 0.023672775960589254
1059.0, 0.01705702862123801
1060.0, 0.014642542865358033
1061.0, 0.010360115071645363
1062.0, 0.00681921446897532
1063.0, 0.003944978226714996
1064.0, 0.00023070539169879844
1065.0, 0.002350287547815166
1066.0, 0.006285239900962452
1067.0, 0.00844614064640407
1068.0, 0.010865308509077524
1069.0, 0.005156364286168318
1070.0, 0.006305563597810405
1071.0, 0.005589300146305174
1072.0, 0.00551917857407646
1073.0, 0.0016660985495806377
1074.0, 0.006036660331871894
1075.0, 0.00752914909503167
1076.0, 0.006377083451945337
1077.0, 0.007978303969767234
1078.0, 0.013422604389780515
1079.0, 0.019293987152646613
1080.0, 0.024073576270726222
1081.0, 0.020239685085183614
1082.0, 0.02713222930926173
1083.0, 0.031118083792697628
1084.0, 0.041663115350102836
1085.0, 0.05117953958206382
1086.0, 0.05424741364470884
1087.0, 0.05827565717531216
1088.0, 0.06810474213083703
1089.0, 0.07687871194596844
1090.0, 0.07932185748214882
1091.0, 0.08690060667188144
1092.0, 0.09706678951986494
1093.0, 0.09942274837012594
1094.0, 0.10663908140214613
1095.0, 0.109647628396984
1096.0, 0.11096091639943446
1097.0, 0.11646665470190526
1098.0, 0.12249018877946424
1099.0, 0.12416731704549105
1100.0, 0.12405217394625732
1101.0, 0.12117826142254852
1102.0, 0.11927352950946657
1103.0, 0.11786772372739877
1104.0, 0.11383359729652848
1105.0, 0.10558258998442657
1106.0, 0.10149147057137364
1107.0, 0.0974885639226645
1108.0, 0.08930849413514085
1109.0, 0.0867794802211262
1110.0, 0.0808499029704099
1111.0, 0.07558514288258616
1112.0, 0.07125257020357208
1113.0, 0.06523807494265703
1114.0, 0.05732955917085098
1115.0, 0.04965721667758392
1116.0, 0.04612148514600643
1117.0, 0.04456116556929128
1118.0, 0.0408347419786644
1119.0, 0.03777235885476842
1120.0, 0.03481009519423695
1121.0, 0.033229242907758125
1122.0, 0.030522838711499987
1123.0, 0.028592647690002013
1124.0, 0.025610021105886904
1125.0, 0.021798148012811075
1126.0, 0.019432792728715977
1127.0, 0.018093476321094464
1128.0, 0.017149180639579875
1129.0, 0.01831373422667526
1130.0, 0.01519305989038512
1131.0, 0.011841909259446462
1132.0, 0.0148256785615292
1133.0, 0.010829066471496352
1134.0, 0.01308299041316472
1135.0, 0.010371496466029122
1136.0, 0.008518900860568513
1137.0, 0.008266579476609378
1138.0, 0.005051729235371865
1139.0, 0.0018113097459516142
1140.0, 0.0009546078063960803
1141.0, 0.004570882361343828
1142.0, 0.006369048586325414
1143.0, 0.0043417406751019
1144.0, 0.0021322636425666233
1145.0, 0.0016362470710183435
1146.0, 0.0036805755020429365
1147.0, 0.0019360790929156503
1148.0, 0.0019436196314360943
1149.0, 0.006528563149773773
1150.0, 0.009829687515791066
1151.0, 0.007795219398871168
1152.0, 0.003892807311665938
1153.0, 0.007942332774755053
1154.0, 0.0034632078966533686
1155.0, 0.0036395178292795123
1156.0, 0.0019058870164123886
1157.0, 0.0007893627192353505
1158.0, 0.0019390420060657176
1159.0, 0.0017446718522034152
1160.0, 0.0016132941788210907
1161.0, 0.0014734252571955739
1162.0, 0.002803300403196572
1163.0, 0.005030932087509681
1164.0, 0.006899963015860064
1165.0, 0.006188243329791363
1166.0, 0.007108582327444939
1167.0, 0.011802105121770809
1168.0, 0.011022913218709608
1169.0, 0.012772386051820983
1170.0, 0.012697241309753917
1171.0, 0.012389107972227776
1172.0, 0.015178369585486084
1173.0, 0.017472647020508304
1174.0, 0.018715411129186656
1175.0, 0.020573951323855148
1176.0, 0.019172832519357638
1177.0, 0.019502818784744313
1178.0, 0.025465302701754775
1179.0, 0.023957900603140438
1180.0, 0.02306564831070435
1181.0, 0.024343831080645906
1182.0, 0.025526912113120533
1183.0, 0.02912640631273916
1184.0, 0.029651929117325514
1185.0, 0.03169261137463123
1186.0, 0.03276192987827821
1187.0, 0.03252851516923469
1188.0, 0.03441280825075727
1189.0, 0.03562297506985888
1190.0, 0.032779153496287405
1191.0, 0.03364745587863894
1192.0, 0.0344093158327511
1193.0, 0.03560914024308756
1194.0, 0.03848166532066743
1195.0, 0.03655699075265541
1196.0, 0.035302422858944096
1197.0, 0.034609273065743684
1198.0, 0.03708436757176272
1199.0, 0.03595162810198304
1200.0, 0.0346012336918244
1201.0, 0.038071337172859404
1202.0, 0.037457862924857796
1203.0, 0.03668475591214132
1204.0, 0.03658092696793087
1205.0, 0.03500025514935617
1206.0, 0.03228793386131802
1207.0, 0.030863611247630603
1208.0, 0.031138799020622426
1209.0, 0.02801083774331677
1210.0, 0.027694848433568484
1211.0, 0.02310787672421865
1212.0, 0.020774826034071457
1213.0, 0.021136229829907163
1214.0, 0.021624332489354782
1215.0, 0.02025335394310324
1216.0, 0.020332982324845313
1217.0, 0.018434505722481016
1218.0, 0.014266206841877184
1219.0, 0.013943573997931329
1220.0, 0.012138229425312595
1221.0, 0.01228476952222148
1222.0, 0.009785979462557609
1223.0, 0.011281453835663256
1224.0, 0.008459440152267975
1225.0, 0.009272105384372408
1226.0, 0.010507783897201474
1227.0, 0.00818974609323544
1228.0, 0.011480454747130395
1229.0, 0.00879170674772947
1230.0, 0.009448298436298271
1231.0, 0.010367389495901408
1232.0, 0.010477421021849833
1233.0, 0.011222674342249873
1234.0, 0.010466388692175609
1235.0, 0.010052523251106688
1236.0, 0.009808278814004178
1237.0, 0.013080939405280342
1238.0, 0.011784195324595098
1239.0, 0.012723166342049841
1240.0, 0.01389786651391742
1241.0, 0.014521313244777179
1242.0, 0.012744227259122326
1243.0, 0.012095575272017971
1244.0, 0.015022338521545284
1245.0, 0.017185434185784894
1246.0, 0.019486994246089157
1247.0, 0.017953129302247163
1248.0, 0.017150383449327067
1249.0, 0.01637826624620228
1250.0, 0.020094364483260685
1251.0, 0.01932409654376819
1252.0, 0.018430625481299194
1253.0, 0.019609228220624893
1254.0, 0.021897649277784044
1255.0, 0.022098834160800024
1256.0, 0.021675570184163988
1257.0, 0.021694080083423033
1258.0, 0.020487684236407292
1259.0, 0.02185006382154779
1260.0, 0.021521648302041094
1261.0, 0.02041128118870687
1262.0, 0.018358538374615877
1263.0, 0.019244484926556518
1264.0, 0.01898252433407263
1265.0, 0.019092555350288958
1266.0, 0.016963691032725475
1267.0, 0.01743839484206713
1268.0, 0.015527720220123498
1269.0, 0.013415331370120664
1270.0, 0.015991287102009942
1271.0, 0.01827411631107501
1272.0, 0.01774111308901617
1273.0, 0.01666988994214921
1274.0, 0.016815998930096672
1275.0, 0.015590650347991264
1276.0, 0.013756117300685159
1277.0, 0.01508770600824161
1278.0, 0.0108936312316987
1279.0, 0.009605472388117275
1280.0, 0.010723191858118285
1281.0, 0.009024551697823105
1282.0, 0.0068579211530560655
1283.0, 0.007117539763296927
1284.0, 0.005901579465474407
1285.0, 0.0066371721260259356
1286.0, 0.006186845661830099
1287.0, 0.004485991300128445
1288.0, 0.0035532205117139626
1289.0, 0.002896799076620677
1290.0, 0.0011011379414356123
1291.0, 0.002723558090612392
1292.0, 0.0003978240350894439
1293.0, 0.00015289804325287716
1294.0, 0.0031755723986679157
1295.0, 0.001620705727306355
1296.0, 0.0004890352629867108
1297, 0.0
1298, 0.0
1299, 0.0
1300, 0.0
1301, 0.0
1302, 0.0
1303, 0.0
1304, 0.0
1305, 0.0
1306, 0.0
1307, 0.0
1308, 0.0
1309, 0.0
1310, 0.0
1311, 0.0
1312, 0.0
1313, 0.0
1314, 0.0
1315, 0.0
1316, 0.0
1317, 0.0
1318, 0.0
1319, 0.0
1320, 0.0
1321, 0.0
1322, 0.0
1323, 0.0
1324, 0.0
1325, 0.0
1326, 0.0
1327, 0.0
1328, 0.0
1329, 0.0
1330, 0.0
1331, 0.0
1332, 0.0
1333, 0.0
1334, 0.0
1335, 0.0
1336, 0.0
1337, 0.0
1338, 0.0
1339, 0.0
1340, 0.0
1341, 0.0
1342, 0.0
1343, 0.0
1344, 0.0
1345, 0.0
1346, 0.0
1347, 0.0
1348, 0.0
1349, 0.0
1350, 0.0
1351, 0.0
1352, 0.0
1353, 0.0
1354, 0.0
1355, 0.0
1356, 0.0
1357, 0.0
1358, 0.0
1359, 0.0
1360, 0.0
1361, 0.0
1362, 0.0
1363, 0.0
1364, 0.0
1365, 0.0
1366, 0.0
1367, 0.0
1368, 0.0
1369, 0.0
1370, 0.0
1371, 0.0
1372, 0.0
1373, 0.0
1374, 0.0
1375, 0.0
1376, 0.0
1377, 0.0
1378, 0.0
1379, 0.0
1380, 0.0
1381, 0.0
1382, 0.0
1383, 0.0
1384, 0.0
1385, 0.0
1386, 0.0
1387, 0.0
1388, 0.0
1389, 0.0
1390, 0.0
1391, 0.0
1392, 0.0
1393, 0.0
1394, 0.0
1395, 0.0
1396, 0.0
1397, 0.0
1398, 0.0
1399, 0.0
1400, 0.0
1401, 0.0
1402, 0.0
1403, 0.0
1404, 0.0
1405, 0.0
1406, 0.0
1407, 0.0
1408, 0.0
1409, 0.0
1410, 0.0
1411, 0.0
1412, 0.0
1413, 0.0
1414, 0.0
1415, 0.0
1416, 0.0
1417, 0.0
1418, 0.0
1419, 0.0
1420, 0.0
1421, 0.0
1422, 0.0
1423, 0.0
1424, 0.0
1425, 0.0
1426, 0.0
1427, 0.0
1428, 0.0
1429, 0.0
1430, 0.0
1431, 0.0
1432, 0.0
1433, 0.0
1434, 0.0
1435, 0.0
1436, 0.0
1437, 0.0
1438, 0.0
1439, 0.0
1440, 0.0
1441, 0.0
1442, 0.0
1443, 0.0
1444, 0.0
1445, 0.0
1446, 0.0
1447, 0.0
1448, 0.0
1449, 0.0
1450, 0.0
1451, 0.0
1452, 0.0
1453, 0.0
1454, 0.0
1455, 0.0
1456, 0.0
1457, 0.0
1458, 0.0
1459, 0.0
1460, 0.0
1461, 0.0
1462, 0.0
1463, 0.0
1464, 0.0
1465, 0.0
1466, 0.0
1467, 0.0
1468, 0.0
1469, 0.0
1470, 0.0
1471, 0.0
1472, 0.0
1473, 0.0
1474, 0.0
1475, 0.0
1476, 0.0
1477, 0.0
1478, 0.0
1479, 0.0
1480, 0.0
1481, 0.0
1482, 0.0
1483, 0.0
1484, 0.0
1485, 0.0
1486, 0.0
1487, 0.0
1488, 0.0
1489, 0.0
1490, 0.0
1491, 0.0
1492, 0.0
1493, 0.0
1494, 0.0
1495, 0.0
1496, 0.0
1497, 0.0
1498, 0.0
1499, 0.0
1500, 0.0
1501, 0.0
1502, 0.0
1503, 0.0
1504, 0.0
1505, 0.0
1506, 0.0
1507, 0.0
1508, 0.0
1509, 0.0
1510, 0.0
1511, 0.0
1512, 0.0
1513, 0.0
1514, 0.0
1515, 0.0
1516, 0.0
1517, 0.0
1518, 0.0
1519, 0.0
1520, 0.0
1521, 0.0
1522, 0.0
1523, 0.0
1524, 0.0
1525, 0.0
1526, 0.0
1527, 0.0
1528, 0.0
1529, 0.0
1530, 0.0
1531, 0.0
1532, 0.0
1533, 0.0
1534, 0.0
1535, 0.0
1536, 0.0
1537, 0.0
1538, 0.0
1539, 0.0
1540, 0.0
1541, 0.0
1542, 0.0
1543, 0.0
1544, 0.0
1545, 0.0
1546, 0.0
1547, 0.0
1548, 0.0
1549, 0.0
1550, 0.0
1551, 0.0
1552, 0.0
1553, 0.0
1554, 0.0
1555, 0.0
1556, 0.0
1557, 0.0
1558, 0.0
1559, 0.0
1560, 0.0
1561, 0.0
1562, 0.0
1563, 0.0
1564, 0.0
1565, 0.0
1566, 0.0
1567, 0.0
1568, 0.0
1569, 0.0
1570, 0.0
1571, 0.0
1572, 0.0
1573, 0.0
1574, 0.0
1575, 0.0
1576, 0.0
1577, 0.0
1578, 0.0
1579, 0.0
1580, 0.0
1581, 0.0
1582, 0.0
1583, 0.0
1584, 0.0
1585, 0.0
1586, 0.0
1587, 0.0
1588, 0.0
1589, 0.0
1590, 0.0
1591, 0.0
1592, 0.0
1593, 0.0
1594, 0.0
1595, 0.0
1596, 0.0
1597, 0.0
1598, 0.0
1599, 0.0
