30, 0.0
31, 0.0
32, 0.0
33, 0.0
34, 0.0
35, 0.0
36, 0.0
37, 0.0
38, 0.0
39, 0.0
40, 0.0
41, 0.0
42, 0.0
43, 0.0
44, 0.0
45, 0.0
46, 0.0
47, 0.0
48, 0.0
49, 0.0
50, 0.0
51, 0.0
52, 0.0
53, 0.0
54, 0.0
55, 0.0
56, 0.0
57, 0.0
58, 0.0
59, 0.0
60, 0.0
61, 0.0
62, 0.0
63, 0.0
64, 0.0
65, 0.0
66, 0.0
67, 0.0
68, 0.0
69, 0.0
70, 0.0
71, 0.0
72, 0.0
73, 0.0
74, 0.0
75, 0.0
76, 0.0
77, 0.0
78, 0.0
79, 0.0
80, 0.0
81, 0.0
82, 0.0
83, 0.0
84, 0.0
85, 0.0
86, 0.0
87, 0.0
88, 0.0
89, 0.0
90, 0.0
91, 0.0
92, 0.0
93, 0.0
94, 0.0
95, 0.0
96, 0.0
97, 0.0
98, 0.0
99, 0.0
100, 0.0
101, 0.0
102, 0.0
103, 0.0
104, 0.0
105, 0.0
106, 0.0
107, 0.0
108, 0.0
109, 0.0
110, 0.0
111, 0.0
112, 0.0
113, 0.0
114, 0.0
115, 0.0
116, 0.0
117, 0.0
118, 0.0
119, 0.0
120, 0.0
121, 0.0
122, 0.0
123, 0.0
124, 0.0
125, 0.0
126, 0.0
127, 0.0
128, 0.0
129, 0.0
130, 0.0
131, 0.0
132, 0.0
133, 0.0
134, 0.0
135, 0.0
136, 0.0
137, 0.0
138, 0.0
139, 0.0
140, 0.0
141, 0.0
142, 0.0
143, 0.0
144, 0.0
145, 0.0
146, 0.0
147, 0.0
148, 0.0
149, 0.0
150.0, 0.000404015289209069
151.0, 0.002642147906090727
152.0, 0.0001461559267864992
153.0, 0.0011640440784931297
154.0, 0.002364037159495326
155.0, 0.0013496430557302405
156.0, 0.0002737170346466274
157.0, 0.003806210992118951
158.0, 0.0028805121344165187
159.0, 0.006826702351968149
160.0, 0.011994233081801071
161.0, 0.007396092960302674
162.0, 0.0068585492724552236
163.0, 0.0129176747781297
164.0, 0.02011391061565383
165.0, 0.022721279893237776
166.0, 0.021482319462243646
167.0, 0.020654909191568732
168.0, 0.022040566802860886
169.0, 0.025241259251260032
170.0, 0.02890018347546062
171.0, 0.030773669557770833
172.0, 0.034615320025703056
173.0, 0.03690344044387382
174.0, 0.028955002810536166
175.0, 0.03515717129465803
176.0, 0.0377214115095792
177.0, 0.03698965112971644
178.0, 0.03944386243759116
179.0, 0.038238978652550125
180.0, 0.039745772614085885
181.0, 0.04428467863084955
182.0, 0.04734328390216378
183.0, 0.043885736444568765
184.0, 0.05003246414097136
185.0, 0.04881820247115862
186.0, 0.044274114704165986
187.0, 0.051670656028721035
188.0, 0.050758244713553405
189.0, 0.04795771580767475
190.0, 0.04693578007145481
191.0, 0.04828303451605427
192.0, 0.05095209410321969
193.0, 0.052363988527563736
194.0, 0.049963686501570466
195.0, 0.04537375880166502
196.0, 0.04407373093893962
197.0, 0.04353934307428749
198.0, 0.04545644721143504
199.0, 0.04546181437388287
200.0, 0.0401418611558044
201.0, 0.03521689247678755
202.0, 0.03681894772226814
203.0, 0.036796843037299895
204.0, 0.03510133161522491
205.0, 0.040883018872851326
206.0, 0.03924704845061651
207.0, 0.03541699237893623
208.0, 0.03270681082707411
209.0, 0.0308583496362802
210.0, 0.032547456637468344
211.0, 0.03245933996592412
212.0, 0.03270463107786766
213.0, 0.03420380281708158
214.0, 0.028329881643487518
215.0, 0.028557667923679763
216.0, 0.030724374356418553
217.0, 0.03021041765995419
218.0, 0.024979778678120273
219.0, 0.022358010208795666
220.0, 0.021884418945321747
221.0, 0.022916158012073622
222.0, 0.02405371094758557
223.0, 0.022893017165404178
224.0, 0.024065892795685075
225.0, 0.02482591719014505
226.0, 0.025550194937350987
227.0, 0.028876745038825515
228.0, 0.02436669295696059
229.0, 0.022103009318036947
230.0, 0.022925013155352985
231.0, 0.023339003435591095
232.0, 0.019159094384102817
233.0, 0.021412474471745338
234.0, 0.025913505446453013
235.0, 0.02652584013527067
236.0, 0.02172144787946171
237.0, 0.020417291485384882
238.0, 0.019185635404807656
239.0, 0.019307438475469528
240.0, 0.02022884221711548
241.0, 0.01591929917012866
242.0, 0.01671483337444586
243.0, 0.018323141205514558
244.0, 0.017459374446448947
245.0, 0.015189736547384682
246.0, 0.01664412227833307
247.0, 0.016042338903828574
248.0, 0.014680594959170153
249.0, 0.013212631069173423
250.0, 0.008529407761797576
251.0, 0.0037837714407318265
252.0, 0.003427889464895899
253.0, 0.0063764101735919575
254.0, 0.008899416240958425
255.0, 0.005364156854028807
256.0, 0.00374998556674074
257.0, 0.002914725579694754
258.0, 0.0016723120839951921
259.0, 0.0019899295833367783
260.0, 0.0006187462735522012
261.0, 0.0009371952354688725
262.0, 0.003174641401585001
263.0, 0.0035019452997364277
264.0, 0.003502644767442098
265.0, 0.0017885167235402273
266.0, 0.0006606558086516858
267.0, 0.0013279394651042552
268.0, 0.002714204148483543
269.0, 0.000638718574278289
270.0, 0.0018078045917903555
271.0, 0.002788165810007534
272.0, 0.005680877810021924
273.0, 0.009318942727778627
274.0, 0.01357290395246178
275.0, 0.015489264644905182
276.0, 0.01652315076107544
277.0, 0.018657316773563026
278.0, 0.01955651773589155
279.0, 0.022685865019002313
280.0, 0.026943999836540777
281.0, 0.029368005977564716
282.0, 0.027799335217698354
283.0, 0.026535960788218776
284.0, 0.02951685606691334
285.0, 0.029657924751957408
286.0, 0.025099247425481447
287.0, 0.027624383006388052
288.0, 0.02789770274303653
289.0, 0.029552288753982567
290.0, 0.030380500291914435
291.0, 0.0272900158651817
292.0, 0.027681088881079518
293.0, 0.024565318859765418
294.0, 0.022279099455365256
295.0, 0.0223879853930906
296.0, 0.022037542543280775
297.0, 0.02252326642618633
298.0, 0.02028846058366651
299.0, 0.01952581636162025
300.0, 0.02105443572799222
301.0, 0.018744100257449353
302.0, 0.018499694616274175
303.0, 0.016609793580034664
304.0, 0.016262490593382067
305.0, 0.01888495758876707
306.0, 0.016123046122473807
307.0, 0.013950801888435562
308.0, 0.01084488321484549
309.0, 0.010295424748778738
310.0, 0.015976353635712988
311.0, 0.020134575259750064
312.0, 0.020393463911363607
313.0, 0.021791588634456252
314.0, 0.023681976236629078
315.0, 0.021788044560751663
316.0, 0.024318432842574296
317.0, 0.02259798111990279
318.0, 0.01960805640432632
319.0, 0.01972858655912951
320.0, 0.021834102537946327
321.0, 0.0198744476107104
322.0, 0.015417461331216815
323.0, 0.01338684179759973
324.0, 0.012694858688123487
325.0, 0.0023611539257214357
326.0, 0.0038483455452427073
327.0, 0.002905921999998211
328.0, 0.000523100606883611
329.0, 0.0012177112869931233
330.0, 0.005182992875264564
331.0, 0.003585401155794816
332.0, 0.0029380233000871007
333.0, 0.006398723589523827
334.0, 0.008776310974752118
335.0, 0.005417141739688553
336.0, 0.008369551182699716
337.0, 0.007100303280967871
338.0, 0.0020380419458655764
339.0, 0.0024522461279135152
340.0, 0.0026304134950211793
341.0, 0.002941524443074589
342.0, 0.0015216076338671729
343.0, 0.0009950043258558736
344.0, 0.0011157856852637175
345.0, 0.0029775142228289798
346.0, 0.002987665662726051
347.0, 0.0008070115555825753
348.0, 0.00242086739316799
349.0, 0.002294222987029259
350.0, 0.010982214767676825
351.0, 0.00902505386359921
352.0, 0.006991602155831823
353.0, 0.010643331589108154
354.0, 0.012329662251583235
355.0, 0.01273042710589321
356.0, 0.016398012908220787
357.0, 0.017178981416390814
358.0, 0.015570415283004565
359.0, 0.0207364913737506
360.0, 0.01880862708459371
361.0, 0.024152206228321392
362.0, 0.028887785972784654
363.0, 0.025924569155842476
364.0, 0.021865275184814337
365.0, 0.02277933451636695
366.0, 0.023461851281114016
367.0, 0.02309825049938615
368.0, 0.02322289979481441
369.0, 0.024970946669570022
370.0, 0.02653941168113564
371.0, 0.02680127845213587
372.0, 0.028441594771665857
373.0, 0.031268077651416426
374.0, 0.031131897443331037
375.0, 0.033637965986151694
376.0, 0.03493806795934787
377.0, 0.030251610237612848
378.0, 0.02525226904423959
379.0, 0.030262603540782706
380.0, 0.03386499571817567
381.0, 0.035768705836031374
382.0, 0.03281509315324076
383.0, 0.02833308861428157
384.0, 0.031732131675222056
385.0, 0.03379685634668376
386.0, 0.03381766576498875
387.0, 0.03261163283857169
388.0, 0.029164405578536477
389.0, 0.02387934665061752
390.0, 0.024689285643200953
391.0, 0.02233407771691025
392.0, 0.01908640726634521
393.0, 0.0194369664692255
394.0, 0.02243243081491888
395.0, 0.018036668602744707
396.0, 0.020770517966731836
397.0, 0.024416449359856006
398.0, 0.02513001549357199
399.0, 0.02902536650739395
400.0, 0.03430684034238697
401.0, 0.036141837749125064
402.0, 0.040713530590536756
403.0, 0.048410040801669704
404.0, 0.0546551782068536
405.0, 0.06757692953346146
406.0, 0.07795069900319071
407.0, 0.0874165670628017
408.0, 0.09822164738716874
409.0, 0.11034852636828153
410.0, 0.12394806624741617
411.0, 0.1451466845734957
412.0, 0.16518771667106077
413.0, 0.1829115033106884
414.0, 0.20458373009705894
415.0, 0.2297828436069668
416.0, 0.2531386873520353
417.0, 0.28009956433618344
418.0, 0.3088240445990123
419.0, 0.3359016663709256
420.0, 0.3625521261167067
421.0, 0.3943753517819404
422.0, 0.4276533361517397
423.0, 0.46589659528955785
424.0, 0.5078690714303042
425.0, 0.5468645825403844
426.0, 0.5918135510476475
427.0, 0.6487880696195198
428.0, 0.710196357301669
429.0, 0.76927549063656
430.0, 0.8246332184220071
431.0, 0.8855958186799001
432.0, 0.9395390359849277
433.0, 0.9737844724952525
434.0, 0.9891018058917649
435.0, 0.9940295438631301
436.0, 0.9846213679743049
437.0, 0.9556633352112529
438.0, 0.9177077123940348
439.0, 0.868338175084218
440.0, 0.8099508160405897
441.0, 0.7644542080815946
442.0, 0.7149945635491296
443.0, 0.6650089568798758
444.0, 0.6144326010332717
445.0, 0.5664905971537181
446.0, 0.5341377681406494
447.0, 0.49713662821654725
448.0, 0.46284787859836896
449.0, 0.4302050466180475
450.0, 0.40233752000738143
451.0, 0.38467742775401154
452.0, 0.36304972102034677
453.0, 0.3374685769021435
454.0, 0.3222089665733328
455.0, 0.3079759252086415
456.0, 0.2853061266673546
457.0, 0.27106824698372733
458.0, 0.2548638595746476
459.0, 0.2416820344806397
460.0, 0.22814598914653175
461.0, 0.21232898681527335
462.0, 0.19877599258023093
463.0, 0.18754012841660303
464.0, 0.17879807627309172
465.0, 0.17084878763385652
466.0, 0.16307293890445781
467.0, 0.1571151907106911
468.0, 0.15381005175385462
469.0, 0.145568833078643
470.0, 0.1344635006115486
471.0, 0.12520717998772665
472.0, 0.11732573764390568
473.0, 0.10634243951692313
474.0, 0.10290359753528563
475.0, 0.10331623645663852
476.0, 0.09872141204203755
477.0, 0.08863062976799213
478.0, 0.07922560891189555
479.0, 0.07771209058404584
480.0, 0.07250258159656094
481.0, 0.06630582018876163
482.0, 0.06511797687617586
483.0, 0.06763885716723177
484.0, 0.06255228031725844
485.0, 0.053953227418125534
486.0, 0.05304160376497641
487.0, 0.050291731238937994
488.0, 0.04573423385752333
489.0, 0.044890436737011936
490.0, 0.03456717262575259
491.0, 0.03146416082943996
492.0, 0.029704064583409354
493.0, 0.022105853221770153
494.0, 0.012676761494022932
495.0, 0.01441887548345613
496.0, 0.008582786282612978
497.0, 0.007207900951278897
498.0, 0.0069138050090319855
499.0, 0.006475210203399546
500.0, 0.007690790674944505
501.0, 0.001045821185790194
502.0, 0.0010792430188921866
503.0, 0.0002889390083682461
504.0, 0.0006489739218401961
505.0, 0.0015273435051785611
506.0, 0.00017116908127761982
507.0, 0.0012118795987141806
508.0, 0.0017953553011015662
509.0, 0.002079465817605544
510.0, 0.0009786588913775671
511.0, 0.0016493923367004778
512.0, 0.0031580583073267748
513.0, 0.0023836793595155654
514.0, 0.0019868534950148644
515.0, 0.002370041268910725
516.0, 0.0031892434680361576
517.0, 0.0050571670683165395
518.0, 0.003320227659703825
519.0, 0.0013780940605567747
520.0, 0.004711481595860315
521.0, 0.007666327674792338
522.0, 0.005101301743381166
523.0, 0.002286542990226437
524.0, 0.005511668361557563
525.0, 0.0023810343455430254
526.0, 0.0016117490320413828
527.0, 0.002433934617618358
528.0, 0.00159071216497982
529.0, 0.0010030007391732894
530.0, 0.0030478156475767545
531.0, 0.001557259227640561
532.0, 0.001478301154250961
533.0, 0.004277358127543801
534.0, 0.003094104742891018
535.0, 0.003184769297932267
536.0, 0.0044162747512085055
537.0, 0.00455968068557279
538.0, 0.00711019435045492
539.0, 0.014159126366168066
540.0, 0.021504483313104644
541.0, 0.01856827464880816
542.0, 0.02124325073655681
543.0, 0.024350862234998272
544.0, 0.025520151982044766
545.0, 0.0275832546383238
546.0, 0.030779051204785416
547.0, 0.030057414640964036
548.0, 0.028071406106363054
549.0, 0.024589694740511682
550.0, 0.020402982432318785
551.0, 0.018310207869449015
552.0, 0.01937587013331946
553.0, 0.015814125178694616
554.0, 0.01214527278030046
555.0, 0.012482655477838993
556.0, 0.011952665690237058
557.0, 0.006716680638285014
558.0, 0.008499478902804959
559.0, 0.010569760803512535
560.0, 0.008106649434505415
561.0, 0.004249855113984442
562.0, 0.006186954059658644
563.0, 0.011311102705940617
564.0, 0.007413030692420085
565.0, 0.005071879191093373
566.0, 0.0054436109475816995
567.0, 0.007624827629613596
568.0, 0.009307792401862636
569.0, 0.008705629166968615
570.0, 0.007459359350633918
571.0, 0.005503886434883639
572.0, 0.005199143160482073
573.0, 0.007637089513876681
574.0, 0.01062729820864985
575.0, 0.01198125358471976
576.0, 0.013486481130220045
577.0, 0.0071643074898488516
578.0, 0.009389532819556129
579.0, 0.011389357944647831
580.0, 0.010237997473353999
581.0, 0.011603403159418083
582.0, 0.008626466034627177
583.0, 0.0068625268174271935
584.0, 0.0077719829906059785
585.0, 0.007645000738292306
586.0, 0.0062547751778196745
587.0, 0.006831886755041927
588.0, 0.010589072059897373
589.0, 0.012105581921197754
590.0, 0.017854408638680246
591.0, 0.018304897886089137
592.0, 0.016239485805556345
593.0, 0.020384381197644578
594.0, 0.023143983682518264
595.0, 0.029828423691032075
596.0, 0.039002602281499814
597.0, 0.04638754368580407
598.0, 0.049271204569611766
599.0, 0.049633001529641146
600.0, 0.05444638889998396
601.0, 0.06356365768142877
602.0, 0.07109515167322823
603.0, 0.08355612680559243
604.0, 0.0949230160205315
605.0, 0.1020155477963492
606.0, 0.11529299835891978
607.0, 0.12132199891363285
608.0, 0.1286734684248533
609.0, 0.13234221111912364
610.0, 0.1335735345881186
611.0, 0.13547087357553753
612.0, 0.1339239940399531
613.0, 0.1278360097597878
614.0, 0.1328842529384019
615.0, 0.1360799043307508
616.0, 0.13500325306570193
617.0, 0.13387513614519791
618.0, 0.13133713720341306
619.0, 0.12637651402040864
620.0, 0.1280582668853073
621.0, 0.12056677166406626
622.0, 0.10963313502755932
623.0, 0.10312556584958373
624.0, 0.09984040294311429
625.0, 0.09139684876373141
626.0, 0.08739544632505739
627.0, 0.0798137923072888
628.0, 0.07142260657589172
629.0, 0.06897312430132366
630.0, 0.06896794577399597
631.0, 0.06288805640998663
632.0, 0.06534367502749393
633.0, 0.06299058943775719
634.0, 0.0652536633193038
635.0, 0.06984076933878737
636.0, 0.07168778289151621
637.0, 0.07169707673756039
638.0, 0.07224816954479572
639.0, 0.07577241232248975
640.0, 0.07812455008353876
641.0, 0.07813818722479424
642.0, 0.07955563860070407
643.0, 0.08399238217840269
644.0, 0.08477687420438607
645.0, 0.08267206883584047
646.0, 0.08276590637633949
647.0, 0.08547685411611501
648.0, 0.08682471042876944
649.0, 0.08408143181945538
650.0, 0.07842842193446134
651.0, 0.0749840963962797
652.0, 0.06958577067652366
653.0, 0.06968760258599495
654.0, 0.06406694365860527
655.0, 0.05524873165285898
656.0, 0.0519118280117452
657.0, 0.04605642996055478
658.0, 0.038250084544770205
659.0, 0.02987637444604851
660.0, 0.02728244912343102
661.0, 0.02527660671604171
662.0, 0.021790343967880262
663.0, 0.02109310899355195
664.0, 0.014270987248932297
665.0, 0.015934686546260436
666.0, 0.015337704687417946
667.0, 0.013099456092909259
668.0, 0.009303437767877492
669.0, 0.004693813764485569
670.0, 0.0046318429832578585
671.0, 0.008185441673943203
672.0, 0.007088268656314188
673.0, 0.007187393265112336
674.0, 0.007543468637272029
675.0, 0.005467312840276242
676.0, 0.0034718246426547594
677.0, 0.006259843970467627
678.0, 0.005362276353309893
679.0, 0.00486493805720905
680.0, 0.0026618722590813467
681.0, 0.00042475406837428194
682.0, 3.706608448877651e-05
683.0, 0.00032049808990006537
684.0, 0.0010164926680920644
685.0, 0.004474127052273135
686.0, 0.0031434598291212603
687.0, 0.0003475014807634994
688.0, 0.0009488839560138488
689.0, 0.002803920805506766
690.0, 0.0009290473116862367
691.0, 0.0004107456586884034
692.0, 0.0018775563152918175
693.0, 0.0015685206577527467
694.0, 0.004361848134396595
695.0, 0.0025029079773130998
696.0, 0.0009156756242330951
697.0, 0.001397420535727603
698.0, 0.0037095510019346054
699.0, 0.00042581932560049754
700.0, 0.0008458101597626029
701.0, 0.0037790341580627236
702.0, 0.0062282220110263286
703.0, 0.0012706531596416758
704.0, 0.0020339247748771853
705.0, 0.000551424054073566
706.0, 0.0014395719018354995
707.0, 0.005342087393340744
708.0, 0.006362178602612468
709.0, 0.004963318456182466
710.0, 0.0069750053031031
711.0, 0.005403451791049359
712.0, 0.011310790071789378
713.0, 0.009084637052637004
714.0, 0.009188855392109025
715.0, 0.010046975142527288
716.0, 0.009594383235207084
717.0, 0.011908398970006088
718.0, 0.016172245534362514
719.0, 0.01927046612010099
720.0, 0.0181063009284324
721.0, 0.01853548472245542
722.0, 0.016845024970494577
723.0, 0.014417599294923379
724.0, 0.01629801420094278
725.0, 0.018914660221464007
726.0, 0.01819489793210635
727.0, 0.014694369023272204
728.0, 0.014759920212157274
729.0, 0.016787888679628656
730.0, 0.017120525440971073
731.0, 0.016366840645914447
732.0, 0.017126883213409327
733.0, 0.014113340731232079
734.0, 0.014022276037905622
735.0, 0.0156262614967641
736.0, 0.01339560950797948
737.0, 0.008275894684944805
738.0, 0.006586383637580298
739.0, 0.009740955973164859
740.0, 0.009020919861941278
741.0, 0.012475669619933983
742.0, 0.01254996556572878
743.0, 0.010076823502272042
744.0, 0.00772615484342919
745.0, 0.008167392778032884
746.0, 0.012082768935675592
747.0, 0.011277954941230666
748.0, 0.010379588558736188
749.0, 0.009685519298186073
750.0, 0.008865131857361047
751.0, 0.0068247393644346
752.0, 0.004303810228134298
753.0, 0.0032889986413686253
754.0, 0.002230590239483666
755.0, 0.0031480822668503807
756.0, 0.0022137823129564265
757.0, 0.0035051051229391204
758.0, 0.003626056493340406
759.0, 0.002558760832673785
760.0, 0.005306900376516534
761.0, 0.0018128240161602173
762.0, 0.0011352426446948323
763.0, 0.0020852313078818536
764.0, 0.0007089024029743104
765.0, 0.0008326605517544053
766.0, 0.003040825102983221
767.0, 0.004454660320688517
768.0, 0.005212559788199029
769.0, 0.00013798316094880495
770.0, 0.001155740633676373
771.0, 0.0009491680264963393
772.0, 0.001968877013038767
773.0, 0.0038588265620950932
774.0, 0.005304160615678915
775.0, 0.003799923763731445
776.0, 0.0010613986018417824
777.0, 0.0013182347889470038
778.0, 0.0004522657193880998
779.0, 0.0010360852000674413
780.0, 0.0006869415312750909
781.0, 0.0007639323613904555
782.0, 0.00013593753232540049
783.0, 0.0030180277938438925
784.0, 0.004512352588411546
785.0, 0.005667547328931603
786.0, 0.003337155254012498
787.0, 0.0016905106001071668
788.0, 0.002040177633187132
789.0, 0.0010323989410015101
790.0, 0.0010446640357725011
791.0, 0.0010890228844555728
792.0, 0.005640428800158317
793.0, 0.0022792755292378253
794.0, 0.0006865486652616301
795.0, 0.003352965466667172
796.0, 0.005183600486299841
797.0, 0.004093843383250381
798.0, 0.005927549347591152
799.0, 0.005581081957556158
800.0, 0.0007734838914677189
801.0, 0.0040668973491075995
802.0, 0.0047587938438204
803.0, 0.003412668714119311
804.0, 0.0038308493411161717
805.0, 0.005517197419043161
806.0, 0.005744525077150932
807.0, 0.0042220702179255176
808.0, 0.003088315101101875
809.0, 0.00507880120972683
810.0, 0.006476547749122539
811.0, 0.006458906651984801
812.0, 0.004437833816290021
813.0, 0.00433398211506481
814.0, 0.006784141306587777
815.0, 0.001921139582425471
816.0, 0.0006634330480800833
817.0, 0.007665170570608908
818.0, 0.0066710768831766245
819.0, 0.0036992799260011817
820.0, 0.005231745980702623
821.0, 0.007346297291113286
822.0, 0.006402484098041704
823.0, 0.006523009825884112
824.0, 0.006925489707275965
825.0, 0.007068080246356592
826.0, 0.0077042183687460845
827.0, 0.006246217379529597
828.0, 0.008343622297981485
829.0, 0.010138932975971729
830.0, 0.008228502679496926
831.0, 0.009471448514200866
832.0, 0.00899352098232163
833.0, 0.010132922812214557
834.0, 0.009344718691900627
835.0, 0.0068865500596379135
836.0, 0.013580701946031682
837.0, 0.016881971113387406
838.0, 0.012408243784115576
839.0, 0.011901122150803483
840.0, 0.00643398552066047
841.0, 0.006532355797574003
842.0, 0.008409771025860432
843.0, 0.009449028606233829
844.0, 0.007435491700052768
845.0, 0.0081699937304111
846.0, 0.009995830269191512
847.0, 0.007459646959786521
848.0, 0.011193160452654467
849.0, 0.008823460441965006
850.0, 0.00986858820912308
851.0, 0.008809284060746096
852.0, 0.012133493455308765
853.0, 0.012404956739132146
854.0, 0.005939465171330275
855.0, 0.003806066117812426
856.0, 0.008950106957535082
857.0, 0.006696350693602229
858.0, 0.00781551118335523
859.0, 0.010158519974641282
860.0, 0.013462421841179517
861.0, 0.014277736924818239
862.0, 0.011826698043280732
863.0, 0.008725878294197579
864.0, 0.008683164817646687
865.0, 0.0128868117221576
866.0, 0.011740499762727554
867.0, 0.009419495985255436
868.0, 0.009153727358542335
869.0, 0.009025295901871412
870.0, 0.00840361058365113
871.0, 0.008610566103211311
872.0, 0.010826227870701786
873.0, 0.013561867518693033
874.0, 0.010496874684832685
875.0, 0.013314057525825112
876.0, 0.007259103779938488
877.0, 0.009421668761629472
878.0, 0.012044371973634912
879.0, 0.012320524053605146
880.0, 0.012809719880204533
881.0, 0.01186235976633975
882.0, 0.009132764558350184
883.0, 0.010727825924923943
884.0, 0.010786391256496702
885.0, 0.010401598663844762
886.0, 0.011464263741036417
887.0, 0.009846584244976978
888.0, 0.008965727419892879
889.0, 0.008485075772475733
890.0, 0.007178425677661434
891.0, 0.009928341908017878
892.0, 0.010446175417262405
893.0, 0.012458092078452094
894.0, 0.009018024002662722
895.0, 0.0052134730312747195
896.0, 0.0059605590235775234
897.0, 0.007717444674027513
898.0, 0.007838719453854257
899.0, 0.006928932631538562
900.0, 0.0043502614693822226
901.0, 0.0017714158081591816
902.0, 0.006569543720065111
903.0, 0.0034391306690833377
904.0, 0.0033584951151922056
905.0, 0.004007337168931707
906.0, 0.004605437214818493
907.0, 0.004861930210968326
908.0, 0.005074328062728773
909.0, 0.006560340897310329
910.0, 0.00576215681231387
911.0, 0.002506012874697638
912.0, 0.004612230892155251
913.0, 0.005436129812629813
914.0, 0.0051394900546958165
915.0, 0.0027106607754641067
916.0, 0.0008172993924748265
917.0, 0.0006283108548135723
918.0, 0.004198619201093254
919.0, 0.0007304395402965549
920.0, 0.0007130205628244769
921.0, 0.001365168326050722
922.0, 0.002086625145676269
923.0, 0.003415940305042645
924.0, 0.0025036649043670657
925.0, 0.0013430444844541485
926.0, 0.001984836148696268
927.0, 0.000349000674745467
928.0, 0.0007355500911490084
929.0, 0.0005606209281045899
930.0, 0.0037137547421815208
931.0, 0.0036440125602519267
932.0, 0.0025178290926095993
933.0, 0.001196537275151257
934.0, 0.001650816862926732
935.0, 0.0033388498496072765
936.0, 0.001355976782117515
937.0, 0.0012178389274957006
938.0, 0.0021876435380162964
939.0, 0.0011328196689008557
940.0, 0.0030306866942504565
941.0, 0.005090227557430659
942.0, 0.0021262648543025485
943.0, 0.0008569676205729993
944.0, 0.0005519453186312352
945.0, 0.0007764383633275804
946.0, 0.0004504504062678338
947.0, 0.0028027144241867972
948.0, 0.004602613122564311
949.0, 0.0027147809746769407
950.0, 0.0038247806922707818
951.0, 0.003810183882012384
952.0, 0.0077988143615652945
953.0, 0.014141524275416128
954.0, 0.019903467250562037
955.0, 0.025542312767137205
956.0, 0.028799099834576035
957.0, 0.031061913942118206
958.0, 0.044205477893587905
959.0, 0.05896873633499322
960.0, 0.07146693154308277
961.0, 0.0876014265927101
962.0, 0.10516673545949272
963.0, 0.12701885912270897
964.0, 0.1566885433376038
965.0, 0.19159287363346844
966.0, 0.233323685124502
967.0, 0.2815100093712041
968.0, 0.33232969965237025
969.0, 0.39496434908821115
970.0, 0.4611721357556957
971.0, 0.5288214050735676
972.0, 0.6111345435680289
973.0, 0.6916547837606414
974.0, 0.7701045444837256
975.0, 0.8469822151639679
976.0, 0.9120622857932824
977.0, 0.9643149686854414
978.0, 0.9976595301086343
979.0, 0.9910189179840602
980.0, 0.9651069410634312
981.0, 0.9328394875855183
982.0, 0.8975707702939201
983.0, 0.8714997090652
984.0, 0.8664176266314461
985.0, 0.8820535320386281
986.0, 0.8987515594287423
987.0, 0.9124494083670305
988.0, 0.9319473697022531
989.0, 0.93454612923127
990.0, 0.9285645307770863
991.0, 0.9128118338943775
992.0, 0.8824286866455369
993.0, 0.8530581363693335
994.0, 0.8156730930051451
995.0, 0.7793556597276415
996.0, 0.7566502578870841
997.0, 0.7326771990674273
998.0, 0.7116324499119839
999.0, 0.7039328923106707
1000.0, 0.7001858201918542
1001.0, 0.7023475575527791
1002.0, 0.69965647719317
1003.0, 0.6896175818019494
1004.0, 0.6740114354062915
1005.0, 0.649379394969838
1006.0, 0.6252229114180807
1007.0, 0.583840145994833
1008.0, 0.5345336856732924
1009.0, 0.4902802317665088
1010.0, 0.4474924512036189
1011.0, 0.4041620470294708
1012.0, 0.36458473210894055
1013.0, 0.3326087384465988
1014.0, 0.29466645679407794
1015.0, 0.26444886682476565
1016.0, 0.2340177212358293
1017.0, 0.20743528743549802
1018.0, 0.18488937684871062
1019.0, 0.16085926005925522
1020.0, 0.14217246585513116
1021.0, 0.13204476247717084
1022.0, 0.11941397259126607
1023.0, 0.10216230452832595
1024.0, 0.10117554855803917
1025.0, 0.1018942584878201
1026.0, 0.09920261735835698
1027.0, 0.09565333322291465
1028.0, 0.0905298885921664
1029.0, 0.08932396719595632
1030.0, 0.08634131285931101
1031.0, 0.08529070100033052
1032.0, 0.08780057797698362
1033.0, 0.08562420003284779
1034.0, 0.08081753398696634
1035.0, 0.07853199419707643
1036.0, 0.07969033936669176
1037.0, 0.07235587347146435
1038.0, 0.06905803955025554
1039.0, 0.07351924786457212
1040.0, 0.06738313581800393
1041.0, 0.06138488897357699
1042.0, 0.05528157076920262
1043.0, 0.05402914409983859
1044.0, 0.05399626871685406
1045.0, 0.04836781378872883
1046.0, 0.040455299614838056
1047.0, 0.03364073392677413
1048.0, 0.03270173307931006
1049.0, 0.0310092105716064
1050.0, 0.025745866783245506
1051.0, 0.019140770956449258
1052.0, 0.02119616351596615
1053.0, 0.0180094131653925
1054.0, 0.012118091424344087
1055.0, 0.01701867751546996
1056.0, 0.014709848419229527
1057.0, 0.009705817910934016
1058.0, 0.012882848758324789
1059.0, 0.008923895618284688
1060.0, 0.0078039596057397406
1061.0, 0.005556140351544542
1062.0, 0.006011104447693544
1063.0, 0.0031657994734827517
1064.0, 0.006554203975615663
1065.0, 0.00322854298069165
1066.0, 0.0016442191401692427
1067.0, 0.002410008081187886
1068.0, 0.0020057527293685963
1069.0, 0.001953580993294095
1070.0, 0.003247519494773482
1071.0, 0.0027841723919631127
1072.0, 0.00037005993072107964
1073.0, 0.0007379700083019102
1074.0, 0.002971898821432412
1075.0, 0.001433332968655644
1076.0, 0.0018610230465375595
1077.0, 0.0006146364829129385
1078.0, 0.0010678223927148307
1079.0, 0.0024227186291771773
1080.0, 0.0032362454460331583
1081.0, 0.0038943503292966485
1082.0, 0.004264892726544891
1083.0, 0.004510198742534319
1084.0, 0.0034648181103246953
1085.0, 0.0015508443308080908
1086.0, 0.001685234175272576
1087.0, 0.0013642405590004235
1088.0, 0.001147866972537586
1089.0, 0.005278714942542497
1090.0, 0.006532357357999261
1091.0, 0.002609501666910749
1092.0, 0.0031892892384585247
1093.0, 0.0005431517055490272
1094.0, 0.0005237374069030644
1095.0, 0.0012393416565288317
1096.0, 0.003953876739584201
1097.0, 0.0030241446453114443
1098.0, 0.00046753579265354056
1099.0, 0.0007012985158704987
1100.0, 0.0011484155648015398
1101.0, 0.0014794813346141692
1102.0, 0.0003841175375372534
1103.0, 0.003362730511701605
1104.0, 0.0007489362469352897
1105.0, 0.004604975055927157
1106.0, 0.001360164796233317
1107.0, 0.0019055805481520503
1108.0, 0.0014039845392895284
1109.0, 0.0005920079544125158
1110.0, 0.0030568581416999686
1111.0, 0.0035648356451059605
1112.0, 0.0018923948333619462
1113.0, 0.0019230591785652767
1114.0, 0.005135350836005625
1115.0, 0.00118260278143931
1116.0, 0.0020038613577861623
1117.0, 0.00014878607443361415
1118.0, 0.0012326923235065881
1119.0, 0.004756199562349232
1120.0, 0.0004278779373639459
1121.0, 0.011695963037844858
1122.0, 0.008777655814169281
1123.0, 0.004763546237609219
1124.0, 0.006225513715851395
1125.0, 0.008645626361836993
1126.0, 0.010347885461396747
1127.0, 0.01185996252651489
1128.0, 0.013881095963122378
1129.0, 0.01485287672779901
1130.0, 0.01831839936255834
1131.0, 0.012267286905034513
1132.0, 0.016572133894164825
1133.0, 0.022803093505605953
1134.0, 0.025253182562044913
1135.0, 0.021812925723423495
1136.0, 0.0221243682896243
1137.0, 0.024429113298281777
1138.0, 0.030067887182130444
1139.0, 0.03349131252570566
1140.0, 0.03355784843270206
1141.0, 0.03536942103503084
1142.0, 0.03961131158138643
1143.0, 0.041666889940048794
1144.0, 0.03780185928498611
1145.0, 0.036002013342405055
1146.0, 0.042673155663703326
1147.0, 0.04508426379597467
1148.0, 0.05015763982526282
1149.0, 0.04491384324481474
1150.0, 0.04293552481840975
1151.0, 0.04685044475715217
1152.0, 0.04553639099842797
1153.0, 0.04940630154210442
1154.0, 0.04739477122864711
1155.0, 0.04779121939101196
1156.0, 0.05110510934086315
1157.0, 0.049927781200084946
1158.0, 0.04885013972828167
1159.0, 0.046724428937079114
1160.0, 0.04426925784719255
1161.0, 0.04695962011690596
1162.0, 0.04312867478078751
1163.0, 0.043001020439890424
1164.0, 0.04022426306734218
1165.0, 0.04146364907116548
1166.0, 0.04091326705458024
1167.0, 0.039199915967356835
1168.0, 0.037524757406782384
1169.0, 0.03609863340808156
1170.0, 0.03396105059688912
1171.0, 0.03491096617192288
1172.0, 0.03709804132005832
1173.0, 0.03138228513825103
1174.0, 0.027844948498320914
1175.0, 0.029106235648326737
1176.0, 0.02661173927352494
1177.0, 0.0249639954348128
1178.0, 0.027082901134495907
1179.0, 0.025756174335610428
1180.0, 0.020688826050041808
1181.0, 0.02233310122000114
1182.0, 0.025682287474598643
1183.0, 0.022678411866724084
1184.0, 0.0181647381314332
1185.0, 0.020201426413236367
1186.0, 0.01313805154619909
1187.0, 0.013207183340211199
1188.0, 0.01540315859411301
1189.0, 0.009853337426423277
1190.0, 0.0126693936472922
1191.0, 0.011065024940499837
1192.0, 0.009644762088077895
1193.0, 0.009592169600722893
1194.0, 0.013165033671162897
1195.0, 0.014303855112953241
1196.0, 0.009435970693676432
1197.0, 0.009447065157959216
1198.0, 0.008323496245182097
1199.0, 0.010735491484437504
1200.0, 0.015971469348236192
1201.0, 0.012160307977923264
1202.0, 0.01072065633654495
1203.0, 0.004638443236021292
1204.0, 0.0079021302780461
1205.0, 0.011104948170906999
1206.0, 0.013651342341336092
1207.0, 0.010453320611187644
1208.0, 0.007667949873059882
1209.0, 0.006609230705783888
1210.0, 0.009524796332915138
1211.0, 0.00853335500983011
1212.0, 0.010256326087562962
1213.0, 0.0032522584868867202
1214.0, 0.0023291907855882443
1215.0, 0.008233363931034458
1216.0, 0.006964585471984141
1217.0, 0.00785853297756228
1218.0, 0.007479321564211269
1219.0, 0.0029951387798260918
1220.0, 0.002248747080114681
1221.0, 0.0005910346061215186
1222.0, 0.0004357854351716004
1223.0, 0.0022423553787381434
1224.0, 0.0003006853963959717
1225.0, 0.004204754744090092
1226.0, 0.003140160608891241
1227.0, 0.0026939935964129702
1228.0, 0.001981391984791638
1229.0, 0.0023826954803532244
1230.0, 0.0006997098962917034
1231.0, 0.001201911612475654
1232.0, 0.0021988597661216484
1233.0, 0.0011991244619436565
1234.0, 0.0011661289576517413
1235.0, 0.0005963800359410814
1236.0, 0.003591856957506546
1237.0, 0.006690832678703859
1238.0, 0.010302697296568587
1239.0, 0.009248651125341957
1240.0, 0.0027622499251876865
1241.0, 0.006241147733824894
1242.0, 0.00977935985791043
1243.0, 0.00889971329041956
1244.0, 0.01120703941595685
1245.0, 0.01651558357345302
1246.0, 0.014866241314072813
1247.0, 0.008928762433510555
1248.0, 0.016232882944155095
1249.0, 0.01720116559695796
1250.0, 0.01487841622726001
1251.0, 0.014126103025529177
1252.0, 0.012222377902631799
1253.0, 0.01576181792788196
1254.0, 0.015962679789272648
1255.0, 0.014115068500704112
1256.0, 0.012307391877146124
1257.0, 0.015827435727178096
1258.0, 0.014418617764868875
1259.0, 0.014243242541728983
1260.0, 0.016627697317620087
1261.0, 0.013502247627993904
1262.0, 0.013345589233729508
1263.0, 0.015182001491985016
1264.0, 0.016034647059511208
1265.0, 0.01738589684810648
1266.0, 0.01272476581843578
1267.0, 0.009560647642789686
1268.0, 0.014161540307881094
1269.0, 0.015880677935726267
1270.0, 0.008232480473487281
1271.0, 0.009428614712651226
1272.0, 0.010833283663063497
1273.0, 0.011702311129643768
1274.0, 0.01345201600119144
1275.0, 0.019654082365490405
1276.0, 0.013096588569925464
1277.0, 0.005803538790172174
1278.0, 0.0018575288152893788
1279.0, 0.00766595216338858
1280.0, 0.012897920546820017
1281.0, 0.01269742995845674
1282.0, 0.011213812047736364
1283.0, 0.008083014867397946
1284.0, 0.007055318977575185
1285.0, 0.0028845034298684664
1286.0, 4.688927279487329e-05
1287, 0.0
1288, 0.0
1289, 0.0
1290, 0.0
1291, 0.0
1292, 0.0
1293, 0.0
1294, 0.0
1295, 0.0
1296, 0.0
1297, 0.0
1298, 0.0
1299, 0.0
1300, 0.0
1301, 0.0
1302, 0.0
1303, 0.0
1304, 0.0
1305, 0.0
1306, 0.0
1307, 0.0
1308, 0.0
1309, 0.0
1310, 0.0
1311, 0.0
1312, 0.0
1313, 0.0
1314, 0.0
1315, 0.0
1316, 0.0
1317, 0.0
1318, 0.0
1319, 0.0
1320, 0.0
1321, 0.0
1322, 0.0
1323, 0.0
1324, 0.0
1325, 0.0
1326, 0.0
1327, 0.0
1328, 0.0
1329, 0.0
1330, 0.0
1331, 0.0
1332, 0.0
1333, 0.0
1334, 0.0
1335, 0.0
1336, 0.0
1337, 0.0
1338, 0.0
1339, 0.0
1340, 0.0
1341, 0.0
1342, 0.0
1343, 0.0
1344, 0.0
1345, 0.0
1346, 0.0
1347, 0.0
1348, 0.0
1349, 0.0
1350, 0.0
1351, 0.0
1352, 0.0
1353, 0.0
1354, 0.0
1355, 0.0
1356, 0.0
1357, 0.0
1358, 0.0
1359, 0.0
1360, 0.0
1361, 0.0
1362, 0.0
1363, 0.0
1364, 0.0
1365, 0.0
1366, 0.0
1367, 0.0
1368, 0.0
1369, 0.0
1370, 0.0
1371, 0.0
1372, 0.0
1373, 0.0
1374, 0.0
1375, 0.0
1376, 0.0
1377, 0.0
1378, 0.0
1379, 0.0
1380, 0.0
1381, 0.0
1382, 0.0
1383, 0.0
1384, 0.0
1385, 0.0
1386, 0.0
1387, 0.0
1388, 0.0
1389, 0.0
1390, 0.0
1391, 0.0
1392, 0.0
1393, 0.0
1394, 0.0
1395, 0.0
1396, 0.0
1397, 0.0
1398, 0.0
1399, 0.0
1400, 0.0
1401, 0.0
1402, 0.0
1403, 0.0
1404, 0.0
1405, 0.0
1406, 0.0
1407, 0.0
1408, 0.0
1409, 0.0
1410, 0.0
1411, 0.0
1412, 0.0
1413, 0.0
1414, 0.0
1415, 0.0
1416, 0.0
1417, 0.0
1418, 0.0
1419, 0.0
1420, 0.0
1421, 0.0
1422, 0.0
1423, 0.0
1424, 0.0
1425, 0.0
1426, 0.0
1427, 0.0
1428, 0.0
1429, 0.0
1430, 0.0
1431, 0.0
1432, 0.0
1433, 0.0
1434, 0.0
1435, 0.0
1436, 0.0
1437, 0.0
1438, 0.0
1439, 0.0
1440, 0.0
1441, 0.0
1442, 0.0
1443, 0.0
1444, 0.0
1445, 0.0
1446, 0.0
1447, 0.0
1448, 0.0
1449, 0.0
1450, 0.0
1451, 0.0
1452, 0.0
1453, 0.0
1454, 0.0
1455, 0.0
1456, 0.0
1457, 0.0
1458, 0.0
1459, 0.0
1460, 0.0
1461, 0.0
1462, 0.0
1463, 0.0
1464, 0.0
1465, 0.0
1466, 0.0
1467, 0.0
1468, 0.0
1469, 0.0
1470, 0.0
1471, 0.0
1472, 0.0
1473, 0.0
1474, 0.0
1475, 0.0
1476, 0.0
1477, 0.0
1478, 0.0
1479, 0.0
1480, 0.0
1481, 0.0
1482, 0.0
1483, 0.0
1484, 0.0
1485, 0.0
1486, 0.0
1487, 0.0
1488, 0.0
1489, 0.0
1490, 0.0
1491, 0.0
1492, 0.0
1493, 0.0
1494, 0.0
1495, 0.0
1496, 0.0
1497, 0.0
1498, 0.0
1499, 0.0
1500, 0.0
1501, 0.0
1502, 0.0
1503, 0.0
1504, 0.0
1505, 0.0
1506, 0.0
1507, 0.0
1508, 0.0
1509, 0.0
1510, 0.0
1511, 0.0
1512, 0.0
1513, 0.0
1514, 0.0
1515, 0.0
1516, 0.0
1517, 0.0
1518, 0.0
1519, 0.0
1520, 0.0
1521, 0.0
1522, 0.0
1523, 0.0
1524, 0.0
1525, 0.0
1526, 0.0
1527, 0.0
1528, 0.0
1529, 0.0
1530, 0.0
1531, 0.0
1532, 0.0
1533, 0.0
1534, 0.0
1535, 0.0
1536, 0.0
1537, 0.0
1538, 0.0
1539, 0.0
1540, 0.0
1541, 0.0
1542, 0.0
1543, 0.0
1544, 0.0
1545, 0.0
1546, 0.0
1547, 0.0
1548, 0.0
1549, 0.0
1550, 0.0
1551, 0.0
1552, 0.0
1553, 0.0
1554, 0.0
1555, 0.0
1556, 0.0
1557, 0.0
1558, 0.0
1559, 0.0
1560, 0.0
1561, 0.0
1562, 0.0
1563, 0.0
1564, 0.0
1565, 0.0
1566, 0.0
1567, 0.0
1568, 0.0
1569, 0.0
1570, 0.0
1571, 0.0
1572, 0.0
1573, 0.0
1574, 0.0
1575, 0.0
1576, 0.0
1577, 0.0
1578, 0.0
1579, 0.0
1580, 0.0
1581, 0.0
1582, 0.0
1583, 0.0
1584, 0.0
1585, 0.0
1586, 0.0
1587, 0.0
1588, 0.0
1589, 0.0
1590, 0.0
1591, 0.0
1592, 0.0
1593, 0.0
1594, 0.0
1595, 0.0
1596, 0.0
1597, 0.0
1598, 0.0
1599, 0.0
