30, 0.0
31, 0.0
32, 0.0
33, 0.0
34, 0.0
35, 0.0
36, 0.0
37, 0.0
38, 0.0
39, 0.0
40, 0.0
41, 0.0
42, 0.0
43, 0.0
44, 0.0
45, 0.0
46, 0.0
47, 0.0
48, 0.0
49, 0.0
50, 0.0
51, 0.0
52, 0.0
53, 0.0
54, 0.0
55, 0.0
56, 0.0
57, 0.0
58, 0.0
59, 0.0
60, 0.0
61, 0.0
62, 0.0
63, 0.0
64, 0.0
65, 0.0
66, 0.0
67, 0.0
68, 0.0
69, 0.0
70, 0.0
71, 0.0
72, 0.0
73, 0.0
74, 0.0
75, 0.0
76, 0.0
77, 0.0
78, 0.0
79, 0.0
80, 0.0
81, 0.0
82, 0.0
83, 0.0
84, 0.0
85, 0.0
86, 0.0
87, 0.0
88, 0.0
89, 0.0
90, 0.0
91, 0.0
92, 0.0
93, 0.0
94, 0.0
95, 0.0
96, 0.0
97, 0.0
98, 0.0
99, 0.0
100, 0.0
101, 0.0
102, 0.0
103, 0.0
104, 0.0
105, 0.0
106, 0.0
107, 0.0
108, 0.0
109, 0.0
110, 0.0
111, 0.0
112, 0.0
113, 0.0
114, 0.0
115, 0.0
116, 0.0
117, 0.0
118, 0.0
119, 0.0
120, 0.0
121, 0.0
122, 0.0
123, 0.0
124, 0.0
125, 0.0
126, 0.0
127, 0.0
128, 0.0
129, 0.0
130, 0.0
131, 0.0
132, 0.0
133, 0.0
134, 0.0
135, 0.0
136, 0.0
137, 0.0
138, 0.0
139, 0.0
140, 0.0
141, 0.0
142, 0.0
143, 0.0
144, 0.0
145, 0.0
146, 0.0
147, 0.0
148, 0.0
149, 0.0
150, 0.0
151, 0.0
152, 0.0
153, 0.0
154, 0.0
155, 0.0
156, 0.0
157.0, 0.006084395444554219
158.0, 0.004429726279552799
159.0, 0.002800610449751379
160.0, 0.008658914866662969
161.0, 0.006484540534915458
162.0, 0.013469894552827037
163.0, 0.010805496809769598
164.0, 0.009542016278659297
165.0, 0.014866615472208106
166.0, 0.012956617856237734
167.0, 0.01457108460436938
168.0, 0.015657197273752622
169.0, 0.017088189954602782
170.0, 0.01790953973722769
171.0, 0.015286078295779847
172.0, 0.01137663159404741
173.0, 0.006707510478190112
174.0, 0.008836399168256634
175.0, 0.012304162316666629
176.0, 0.007698942353420112
177.0, 0.010153813528545186
178.0, 0.005550985585562342
179.0, 0.0032220145215278097
180.0, 0.002649128546284414
181.0, 0.001624665528150699
182.0, 0.0010172606900066994
183.0, 0.0013203480876603302
184.0, 0.0008043542652142722
185.0, 0.0013164257799835768
186.0, 0.0025333546039468255
187.0, 0.0004006702707081862
188.0, 0.002270907994677423
189.0, 0.005007647682958027
190.0, 0.004513400571736179
191.0, 0.0029874394668032516
192.0, 0.005780698862746581
193.0, 0.00175845337377697
194.0, 0.004117465176297361
195.0, 0.004905473410576446
196.0, 0.004689020840712488
197.0, 0.005857746299778165
198.0, 0.007087324966778485
199.0, 0.00679217480500363
200.0, 0.0072852729453381565
201.0, 0.0075239589338312205
202.0, 0.00729815018139434
203.0, 0.008309374390923528
204.0, 0.008815464799048099
205.0, 0.008883007433448982
206.0, 0.0063837240034698055
207.0, 0.00287401848352322
208.0, 0.002209954655136877
209.0, 0.0062268104753473216
210.0, 0.004971973940960172
211.0, 0.006295022212688442
212.0, 0.00865830312962998
213.0, 0.010028139596695303
214.0, 0.014843224969622459
215.0, 0.010761450787260034
216.0, 0.011538109760920805
217.0, 0.012838364170237556
218.0, 0.014685569400506708
219.0, 0.023181374381716927
220.0, 0.023889266813796117
221.0, 0.027312706415761494
222.0, 0.02922349715345969
223.0, 0.03166423743161521
224.0, 0.03766748762507613
225.0, 0.04056296464548318
226.0, 0.04793024123267217
227.0, 0.05214113951182606
228.0, 0.0565050113345573
229.0, 0.0640534742965103
230.0, 0.07426314821268233
231.0, 0.07372858115987259
232.0, 0.08033754906864872
233.0, 0.08728106932612757
234.0, 0.09195096637113108
235.0, 0.09573232383450084
236.0, 0.10607805891598514
237.0, 0.10817793968451708
238.0, 0.11254548571126922
239.0, 0.1197649012559646
240.0, 0.12754446208811895
241.0, 0.13241766533031668
242.0, 0.13623706776039934
243.0, 0.13915356461008146
244.0, 0.14190286868720164
245.0, 0.14544059866659925
246.0, 0.14996147919753167
247.0, 0.1483030674804241
248.0, 0.14998580448993382
249.0, 0.15115395137987686
250.0, 0.15022189487742674
251.0, 0.14683130586076126
252.0, 0.1419728589531703
253.0, 0.14092299054492244
254.0, 0.1358646090534591
255.0, 0.1311295476273299
256.0, 0.12837277528963925
257.0, 0.12649674494291183
258.0, 0.12280170606797436
259.0, 0.1180339616097433
260.0, 0.11219319398613342
261.0, 0.10589880294824344
262.0, 0.09927214681911294
263.0, 0.0911072928995821
264.0, 0.08156390374180604
265.0, 0.07566752311811849
266.0, 0.07024595596268694
267.0, 0.06551766637683169
268.0, 0.06314504881128848
269.0, 0.058824777617996454
270.0, 0.052337613865081824
271.0, 0.04673696753370355
272.0, 0.04335287991310786
273.0, 0.041397556575187566
274.0, 0.03750926617126176
275.0, 0.03362021847985038
276.0, 0.02846153322671753
277.0, 0.025719005903053985
278.0, 0.02266510105242097
279.0, 0.01613445158055642
280.0, 0.014048186814035035
281.0, 0.013341837109655422
282.0, 0.00983285430567867
283.0, 0.007310328046989717
284.0, 0.006520241509127597
285.0, 0.004230383469858152
286.0, 0.003139926735650326
287.0, 0.0021708090443972035
288.0, 0.0013254978980757363
289.0, 0.0008114071321379926
290.0, 0.0011712710137938135
291.0, 0.0035714158073079723
292.0, 0.005981195145812385
293.0, 0.004708334103173678
294.0, 0.004960543930582256
295.0, 0.005996762818835226
296.0, 0.004318703824564643
297.0, 0.005195936465688997
298.0, 0.007082388590167729
299.0, 0.006159271622866655
300.0, 0.005079515923537259
301.0, 0.004729198791265252
302.0, 0.0026421048085981933
303.0, 0.0020731839673291622
304.0, 0.0015499676699939182
305.0, 0.0015120822283633192
306.0, 0.001647422934129194
307.0, 0.002215830206171548
308.0, 0.005487905231986654
309.0, 0.007441541569138542
310.0, 0.009866532082590446
311.0, 0.012248238231073905
312.0, 0.01416650574830774
313.0, 0.015847995128573007
314.0, 0.020005807460102193
315.0, 0.019314084653078704
316.0, 0.019260533696420758
317.0, 0.022108024760830326
318.0, 0.025444588641719515
319.0, 0.023743567148357486
320.0, 0.027207410623652218
321.0, 0.027579190556287
322.0, 0.030918660570011986
323.0, 0.03353678878686485
324.0, 0.03483816927890026
325.0, 0.04372549703370803
326.0, 0.0425118248381023
327.0, 0.044940880828384475
328.0, 0.04728377942191821
329.0, 0.048572187218893705
330.0, 0.04980660175170208
331.0, 0.05368219814395507
332.0, 0.05951670203577327
333.0, 0.059925294737881406
334.0, 0.06313675723496753
335.0, 0.06840247270559797
336.0, 0.07025989209178943
337.0, 0.0738172583680736
338.0, 0.07818326116853584
339.0, 0.0803174719488601
340.0, 0.08392065809888542
341.0, 0.08932877263043049
342.0, 0.09306797017037616
343.0, 0.09476577141161521
344.0, 0.09960510384143259
345.0, 0.10375168253756326
346.0, 0.10785664052282448
347.0, 0.1137817989844069
348.0, 0.12304525308071639
349.0, 0.1279060218529867
350.0, 0.13552460172076594
351.0, 0.14151056431186906
352.0, 0.147283455945027
353.0, 0.1538231660121221
354.0, 0.15838977578277896
355.0, 0.16865380470796448
356.0, 0.17681443240536063
357.0, 0.1856796497918534
358.0, 0.1952589548607066
359.0, 0.20437250076792443
360.0, 0.21195164953618842
361.0, 0.21730303664940692
362.0, 0.2267576076115905
363.0, 0.23920212564226906
364.0, 0.25033571514533426
365.0, 0.2587250059398304
366.0, 0.27509283807053664
367.0, 0.2854441533406666
368.0, 0.2974455478590183
369.0, 0.30847980006222847
370.0, 0.3210884773541997
371.0, 0.33813643299773755
372.0, 0.35203447861209036
373.0, 0.3637712139464503
374.0, 0.3798404372501427
375.0, 0.39362568634034956
376.0, 0.40758395797168245
377.0, 0.42765245006320113
378.0, 0.44581567301336855
379.0, 0.4628471533313753
380.0, 0.4829983673199412
381.0, 0.5073526519285635
382.0, 0.5305749892288742
383.0, 0.5483582627266191
384.0, 0.5807091340533875
385.0, 0.6042543531605437
386.0, 0.6294066118983935
387.0, 0.6556818191724972
388.0, 0.6840275182285557
389.0, 0.7161495049971838
390.0, 0.7483805953401348
391.0, 0.7691091012649917
392.0, 0.8040510600070301
393.0, 0.8374090566315877
394.0, 0.8657443534912797
395.0, 0.8961950610729719
396.0, 0.9190720685719
397.0, 0.9532575338188185
398.0, 0.9693185376984417
399.0, 0.9821229086823801
400.0, 0.9945670202339865
401.0, 0.99877058467931
402.0, 0.9999217226200309
403.0, 0.9986158010605738
404.0, 0.9964605063146266
405.0, 0.9815991075971511
406.0, 0.957918360959526
407.0, 0.937202533624171
408.0, 0.9110012595590885
409.0, 0.8713807663067933
410.0, 0.84107573367713
411.0, 0.8074941004915683
412.0, 0.7688128247280989
413.0, 0.7313842247765713
414.0, 0.6961455057597836
415.0, 0.6602494959334292
416.0, 0.6235766014348328
417.0, 0.5886769214833537
418.0, 0.5570485169074405
419.0, 0.527478946014087
420.0, 0.49364741382561006
421.0, 0.46415877844851056
422.0, 0.4383838995471157
423.0, 0.4103917380537034
424.0, 0.3825518798641964
425.0, 0.3585548184030219
426.0, 0.3347752967176093
427.0, 0.3178511451520604
428.0, 0.29954701230816017
429.0, 0.2809816323100711
430.0, 0.26390069286861856
431.0, 0.2487467353690578
432.0, 0.2333805932824432
433.0, 0.2198099795870481
434.0, 0.20687873683275124
435.0, 0.19290213612255477
436.0, 0.18025595368252342
437.0, 0.17018333940815464
438.0, 0.16100748537244255
439.0, 0.1591290976434979
440.0, 0.14946672896235194
441.0, 0.1444194509504296
442.0, 0.14150057481739137
443.0, 0.13651596164923804
444.0, 0.1287027319083883
445.0, 0.12574774834088548
446.0, 0.12316186016289712
447.0, 0.12027680867992724
448.0, 0.11891382437375442
449.0, 0.11942950623455041
450.0, 0.12105999732436397
451.0, 0.1248122346570945
452.0, 0.12074904799854008
453.0, 0.12692535385374387
454.0, 0.13358276994283663
455.0, 0.13923836589278804
456.0, 0.14759360020377554
457.0, 0.15948811204662056
458.0, 0.16728074541467253
459.0, 0.1741757134528444
460.0, 0.18156554110120265
461.0, 0.1943449820157406
462.0, 0.21093914350955534
463.0, 0.2190477539044282
464.0, 0.22919007687800963
465.0, 0.24542725266495857
466.0, 0.25806910772472763
467.0, 0.2686950562952617
468.0, 0.2794823779948732
469.0, 0.2903189392515415
470.0, 0.30234538559337515
471.0, 0.3211114806044668
472.0, 0.3397755495579233
473.0, 0.35743356444486346
474.0, 0.3754315756245007
475.0, 0.39520183324897723
476.0, 0.41510498920190125
477.0, 0.4402902345201354
478.0, 0.4650510688359371
479.0, 0.4856338921647784
480.0, 0.506580877897204
481.0, 0.5308638295153588
482.0, 0.5523710426031772
483.0, 0.5635294660996469
484.0, 0.5722329241610449
485.0, 0.5721900780334055
486.0, 0.562778229708672
487.0, 0.5475557038358616
488.0, 0.5305209656028709
489.0, 0.5042851717543168
490.0, 0.47464726738372487
491.0, 0.4443299933928654
492.0, 0.4100673797855445
493.0, 0.37095013405830374
494.0, 0.33135985294602915
495.0, 0.3026778387944599
496.0, 0.2698660051099558
497.0, 0.23436239323783986
498.0, 0.2096149050395877
499.0, 0.18963398841182819
500.0, 0.1676915141314186
501.0, 0.14585471815357853
502.0, 0.1314352512432344
503.0, 0.11878488474681459
504.0, 0.10501443145387837
505.0, 0.09181365918449531
506.0, 0.08184209291389115
507.0, 0.07596969323562386
508.0, 0.06998250365156179
509.0, 0.0628335689007771
510.0, 0.057789137491012284
511.0, 0.052894911702249824
512.0, 0.047272082158477696
513.0, 0.04294646877146769
514.0, 0.04374560934670238
515.0, 0.04322005440122149
516.0, 0.039499253348420825
517.0, 0.037191723810762294
518.0, 0.03491853501570011
519.0, 0.03104242623363371
520.0, 0.026312715629170372
521.0, 0.026165202723643997
522.0, 0.024909867655388378
523.0, 0.02271590324841996
524.0, 0.023453992706924616
525.0, 0.02406020224741272
526.0, 0.02328321326714483
527.0, 0.024076509388408475
528.0, 0.021984070361637638
529.0, 0.021030927411347173
530.0, 0.019263202165085938
531.0, 0.0182145835219002
532.0, 0.018469862678328355
533.0, 0.018818311169612835
534.0, 0.01651501785663377
535.0, 0.016050832090965184
536.0, 0.014728847434378968
537.0, 0.013971517824545749
538.0, 0.013441593830170179
539.0, 0.01355117654354494
540.0, 0.014745956923923637
541.0, 0.012892657735107732
542.0, 0.011922757914244221
543.0, 0.013035191715854393
544.0, 0.012055853160571943
545.0, 0.008902474287444728
546.0, 0.005866719670202858
547.0, 0.004933273622464034
548.0, 0.0029629796438158163
549.0, 0.003503493818553442
550.0, 0.0025857272781699583
551.0, 0.0017770589089187764
552.0, 0.0014725519679154025
553.0, 0.00114235683919075
554.0, 0.0013087932637431056
555.0, 0.0009001562515555258
556.0, 0.0028120198840379308
557.0, 0.003118744539479509
558.0, 0.004843371374884254
559.0, 0.0060394396575613254
560.0, 0.0020654314706367674
561.0, 0.0020617921786367267
562.0, 0.002720246687960458
563.0, 0.003040769299377561
564.0, 0.0023604073720954175
565.0, 0.0021502790333119614
566.0, 0.002430406477085486
567.0, 0.0013434816263085886
568.0, 0.0034388490028879294
569.0, 0.002181446530297243
570.0, 0.00235074939388679
571.0, 0.0014323910576050374
572.0, 0.0007651113869646265
573.0, 0.0018657772094162204
574.0, 0.0025913703694461217
575.0, 0.0029837037137880845
576.0, 0.0016483106024459987
577.0, 0.0036314878557332127
578.0, 0.006403577340627574
579.0, 0.006946152918214782
580.0, 0.005506878491742485
581.0, 0.007476272379000609
582.0, 0.010159485366367647
583.0, 0.014085711100718473
584.0, 0.01643891620326962
585.0, 0.016895917616925212
586.0, 0.018568770197855262
587.0, 0.023336707197507287
588.0, 0.02442802101393008
589.0, 0.02811005926710934
590.0, 0.03127534412921765
591.0, 0.03568644769389271
592.0, 0.03915642141254949
593.0, 0.04282670620875865
594.0, 0.049145919517128246
595.0, 0.052300501098060684
596.0, 0.05812823771683615
597.0, 0.06316586571807972
598.0, 0.06827348207263757
599.0, 0.07534416541857533
600.0, 0.0826529324652623
601.0, 0.08703584242533093
602.0, 0.0937873557340921
603.0, 0.09875723784863033
604.0, 0.10527489157313683
605.0, 0.10919580547147335
606.0, 0.11142423227703788
607.0, 0.11427974657627088
608.0, 0.11825274939302202
609.0, 0.1192063822040909
610.0, 0.12066283350080426
611.0, 0.11878965753514653
612.0, 0.1171308104962492
613.0, 0.11523807308491035
614.0, 0.11203969815669286
615.0, 0.10750030068900775
616.0, 0.1016944442344327
617.0, 0.09666009414792018
618.0, 0.09129719602741938
619.0, 0.08778081634655882
620.0, 0.08398700975051038
621.0, 0.07878998866548927
622.0, 0.07360212315787215
623.0, 0.06918568337362907
624.0, 0.06179077760506181
625.0, 0.05624454266453753
626.0, 0.0542239424495484
627.0, 0.051520961448114175
628.0, 0.047794808151727534
629.0, 0.04562883091682397
630.0, 0.03928335078728523
631.0, 0.038982712417366054
632.0, 0.03298675085531445
633.0, 0.03011871511851215
634.0, 0.028165196707625767
635.0, 0.02587034102605278
636.0, 0.023774059679083828
637.0, 0.01789439870380945
638.0, 0.019298989427423887
639.0, 0.01672052386829351
640.0, 0.017384212362638044
641.0, 0.016154400521609096
642.0, 0.01302104319244335
643.0, 0.011719039766979267
644.0, 0.010664507732199364
645.0, 0.010641662428986256
646.0, 0.009247534046755495
647.0, 0.008389289779191187
648.0, 0.006075294030516595
649.0, 0.0037958848636874113
650.0, 0.004033803161511876
651.0, 0.005571254330754562
652.0, 0.0016210962395193412
653.0, 0.002451732189534618
654.0, 0.00478514716964493
655.0, 0.005081941899214724
656.0, 0.003526127487662329
657.0, 0.0016307643163851189
658.0, 7.937221218380428e-05
659.0, 0.00023817258102312575
660.0, 0.0005757856149649948
661.0, 0.001231012631183567
662.0, 0.0009192831674124879
663.0, 0.001305259126864349
664.0, 0.002140359370764907
665.0, 0.0013003680534750968
666.0, 0.0009297711712831368
667.0, 0.0017411855503170928
668.0, 0.000946524897537396
669.0, 0.0005921821692374945
670.0, 0.0009018160351889692
671.0, 0.0015532806512267763
672.0, 0.002062898237548281
673.0, 0.0018437627782323174
674.0, 0.001505243639467578
675.0, 0.0011762904329592839
676.0, 0.0016113296206751284
677.0, 0.0025644907816085
678.0, 0.0020434904039671603
679.0, 0.0009937025709441196
680.0, 0.0034978100016125977
681.0, 0.0019391444468122385
682.0, 0.0004432956494607079
683.0, 0.0004845760753523059
684.0, 0.0007417003127292753
685.0, 0.001173062024718524
686.0, 0.0012128542315214712
687.0, 0.0008697974520932596
688.0, 0.003985999607011645
689.0, 0.002086461695686984
690.0, 0.0032841874775491756
691.0, 0.005838522140758343
692.0, 0.0074148160893268205
693.0, 0.006460583147264208
694.0, 0.004392973271588756
695.0, 0.005498637052960337
696.0, 0.008231651661265839
697.0, 0.0066853473663994484
698.0, 0.00720466127663008
699.0, 0.00630457159031341
700.0, 0.005687549615526014
701.0, 0.005835957243529982
702.0, 0.004860721652664991
703.0, 0.005022063665128824
704.0, 0.006805327634924422
705.0, 0.005656092989221472
706.0, 0.006482659082809207
707.0, 0.006810289052175948
708.0, 0.007348678158221761
709.0, 0.008435803410112866
710.0, 0.00693929589447863
711.0, 0.011151832801134774
712.0, 0.010040954651011392
713.0, 0.01088475611082411
714.0, 0.01034110747443749
715.0, 0.010236612912757117
716.0, 0.011166007476354165
717.0, 0.011548895930516043
718.0, 0.01222456814543227
719.0, 0.014197312727521685
720.0, 0.013189246687982506
721.0, 0.011356594570426143
722.0, 0.010376428082146614
723.0, 0.011375249027053825
724.0, 0.012172281937087866
725.0, 0.010226513661906791
726.0, 0.015732299957772845
727.0, 0.010876913549172472
728.0, 0.011317819950195778
729.0, 0.012201329264401574
730.0, 0.011598153509544237
731.0, 0.010984257739078634
732.0, 0.011999978224713997
733.0, 0.01303599226790752
734.0, 0.010927536777615598
735.0, 0.01376080042534782
736.0, 0.012907467761513641
737.0, 0.011823541634785741
738.0, 0.01212716978375766
739.0, 0.01336374298903343
740.0, 0.014142265240395786
741.0, 0.013773258683455481
742.0, 0.015203143732058397
743.0, 0.015069546703818815
744.0, 0.014752370154604302
745.0, 0.01513851566800344
746.0, 0.01598159254387256
747.0, 0.01757536352435982
748.0, 0.020428472134497572
749.0, 0.022561120851107914
750.0, 0.020776539181539308
751.0, 0.02300854689005741
752.0, 0.0237702316084326
753.0, 0.024499635085270685
754.0, 0.026005557394162104
755.0, 0.027917113319256736
756.0, 0.02976031248042603
757.0, 0.03183664983833361
758.0, 0.034221977157101915
759.0, 0.03699747242497821
760.0, 0.0384543043534883
761.0, 0.040880087782110726
762.0, 0.0425383092842171
763.0, 0.042936974753627476
764.0, 0.04542965761454859
765.0, 0.047861222474470964
766.0, 0.05382511181797153
767.0, 0.05299709181174808
768.0, 0.055086186614420336
769.0, 0.056965419276551243
770.0, 0.05963990782819717
771.0, 0.06444054560225182
772.0, 0.06731223560456953
773.0, 0.06468447632621337
774.0, 0.06691379075822196
775.0, 0.06733398717426403
776.0, 0.07017000978527307
777.0, 0.07321642959806035
778.0, 0.07356152146967093
779.0, 0.07298260834178764
780.0, 0.0755150820109893
781.0, 0.07292205104263048
782.0, 0.07348183259718301
783.0, 0.07198756018967468
784.0, 0.07310501375788554
785.0, 0.07185944749530693
786.0, 0.06793338709975809
787.0, 0.06454445556216795
788.0, 0.06375011530985564
789.0, 0.06510965353636941
790.0, 0.060848221812511046
791.0, 0.056108941059984006
792.0, 0.0559073747744701
793.0, 0.0533301247802685
794.0, 0.050133406820185265
795.0, 0.04946845647889278
796.0, 0.04933912166735402
797.0, 0.047533623950057786
798.0, 0.04302583311780511
799.0, 0.04425651738569146
800.0, 0.045136921241857676
801.0, 0.044943096684343785
802.0, 0.046144845184483904
803.0, 0.04851663817040072
804.0, 0.049858040915408575
805.0, 0.05177040034256988
806.0, 0.05107187568118556
807.0, 0.05652431299805322
808.0, 0.05694522274051068
809.0, 0.057309694918003064
810.0, 0.06147900558524152
811.0, 0.0658471221418454
812.0, 0.06665300247201725
813.0, 0.06932276003298403
814.0, 0.076299895594392
815.0, 0.07628844051234003
816.0, 0.08019164820398572
817.0, 0.08029971387619253
818.0, 0.07961335626232185
819.0, 0.07838960815430308
820.0, 0.07578336765111518
821.0, 0.07353054301006905
822.0, 0.06978579242100864
823.0, 0.06759778650655854
824.0, 0.0606011426238351
825.0, 0.053523035005210474
826.0, 0.04763504751150388
827.0, 0.04478895511888852
828.0, 0.04266394142285641
829.0, 0.03699447141968061
830.0, 0.030775907664613966
831.0, 0.030264622799047926
832.0, 0.0253936437123383
833.0, 0.023713463142261283
834.0, 0.020966709526143594
835.0, 0.018827949336628774
836.0, 0.017705487084545862
837.0, 0.017321043914421422
838.0, 0.018504134740193204
839.0, 0.014866646699445337
840.0, 0.014323408190073819
841.0, 0.009880336751369363
842.0, 0.008558364395279586
843.0, 0.009841449031322076
844.0, 0.009762772748659469
845.0, 0.007600501540248617
846.0, 0.005982155187249372
847.0, 0.004734983074289811
848.0, 0.005589781775587766
849.0, 0.0055385029551571225
850.0, 0.008109819689147634
851.0, 0.007199281130450298
852.0, 0.004397131406962634
853.0, 0.00448453586780774
854.0, 0.0066125388268693215
855.0, 0.004750916259306785
856.0, 0.00465890303171205
857.0, 0.003792550398713807
858.0, 0.006622447619042226
859.0, 0.006379666049059077
860.0, 0.005432786107925553
861.0, 0.005215299021395074
862.0, 0.0050457583438350195
863.0, 0.004458456785910607
864.0, 0.004861270935346048
865.0, 0.0051104627225214295
866.0, 0.0007929086922794717
867.0, 0.001218345865195865
868.0, 0.002551500202957315
869.0, 0.004473072753300827
870.0, 0.003315060777223403
871.0, 0.0006520165952917849
872.0, 0.0015443990335792812
873.0, 0.0014723476122009958
874.0, 0.000781860466221661
875.0, 0.002584380009974928
876.0, 0.0028714115294963824
877.0, 0.0016062454654114833
878.0, 0.0007708142365541967
879.0, 0.0004346266137498125
880.0, 0.0002886500720445835
881.0, 0.0007830061931042271
882.0, 0.0009444518616953892
883.0, 0.001345677502760833
884.0, 0.0013131751231711555
885.0, 0.0014235595302949302
886.0, 0.001495324479047
887.0, 0.0010173100543701956
888.0, 0.00033043713065989815
889.0, 0.00014447757828919518
890.0, 0.00071779616225317
891.0, 0.0017711260128649333
892.0, 0.0003349506231790321
893.0, 0.002922996890583865
894.0, 0.001130813363074959
895.0, 0.0018381752968173325
896.0, 0.002353073918192554
897.0, 0.0016195959190223766
898.0, 0.0009160682987513193
899.0, 0.00037311107165115894
900.0, 0.000979306684935628
901.0, 0.0009196928228991281
902.0, 0.0006801590252785311
903.0, 0.0004877222541575146
904.0, 0.0010067696997716248
905.0, 0.0007750496585890812
906.0, 0.00037773962243661926
907.0, 0.000730886564778045
908.0, 0.001013470279931558
909.0, 0.001006527199293354
910.0, 0.001590320127217461
911.0, 0.0018585999242304418
912.0, 0.002770969765493809
913.0, 0.002225008989063645
914.0, 0.0023829699309423713
915.0, 0.0027682188867544405
916.0, 0.0022222525972015214
917.0, 0.0015287243533589183
918.0, 0.00128220318974136
919.0, 0.001100610439203694
920.0, 0.0015454057951958667
921.0, 0.0005995364471426158
922.0, 0.0005330008239251996
923.0, 0.00032872156927333667
924.0, 0.00016969216815163963
925.0, 0.0008510774636296637
926.0, 0.0015274596339231018
927.0, 0.00021862423773771273
928.0, 0.0006504289471507508
929.0, 0.0020226414799004795
930.0, 0.0014941848611523508
931.0, 0.0018920797355871117
932.0, 0.0009333440789191849
933.0, 0.0008850445078240122
934.0, 0.001482476573748466
935.0, 0.0009888304038461475
936.0, 0.000881554352218471
937.0, 0.0004919133565496099
938.0, 0.00040711581276678535
939.0, 0.00037281959274061975
940.0, 0.000979190933651311
941.0, 0.0018116814537794813
942.0, 0.0020808155852381884
943.0, 0.0027976343229248997
944.0, 0.0033701459070832568
945.0, 0.0029025677615085186
946.0, 0.005399402450889641
947.0, 0.002014209127722859
948.0, 0.002508196983174071
949.0, 0.002626335980560495
950.0, 0.0010126093891001872
951.0, 0.003985827307126306
952.0, 0.005328957853007556
953.0, 0.004098510065278719
954.0, 0.004296800529791635
955.0, 0.0031703545807652013
956.0, 0.003378128463476032
957.0, 0.0038857070826591165
958.0, 0.004198746746238133
959.0, 0.003605243715351083
960.0, 0.005208892030622634
961.0, 0.0077535558856654885
962.0, 0.009408051355990009
963.0, 0.010074943667709713
964.0, 0.010240658962690786
965.0, 0.009341262647467197
966.0, 0.009719161306441626
967.0, 0.009226608001014224
968.0, 0.008797581971609542
969.0, 0.009923138860524055
970.0, 0.0109741042572547
971.0, 0.01143386601000454
972.0, 0.013323052744241462
973.0, 0.015045973730057869
974.0, 0.013672797951081367
975.0, 0.01704160185059937
976.0, 0.01882049546945574
977.0, 0.01373463588195699
978.0, 0.01710727929486591
979.0, 0.018127568380794382
980.0, 0.017297115219195077
981.0, 0.01826509002262859
982.0, 0.02138367750995415
983.0, 0.023877621006351192
984.0, 0.02454314778833036
985.0, 0.026112236639990575
986.0, 0.02457568236585639
987.0, 0.02438881580097169
988.0, 0.027677988627623076
989.0, 0.028920061219048276
990.0, 0.027750911353524317
991.0, 0.027839116936463397
992.0, 0.02988123434528092
993.0, 0.03074953805516268
994.0, 0.029684077477575257
995.0, 0.032268985664463706
996.0, 0.03404724607025285
997.0, 0.034933363042559944
998.0, 0.03910607544125997
999.0, 0.03889470159759727
1000.0, 0.04029356477829304
1001.0, 0.04159640035482955
1002.0, 0.041571917474337146
1003.0, 0.04126893759087036
1004.0, 0.04043095190281195
1005.0, 0.041962408765264775
1006.0, 0.041969156094503184
1007.0, 0.04291811881923291
1008.0, 0.0448458854729216
1009.0, 0.04603843767979543
1010.0, 0.04602757593991911
1011.0, 0.04710275211322732
1012.0, 0.0487048603542975
1013.0, 0.048542753749128476
1014.0, 0.04776360029318208
1015.0, 0.05045673641511925
1016.0, 0.052377278307908774
1017.0, 0.04962719550822086
1018.0, 0.04977017910329316
1019.0, 0.05220556864020061
1020.0, 0.05178200693917458
1021.0, 0.05297799779470817
1022.0, 0.05284528435620228
1023.0, 0.05162891038608191
1024.0, 0.053899762888560784
1025.0, 0.053549194980682814
1026.0, 0.05503973661938622
1027.0, 0.055371193188608246
1028.0, 0.055878917759410895
1029.0, 0.057171754165039355
1030.0, 0.05789770007499453
1031.0, 0.05800936544563496
1032.0, 0.057650614008412135
1033.0, 0.05750277017756775
1034.0, 0.05878415743186091
1035.0, 0.06087366771409038
1036.0, 0.059630036564887995
1037.0, 0.061396906359779395
1038.0, 0.06420221660442935
1039.0, 0.06210598166580586
1040.0, 0.06260695319805311
1041.0, 0.06306827503536021
1042.0, 0.06289323435189464
1043.0, 0.06209133843839265
1044.0, 0.06124434464982556
1045.0, 0.06100233870621724
1046.0, 0.0607569950472179
1047.0, 0.0623270523510508
1048.0, 0.05598239366988009
1049.0, 0.06072204928977578
1050.0, 0.058107899308325474
1051.0, 0.05702983462370851
1052.0, 0.058205196301830145
1053.0, 0.05837806475481739
1054.0, 0.05752275305717859
1055.0, 0.0566086377031965
1056.0, 0.05511846477898609
1057.0, 0.05479382683402508
1058.0, 0.05308904016263563
1059.0, 0.05478559419828767
1060.0, 0.05352719071355479
1061.0, 0.05441625830425306
1062.0, 0.05491059722966745
1063.0, 0.05436146450839003
1064.0, 0.054152134692324376
1065.0, 0.054130790025892404
1066.0, 0.05394241224136587
1067.0, 0.05429993842297758
1068.0, 0.05367272271920483
1069.0, 0.056415771065681866
1070.0, 0.058276592505256845
1071.0, 0.059102437860001585
1072.0, 0.058867947494332065
1073.0, 0.06029409917910147
1074.0, 0.06135637583720955
1075.0, 0.06211383217045215
1076.0, 0.06347310452058957
1077.0, 0.0644847068880818
1078.0, 0.06513134790787228
1079.0, 0.068818780057586
1080.0, 0.06684202653763198
1081.0, 0.073450849905353
1082.0, 0.07177071841472314
1083.0, 0.0738057051288206
1084.0, 0.07763304772558227
1085.0, 0.07844551157314113
1086.0, 0.08054326122552986
1087.0, 0.08331496029261032
1088.0, 0.0834756019659711
1089.0, 0.0839793198152172
1090.0, 0.0861018024250154
1091.0, 0.08826494930889857
1092.0, 0.08953854565643538
1093.0, 0.09265259864130841
1094.0, 0.09223902658295334
1095.0, 0.09441644495375442
1096.0, 0.09446527260079565
1097.0, 0.09411814739865676
1098.0, 0.09548025953349747
1099.0, 0.0971871015887409
1100.0, 0.09729154263384548
1101.0, 0.09714125381881135
1102.0, 0.1019411635090667
1103.0, 0.09638319958242161
1104.0, 0.1026367252370202
1105.0, 0.09953685987332098
1106.0, 0.09775093797470213
1107.0, 0.10126447952653045
1108.0, 0.10103387073876065
1109.0, 0.09920759232674428
1110.0, 0.0980933474267824
1111.0, 0.09766167575816961
1112.0, 0.10044640295095876
1113.0, 0.09983370374077467
1114.0, 0.10090397993122963
1115.0, 0.10142974629090157
1116.0, 0.10051976027137496
1117.0, 0.10037603321782003
1118.0, 0.0995333518747445
1119.0, 0.09867670589000263
1120.0, 0.09839181959029403
1121.0, 0.09794788186010969
1122.0, 0.0975340976680276
1123.0, 0.09702580050065539
1124.0, 0.09463474119082468
1125.0, 0.09331428332533337
1126.0, 0.09312418811745363
1127.0, 0.09470680736008029
1128.0, 0.09384851976249085
1129.0, 0.09553117518733813
1130.0, 0.09531433691157462
1131.0, 0.09323338303901578
1132.0, 0.0932344345211367
1133.0, 0.09420010868644543
1134.0, 0.09305656420156763
1135.0, 0.09100440686076434
1136.0, 0.09110670994210739
1137.0, 0.09316895158240295
1138.0, 0.08992612028151077
1139.0, 0.09123882936771276
1140.0, 0.0931463363576366
1141.0, 0.09055203053281577
1142.0, 0.09092878295950485
1143.0, 0.08947732153140661
1144.0, 0.08462405482242519
1145.0, 0.08319653242204662
1146.0, 0.08462374413085676
1147.0, 0.08306484958377654
1148.0, 0.08353524055970617
1149.0, 0.08517238632436253
1150.0, 0.08340947334131887
1151.0, 0.08024239263384178
1152.0, 0.08411658924643962
1153.0, 0.07965347121985059
1154.0, 0.07930284833175562
1155.0, 0.07812270708734538
1156.0, 0.0779399430082452
1157.0, 0.07658800045923936
1158.0, 0.07396371839159047
1159.0, 0.07332963203408813
1160.0, 0.07271490256061074
1161.0, 0.07213517984453889
1162.0, 0.07219476046057666
1163.0, 0.06894529592419267
1164.0, 0.06445162054893987
1165.0, 0.06404782914757821
1166.0, 0.06277632604278816
1167.0, 0.0623967804637119
1168.0, 0.05967529219636884
1169.0, 0.058033101916415836
1170.0, 0.05865389537338182
1171.0, 0.05784932524705502
1172.0, 0.05568371462112657
1173.0, 0.05480799061527547
1174.0, 0.05002742417593159
1175.0, 0.05129569142161709
1176.0, 0.04611620844129657
1177.0, 0.04520279742923822
1178.0, 0.04683547408415185
1179.0, 0.04543159175316325
1180.0, 0.04289982000626392
1181.0, 0.03887754109220345
1182.0, 0.03582846639501798
1183.0, 0.03580936016051517
1184.0, 0.036081327581493794
1185.0, 0.03407278836759017
1186.0, 0.03264155631075715
1187.0, 0.03128709599891891
1188.0, 0.03117058841618536
1189.0, 0.029972841600191216
1190.0, 0.02871967121800625
1191.0, 0.02545883806151879
1192.0, 0.02522668461412375
1193.0, 0.02345055955602713
1194.0, 0.021182746332507663
1195.0, 0.02145552673538674
1196.0, 0.020779428995675864
1197.0, 0.017671003026072232
1198.0, 0.016981129579649513
1199.0, 0.015525786824944366
1200.0, 0.012050599626459626
1201.0, 0.012021323489508106
1202.0, 0.015036812086005661
1203.0, 0.010995209814011904
1204.0, 0.011323136244916352
1205.0, 0.009277669245862565
1206.0, 0.008005954515063586
1207.0, 0.006951809830137028
1208.0, 0.007570764060450545
1209.0, 0.00935769133367404
1210.0, 0.009559316626835651
1211.0, 0.008406137694118689
1212.0, 0.007236435736534838
1213.0, 0.004811984456979655
1214.0, 0.002683506303002466
1215.0, 0.004312781504273017
1216.0, 0.004803654549548113
1217.0, 0.004347514742298587
1218.0, 0.006097381899543686
1219.0, 0.004979481863961713
1220.0, 0.004237698610994447
1221.0, 0.0031644692811723892
1222.0, 0.002450737168758763
1223.0, 0.0022440805464331156
1224.0, 0.0014454652568737132
1225.0, 0.0021179027578306572
1226.0, 0.0038218859857028892
1227.0, 0.003728629327688564
1228.0, 0.001356877588811855
1229.0, 0.0003636961965485895
1230.0, 0.0004959870719667979
1231.0, 0.002722807047834997
1232.0, 0.0015793972155636092
1233.0, 0.001140978822644478
1234.0, 0.0015447596701325269
1235.0, 0.0010564540190102765
1236.0, 0.0004363307161551253
1237.0, 0.0004219640140487676
1238.0, 0.000995637698890938
1239.0, 0.002835155559757507
1240.0, 0.003318647184807821
1241.0, 0.0015793696160078204
1242.0, 0.002714006700695467
1243.0, 0.0027654365824428735
1244.0, 0.00046553582758968124
1245.0, 0.0006354595539312739
1246.0, 0.0016661808798102843
1247.0, 0.0022318350735262165
1248.0, 0.0022497775316756225
1249.0, 0.0017330186579561353
1250.0, 0.0022981457128519248
1251.0, 0.0024431445052831386
1252.0, 0.0009798017448912615
1253.0, 0.0009826296576405766
1254.0, 0.0002314343124095851
1255.0, 0.0011444950046402102
1256.0, 0.0008415938541553427
1257.0, 0.001469740240059561
1258.0, 0.0011764120725892009
1259.0, 0.00028991409472654665
1260.0, 0.0019145673338579368
1261.0, 0.0014070523553487571
1262.0, 0.0018143478184762447
1263.0, 0.0019585048584350793
1264.0, 0.0014397184921470386
1265.0, 0.0008542252586515587
1266.0, 0.00032105705936288155
1267.0, 0.000788989529475677
1268.0, 0.0017993431985006557
1269.0, 0.0006889252825360182
1270.0, 0.0013341331358346837
1271.0, 0.0005706501104264581
1272.0, 0.0008538490939457055
1273.0, 0.0007991307861501623
1274.0, 0.0013459709101461118
1275.0, 0.0019300463134585082
1276.0, 0.0010336081207596498
1277.0, 0.0008035828987598836
1278.0, 0.0006720984740945013
1279.0, 0.0010579484988360254
1280.0, 0.0015282238838083809
1281.0, 0.0011489280229718423
1282.0, 0.000833486729856079
1283.0, 0.0009457850011016144
1284.0, 0.0030630909845010138
1285.0, 0.002742946870625003
1286.0, 0.0032108552003998494
1287.0, 0.0034323403514671773
1288.0, 0.0007815005163367059
1289.0, 0.0020288972550283313
1290.0, 0.002401673845437447
1291.0, 0.0025759734024855315
1292.0, 0.0019532726057173346
1293.0, 0.003181733886038307
1294.0, 0.004191797816087569
1295.0, 0.0032094782245853655
1296.0, 0.0028085379787828172
1297.0, 0.003239318472417014
1298.0, 0.002594470252369839
1299.0, 0.004534051830502919
1300.0, 0.006757761853916443
1301.0, 0.0036239556780206616
1302.0, 0.002989780306024993
1303.0, 0.005051762036512575
1304.0, 0.0024830648569444886
1305.0, 0.002456367001984377
1306.0, 0.004561791640280669
1307.0, 0.005561742632574453
1308.0, 0.006574753600873836
1309.0, 0.007288605442195881
1310.0, 0.006048197458618001
1311.0, 0.005422148774681
1312.0, 0.006105397780582126
1313.0, 0.00471395491476014
1314.0, 0.0036028582225451702
1315.0, 0.0034023452664539897
1316.0, 0.002968139653570078
1317.0, 0.00240023287602608
1318.0, 0.002386219875415695
1319.0, 0.002342983007684584
1320.0, 0.003486779669214551
1321.0, 0.004837994721903039
1322.0, 0.0050896494752107665
1323.0, 0.005073227082244295
1324.0, 0.0052430869296633585
1325.0, 0.004364807922922047
1326.0, 0.0032830877789127447
1327.0, 0.0025835916222951135
1328.0, 0.0037962127299916697
1329.0, 0.005915922030893933
1330.0, 0.004061514390862125
1331.0, 0.003907258151653902
1332.0, 0.0010510892793683172
1333.0, 0.002969021682343435
1334.0, 0.006197486794192747
1335.0, 0.003952215341467083
1336.0, 0.0005094846264022382
1337.0, 0.001192539612324607
1338.0, 0.0008341411167175133
1339.0, 0.0030604486897869536
1340.0, 0.0026515474910275847
1341.0, 0.001815935896731786
1342.0, 0.0033950293173652343
1343.0, 0.005389479802780955
1344.0, 0.00434370563941057
1345.0, 0.002713279027779574
1346.0, 0.00376726143648402
1347.0, 0.0030143897678505515
1348.0, 0.002718606013696748
1349.0, 0.0030522636530520173
1350.0, 0.001858056783604213
1351.0, 0.002462818584640571
1352.0, 0.0030583765062000513
1353.0, 0.0027906447587378452
1354.0, 0.002476989167501001
1355.0, 0.0020364451497920104
1356.0, 0.0036063976665913792
1357.0, 0.002700780172279822
1358.0, 0.00317515550409007
1359.0, 0.004765504379538887
1360.0, 0.004945729205120126
1361.0, 0.004960039399278158
1362.0, 0.005298861437335969
1363.0, 0.004955103199510532
1364.0, 0.005276783420302386
1365.0, 0.00528703933788473
1366.0, 0.00478565188900925
1367.0, 0.005599675081117655
1368.0, 0.0042350383939529085
1369.0, 0.0029763881168030338
1370.0, 0.0016535307584174476
1371.0, 0.0025735816849636393
1372.0, 0.0027959686798494647
1373.0, 0.005367454118771104
1374.0, 0.005862768891357061
1375.0, 0.004317720635434326
1376.0, 0.0022163352746798213
1377.0, 0.0018388000184059521
1378.0, 0.0027123576471294497
1379.0, 0.002858047390638475
1380.0, 0.002047481356930681
1381.0, 0.002249168144968107
1382.0, 0.003179047772762386
1383.0, 0.0013276041306970348
1384.0, 0.0037382213241701676
1385.0, 0.005247542793218697
1386.0, 0.002435677556331063
1387.0, 0.000717455588943006
1388.0, 0.0025233629957572713
1389.0, 0.0013217172959024603
1390.0, 0.0021740908859576467
1391.0, 0.001034469587244339
1392.0, 0.001666300736754429
1393.0, 0.0008722317937284046
1394.0, 0.0015733507763661275
1395.0, 0.0013758354393312413
1396.0, 0.0016535262695066947
1397.0, 0.0019027606558398873
1398.0, 0.0007273631115553191
1399.0, 0.001631911407030806
1400.0, 0.003962562724953263
1401.0, 0.002836773759243612
1402.0, 0.002464848553748361
1403.0, 0.003929982065651783
1404.0, 0.002344887656881708
1405.0, 0.0018931010395539316
1406.0, 0.0009803855575976185
1407.0, 6.133519730726155e-05
1408.0, 0.0013317022115828668
1409.0, 0.002402827415019129
1410.0, 0.0019741125733070733
1411.0, 0.0005243634777254479
1412.0, 0.0008131217772080468
1413.0, 0.0017255099146086833
1414.0, 0.0029091654804284037
1415.0, 0.0022048891257080597
1416.0, 0.0021567211597216195
1417.0, 0.0023606054997484887
1418.0, 0.0023285703531434367
1419.0, 0.0036350746654190205
1420.0, 0.0028594743752800283
1421.0, 0.0018023213606231708
1422.0, 0.0034095268870835
1423.0, 0.00589242666725383
1424.0, 0.0036077933043949847
1425.0, 0.004861369634177345
1426.0, 0.0030221189945116933
1427.0, 0.007025107091188336
1428.0, 0.005454958549901064
1429.0, 0.0067123915577232485
1430.0, 0.004095817471887163
1431.0, 0.005975243701161878
1432.0, 0.008244385617503807
1433.0, 0.007700739033543354
1434.0, 0.00926977111889686
1435.0, 0.0071220968412221445
1436.0, 0.006338178521201138
1437.0, 0.008579411521781382
1438.0, 0.008912563351346154
1439.0, 0.008988449733020758
1440.0, 0.009267397946493653
1441.0, 0.008699690793863272
1442.0, 0.009798752112710475
1443.0, 0.009614312122414696
1444.0, 0.00884086829352697
1445.0, 0.008235009173816551
1446.0, 0.0031684885548761087
1447.0, 0.009136466191219734
1448.0, 0.011163356359627773
1449.0, 0.005664812657508645
1450.0, 0.007371666186840297
1451.0, 0.0074765992909715025
1452.0, 0.00846634075244418
1453.0, 0.008238368439715243
1454.0, 0.008000691711944664
1455.0, 0.007389862349917038
1456.0, 0.007383539141637551
1457.0, 0.008010648242670624
1458.0, 0.007858341862949569
1459.0, 0.007523697233197597
1460.0, 0.007057471287520597
1461.0, 0.006119539673650765
1462.0, 0.005802770370125446
1463.0, 0.005207485571525127
1464.0, 0.004996327755295695
1465.0, 0.004837120102705612
1466.0, 0.003910457918465576
1467.0, 0.004454876346354402
1468.0, 0.002680982300099349
1469.0, 0.005790700668579248
1470.0, 0.0053201223217598185
1471.0, 0.0036387535598118455
1472.0, 0.0031029463057513185
1473.0, 0.004090289373894868
1474.0, 0.003305103623072736
1475.0, 0.0033372032456913912
1476.0, 0.003306949809014943
1477.0, 0.001518525711508214
1478.0, 0.0016033350318727635
1479.0, 0.0011480162863302717
1480.0, 0.0018748072474014184
1481.0, 0.0015844564570345228
1482.0, 0.0014774330207764468
1483.0, 0.003859542327938791
1484.0, 0.00512493161354139
1485.0, 0.0039092022701736635
1486.0, 0.0014202981083132763
1487.0, 0.0027015693776557834
1488.0, 0.002068554458825903
1489.0, 0.0019775014099626164
1490.0, 0.0039613574014919686
1491.0, 0.0008203797550282159
1492.0, 0.003492419900880685
1493.0, 0.003688710825963149
1494.0, 0.005071623059077367
1495.0, 0.0039702159089340504
1496.0, 0.0035036207632022963
1497.0, 0.005367499567928821
1498.0, 0.006350227608776777
1499.0, 0.005313502736439911
1500.0, 0.0060360889551085576
1501.0, 0.0037432060817636295
1502.0, 0.0034347724916766135
1503.0, 0.0038091626662856088
1504.0, 0.003329683560277831
1505.0, 0.0030766673521151356
1506.0, 0.0021482771882868745
1507.0, 0.0013784399756310462
1508.0, 0.0023850715036497047
1509.0, 0.002287435091610905
1510.0, 0.0012778835730376799
1511.0, 0.003298809157766173
1512.0, 0.0031631918184035356
1513.0, 0.0012183915541328723
1514.0, 0.0010682152576603318
1515.0, 0.002306316764354198
1516.0, 0.0013431170620915958
1517.0, 0.0048406541404988485
1518.0, 0.004510940174310001
1519.0, 0.0025094868020639656
1520.0, 0.0007667813191605447
1521.0, 0.0007245211645933392
1522.0, 0.003793208720406679
1523.0, 0.0019144770899549614
1524.0, 0.002798937209791107
1525.0, 0.0013762404109318675
1526.0, 0.0022022546534206217
1527.0, 0.004735697382663767
1528.0, 0.003037259833026647
1529.0, 0.002374494196076624
1530.0, 0.0017694047302238758
1531.0, 0.0011333068037889433
1532.0, 0.0007968795617607699
1533.0, 0.0008619455221639472
1534.0, 0.0008594083697578295
1535.0, 0.0008811123176821852
1536.0, 0.0012710424598967476
1537, 0.0
1538, 0.0
1539, 0.0
1540, 0.0
1541, 0.0
1542, 0.0
1543, 0.0
1544, 0.0
1545, 0.0
1546, 0.0
1547, 0.0
1548, 0.0
1549, 0.0
1550, 0.0
1551, 0.0
1552, 0.0
1553, 0.0
1554, 0.0
1555, 0.0
1556, 0.0
1557, 0.0
1558, 0.0
1559, 0.0
1560, 0.0
1561, 0.0
1562, 0.0
1563, 0.0
1564, 0.0
1565, 0.0
1566, 0.0
1567, 0.0
1568, 0.0
1569, 0.0
1570, 0.0
1571, 0.0
1572, 0.0
1573, 0.0
1574, 0.0
1575, 0.0
1576, 0.0
1577, 0.0
1578, 0.0
1579, 0.0
1580, 0.0
1581, 0.0
1582, 0.0
1583, 0.0
1584, 0.0
1585, 0.0
1586, 0.0
1587, 0.0
1588, 0.0
1589, 0.0
1590, 0.0
1591, 0.0
1592, 0.0
1593, 0.0
1594, 0.0
1595, 0.0
1596, 0.0
1597, 0.0
1598, 0.0
1599, 0.0
