30, 0.0
31, 0.0
32, 0.0
33, 0.0
34, 0.0
35, 0.0
36, 0.0
37, 0.0
38, 0.0
39, 0.0
40, 0.0
41, 0.0
42, 0.0
43, 0.0
44, 0.0
45, 0.0
46, 0.0
47, 0.0
48, 0.0
49, 0.0
50, 0.0
51, 0.0
52, 0.0
53, 0.0
54, 0.0
55, 0.0
56, 0.0
57, 0.0
58, 0.0
59, 0.0
60, 0.0
61, 0.0
62, 0.0
63, 0.0
64, 0.0
65, 0.0
66, 0.0
67, 0.0
68, 0.0
69, 0.0
70, 0.0
71, 0.0
72, 0.0
73, 0.0
74, 0.0
75, 0.0
76, 0.0
77, 0.0
78, 0.0
79, 0.0
80, 0.0
81, 0.0
82, 0.0
83, 0.0
84, 0.0
85, 0.0
86, 0.0
87, 0.0
88, 0.0
89, 0.0
90, 0.0
91, 0.0
92, 0.0
93, 0.0
94, 0.0
95.0, 0.00013474403072869168
96.0, 0.0007155372666282267
97.0, 0.0006810000120457033
98.0, 0.0025084297275273374
99.0, 0.006896302019091448
100.0, 0.01308747132053978
101.0, 0.020408608718342894
102.0, 0.02750103708321153
103.0, 0.03237885459432574
104.0, 0.04040558099536458
105.0, 0.04947209390422525
106.0, 0.05864658806134946
107.0, 0.06263615185579798
108.0, 0.07556240134008031
109.0, 0.08724468598622309
110.0, 0.08758031905718944
111.0, 0.09867713036503331
112.0, 0.11328216677891556
113.0, 0.12996935297100262
114.0, 0.1453614565383318
115.0, 0.16328699503364075
116.0, 0.1814642351947697
117.0, 0.1985363844189189
118.0, 0.19770370981335303
119.0, 0.20846339220345372
120.0, 0.22438808360714846
121.0, 0.22365217037250648
122.0, 0.23408184656826506
123.0, 0.24898667734577115
124.0, 0.2662039633522951
125.0, 0.2806117064474601
126.0, 0.2991302794860777
127.0, 0.3188375309495928
128.0, 0.33473825176143374
129.0, 0.37118710576896
130.0, 0.39943175623289856
131.0, 0.41547027297931255
132.0, 0.44593899179295543
133.0, 0.46585857611547077
134.0, 0.4890968463765716
135.0, 0.5307333885965009
136.0, 0.5393752666674584
137.0, 0.5568646652433181
138.0, 0.5819451440961565
139.0, 0.58962685386375
140.0, 0.5974629251106611
141.0, 0.6000540550060295
142.0, 0.593630239066727
143.0, 0.592887506949696
144.0, 0.5878439846658744
145.0, 0.5788794922207152
146.0, 0.5662941733452811
147.0, 0.551354471317657
148.0, 0.5367507827540741
149.0, 0.5232559903251008
150.0, 0.5109221759126384
151.0, 0.49395266425979767
152.0, 0.47923195252139494
153.0, 0.4755851555824734
154.0, 0.4601282366523867
155.0, 0.44449489854009816
156.0, 0.43035399994158785
157.0, 0.41934755848377914
158.0, 0.4051729635794002
159.0, 0.39104652724853334
160.0, 0.3787715761605122
161.0, 0.36732720974492805
162.0, 0.35625597769511513
163.0, 0.34353151995118053
164.0, 0.32414259033456766
165.0, 0.30926186895339497
166.0, 0.29380229890966264
167.0, 0.2770826061896163
168.0, 0.2661502442804684
169.0, 0.2514887571486623
170.0, 0.23724710079027156
171.0, 0.22761269401157833
172.0, 0.2113442801344243
173.0, 0.1958905055401617
174.0, 0.18161479154011606
175.0, 0.16780931113365297
176.0, 0.1510413412534091
177.0, 0.13749813455424298
178.0, 0.12979448440175628
179.0, 0.12016112352364337
180.0, 0.10639163674132154
181.0, 0.09187162193592519
182.0, 0.08153490423307436
183.0, 0.07553859634959653
184.0, 0.06979057507601065
185.0, 0.06375136410019035
186.0, 0.05778321424143596
187.0, 0.049286075884221854
188.0, 0.04287237465792451
189.0, 0.0414491848530796
190.0, 0.035709215204891745
191.0, 0.030174470420966774
192.0, 0.025990656204382727
193.0, 0.025711238237651885
194.0, 0.02169546232400983
195.0, 0.019592618615033364
196.0, 0.019762391607833163
197.0, 0.015749123073083873
198.0, 0.014237872394577659
199.0, 0.012444048052047681
200.0, 0.008342715296484025
201.0, 0.006913349985770988
202.0, 0.003852641022830079
203.0, 0.0006637295203489484
204.0, 0.0011929997780265212
205.0, 0.0006213519757664653
206.0, 0.0021942960515237363
207.0, 0.00608415472122349
208.0, 0.006204628825982843
209.0, 0.008007095864801639
210.0, 0.010808410323263986
211.0, 0.014247212344182988
212.0, 0.0148750768110455
213.0, 0.01641598337307554
214.0, 0.018732875915671975
215.0, 0.021306208049863162
216.0, 0.020933291567089198
217.0, 0.020441375649407796
218.0, 0.02038498780782291
219.0, 0.019700560973472662
220.0, 0.018775262370995773
221.0, 0.017106574756475992
222.0, 0.01421068947153579
223.0, 0.01413035478266149
224.0, 0.011497384289792058
225.0, 0.008065058483930387
226.0, 0.007883038068410385
227.0, 0.005089641398279838
228.0, 0.0034266671081369365
229.0, 0.003914855977642705
230.0, 0.008134825457402618
231.0, 0.015772479417453748
232.0, 0.02324751708533255
233.0, 0.028328210123674407
234.0, 0.03610246678717313
235.0, 0.04472634542554033
236.0, 0.05278328737480283
237.0, 0.05766053169764247
238.0, 0.07044867162700583
239.0, 0.07922596569919434
240.0, 0.08423710874963161
241.0, 0.09609174623078144
242.0, 0.10758839500653772
243.0, 0.11524933958944841
244.0, 0.11745870758018132
245.0, 0.1249718655482993
246.0, 0.1262426905270513
247.0, 0.12729872009192533
248.0, 0.13566634720155887
249.0, 0.13103730346098671
250.0, 0.13157839520846637
251.0, 0.1354492542593587
252.0, 0.1314658677772465
253.0, 0.13105791346074383
254.0, 0.13019008725540832
255.0, 0.12743498757448413
256.0, 0.1210158491783204
257.0, 0.11762802941614384
258.0, 0.11401357314666204
259.0, 0.10760490187700004
260.0, 0.10523790479886148
261.0, 0.10280881505697516
262.0, 0.09998872413671434
263.0, 0.09626866041714512
264.0, 0.09528218425093891
265.0, 0.09099525092146733
266.0, 0.08407646611844015
267.0, 0.08285472387835731
268.0, 0.07444700886812242
269.0, 0.06853057294350381
270.0, 0.06888398130365266
271.0, 0.06271622217443569
272.0, 0.057721414080430807
273.0, 0.053153113466078664
274.0, 0.048303845495173275
275.0, 0.048385435256139184
276.0, 0.04450636781719995
277.0, 0.03792611046294889
278.0, 0.032461231613916786
279.0, 0.032050391002367964
280.0, 0.029860412315359703
281.0, 0.025836242064270605
282.0, 0.028171952195261935
283.0, 0.022603433828374934
284.0, 0.01670368160974793
285.0, 0.014133863546541964
286.0, 0.015064098309861008
287.0, 0.014498819216260665
288.0, 0.012786246270661128
289.0, 0.010137393525818213
290.0, 0.011058775354796295
291.0, 0.010973408565081283
292.0, 0.01048845006484225
293.0, 0.01161513075953164
294.0, 0.011399703323276679
295.0, 0.011026246698669898
296.0, 0.010821623080311323
297.0, 0.011296652309293376
298.0, 0.009505974348451131
299.0, 0.00902456550376115
300.0, 0.011192257425189173
301.0, 0.010944475416067119
302.0, 0.010233612969955478
303.0, 0.010986594504959415
304.0, 0.015099605832961494
305.0, 0.014365077595443643
306.0, 0.013994239520260288
307.0, 0.014951477807271399
308.0, 0.018905775211672665
309.0, 0.021337446088086243
310.0, 0.0212614481806357
311.0, 0.019494819143938608
312.0, 0.01941654761105962
313.0, 0.024122179310458427
314.0, 0.028514933313877527
315.0, 0.03102666025137966
316.0, 0.031705291287662585
317.0, 0.03470914367711559
318.0, 0.03808123131446789
319.0, 0.0407696821480847
320.0, 0.046232203671119305
321.0, 0.04794709500122117
322.0, 0.04954075518483453
323.0, 0.05514153557882528
324.0, 0.05853110228844705
325.0, 0.06366726342897004
326.0, 0.06854706789955546
327.0, 0.06840720722640091
328.0, 0.0755322611870243
329.0, 0.08020833396215264
330.0, 0.08255119034924761
331.0, 0.08903944389053434
332.0, 0.09189775907598134
333.0, 0.09438420382982662
334.0, 0.0970419925554109
335.0, 0.09596808217348082
336.0, 0.09841513165711567
337.0, 0.09992899941913617
338.0, 0.09820694299914273
339.0, 0.10108521394682453
340.0, 0.10401092033598407
341.0, 0.10658315523232195
342.0, 0.10836730379906359
343.0, 0.11159384948541029
344.0, 0.11271838406212954
345.0, 0.11236931353693722
346.0, 0.11165548684403984
347.0, 0.11629865367945348
348.0, 0.11909659239455396
349.0, 0.12053832648395223
350.0, 0.12425187249547406
351.0, 0.12771710141907164
352.0, 0.13263521423532204
353.0, 0.13862782278777488
354.0, 0.14188026390233976
355.0, 0.1458089567292365
356.0, 0.15191198328519342
357.0, 0.160416766204665
358.0, 0.1671140706191235
359.0, 0.17276375746335687
360.0, 0.1806973789947321
361.0, 0.19269241368328344
362.0, 0.1968449856791798
363.0, 0.20626439182625383
364.0, 0.21684132814018997
365.0, 0.2246884959475263
366.0, 0.23651570483704962
367.0, 0.2499814787412201
368.0, 0.26304818050730316
369.0, 0.27266800706707195
370.0, 0.28055865681941716
371.0, 0.28707569288522267
372.0, 0.29445703215843544
373.0, 0.30787075347959375
374.0, 0.3217643711243505
375.0, 0.3312138948663377
376.0, 0.33848292390721185
377.0, 0.3541716360871157
378.0, 0.3632282707355599
379.0, 0.37360664793533666
380.0, 0.38698242260970056
381.0, 0.40118177818650164
382.0, 0.41498530806650336
383.0, 0.42953153587819914
384.0, 0.44563431701154643
385.0, 0.4663886616424942
386.0, 0.4907032187585186
387.0, 0.511454538913349
388.0, 0.5260628566694857
389.0, 0.5646826896959246
390.0, 0.5908903762493495
391.0, 0.6171134583028142
392.0, 0.6530465136149803
393.0, 0.6915485604564178
394.0, 0.7295936502216801
395.0, 0.7716076464378002
396.0, 0.8227620676703491
397.0, 0.8482194647123952
398.0, 0.8851620972970189
399.0, 0.9240023149189315
400.0, 0.9485106530468258
401.0, 0.970618276962912
402.0, 0.9869630921407455
403.0, 0.9970270378599113
404.0, 0.9997272759526349
405.0, 0.9937721559184065
406.0, 0.9852980406439095
407.0, 0.9720861635239794
408.0, 0.9457351865088433
409.0, 0.9178419958589055
410.0, 0.8844794482750216
411.0, 0.8452235616079661
412.0, 0.8009062807707583
413.0, 0.7641826247278353
414.0, 0.7245701015997041
415.0, 0.680825081746448
416.0, 0.6393626371246858
417.0, 0.6044008927195211
418.0, 0.5707439755191801
419.0, 0.536605703990549
420.0, 0.5010804855574506
421.0, 0.4626213111153571
422.0, 0.43002534364687156
423.0, 0.40578476937313523
424.0, 0.3793828821506007
425.0, 0.3506485833362113
426.0, 0.3264675685628247
427.0, 0.30851464698330267
428.0, 0.2742031052094673
429.0, 0.25144385814331743
430.0, 0.23519258753803873
431.0, 0.22250957813183878
432.0, 0.21018898955662252
433.0, 0.19250265587576487
434.0, 0.17740357451598704
435.0, 0.17017713117291097
436.0, 0.15633760493108512
437.0, 0.14593018284525466
438.0, 0.1381903159444542
439.0, 0.1324983860358196
440.0, 0.12396440986128546
441.0, 0.1180791822034573
442.0, 0.11421251382016097
443.0, 0.11180966695908087
444.0, 0.10702036889307213
445.0, 0.10366121573471065
446.0, 0.10197935760912938
447.0, 0.10227424910598534
448.0, 0.098090257795449
449.0, 0.09727637915079805
450.0, 0.09748412285122733
451.0, 0.09570895790077562
452.0, 0.10375094102644879
453.0, 0.1053223963165109
454.0, 0.10703046101873376
455.0, 0.11840453786758912
456.0, 0.12217573576009577
457.0, 0.13270933957297107
458.0, 0.14625282106888393
459.0, 0.15661886393244628
460.0, 0.17441887343301324
461.0, 0.1917075355055108
462.0, 0.20735174991895078
463.0, 0.22019323581412178
464.0, 0.23875992603553195
465.0, 0.2623272193129414
466.0, 0.2869881151281681
467.0, 0.306617592344826
468.0, 0.3297740722558261
469.0, 0.362545374924426
470.0, 0.39881089368464434
471.0, 0.42795583831992917
472.0, 0.479517732947868
473.0, 0.5236732965690271
474.0, 0.5663367288825388
475.0, 0.6210053584684617
476.0, 0.6766636672727216
477.0, 0.7278012251560626
478.0, 0.7703740987281842
479.0, 0.7979182762317697
480.0, 0.8199224846335809
481.0, 0.8318751722610852
482.0, 0.8294853449864159
483.0, 0.8056445172475805
484.0, 0.7767811044054254
485.0, 0.735284885592332
486.0, 0.6871961605093335
487.0, 0.6428116801562272
488.0, 0.5873941348975137
489.0, 0.5291794771704663
490.0, 0.473279853314766
491.0, 0.4268206094154963
492.0, 0.3856607601486707
493.0, 0.3416437919667505
494.0, 0.2984477919304168
495.0, 0.2620826814853508
496.0, 0.23233369489991226
497.0, 0.2066026197372584
498.0, 0.18408116625006254
499.0, 0.1639177911810152
500.0, 0.14377783485522208
501.0, 0.12624914487800704
502.0, 0.11074454794841294
503.0, 0.09645401945216765
504.0, 0.08798914952001578
505.0, 0.07897106325696429
506.0, 0.07018887311914818
507.0, 0.06266206046418803
508.0, 0.05370500475748995
509.0, 0.047785692408525295
510.0, 0.04386473408570845
511.0, 0.04083797398899131
512.0, 0.035977203545661404
513.0, 0.033796850075912994
514.0, 0.031066801236903842
515.0, 0.02525002165293783
516.0, 0.026916331123692697
517.0, 0.024834051831591864
518.0, 0.02083162731267007
519.0, 0.016622843503331108
520.0, 0.019067244465049538
521.0, 0.015381790860497586
522.0, 0.01190671517995908
523.0, 0.012200136547478785
524.0, 0.00917463178220481
525.0, 0.007197696863682876
526.0, 0.006685672387534691
527.0, 0.007296967341294343
528.0, 0.0036750030599786857
529.0, 0.0037250000790422125
530.0, 0.0029299541255711184
531.0, 2.1018774794667532e-05
532.0, 0.00016911255693483252
533.0, 0.00017456656854445
534.0, 0.0003434812624758542
535.0, 0.000726771100430484
536.0, 0.0010126209192155061
537.0, 0.0014427141189912007
538.0, 0.0015453658456818266
539.0, 0.0014231791702675784
540.0, 0.0019963343231878565
541.0, 0.0017599955182794325
542.0, 0.0016207276821038384
543.0, 0.0019522704659628587
544.0, 0.003280874188829425
545.0, 0.0012539185809371447
546.0, 0.0013686858102997343
547.0, 0.0026558629953723004
548.0, 0.0009747786509113008
549.0, 0.001980296725489788
550.0, 0.0028995447349901065
551.0, 0.003270733991426264
552.0, 0.002800770551876585
553.0, 0.0009443492887811339
554.0, 0.0003203294955309633
555.0, 0.0007266614619113334
556.0, 0.001692435491597765
557.0, 0.004646964272863361
558.0, 0.0039010036578815085
559.0, 0.0016664085252624116
560.0, 0.0003103488984824549
561.0, 0.0029600384312720154
562.0, 0.0020033847157478924
563.0, 0.00078354086497559
564.0, 0.0017048201211941202
565.0, 0.003991104888212951
566.0, 0.002256869949785641
567.0, 0.00197041074909351
568.0, 0.005379409805251778
569.0, 0.007419876966830393
570.0, 0.008036781695431462
571.0, 0.00814373565668333
572.0, 0.008544755667761222
573.0, 0.011422954895073948
574.0, 0.011605066746235222
575.0, 0.011789582645393556
576.0, 0.012291252383479183
577.0, 0.011919958193820027
578.0, 0.015744462555611804
579.0, 0.020468975681591985
580.0, 0.024294621368855268
581.0, 0.024538083257441036
582.0, 0.029522239704309512
583.0, 0.0317005545214313
584.0, 0.03232760937552432
585.0, 0.03415966563362434
586.0, 0.03958389023149189
587.0, 0.045752296218398665
588.0, 0.05199188539221196
589.0, 0.05758565210042099
590.0, 0.058592825678348275
591.0, 0.06057329870832743
592.0, 0.06551139796267196
593.0, 0.07415807855253978
594.0, 0.08072522309950488
595.0, 0.08759378097879289
596.0, 0.09656772582882436
597.0, 0.10723748225016493
598.0, 0.11320970631348005
599.0, 0.12434709796819822
600.0, 0.13444021456248248
601.0, 0.14237044669464768
602.0, 0.1499540496165196
603.0, 0.16109449769768838
604.0, 0.17198696786501766
605.0, 0.18071321685734415
606.0, 0.1847043752591264
607.0, 0.18799033912175908
608.0, 0.1919155487939126
609.0, 0.19464535614892545
610.0, 0.19388438241265982
611.0, 0.1895137748991041
612.0, 0.1858829166864927
613.0, 0.18240536903046287
614.0, 0.17816062996976922
615.0, 0.1672822386040217
616.0, 0.15993185858431416
617.0, 0.15298431088855466
618.0, 0.14514362466059466
619.0, 0.13756484411063236
620.0, 0.12656454429032138
621.0, 0.11874523677646263
622.0, 0.1133896682118712
623.0, 0.10276425537578457
624.0, 0.09700094009917136
625.0, 0.08718851871951766
626.0, 0.07709957173609924
627.0, 0.0754594070863441
628.0, 0.06679149046078582
629.0, 0.05896654326226703
630.0, 0.054138855652972766
631.0, 0.05367903587829589
632.0, 0.045138609061477875
633.0, 0.03894427952293541
634.0, 0.03462553222459702
635.0, 0.03186616262829223
636.0, 0.030642466698616838
637.0, 0.027353483701700498
638.0, 0.02502602461304783
639.0, 0.024191577881377713
640.0, 0.022986369166105032
641.0, 0.021666493791665582
642.0, 0.020346662504138045
643.0, 0.019010470923265126
644.0, 0.01758832256020391
645.0, 0.01586710098834072
646.0, 0.01463983584643316
647.0, 0.013412916927755654
648.0, 0.01164898137975649
649.0, 0.01081776375010214
650.0, 0.01005434722568465
651.0, 0.009967694003574834
652.0, 0.010116413498526586
653.0, 0.004779094564333728
654.0, 0.004912240255093036
655.0, 0.003725579154460401
656.0, 0.0007630597255033974
657.0, 0.0015589725653635932
658.0, 0.0024973653374115567
659.0, 0.0029295249216537795
660.0, 0.0032811678163116114
661.0, 0.004401826729903598
662.0, 0.0026231338317529813
663.0, 0.003302389822893492
664.0, 0.004751015649424775
665.0, 0.00525111298961793
666.0, 0.004209619522439513
667.0, 0.003697474519723457
668.0, 0.004357708079471387
669.0, 0.005861956850748737
670.0, 0.005279607480863382
671.0, 0.005498482237057825
672.0, 0.005572370741734473
673.0, 0.005208446450008727
674.0, 0.004233230123757499
675.0, 0.004391537104308852
676.0, 0.0032158822740986416
677.0, 0.0020356806150560814
678.0, 0.002452073936361175
679.0, 0.002356044084657373
680.0, 0.002410976801836468
681.0, 0.0026656304297319384
682.0, 0.0028081391104501077
683.0, 0.000841523985717332
684.0, 0.0009791051131895349
685.0, 0.0013038724503168602
686.0, 0.001200900485835471
687.0, 0.00042782505579299176
688.0, 0.00041332248315233464
689.0, 0.0004510544528257598
690.0, 0.0008416719988672756
691.0, 0.0019782158156455383
692.0, 0.002614930776080224
693.0, 0.0028313980122104837
694.0, 0.0022803535579100217
695.0, 0.0012696721319969918
696.0, 0.0028727099545325474
697.0, 0.0016541596991144873
698.0, 0.002595053490588677
699.0, 0.004670171057284632
700.0, 0.0020710438682846823
701.0, 0.002979787931102477
702.0, 0.0024341067460994206
703.0, 0.0018003343547485081
704.0, 0.003150766080144984
705.0, 0.007547045250628726
706.0, 0.007281293138400898
707.0, 0.005683163871883669
708.0, 0.005111937846359624
709.0, 0.008102047656987516
710.0, 0.007081280094473631
711.0, 0.007430025037023949
712.0, 0.008680331621469068
713.0, 0.007341922172126726
714.0, 0.007823847338372287
715.0, 0.006821406793664861
716.0, 0.006191123111514145
717.0, 0.007862295545691556
718.0, 0.01205411826587041
719.0, 0.012187412573548476
720.0, 0.011590417800589446
721.0, 0.012006376197540865
722.0, 0.014564153012887375
723.0, 0.01371068714340532
724.0, 0.012904884263345491
725.0, 0.01320762098766256
726.0, 0.015338323293830128
727.0, 0.012209379061872134
728.0, 0.01370914082631145
729.0, 0.015588208654978494
730.0, 0.014938235348224815
731.0, 0.012402775700396343
732.0, 0.0123749795480416
733.0, 0.012996276321527705
734.0, 0.01384889510085047
735.0, 0.015159224287145202
736.0, 0.01627135375164974
737.0, 0.014695876872841341
738.0, 0.01420401420639663
739.0, 0.017909479878410507
740.0, 0.015490480908663562
741.0, 0.017112366923909727
742.0, 0.019016001136447375
743.0, 0.020389770581602695
744.0, 0.023866705391938747
745.0, 0.025190562472977785
746.0, 0.02646830257202616
747.0, 0.027030536653662694
748.0, 0.025786712934740767
749.0, 0.028668224472180596
750.0, 0.03125002050144025
751.0, 0.032347910129090454
752.0, 0.032198011284954565
753.0, 0.03502641551216478
754.0, 0.03663891533533828
755.0, 0.03738843526121383
756.0, 0.03909700810324573
757.0, 0.04462454752123178
758.0, 0.04368260968046798
759.0, 0.0457879614477641
760.0, 0.04997489511232299
761.0, 0.055127101859793755
762.0, 0.05969316670535122
763.0, 0.06117634874951529
764.0, 0.064377391940435
765.0, 0.07046237286250076
766.0, 0.07919126109854911
767.0, 0.07763568595699895
768.0, 0.08418119404339171
769.0, 0.09259524791554702
770.0, 0.09736856920943458
771.0, 0.10096591608179593
772.0, 0.10671610220696529
773.0, 0.109652512001054
774.0, 0.1115537784624897
775.0, 0.11980907850337554
776.0, 0.12267871965667515
777.0, 0.1273055899203883
778.0, 0.1309955032883057
779.0, 0.13200237826691572
780.0, 0.13900858109959507
781.0, 0.1371785003452552
782.0, 0.13701631661666683
783.0, 0.13982192654879383
784.0, 0.1406790690974585
785.0, 0.13839620320385246
786.0, 0.1343588284284558
787.0, 0.13162339326235542
788.0, 0.13213065668207058
789.0, 0.12987064250892874
790.0, 0.126067832969981
791.0, 0.12238115642332491
792.0, 0.11878573800738697
793.0, 0.11402778896343543
794.0, 0.11010432230897635
795.0, 0.10687579743409453
796.0, 0.10397781044349089
797.0, 0.10097944045799588
798.0, 0.09699014587753324
799.0, 0.0923593741017314
800.0, 0.08940151420482471
801.0, 0.08741593767949096
802.0, 0.08357225501824075
803.0, 0.08470037268464314
804.0, 0.0800104223661802
805.0, 0.07702832067549924
806.0, 0.08014492679757622
807.0, 0.07917823557162283
808.0, 0.0761784657024108
809.0, 0.07491711374530238
810.0, 0.0756974410315787
811.0, 0.0773530931796567
812.0, 0.07758734100949785
813.0, 0.07930136550597082
814.0, 0.08109269324671037
815.0, 0.08146409562798676
816.0, 0.07772954209039745
817.0, 0.07542277447352137
818.0, 0.07298101221102798
819.0, 0.0695727041890189
820.0, 0.0645613663546502
821.0, 0.06025410268532908
822.0, 0.05610146518716276
823.0, 0.050507799925023376
824.0, 0.04374677252915332
825.0, 0.039320811710791256
826.0, 0.03628942275295697
827.0, 0.032325982548633746
828.0, 0.028871888069785526
829.0, 0.02745370804382907
830.0, 0.024913514913385153
831.0, 0.020969668539506534
832.0, 0.017853017258100498
833.0, 0.015922219248250033
834.0, 0.014170004732113026
835.0, 0.013775767445493999
836.0, 0.013555008372205048
837.0, 0.012697165028263693
838.0, 0.01095519782270996
839.0, 0.010216623351933622
840.0, 0.01071533748850761
841.0, 0.010024528639194872
842.0, 0.008680280730688564
843.0, 0.008327694503493504
844.0, 0.008817646660086735
845.0, 0.008173964614973571
846.0, 0.006964390936521836
847.0, 0.005736413714034788
848.0, 0.005275419589692518
849.0, 0.004878032377012559
850.0, 0.005240645005797631
851.0, 0.0053757103988846715
852.0, 0.004549447634710039
853.0, 0.005868621773718247
854.0, 0.007209467253892011
855.0, 0.008195315026240487
856.0, 0.007864034660986155
857.0, 0.004685920476344585
858.0, 0.006945559115039993
859.0, 0.006374108278340745
860.0, 0.005885482444248664
861.0, 0.006546024942611586
862.0, 0.004843147016701312
863.0, 0.0053868584590063264
864.0, 0.004126891891177309
865.0, 0.0026019901281346507
866.0, 0.0030216661209629915
867.0, 0.003255539392171904
868.0, 0.002379984554786886
869.0, 0.0010952218961516075
870.0, 0.00022893528097546071
871.0, 0.0009448667802539132
872.0, 0.00046219777401236095
873.0, 0.001049504137239191
874.0, 0.0014559052761255957
875.0, 0.0010435134822500628
876.0, 0.0006266076795993877
877.0, 0.0005642879741171609
878.0, 0.0003238418508729915
879.0, 0.00017718821745764385
880.0, 0.0004611817760735151
881.0, 0.0008150107188915479
882.0, 0.0006850872549696959
883.0, 0.0005972644766460777
884.0, 0.0005832866196977625
885.0, 0.00040029408883807187
886.0, 0.0005088346687904828
887.0, 0.00038874178385871216
888.0, 0.0004287420808609919
889.0, 0.0006533017429461913
890.0, 0.00040007388554645537
891.0, 0.00014833518913591966
892.0, 0.0006897535896443393
893.0, 0.0012436762000416362
894.0, 0.0011444893611020632
895.0, 0.0013061599065777097
896.0, 0.000488574088632934
897.0, 0.0003173051298489339
898.0, 0.0006119922299488518
899.0, 0.0005723423962748712
900.0, 0.0009550547647584199
901.0, 0.0006232707577168253
902.0, 0.0002712520165988002
903.0, 0.00020946616784615131
904.0, 0.0004617586843544201
905.0, 0.001253207516998408
906.0, 0.002174347176889377
907.0, 0.0026138642503845434
908.0, 0.0020911792451229075
909.0, 0.00022098932009376594
910.0, 0.0010582934875673885
911.0, 0.0023195948155241264
912.0, 0.0023189459786838035
913.0, 0.00029663541646500393
914.0, 0.0008106219964712567
915.0, 0.0006825276271995673
916.0, 0.0012099405713062842
917.0, 0.0017820905840014304
918.0, 0.0010861176023526137
919.0, 0.0003749620808315514
920.0, 0.0015174827578990418
921.0, 0.0018759701379938575
922.0, 0.0014173795373282944
923.0, 0.002421290855127277
924.0, 0.0008183891996028119
925.0, 0.0003478242117664482
926.0, 0.000422446018646571
927.0, 0.0005374290552988852
928.0, 0.000447704736888504
929.0, 0.0001436882277709701
930.0, 0.0014173646412317564
931.0, 0.002264094374559682
932.0, 0.001293345010002157
933.0, 0.0009289399670980541
934.0, 0.0023951697341119725
935.0, 0.0020682821881106935
936.0, 0.0010429265895862674
937.0, 0.0011573019201957468
938.0, 0.0004370628856536926
939.0, 0.0003237191128143413
940.0, 0.001301602505327334
941.0, 0.002232350896296956
942.0, 0.0012921620059444562
943.0, 0.0013675363845252477
944.0, 0.0019554732643921055
945.0, 0.002792805384860839
946.0, 0.003426026494764257
947.0, 0.0031665101849550604
948.0, 0.003622101121212162
949.0, 0.004383321908070668
950.0, 0.004927994831836902
951.0, 0.005157310594942116
952.0, 0.005589479590875221
953.0, 0.005806219942414318
954.0, 0.005728003680149687
955.0, 0.0053284014551377365
956.0, 0.0050111570398110265
957.0, 0.006348171316543526
958.0, 0.004923545796171117
959.0, 0.005701831663322231
960.0, 0.006908287011153169
961.0, 0.007025996900812169
962.0, 0.00900746796051983
963.0, 0.010250644145029863
964.0, 0.010471901192873763
965.0, 0.01050288721023217
966.0, 0.011205072178304526
967.0, 0.011854892400687092
968.0, 0.010093128239262072
969.0, 0.009686276989573367
970.0, 0.010377660364355177
971.0, 0.010744010678928039
972.0, 0.0114923977069901
973.0, 0.011857863270404523
974.0, 0.012803077379397886
975.0, 0.013993706009665503
976.0, 0.01454292415446364
977.0, 0.01541066160514351
978.0, 0.01535120636611546
979.0, 0.015617718179663355
980.0, 0.016361870388895867
981.0, 0.017119384998132887
982.0, 0.021814389288178512
983.0, 0.019149994410644328
984.0, 0.018887203778194524
985.0, 0.022641658286821506
986.0, 0.025080862033054086
987.0, 0.02318362810058692
988.0, 0.024565422083371386
989.0, 0.02622600300788528
990.0, 0.027069364961265628
991.0, 0.028077414652736367
992.0, 0.029027437568548486
993.0, 0.030044863398162196
994.0, 0.031284805743682934
995.0, 0.0325474915589757
996.0, 0.03312250898326741
997.0, 0.03376903383611069
998.0, 0.034399366038755284
999.0, 0.03836157098849701
1000.0, 0.04431904783420638
1001.0, 0.043110917915114774
1002.0, 0.04818296043797408
1003.0, 0.04700764494814737
1004.0, 0.0444372860780822
1005.0, 0.04391760316633097
1006.0, 0.04503811930588544
1007.0, 0.044912149602639624
1008.0, 0.04536539251323157
1009.0, 0.04607431294874752
1010.0, 0.046847303581688426
1011.0, 0.048029914105210327
1012.0, 0.048353477942302325
1013.0, 0.04889136378396628
1014.0, 0.049645322239480705
1015.0, 0.05057207030018665
1016.0, 0.05171354131061452
1017.0, 0.053078491000768654
1018.0, 0.05280031797572387
1019.0, 0.0543484962041109
1020.0, 0.05819396809642584
1021.0, 0.05788347600777302
1022.0, 0.056994449338567545
1023.0, 0.059262941515673004
1024.0, 0.060372551747563806
1025.0, 0.05919928804324994
1026.0, 0.06213851331059612
1027.0, 0.06162323501635317
1028.0, 0.0641098188252926
1029.0, 0.06495883765316947
1030.0, 0.0626656655751713
1031.0, 0.06288706276405667
1032.0, 0.06222535211228268
1033.0, 0.06398277524410484
1034.0, 0.06447357981137417
1035.0, 0.06310908513370724
1036.0, 0.06522715322220757
1037.0, 0.06451515448335575
1038.0, 0.06649527202655718
1039.0, 0.06817134886318535
1040.0, 0.06814133443309632
1041.0, 0.06789192207231685
1042.0, 0.06761959692323181
1043.0, 0.06700327804068515
1044.0, 0.06670714906933817
1045.0, 0.06697474035897334
1046.0, 0.06749263058498041
1047.0, 0.06649405152168757
1048.0, 0.06771447088739511
1049.0, 0.06744145038433039
1050.0, 0.06636296924745497
1051.0, 0.06966993638304267
1052.0, 0.06800298470382336
1053.0, 0.06860369575905194
1054.0, 0.06971138016760724
1055.0, 0.07024153862412749
1056.0, 0.06976400364970732
1057.0, 0.07027264091910113
1058.0, 0.07037705663733299
1059.0, 0.07042509279880493
1060.0, 0.07071034051673278
1061.0, 0.07136014340877872
1062.0, 0.07046441719447208
1063.0, 0.07153464484951025
1064.0, 0.07308588673041835
1065.0, 0.07440473517014887
1066.0, 0.0754822739022528
1067.0, 0.07968227288505676
1068.0, 0.08120141209222295
1069.0, 0.0827933035363657
1070.0, 0.08488319395423587
1071.0, 0.08706626531162945
1072.0, 0.08857915410683091
1073.0, 0.09090888868461808
1074.0, 0.09377391203323691
1075.0, 0.09631242352158491
1076.0, 0.0982642124536883
1077.0, 0.10209223995536933
1078.0, 0.10591969362386952
1079.0, 0.10974325921947815
1080.0, 0.11406300853546017
1081.0, 0.11868282114899803
1082.0, 0.12158479679042307
1083.0, 0.12553641616055505
1084.0, 0.129657916277893
1085.0, 0.1316727537497688
1086.0, 0.13245348764178697
1087.0, 0.1377492499861801
1088.0, 0.138781554464428
1089.0, 0.14240799402520488
1090.0, 0.14492973860199343
1091.0, 0.14526244040729758
1092.0, 0.14517843235701586
1093.0, 0.14835186658939645
1094.0, 0.15049497505797557
1095.0, 0.15002077185821033
1096.0, 0.14966404048321882
1097.0, 0.1535040175985794
1098.0, 0.1527311203657706
1099.0, 0.1553425816942665
1100.0, 0.15423476060390268
1101.0, 0.15265111013458027
1102.0, 0.15506691059821745
1103.0, 0.15394331454819118
1104.0, 0.15556261546372682
1105.0, 0.15565335310853837
1106.0, 0.15564475698183267
1107.0, 0.156600046328288
1108.0, 0.1557585396805446
1109.0, 0.15488349726709383
1110.0, 0.1539065889774549
1111.0, 0.1524881326348591
1112.0, 0.15075603582273536
1113.0, 0.1495200162953323
1114.0, 0.15186254432819762
1115.0, 0.1508977629465228
1116.0, 0.1504030828547668
1117.0, 0.1517064183142464
1118.0, 0.15363773440451745
1119.0, 0.1494467870279152
1120.0, 0.15278582460562773
1121.0, 0.15686084802222697
1122.0, 0.1593685792188684
1123.0, 0.15991928872229033
1124.0, 0.15813980674818084
1125.0, 0.15215841007558994
1126.0, 0.1505463445169882
1127.0, 0.14787365242128445
1128.0, 0.14190123158008297
1129.0, 0.14546556184315243
1130.0, 0.1451261673586735
1131.0, 0.14347659375434302
1132.0, 0.14034665631091334
1133.0, 0.13758221678058413
1134.0, 0.1393631935848667
1135.0, 0.13938311515111956
1136.0, 0.1347114366507306
1137.0, 0.1329656250783904
1138.0, 0.13258103886223124
1139.0, 0.12800770815903587
1140.0, 0.1268453037506194
1141.0, 0.12571910111268186
1142.0, 0.12350049036050134
1143.0, 0.12124503073133995
1144.0, 0.11991225237106969
1145.0, 0.11828871563066914
1146.0, 0.1169287170773332
1147.0, 0.11541107418956904
1148.0, 0.11323167292351254
1149.0, 0.11067785388722769
1150.0, 0.1090439790494981
1151.0, 0.10602878973582239
1152.0, 0.10630721795379054
1153.0, 0.10300399234069228
1154.0, 0.09852039899835588
1155.0, 0.09933903922399805
1156.0, 0.09847339036120355
1157.0, 0.09570693347291069
1158.0, 0.0942282218179606
1159.0, 0.09275960362434395
1160.0, 0.08967562160383971
1161.0, 0.08543965534867687
1162.0, 0.08556174026068637
1163.0, 0.0843005284349641
1164.0, 0.08329778754256043
1165.0, 0.08274431121619871
1166.0, 0.08081270896312757
1167.0, 0.08046012941263768
1168.0, 0.07694474422620741
1169.0, 0.07455336592728867
1170.0, 0.07269248365191062
1171.0, 0.06959394173432144
1172.0, 0.06891965877506394
1173.0, 0.0681276680497664
1174.0, 0.06707818594957934
1175.0, 0.0658321053783125
1176.0, 0.06446905365069996
1177.0, 0.063030693104455
1178.0, 0.06123270541549933
1179.0, 0.059181641206350805
1180.0, 0.05722413800276393
1181.0, 0.05517529301483024
1182.0, 0.05261672070969833
1183.0, 0.05014151437240708
1184.0, 0.047645878474461716
1185.0, 0.045223310307478164
1186.0, 0.04315081200796585
1187.0, 0.041363186928306005
1188.0, 0.0389270064226397
1189.0, 0.0384665876095707
1190.0, 0.037721377258868406
1191.0, 0.03664130608735386
1192.0, 0.03518984785047562
1193.0, 0.033286955624349426
1194.0, 0.0310278475180844
1195.0, 0.028688730825923554
1196.0, 0.027442782527629606
1197.0, 0.026268417621008146
1198.0, 0.024302502462070802
1199.0, 0.02289531198859798
1200.0, 0.02180897133071196
1201.0, 0.021472240607236254
1202.0, 0.019323306508657666
1203.0, 0.017125784210175174
1204.0, 0.019509956410955216
1205.0, 0.016553875353915955
1206.0, 0.015604940708078928
1207.0, 0.013255242439459029
1208.0, 0.012115975564448272
1209.0, 0.013527303542566246
1210.0, 0.01061144307681696
1211.0, 0.009063507282857656
1212.0, 0.009008699892516925
1213.0, 0.008776287032936873
1214.0, 0.008206804928875693
1215.0, 0.008259422322462432
1216.0, 0.006455282672854824
1217.0, 0.007252718209260055
1218.0, 0.008452611293520198
1219.0, 0.007419492720273807
1220.0, 0.004395296464366609
1221.0, 0.006158373781744945
1222.0, 0.004338620645681224
1223.0, 0.003404068046962574
1224.0, 0.0037551762647104825
1225.0, 0.004522821679748418
1226.0, 0.0041567131100948545
1227.0, 0.001733533707958976
1228.0, 0.0030706392551603902
1229.0, 0.0033514098490664748
1230.0, 0.0031497767783477473
1231.0, 0.002713035096506798
1232.0, 5.596561549109651e-05
1233.0, 0.002453820404923345
1234.0, 0.003184346297890968
1235.0, 0.0026073575289575594
1236.0, 0.0024947332161437004
1237.0, 0.0040190219900118375
1238.0, 0.0030775194716726197
1239.0, 0.004703674156134068
1240.0, 0.0036831998244082325
1241.0, 0.0022628566437586832
1242.0, 0.0018517008314286646
1243.0, 0.0018652121377513667
1244.0, 0.002296519620914592
1245.0, 0.0038469802168160385
1246.0, 0.0029316629396430953
1247.0, 0.0009719741376759553
1248.0, 0.00043476282035225823
1249.0, 0.002303199785516531
1250.0, 0.002590718799608947
1251.0, 0.0010098928338737794
1252.0, 0.00042736742211682874
1253.0, 0.0007083198177570776
1254.0, 0.00015962994560436662
1255.0, 0.00028624438524035243
1256.0, 0.0018512960099705974
1257.0, 0.0021936038253041507
1258.0, 0.0015255383484532028
1259.0, 0.0008196938319258716
1260.0, 0.0011878817501600365
1261.0, 0.000850404608538439
1262.0, 0.0008431576735347688
1263.0, 0.0014299253120464723
1264.0, 0.001963618247340763
1265.0, 0.0016454510732774714
1266.0, 8.577861625040867e-05
1267.0, 0.00018943455499319427
1268.0, 0.001743074956578033
1269.0, 0.002185475999054241
1270.0, 0.002366710013295705
1271.0, 0.003798331219968612
1272.0, 0.0009883119702501955
1273.0, 0.001813834643354209
1274.0, 0.002304326141113175
1275.0, 0.0025299284396837133
1276.0, 0.0021457509940749544
1277.0, 0.0004795675187139485
1278.0, 0.0024311582120999068
1279.0, 0.0033800523916277143
1280.0, 0.0019408203033320548
1281.0, 0.001007654481025062
1282.0, 0.0016872973393952878
1283.0, 0.0005394522252293545
1284.0, 0.0001502559911578001
1285.0, 0.0009849474340406514
1286.0, 0.00136495898939599
1287.0, 0.0015711491866315383
1288.0, 0.0022063282925483675
1289.0, 0.002487156014628449
1290.0, 0.0008955553863107322
1291.0, 0.0004253285916180937
1292.0, 0.0008201220750755065
1293.0, 0.0011815611998463476
1294.0, 0.0007722637107166399
1295.0, 0.0007436115475295691
1296.0, 0.0008935599909768523
1297.0, 0.0009730550135574801
1298.0, 0.0016254038376286866
1299.0, 0.001881254205083083
1300.0, 0.0001699000867323784
1301.0, 0.0013019455445228087
1302.0, 0.0013461429201890207
1303.0, 0.0009499510177535124
1304.0, 0.0008549261752893549
1305.0, 0.0011154264471623441
1306.0, 0.0010150674415270269
1307.0, 0.0013716089044008262
1308.0, 0.0016540817808100234
1309.0, 0.0023973581991498876
1310.0, 0.0022271416264792745
1311.0, 0.0011745236553095985
1312.0, 0.002102472546982249
1313.0, 0.0010791024066505062
1314.0, 0.0020571560745973262
1315.0, 0.0024114188578488608
1316.0, 0.002640454595647288
1317.0, 0.002999375827085712
1318.0, 0.0008727543462996589
1319.0, 0.0016052239330514686
1320.0, 0.0024831987646023127
1321.0, 0.0016856775176780404
1322.0, 0.0016694813362477762
1323.0, 0.0038944094651044746
1324.0, 0.0020684618346518456
1325.0, 0.003677575909348801
1326.0, 0.0018424133209948034
1327.0, 0.0009728636837862117
1328.0, 0.0017231218651669307
1329.0, 0.0022616671183779895
1330.0, 0.0007708621121886429
1331.0, 0.0008230100018795934
1332.0, 0.0004558087245917866
1333.0, 0.0011795991490836323
1334.0, 0.002384158712194284
1335.0, 0.0024316519576037454
1336.0, 0.001460018623302034
1337.0, 0.0008804842971454361
1338.0, 0.0013745059093335868
1339.0, 0.0013850097622616364
1340.0, 0.0007048060494579069
1341.0, 0.0002953659407757214
1342.0, 0.001237660742298174
1343.0, 0.000942729914910142
1344.0, 0.00047582260125142797
1345.0, 0.00022239410882580373
1346.0, 0.000515465817760131
1347.0, 0.0012935507877522886
1348.0, 0.0008787095803586728
1349.0, 0.00079622746074447
1350.0, 0.0018494320770122699
1351.0, 0.0014313174971899074
1352.0, 0.00028245401726666576
1353.0, 0.0013383825839004468
1354.0, 0.0045507863614391904
1355.0, 0.00503177257585239
1356.0, 0.0031323543179309263
1357.0, 0.0011226264926289527
1358.0, 0.0006945254999278138
1359.0, 0.0017963318801284545
1360.0, 0.000135870533680336
1361.0, 0.001904333887744177
1362.0, 0.0013219052600677863
1363.0, 0.0006644803250496147
1364.0, 0.0007147060320273627
1365.0, 0.0008105702589951535
1366.0, 0.0014332749951313356
1367.0, 0.0006937444064553523
1368.0, 0.0012387956863091504
1369.0, 0.0018965743875346938
1370.0, 0.0018530509672577875
1371.0, 0.0010693777071755224
1372.0, 0.00040458933782467135
1373.0, 0.0018620897445837782
1374.0, 0.0031444349846318303
1375.0, 0.003371709867986344
1376.0, 0.002224416149783377
1377.0, 0.0005698576542795475
1378.0, 0.0016820579488118566
1379.0, 0.0032937603937587163
1380.0, 0.003485252591829669
1381.0, 0.004113276417589374
1382.0, 0.00446950947438833
1383.0, 0.003675705399582655
1384.0, 0.0038735907783994674
1385.0, 0.004793021704511375
1386.0, 0.004359089449416235
1387.0, 0.004538745584360481
1388.0, 0.005009747394255566
1389.0, 0.005224750139289341
1390.0, 0.006104352464621389
1391.0, 0.0035867776956310183
1392.0, 0.004626753176848752
1393.0, 0.006908277555020003
1394.0, 0.006608279354835559
1395.0, 0.0043825876043543065
1396.0, 0.007033535234376373
1397.0, 0.003443090830437979
1398.0, 0.004377080156243265
1399.0, 0.003434163654701714
1400.0, 0.0039964280047088
1401.0, 0.006300441428858325
1402.0, 0.00517996781586048
1403.0, 0.005057294403829323
1404.0, 0.004597640951080447
1405.0, 0.004834723131081146
1406.0, 0.0033776547507381872
1407.0, 0.002386816550410254
1408.0, 0.0061630444973971125
1409.0, 0.008020683578822225
1410.0, 0.003967681157286438
1411.0, 0.005982257505175961
1412.0, 0.0068363464790174786
1413.0, 0.005500654724360959
1414.0, 0.00536822887366088
1415.0, 0.006585353942283732
1416.0, 0.005979222435355107
1417.0, 0.005712375951631716
1418.0, 0.005668408477328568
1419.0, 0.00539096796645786
1420.0, 0.005279630832272051
1421.0, 0.007203375385290761
1422.0, 0.004532241381691116
1423.0, 0.006408446309362138
1424.0, 0.007000784687137775
1425.0, 0.006687661727681313
1426.0, 0.006924436041998242
1427.0, 0.007653614596319449
1428.0, 0.005894176862932534
1429.0, 0.005064399360936047
1430.0, 0.005505027975319894
1431.0, 0.006813546364331
1432.0, 0.007822760412633661
1433.0, 0.007323000608456538
1434.0, 0.005739872909507263
1435.0, 0.009131209488004211
1436.0, 0.011621185772376239
1437.0, 0.012250892957438725
1438.0, 0.011279587483191132
1439.0, 0.010046499877226191
1440.0, 0.010860680811869017
1441.0, 0.013440345769128169
1442.0, 0.013563107976638414
1443.0, 0.014443609050318206
1444.0, 0.014499377452205664
1445.0, 0.013751825753704044
1446.0, 0.015483714771439387
1447.0, 0.015358905874642833
1448.0, 0.016118971922318752
1449.0, 0.015439663271014738
1450.0, 0.015392030973764298
1451.0, 0.016588185266926042
1452.0, 0.01759834274240469
1453.0, 0.016305678949489845
1454.0, 0.019843831395702866
1455.0, 0.019095400394530226
1456.0, 0.018829666904385485
1457.0, 0.019916965275404628
1458.0, 0.020179194078056482
1459.0, 0.016980953380775734
1460.0, 0.021103235993085608
1461.0, 0.017710148367573505
1462.0, 0.016255359675490865
1463.0, 0.01737764306064795
1464.0, 0.0174921486624651
1465.0, 0.013901199509060519
1466.0, 0.016593632654203036
1467.0, 0.013100200117746912
1468.0, 0.011309273837994065
1469.0, 0.01041188343812878
1470.0, 0.010554324516283733
1471.0, 0.011000111795125297
1472.0, 0.008148842262336004
1473.0, 0.009803132028895873
1474.0, 0.00993028797431771
1475.0, 0.009976226561799556
1476.0, 0.010426234782592926
1477.0, 0.0105339204343117
1478.0, 0.009210790721659656
1479.0, 0.008400255173385341
1480.0, 0.010426638959140257
1481.0, 0.008731393763302335
1482.0, 0.009111960237568752
1483.0, 0.010179695295496772
1484.0, 0.00888167981305632
1485.0, 0.00791116434758133
1486.0, 0.008520190229819535
1487.0, 0.009328972262124948
1488.0, 0.007937743185888422
1489.0, 0.00698527660809615
1490.0, 0.006410622460724085
1491.0, 0.00410310961355479
1492.0, 0.005163611161792071
1493.0, 0.005123868653136582
1494.0, 0.003621075781911348
1495.0, 0.0028788546586428977
1496.0, 0.0024812544936937925
1497.0, 0.0021623152061453865
1498.0, 0.0035021726643968227
1499.0, 0.0015399836915655591
1500.0, 0.0015749380560465542
1501.0, 0.0010120994795749369
1502.0, 0.0014189485883552959
1503.0, 0.0027440120301103505
1504.0, 0.003480278132860767
1505.0, 0.0033297940160118937
1506.0, 0.0016039950378446996
1507.0, 0.003585653115919139
1508.0, 0.0035515907457827384
1509.0, 0.0018368982338004727
1510.0, 0.0008559961729083787
1511.0, 0.0019728969198690364
1512.0, 0.002404315291571471
1513.0, 0.0004915090520644941
1514.0, 2.606850696067098e-06
1515, 0.0
1516, 0.0
1517, 0.0
1518, 0.0
1519, 0.0
1520, 0.0
1521, 0.0
1522, 0.0
1523, 0.0
1524, 0.0
1525, 0.0
1526, 0.0
1527, 0.0
1528, 0.0
1529, 0.0
1530, 0.0
1531, 0.0
1532, 0.0
1533, 0.0
1534, 0.0
1535, 0.0
1536, 0.0
1537, 0.0
1538, 0.0
1539, 0.0
1540, 0.0
1541, 0.0
1542, 0.0
1543, 0.0
1544, 0.0
1545, 0.0
1546, 0.0
1547, 0.0
1548, 0.0
1549, 0.0
1550, 0.0
1551, 0.0
1552, 0.0
1553, 0.0
1554, 0.0
1555, 0.0
1556, 0.0
1557, 0.0
1558, 0.0
1559, 0.0
1560, 0.0
1561, 0.0
1562, 0.0
1563, 0.0
1564, 0.0
1565, 0.0
1566, 0.0
1567, 0.0
1568, 0.0
1569, 0.0
1570, 0.0
1571, 0.0
1572, 0.0
1573, 0.0
1574, 0.0
1575, 0.0
1576, 0.0
1577, 0.0
1578, 0.0
1579, 0.0
1580, 0.0
1581, 0.0
1582, 0.0
1583, 0.0
1584, 0.0
1585, 0.0
1586, 0.0
1587, 0.0
1588, 0.0
1589, 0.0
1590, 0.0
1591, 0.0
1592, 0.0
1593, 0.0
1594, 0.0
1595, 0.0
1596, 0.0
1597, 0.0
1598, 0.0
1599, 0.0
