30, 0.0
31, 0.0
32, 0.0
33, 0.0
34, 0.0
35, 0.0
36, 0.0
37, 0.0
38, 0.0
39, 0.0
40, 0.0
41, 0.0
42, 0.0
43, 0.0
44, 0.0
45, 0.0
46, 0.0
47, 0.0
48, 0.0
49, 0.0
50, 0.0
51, 0.0
52, 0.0
53, 0.0
54, 0.0
55, 0.0
56, 0.0
57, 0.0
58, 0.0
59, 0.0
60, 0.0
61, 0.0
62, 0.0
63, 0.0
64, 0.0
65, 0.0
66, 0.0
67, 0.0
68, 0.0
69, 0.0
70, 0.0
71, 0.0
72, 0.0
73, 0.0
74, 0.0
75, 0.0
76, 0.0
77, 0.0
78, 0.0
79, 0.0
80, 0.0
81, 0.0
82, 0.0
83, 0.0
84, 0.0
85, 0.0
86, 0.0
87, 0.0
88, 0.0
89, 0.0
90, 0.0
91, 0.0
92, 0.0
93, 0.0
94, 0.0
95, 0.0
96, 0.0
97, 0.0
98, 0.0
99, 0.0
100, 0.0
101, 0.0
102, 0.0
103, 0.0
104, 0.0
105, 0.0
106, 0.0
107, 0.0
108, 0.0
109, 0.0
110, 0.0
111, 0.0
112, 0.0
113, 0.0
114, 0.0
115, 0.0
116, 0.0
117, 0.0
118, 0.0
119, 0.0
120, 0.0
121, 0.0
122, 0.0
123, 0.0
124, 0.0
125, 0.0
126, 0.0
127, 0.0
128, 0.0
129, 0.0
130, 0.0
131, 0.0
132, 0.0
133, 0.0
134, 0.0
135, 0.0
136, 0.0
137, 0.0
138.0, 0.0005589874787399101
139.0, 0.00045657545315280925
140.0, 0.00328916987629464
141.0, 0.012796479339408385
142.0, 0.02251998983182372
143.0, 0.03500966894244254
144.0, 0.047118505749525245
145.0, 0.05598570213601335
146.0, 0.06358269237696923
147.0, 0.06988294490647178
148.0, 0.07201222449735291
149.0, 0.07056361948516696
150.0, 0.06895110717730812
151.0, 0.06515089468375818
152.0, 0.05941488692041364
153.0, 0.053404934162829966
154.0, 0.04847862759553201
155.0, 0.04453473388611134
156.0, 0.038732431889562366
157.0, 0.035002324232741674
158.0, 0.03400626088501648
159.0, 0.032317966988003224
160.0, 0.03349980143351307
161.0, 0.034977403214376625
162.0, 0.03514659437208681
163.0, 0.03359533932157814
164.0, 0.03700013920537128
165.0, 0.03687410457005619
166.0, 0.036420800924937366
167.0, 0.037739850229826816
168.0, 0.03562246020256611
169.0, 0.0351429647935193
170.0, 0.036822858960254404
171.0, 0.03682690136468931
172.0, 0.032150061493925554
173.0, 0.028515212604161115
174.0, 0.02612733731184703
175.0, 0.024988624363827785
176.0, 0.025009175320622593
177.0, 0.02590653952661604
178.0, 0.02728012851106721
179.0, 0.027798197848145106
180.0, 0.028227940927212654
181.0, 0.02973686055834905
182.0, 0.03184775421059709
183.0, 0.032074271548098145
184.0, 0.03223996074757137
185.0, 0.034721844122387775
186.0, 0.03902166637127178
187.0, 0.04223155070287539
188.0, 0.04658469527148821
189.0, 0.049910841192531474
190.0, 0.049535448365853996
191.0, 0.04524678743180906
192.0, 0.04815152184133964
193.0, 0.05310352267824885
194.0, 0.05381007534211567
195.0, 0.052152856966750774
196.0, 0.05157200775405342
197.0, 0.053060037477749296
198.0, 0.05715273395256823
199.0, 0.06213853545354599
200.0, 0.06302402761221372
201.0, 0.06672946370515871
202.0, 0.07315745273973015
203.0, 0.07826623158384406
204.0, 0.07999713266392999
205.0, 0.08715285295822317
206.0, 0.09733832100888117
207.0, 0.10697170694442464
208.0, 0.11583425670422492
209.0, 0.12789588597833548
210.0, 0.1383267822305348
211.0, 0.14893682942022754
212.0, 0.15914800507712024
213.0, 0.1660104122585431
214.0, 0.16762537803195066
215.0, 0.1666376296928582
216.0, 0.1630803860978027
217.0, 0.15510629513533358
218.0, 0.13676160713344543
219.0, 0.11885014972000689
220.0, 0.09651388597348992
221.0, 0.07402397292587969
222.0, 0.059452986951408014
223.0, 0.03990287023700719
224.0, 0.030984712485506025
225.0, 0.026306568009413677
226.0, 0.01809210484724823
227.0, 0.009678240594628774
228.0, 0.0032087974884913023
229.0, 0.0003056923538499376
230.0, 0.002920516984968721
231.0, 0.006467501946169597
232.0, 0.009378043132232542
233.0, 0.010018717007014427
234.0, 0.007584802044209288
235.0, 0.005632853082347309
236.0, 0.006803177693658821
237.0, 0.007126911703929393
238.0, 0.006351807772024913
239.0, 0.004261005437165383
240.0, 0.0015033193870111054
241.0, 0.0008058892464533748
242.0, 0.006696306380944075
243.0, 0.010968925554754216
244.0, 0.015464602519492707
245.0, 0.022850391835836353
246.0, 0.02937067521648545
247.0, 0.03167536584325684
248.0, 0.03866803158987519
249.0, 0.04999245821226015
250.0, 0.06086002847108452
251.0, 0.07762084220173128
252.0, 0.09106574917664377
253.0, 0.10313656929286373
254.0, 0.11733845492573482
255.0, 0.13203686817003643
256.0, 0.1407101901629126
257.0, 0.14820324584671066
258.0, 0.14869940284102756
259.0, 0.14189490515557573
260.0, 0.13411980501862777
261.0, 0.11890568262575091
262.0, 0.10122751061465102
263.0, 0.08550710210214836
264.0, 0.07271321988197525
265.0, 0.061069679661616985
266.0, 0.05012922371056677
267.0, 0.04700733669036924
268.0, 0.0459018836209314
269.0, 0.04055839924769935
270.0, 0.03967642425998458
271.0, 0.038163381716379834
272.0, 0.03535449255963355
273.0, 0.03454228316731265
274.0, 0.03785690840990234
275.0, 0.035920630933011274
276.0, 0.031237952576896714
277.0, 0.028838130754035154
278.0, 0.029039057235529058
279.0, 0.028106397503986313
280.0, 0.024855197993724598
281.0, 0.024690219195315027
282.0, 0.02445542087704446
283.0, 0.021589787979725744
284.0, 0.017117329302620415
285.0, 0.024565266793033433
286.0, 0.02534089622949048
287.0, 0.02409704793173661
288.0, 0.02773640037307106
289.0, 0.027750752032608666
290.0, 0.028025599446400172
291.0, 0.03604906044507254
292.0, 0.045454620208076175
293.0, 0.05122808172834934
294.0, 0.06400666210803133
295.0, 0.07799374192986927
296.0, 0.08964056846760685
297.0, 0.10251960611718355
298.0, 0.12002726509834628
299.0, 0.14076504745377025
300.0, 0.16501951338365164
301.0, 0.18874281692047112
302.0, 0.2153476264165353
303.0, 0.24621183032439387
304.0, 0.2730265522618524
305.0, 0.30381885354152643
306.0, 0.3319514657578449
307.0, 0.3585174301736426
308.0, 0.38599785714013957
309.0, 0.4007372451254519
310.0, 0.4118596007984969
311.0, 0.41953014097126756
312.0, 0.4228683035575308
313.0, 0.4218379888282528
314.0, 0.41669815663978316
315.0, 0.4128813283243682
316.0, 0.4049970823154565
317.0, 0.39590825562675
318.0, 0.39319427804754614
319.0, 0.39478355156793726
320.0, 0.38894657887402356
321.0, 0.37923564023352796
322.0, 0.36935426094451485
323.0, 0.35900162473717506
324.0, 0.3430295011912858
325.0, 0.32361056260553495
326.0, 0.300583824771426
327.0, 0.2745862363980386
328.0, 0.24769865974541905
329.0, 0.22483459724050633
330.0, 0.20823286623677356
331.0, 0.19361522677883095
332.0, 0.17792715358493824
333.0, 0.1634444331813606
334.0, 0.154751609528954
335.0, 0.14879671472832845
336.0, 0.1417329334719046
337.0, 0.13375449861617153
338.0, 0.12738110081374954
339.0, 0.12439984335243039
340.0, 0.11656572977749428
341.0, 0.10536184601657785
342.0, 0.09332938605096701
343.0, 0.08188836480162645
344.0, 0.07163541866635782
345.0, 0.06019090504851697
346.0, 0.05014103838580596
347.0, 0.04115136125327359
348.0, 0.032391412918309916
349.0, 0.026579592639631167
350.0, 0.022062841159941834
351.0, 0.01702429529687228
352.0, 0.010835674850740044
353.0, 0.006657483705558959
354.0, 0.009064671523346397
355.0, 0.0024119325887644242
356.0, 0.0018705607824112927
357.0, 0.0029585786177589116
358.0, 0.004679319558048743
359.0, 0.006307772465739393
360.0, 0.00416887642511616
361.0, 0.0031905258042379627
362.0, 0.00468548617797474
363.0, 0.006728301697111036
364.0, 0.0062790562930906384
365.0, 0.005877730659410072
366.0, 0.005182703217712659
367.0, 0.003983553271435781
368.0, 0.0015491243323328397
369.0, 0.0027301852890822946
370.0, 0.0014474135036286956
371.0, 0.004270216120476531
372.0, 0.00837055797416548
373.0, 0.012140364096145514
374.0, 0.01653888088117994
375.0, 0.01907404746100853
376.0, 0.020685502366404138
377.0, 0.026042585803752346
378.0, 0.03256380790076439
379.0, 0.03569683087829206
380.0, 0.03843297529543672
381.0, 0.04693249862477509
382.0, 0.05607734960717708
383.0, 0.060694236516695366
384.0, 0.06416277709650775
385.0, 0.07713986845309066
386.0, 0.07793713497247763
387.0, 0.08636643413813881
388.0, 0.09714130707819287
389.0, 0.10372491051818537
390.0, 0.1117855849171347
391.0, 0.12013476146022882
392.0, 0.1268421272526985
393.0, 0.1329974756846259
394.0, 0.13875453549917902
395.0, 0.1428201806005581
396.0, 0.14352764314329158
397.0, 0.14223614166789805
398.0, 0.14240616051353266
399.0, 0.1436567150970339
400.0, 0.14212262194779468
401.0, 0.13636336971712837
402.0, 0.13104991935483556
403.0, 0.12320174119757239
404.0, 0.11429270587234068
405.0, 0.10684318929815849
406.0, 0.10116600274559365
407.0, 0.09805219577891314
408.0, 0.09289520774068771
409.0, 0.09013927291488157
410.0, 0.08764080019047935
411.0, 0.08081373467518177
412.0, 0.08073008730647607
413.0, 0.08254836979728751
414.0, 0.08218091573753497
415.0, 0.08203001852583267
416.0, 0.08552064747295891
417.0, 0.09088715154153662
418.0, 0.09165450817433797
419.0, 0.09314962841813645
420.0, 0.09905612155295832
421.0, 0.10606020488016271
422.0, 0.11143454555542723
423.0, 0.12261631796645812
424.0, 0.132362898437965
425.0, 0.14342414542528892
426.0, 0.15571484607235977
427.0, 0.1654598838013846
428.0, 0.1731054202048337
429.0, 0.1921512725245775
430.0, 0.20915378724073339
431.0, 0.22662872577972218
432.0, 0.24524526888467077
433.0, 0.25994586750692295
434.0, 0.27591643842851665
435.0, 0.2885797077483065
436.0, 0.2998463538556464
437.0, 0.3140669512575917
438.0, 0.32941150987908874
439.0, 0.33671264035848225
440.0, 0.3441024708729847
441.0, 0.3489312248611392
442.0, 0.34508621160739106
443.0, 0.337767074763224
444.0, 0.33513255006573833
445.0, 0.32456727223010273
446.0, 0.3113536822459166
447.0, 0.3005546373972041
448.0, 0.2890353534071912
449.0, 0.27348692665542296
450.0, 0.2556763116956717
451.0, 0.24195209155484168
452.0, 0.23140268957553023
453.0, 0.22345267370119157
454.0, 0.21386954740461278
455.0, 0.1995724770936434
456.0, 0.18927260484194833
457.0, 0.18418665775564713
458.0, 0.17672961163747217
459.0, 0.16649256227196876
460.0, 0.15743060478581783
461.0, 0.1509618765085897
462.0, 0.14014312742250273
463.0, 0.1329221169560616
464.0, 0.1260673496548239
465.0, 0.11637408212693758
466.0, 0.10636365964389848
467.0, 0.10236234498038012
468.0, 0.0959277982904998
469.0, 0.08574734130333811
470.0, 0.074896055601497
471.0, 0.06641700974939732
472.0, 0.06091084134957704
473.0, 0.05445960513681277
474.0, 0.04736965589931222
475.0, 0.0400889403637464
476.0, 0.03365120818628627
477.0, 0.028602798227839073
478.0, 0.024438620854952787
479.0, 0.020323505918027413
480.0, 0.015681466186076458
481.0, 0.014223506752286879
482.0, 0.012323039972311526
483.0, 0.00681402866193565
484.0, 0.003839094408258396
485.0, 0.0061997792107137085
486.0, 0.00395487397196989
487.0, 0.0006511124678878269
488.0, 0.0013446566656561544
489.0, 0.0014045442629437165
490.0, 0.0030481619887774486
491.0, 0.003409307421167908
492.0, 0.0029591631705532897
493.0, 0.0026542149921699025
494.0, 0.003245667279012616
495.0, 0.005184926274115866
496.0, 0.0035041267025621484
497.0, 0.0031934958576436733
498.0, 0.002776964092066027
499.0, 0.0031366951515996587
500.0, 0.005226586558724685
501.0, 0.006473877208347836
502.0, 0.0017815009471823478
503.0, 0.0010546404911502755
504.0, 0.00040807623327453104
505.0, 0.0005733860148645644
506.0, 0.0019466833633359278
507.0, 0.000731469110840937
508.0, 0.0033400618338744518
509.0, 0.006800622075155361
510.0, 0.006482246492596982
511.0, 0.005294984117803639
512.0, 0.0081511645902755
513.0, 0.012968163992928597
514.0, 0.011763668972518238
515.0, 0.01479460392669267
516.0, 0.018262809922594596
517.0, 0.02128705856978865
518.0, 0.024999488198473016
519.0, 0.027572972015852168
520.0, 0.03004958558960797
521.0, 0.031272346053451305
522.0, 0.03429816702011499
523.0, 0.03859647091584696
524.0, 0.04156332871305841
525.0, 0.04415697576730481
526.0, 0.0476313356506971
527.0, 0.05132706066138634
528.0, 0.05460781069798733
529.0, 0.05663787846439926
530.0, 0.0585317772746477
531.0, 0.06340027548537104
532.0, 0.06707726781727726
533.0, 0.07305651924443231
534.0, 0.07697362057341486
535.0, 0.08097479082749509
536.0, 0.08874070407353632
537.0, 0.09432208639195655
538.0, 0.09629397452259036
539.0, 0.10301191941334273
540.0, 0.11049201460350969
541.0, 0.11637444856669303
542.0, 0.12292811811056018
543.0, 0.1325818125945001
544.0, 0.1372084366483437
545.0, 0.1416938151267822
546.0, 0.14752398994533342
547.0, 0.15328506134184441
548.0, 0.1563935975973766
549.0, 0.15833204165026946
550.0, 0.16278725694467083
551.0, 0.16893696894658447
552.0, 0.17377865566949155
553.0, 0.17819784630873
554.0, 0.18221411401352522
555.0, 0.18179626897916143
556.0, 0.18434931083228517
557.0, 0.18367977548699838
558.0, 0.1860512297468912
559.0, 0.18812211322672281
560.0, 0.18808789395818393
561.0, 0.18898895766844467
562.0, 0.18640514332979619
563.0, 0.18238303538006026
564.0, 0.17916556803983444
565.0, 0.177648697032705
566.0, 0.17575539766613285
567.0, 0.17261570276275
568.0, 0.17404340249279304
569.0, 0.17526339139838737
570.0, 0.1789899462855699
571.0, 0.17772475744592636
572.0, 0.17511755382038754
573.0, 0.1746494332553886
574.0, 0.16852363309796758
575.0, 0.16954916919938648
576.0, 0.16470059019922206
577.0, 0.1620931768705845
578.0, 0.16259927739097083
579.0, 0.1625215641619594
580.0, 0.15947267608803528
581.0, 0.15896098939125466
582.0, 0.1511113566867064
583.0, 0.1466070602245877
584.0, 0.1403930939245811
585.0, 0.13470912966833007
586.0, 0.13369492203032002
587.0, 0.12856087575226455
588.0, 0.12018855624291269
589.0, 0.1153891774901069
590.0, 0.11059832256622668
591.0, 0.10533073508424261
592.0, 0.09990442890356926
593.0, 0.09317953261722299
594.0, 0.09065113830510944
595.0, 0.08840678955149872
596.0, 0.08550181061798663
597.0, 0.07938867233708233
598.0, 0.07207726736387544
599.0, 0.0684434493562566
600.0, 0.06743427523193189
601.0, 0.060148398021723386
602.0, 0.05715095774986881
603.0, 0.05536280675631647
604.0, 0.0510616760610354
605.0, 0.04698433573968002
606.0, 0.044966774069255956
607.0, 0.04205387448997045
608.0, 0.038903742418260695
609.0, 0.03622715712625359
610.0, 0.03582676965354077
611.0, 0.035578253183568276
612.0, 0.0312009061835088
613.0, 0.025783049214075843
614.0, 0.024777496090274107
615.0, 0.0238819129744828
616.0, 0.01879530625817176
617.0, 0.01586898040909336
618.0, 0.01713862575070627
619.0, 0.015656857253293657
620.0, 0.015951034522601985
621.0, 0.013482602734604787
622.0, 0.013135771048043253
623.0, 0.012088317762948417
624.0, 0.009737019981269312
625.0, 0.007952825679405095
626.0, 0.005924109226747457
627.0, 0.009373692426718943
628.0, 0.009776210223654155
629.0, 0.008828810756486406
630.0, 0.006770833231317988
631.0, 0.004999455551263282
632.0, 0.005704615706497698
633.0, 0.006909463187278908
634.0, 0.004710443838228627
635.0, 0.004391419829557933
636.0, 0.006052679304983839
637.0, 0.005784116927794973
638.0, 0.003909937253820295
639.0, 0.0038819482029268733
640.0, 0.003728834576512276
641.0, 0.002847880222543628
642.0, 0.001997340717641671
643.0, 0.001873418308686501
644.0, 0.0011068287392294407
645.0, 0.002483432170725006
646.0, 0.00015550023598945707
647.0, 2.0342674987557787e-05
648.0, 0.002529528845383628
649.0, 0.0014184467665732466
650.0, 0.0009770151594942636
651.0, 0.0010172425632798926
652.0, 0.0005312960060550342
653.0, 0.0009221679403013074
654.0, 0.0007797055083876042
655.0, 0.00043657487352312174
656.0, 0.001526648391392611
657.0, 0.0018241962796373035
658.0, 0.0004566367864905753
659.0, 0.00023487469631648918
660.0, 0.0018605550378970575
661.0, 0.0024705504041377725
662.0, 0.0015286884775990326
663.0, 0.0014291108776651655
664.0, 0.002408237509090659
665.0, 0.0023831994988581288
666.0, 0.0011173055043351165
667.0, 0.0016437676930729254
668.0, 0.0003660042754529635
669.0, 0.0007783171379482261
670.0, 0.0006628082283738159
671.0, 0.000405603993344699
672.0, 0.000357789526681891
673.0, 0.001458303024557845
674.0, 0.00047131775204538887
675.0, 0.0006902597160470755
676.0, 0.0025125755850385527
677.0, 0.0004480871885179489
678.0, 0.0006644306152352004
679.0, 0.003018034552618961
680.0, 0.004672646693139725
681.0, 0.003218496427165724
682.0, 0.0035581263001644202
683.0, 0.0036848824880177876
684.0, 0.0022300450234336144
685.0, 0.0025460918327818646
686.0, 0.0032987925320995225
687.0, 0.0027271843189821676
688.0, 0.0031250113182571416
689.0, 0.004438475410657996
690.0, 0.00016130553523778182
691.0, 0.0027333170561432696
692.0, 0.003748858174594993
693.0, 0.002496860220828387
694.0, 0.003679155177956138
695.0, 0.005811076497604357
696.0, 0.006706264135623189
697.0, 0.005669343843936123
698.0, 0.007068872222820802
699.0, 0.008312907378290577
700.0, 0.0060717731702914085
701.0, 0.004105764794034389
702.0, 0.005770246657375642
703.0, 0.004443286772802932
704.0, 0.004839311509016244
705.0, 0.005878154015325785
706.0, 0.007106557408574941
707.0, 0.008833349178684669
708.0, 0.009667631519464358
709.0, 0.009158586135275398
710.0, 0.00813719150671805
711.0, 0.0056001173452356065
712.0, 0.005508879536241974
713.0, 0.00911963909233153
714.0, 0.009980223571843201
715.0, 0.007314581608637223
716.0, 0.006495384800932967
717.0, 0.008962860483563172
718.0, 0.008046000885682343
719.0, 0.005530053009225088
720.0, 0.007399128839109387
721.0, 0.010607373477080975
722.0, 0.010138529273242462
723.0, 0.009490145287796408
724.0, 0.010762594508020869
725.0, 0.008687206915968899
726.0, 0.00666695832186541
727.0, 0.008757412881230315
728.0, 0.005988469774854231
729.0, 0.00891925987389082
730.0, 0.010561037470873879
731.0, 0.008191221006244491
732.0, 0.008627841952870186
733.0, 0.010085013481920929
734.0, 0.008009061827689254
735.0, 0.009099671032181348
736.0, 0.007856272936588773
737.0, 0.009415632374711444
738.0, 0.010752466485770237
739.0, 0.009793817625248176
740.0, 0.009988959811005548
741.0, 0.008776428249237946
742.0, 0.008857241053398824
743.0, 0.009110647484447742
744.0, 0.008006168163010044
745.0, 0.007289915599977728
746.0, 0.008403564668610003
747.0, 0.010215671111582418
748.0, 0.00994325964571329
749.0, 0.009763230982915478
750.0, 0.006661006386198033
751.0, 0.008127794845935447
752.0, 0.008996690205188812
753.0, 0.008058246704725191
754.0, 0.008899234247451251
755.0, 0.008990068785264852
756.0, 0.002964843150356797
757.0, 0.007293566480843818
758.0, 0.010103961940791467
759.0, 0.009442164021317277
760.0, 0.007103260943588423
761.0, 0.006753081380064681
762.0, 0.007323715621625933
763.0, 0.006653242028991136
764.0, 0.005920625295461962
765.0, 0.004978780841742262
766.0, 0.003645284020628612
767.0, 0.0035321868959020414
768.0, 0.0022605197606409984
769.0, 0.0024523954167942627
770.0, 0.004986692232248078
771.0, 0.006443420080725229
772.0, 0.00406914640231866
773.0, 0.0044888046130695716
774.0, 0.006087418846352052
775.0, 0.004338521056386828
776.0, 0.0019839063734390307
777.0, 0.0030938109889279033
778.0, 0.0046369814175637935
779.0, 0.003041475043014138
780.0, 0.0007958525431824538
781.0, 0.002604011926543374
782.0, 0.0023279581494823737
783.0, 0.0027678584847288207
784.0, 0.0035084092723952323
785.0, 0.0038193933956401967
786.0, 0.0033053426066813715
787.0, 0.0032263537239741215
788.0, 0.004843069679934043
789.0, 0.005702286521621354
790.0, 0.004480584070807408
791.0, 0.0034202032360977157
792.0, 0.001935215425360187
793.0, 0.003451468910790174
794.0, 0.004872848513823818
795.0, 0.003979070654508858
796.0, 0.00333143878857721
797.0, 0.0038056650719585153
798.0, 0.0008228693234840147
799.0, 0.0004878241704192181
800.0, 0.0006116860743299367
801.0, 0.00021141025222737422
802.0, 0.0012998329926343394
803.0, 0.0011327460694994843
804.0, 0.0018015169868285759
805.0, 0.0005456678512853968
806.0, 0.0005963841200493279
807.0, 0.0034496305199481206
808.0, 0.0035032294618680365
809.0, 0.0039442970684177075
810.0, 0.0031156641828053466
811.0, 0.0034276469699109496
812.0, 0.0043499501858199245
813.0, 0.002886781737112175
814.0, 0.0037177753418536864
815.0, 0.002846839702288857
816.0, 0.0026458095171680075
817.0, 0.0008036886035579031
818.0, 0.0007455539977932469
819.0, 0.0025532876659932085
820.0, 0.003124675148802799
821.0, 0.0015494080981496765
822.0, 0.003169674403078003
823.0, 0.004237926390613253
824.0, 0.0036677291930363913
825.0, 0.002872716485115878
826.0, 0.0031062428717593257
827.0, 0.0013330758982883395
828.0, 0.001961709741887521
829.0, 0.0038560239934386097
830.0, 0.0030473319676596433
831.0, 0.0022784010976319388
832.0, 0.002128716460511525
833.0, 0.0036480945160420786
834.0, 0.0021118376728432413
835.0, 0.002060955290389509
836.0, 0.00013975197646956918
837.0, 0.0006742332249615673
838.0, 0.002911986754634761
839.0, 0.001932563729695573
840.0, 0.00033628435640663425
841.0, 0.0019219899547867493
842.0, 0.002730368536846988
843.0, 0.004504091298083143
844.0, 0.004147803110688664
845.0, 0.001832340476995612
846.0, 0.0006990203947954069
847.0, 0.001963224891357271
848.0, 0.003506110458044213
849.0, 0.003415705980564393
850.0, 0.00219881238817913
851.0, 0.0011611578852094816
852.0, 0.005872100627105299
853.0, 0.004545260646264554
854.0, 0.004401079723124127
855.0, 0.004680115408246927
856.0, 0.004508960293182293
857.0, 0.004994877901837204
858.0, 0.0054214643220371166
859.0, 0.0066078501283922605
860.0, 0.006419128731863612
861.0, 0.004890766323827431
862.0, 0.007340631782955586
863.0, 0.007321151275301223
864.0, 0.0063254763547684
865.0, 0.006249477712369556
866.0, 0.006353232966417712
867.0, 0.006158863198522865
868.0, 0.005521074645228289
869.0, 0.006166112134007159
870.0, 0.009038434452232041
871.0, 0.006244350027119728
872.0, 0.0074812886375541
873.0, 0.0077674229975628
874.0, 0.008633395922556393
875.0, 0.008254507541927655
876.0, 0.007900066981036544
877.0, 0.011840329935511198
878.0, 0.01194533372925518
879.0, 0.011143770285648337
880.0, 0.010168594084384999
881.0, 0.008347545717834704
882.0, 0.009516502156541323
883.0, 0.010834765404027953
884.0, 0.011839319638568291
885.0, 0.012116021337067991
886.0, 0.011517751937570318
887.0, 0.012518240390609335
888.0, 0.013353631673690554
889.0, 0.016093920314168716
890.0, 0.01631126917005695
891.0, 0.01623355728986858
892.0, 0.015101904482869358
893.0, 0.015411848362351505
894.0, 0.014518852881115332
895.0, 0.011273407878850296
896.0, 0.010683554761783447
897.0, 0.012975350954830073
898.0, 0.011471508659464268
899.0, 0.013026630364590296
900.0, 0.011667888279225156
901.0, 0.009510558573407131
902.0, 0.009667695819055718
903.0, 0.013919881767458026
904.0, 0.013381283136328786
905.0, 0.008619020233474708
906.0, 0.007711245622110143
907.0, 0.007830613072476542
908.0, 0.007100043829897169
909.0, 0.00631722921440851
910.0, 0.006981072792662473
911.0, 0.006199931851636476
912.0, 0.007040039779535819
913.0, 0.005679416007435709
914.0, 0.0032123265799227545
915.0, 0.002677268711825901
916.0, 0.0032385853530566447
917.0, 0.003699797674796865
918.0, 0.0034808613038433403
919.0, 0.0005793916342596117
920.0, 0.003564193008155103
921.0, 0.0028074170603433384
922.0, 0.0004636725941366567
923.0, 0.0002703403463991365
924.0, 0.0014967557560933884
925.0, 0.0006442245411573248
926.0, 0.00042366688562522756
927.0, 0.0012767083843492916
928.0, 0.0026802981149647697
929.0, 0.0014975733386580798
930.0, 0.0013562649751944157
931.0, 0.00022838210620298787
932.0, 0.0007706116306510758
933.0, 0.0004017052743920116
934.0, 0.0011243679126924442
935.0, 0.0006188867998989742
936.0, 0.0015054955342501868
937.0, 0.00045961786370144327
938.0, 0.0012781314373363892
939.0, 0.0034250690310388284
940.0, 0.005063645991860034
941.0, 0.004786268518201697
942.0, 0.003347689097158939
943.0, 0.00319321191461415
944.0, 0.0035942437071175178
945.0, 0.0027243284890749097
946.0, 0.002656238600713897
947.0, 0.0021587038154412225
948.0, 0.0011969414612961373
949.0, 0.0019536695598462925
950.0, 0.0008925660808479216
951.0, 0.003053897980549592
952.0, 0.0005098346780446994
953.0, 0.0028265370913305864
954.0, 0.0010125100570886336
955.0, 0.003536818639204191
956.0, 0.002543210844952895
957.0, 0.004650881289622223
958.0, 0.004285035042260585
959.0, 0.0026860282633304412
960.0, 0.008295598680789365
961.0, 0.009463255674687083
962.0, 0.008839970303992369
963.0, 0.011777240073942893
964.0, 0.018755056344081162
965.0, 0.01921920314728665
966.0, 0.026169809711420394
967.0, 0.02545942025964717
968.0, 0.027769642713400138
969.0, 0.029877648599656987
970.0, 0.033394913972439266
971.0, 0.040913149415466976
972.0, 0.04336118450384412
973.0, 0.046602800827216274
974.0, 0.05513208284556468
975.0, 0.06257885943078756
976.0, 0.06687829613707635
977.0, 0.07418399554312725
978.0, 0.08406777240215704
979.0, 0.09513749530265261
980.0, 0.10433459423894838
981.0, 0.11579760766349315
982.0, 0.13019666914624786
983.0, 0.14283984934358782
984.0, 0.157292648336214
985.0, 0.17818592940939704
986.0, 0.1961646689882785
987.0, 0.21962398843457465
988.0, 0.24422905396647404
989.0, 0.2752755166636029
990.0, 0.3051672546916841
991.0, 0.33410399258165013
992.0, 0.36725014836215
993.0, 0.40749002742249546
994.0, 0.4487257883876403
995.0, 0.48818442279580576
996.0, 0.5331585921272004
997.0, 0.5805037021801567
998.0, 0.6189387866529
999.0, 0.6492763954218075
1000.0, 0.6952377065453814
1001.0, 0.7414403275498926
1002.0, 0.7758764315485729
1003.0, 0.8108064893224147
1004.0, 0.8412239126568221
1005.0, 0.8767220873718075
1006.0, 0.9090136755621739
1007.0, 0.9283558344978374
1008.0, 0.9473384411875151
1009.0, 0.9683709442987241
1010.0, 0.9828130322173065
1011.0, 0.9905554332992967
1012.0, 0.992019156836406
1013.0, 0.9937528907044176
1014.0, 0.9996884824590586
1015.0, 0.9876460463679422
1016.0, 0.9640773398237628
1017.0, 0.9436037637899376
1018.0, 0.9225441495922362
1019.0, 0.8938562139619699
1020.0, 0.8620018053236064
1021.0, 0.8338542026791131
1022.0, 0.8059929280594262
1023.0, 0.7742352030920938
1024.0, 0.7456156902695887
1025.0, 0.7289493502211807
1026.0, 0.7057311793236116
1027.0, 0.6823644735229651
1028.0, 0.6693073186848554
1029.0, 0.6616442203770667
1030.0, 0.6526916193301685
1031.0, 0.6480790858245536
1032.0, 0.6458330370113844
1033.0, 0.6427957198303892
1034.0, 0.6474097208789175
1035.0, 0.6552281411048042
1036.0, 0.6538619626963288
1037.0, 0.6659040534474577
1038.0, 0.6786190283486794
1039.0, 0.6847661954567413
1040.0, 0.6853497783274002
1041.0, 0.6993058837023347
1042.0, 0.7065013455584399
1043.0, 0.7064836793308585
1044.0, 0.7067653462145705
1045.0, 0.700603792054687
1046.0, 0.6838694834043187
1047.0, 0.6588890266116578
1048.0, 0.6274335888813808
1049.0, 0.5932029420872093
1050.0, 0.55624145672513
1051.0, 0.5126261149377399
1052.0, 0.4660029028444427
1053.0, 0.4226998960291389
1054.0, 0.3807703845200626
1055.0, 0.33847587539853813
1056.0, 0.299534103340811
1057.0, 0.2656747520599319
1058.0, 0.23314509331306538
1059.0, 0.20225724462195002
1060.0, 0.17690730754737186
1061.0, 0.15430395006405062
1062.0, 0.135358693601748
1063.0, 0.12071887235519217
1064.0, 0.10369028613547104
1065.0, 0.0927795442571711
1066.0, 0.08119629486928312
1067.0, 0.0651647215575296
1068.0, 0.061935303215880796
1069.0, 0.05215346686282113
1070.0, 0.04272370923259622
1071.0, 0.03756472585947891
1072.0, 0.033297622319765054
1073.0, 0.02987262453335656
1074.0, 0.023989651056181487
1075.0, 0.019058590784547046
1076.0, 0.018003028601331017
1077.0, 0.014262674760188946
1078.0, 0.010318104825304328
1079.0, 0.010987622479759943
1080.0, 0.005276683333583951
1081.0, 0.004404677571688819
1082.0, 0.003833689415544908
1083.0, 0.0008674755991492401
1084.0, 0.0013659413469404849
1085.0, 0.002053407897347142
1086.0, 0.0023321634814760218
1087.0, 0.00149146566696642
1088.0, 0.002154895570401991
1089.0, 0.002119599444247013
1090.0, 0.0019697933579630312
1091.0, 0.003992880565690672
1092.0, 0.004597959786000946
1093.0, 0.0042953205030280515
1094.0, 0.004502463907835256
1095.0, 0.0017943410832584879
1096.0, 0.0025818068970664756
1097.0, 0.003263558338918756
1098.0, 0.005195155865901928
1099.0, 0.0011072477899720969
1100.0, 0.0015784244038396578
1101.0, 0.0021541722861578567
1102.0, 0.0012742878713758066
1103.0, 0.0017297572970301654
1104.0, 0.0011763748098752888
1105.0, 0.0017633198809620385
1106.0, 0.0008979474212760376
1107.0, 0.0013262128769191486
1108.0, 0.0027481856444245105
1109.0, 0.0054300754796327115
1110.0, 0.0067511455895095974
1111.0, 0.005058443916383754
1112.0, 0.00589566475017883
1113.0, 0.00819879759940589
1114.0, 0.008768191254415926
1115.0, 0.010009583981592044
1116.0, 0.011089941044619897
1117.0, 0.011657896941105906
1118.0, 0.010640596898979489
1119.0, 0.013601877436667548
1120.0, 0.014082735988763567
1121.0, 0.014780190187156
1122.0, 0.01591315759079306
1123.0, 0.01668796466918425
1124.0, 0.017214336621845395
1125.0, 0.01516855733605422
1126.0, 0.015979672771671755
1127.0, 0.017645026874964935
1128.0, 0.015724647900836115
1129.0, 0.017007943457263613
1130.0, 0.01637465001310248
1131.0, 0.013455306379640835
1132.0, 0.014770972228000952
1133.0, 0.0158741203260756
1134.0, 0.016805372333506575
1135.0, 0.014852240290326045
1136.0, 0.015274313077399947
1137.0, 0.01412098214571013
1138.0, 0.011959939699994534
1139.0, 0.013306376195105638
1140.0, 0.01245674381369734
1141.0, 0.011703188508165964
1142.0, 0.0125061553247584
1143.0, 0.013892979559106037
1144.0, 0.01196629473372909
1145.0, 0.0110967065585711
1146.0, 0.01085893341190804
1147.0, 0.010441061780655838
1148.0, 0.01061445933366605
1149.0, 0.007101145122351876
1150.0, 0.006199921944813948
1151.0, 0.006387140363269752
1152.0, 0.007036677203381855
1153.0, 0.006200393658364225
1154.0, 0.00945113013383753
1155.0, 0.005587229101177231
1156.0, 0.00430636503417302
1157.0, 0.005061292542452213
1158.0, 0.00132842958773426
1159.0, 0.0015420785002877055
1160.0, 0.0038621236835846744
1161.0, 0.0006467993527539307
1162.0, 0.0018496572345031949
1163.0, 0.0010904082057552275
1164.0, 0.002241343738991481
1165.0, 0.0008897273201530445
1166.0, 0.0007925122048084975
1167.0, 0.0011462138236818572
1168.0, 0.001459176392364148
1169.0, 0.0013135319242682847
1170.0, 0.0007772628920692875
1171.0, 0.00032132282778225206
1172.0, 0.0019415869213386702
1173.0, 0.00040318172735832956
1174.0, 0.002199665941624752
1175.0, 0.0020916578814956883
1176.0, 0.003423972221519205
1177.0, 0.0016935815766444657
1178.0, 0.003306740352327831
1179.0, 0.0030250481506405857
1180.0, 0.0031373595277265154
1181.0, 0.004311547873935974
1182.0, 0.0019103235427346294
1183.0, 0.003040897396545093
1184.0, 0.002357766919994995
1185.0, 0.0022327642425079668
1186.0, 0.0033321559504076426
1187.0, 0.004491069934853835
1188.0, 0.00502981044292064
1189.0, 0.0034771482230647726
1190.0, 0.0020903584695861808
1191.0, 0.0038817486245484754
1192.0, 0.006042554800788249
1193.0, 0.0036346382758687926
1194.0, 0.001042927519405881
1195.0, 0.002652308243368628
1196.0, 0.004884516353776257
1197.0, 0.004788223698462506
1198.0, 0.005861321176070408
1199.0, 0.004207244666732407
1200.0, 0.0013562137836071683
1201.0, 0.005187633930247487
1202.0, 0.0020594111852267586
1203.0, 0.0010435107474130061
1204.0, 0.00033784121241575455
1205.0, 0.004686079776967667
1206.0, 0.0017881831016597152
1207.0, 0.0019485392072990744
1208.0, 0.0035196571960981883
1209.0, 0.0059022200965802435
1210.0, 0.0077017216215423566
1211.0, 0.005960472990322199
1212.0, 0.0041441582955621704
1213.0, 0.005119650771493869
1214.0, 0.005946320117053118
1215.0, 0.004707709084501556
1216.0, 0.007198822469577336
1217.0, 0.00980695623210245
1218.0, 0.006620616225736561
1219.0, 0.0056487560971292565
1220.0, 0.008236784561614625
1221.0, 0.007761683948516424
1222.0, 0.00740057215094249
1223.0, 0.008014330015605281
1224.0, 0.006769088982790753
1225.0, 0.005696777912643486
1226.0, 0.004343595998781088
1227.0, 0.005799750266818855
1228.0, 0.007407335000842247
1229.0, 0.00688112939010438
1230.0, 0.004808352184975218
1231.0, 0.006530602394072924
1232.0, 0.005552340916326536
1233.0, 0.005967267013796867
1234.0, 0.0033033727504645817
1235.0, 0.0003783612341352232
1236.0, 0.0008145051807752238
1237.0, 0.003047894533061571
1238.0, 0.0007379226885545609
1239.0, 0.0016129625360454699
1240.0, 0.0006798658810301293
1241.0, 0.0027888748009571845
1242.0, 0.005642929847370349
1243.0, 0.005094464222390201
1244.0, 0.005588096338972641
1245.0, 0.006703829235281218
1246.0, 0.007888654918180773
1247.0, 0.007388939555620144
1248.0, 0.006712962426751367
1249.0, 0.006701694734357595
1250.0, 0.003992865867869388
1251.0, 0.0029768375290270656
1252.0, 0.004296386621185674
1253.0, 0.001443931692570342
1254.0, 0.0022371699970926105
1255.0, 0.003376203272672634
1256.0, 0.0047130837359606855
1257.0, 0.0024657220120270634
1258.0, 7.798400465631315e-05
1259.0, 0.0012115625653063354
1260.0, 0.0029640704880506494
1261.0, 0.0037540591451880553
1262.0, 0.003440855832789993
1263.0, 0.0002851394935986986
1264.0, 0.003028329093038949
1265.0, 0.0003531915236290961
1266, 0.0
1267, 0.0
1268, 0.0
1269, 0.0
1270, 0.0
1271, 0.0
1272, 0.0
1273, 0.0
1274, 0.0
1275, 0.0
1276, 0.0
1277, 0.0
1278, 0.0
1279, 0.0
1280, 0.0
1281, 0.0
1282, 0.0
1283, 0.0
1284, 0.0
1285, 0.0
1286, 0.0
1287, 0.0
1288, 0.0
1289, 0.0
1290, 0.0
1291, 0.0
1292, 0.0
1293, 0.0
1294, 0.0
1295, 0.0
1296, 0.0
1297, 0.0
1298, 0.0
1299, 0.0
1300, 0.0
1301, 0.0
1302, 0.0
1303, 0.0
1304, 0.0
1305, 0.0
1306, 0.0
1307, 0.0
1308, 0.0
1309, 0.0
1310, 0.0
1311, 0.0
1312, 0.0
1313, 0.0
1314, 0.0
1315, 0.0
1316, 0.0
1317, 0.0
1318, 0.0
1319, 0.0
1320, 0.0
1321, 0.0
1322, 0.0
1323, 0.0
1324, 0.0
1325, 0.0
1326, 0.0
1327, 0.0
1328, 0.0
1329, 0.0
1330, 0.0
1331, 0.0
1332, 0.0
1333, 0.0
1334, 0.0
1335, 0.0
1336, 0.0
1337, 0.0
1338, 0.0
1339, 0.0
1340, 0.0
1341, 0.0
1342, 0.0
1343, 0.0
1344, 0.0
1345, 0.0
1346, 0.0
1347, 0.0
1348, 0.0
1349, 0.0
1350, 0.0
1351, 0.0
1352, 0.0
1353, 0.0
1354, 0.0
1355, 0.0
1356, 0.0
1357, 0.0
1358, 0.0
1359, 0.0
1360, 0.0
1361, 0.0
1362, 0.0
1363, 0.0
1364, 0.0
1365, 0.0
1366, 0.0
1367, 0.0
1368, 0.0
1369, 0.0
1370, 0.0
1371, 0.0
1372, 0.0
1373, 0.0
1374, 0.0
1375, 0.0
1376, 0.0
1377, 0.0
1378, 0.0
1379, 0.0
1380, 0.0
1381, 0.0
1382, 0.0
1383, 0.0
1384, 0.0
1385, 0.0
1386, 0.0
1387, 0.0
1388, 0.0
1389, 0.0
1390, 0.0
1391, 0.0
1392, 0.0
1393, 0.0
1394, 0.0
1395, 0.0
1396, 0.0
1397, 0.0
1398, 0.0
1399, 0.0
1400, 0.0
1401, 0.0
1402, 0.0
1403, 0.0
1404, 0.0
1405, 0.0
1406, 0.0
1407, 0.0
1408, 0.0
1409, 0.0
1410, 0.0
1411, 0.0
1412, 0.0
1413, 0.0
1414, 0.0
1415, 0.0
1416, 0.0
1417, 0.0
1418, 0.0
1419, 0.0
1420, 0.0
1421, 0.0
1422, 0.0
1423, 0.0
1424, 0.0
1425, 0.0
1426, 0.0
1427, 0.0
1428, 0.0
1429, 0.0
1430, 0.0
1431, 0.0
1432, 0.0
1433, 0.0
1434, 0.0
1435, 0.0
1436, 0.0
1437, 0.0
1438, 0.0
1439, 0.0
1440, 0.0
1441, 0.0
1442, 0.0
1443, 0.0
1444, 0.0
1445, 0.0
1446, 0.0
1447, 0.0
1448, 0.0
1449, 0.0
1450, 0.0
1451, 0.0
1452, 0.0
1453, 0.0
1454, 0.0
1455, 0.0
1456, 0.0
1457, 0.0
1458, 0.0
1459, 0.0
1460, 0.0
1461, 0.0
1462, 0.0
1463, 0.0
1464, 0.0
1465, 0.0
1466, 0.0
1467, 0.0
1468, 0.0
1469, 0.0
1470, 0.0
1471, 0.0
1472, 0.0
1473, 0.0
1474, 0.0
1475, 0.0
1476, 0.0
1477, 0.0
1478, 0.0
1479, 0.0
1480, 0.0
1481, 0.0
1482, 0.0
1483, 0.0
1484, 0.0
1485, 0.0
1486, 0.0
1487, 0.0
1488, 0.0
1489, 0.0
1490, 0.0
1491, 0.0
1492, 0.0
1493, 0.0
1494, 0.0
1495, 0.0
1496, 0.0
1497, 0.0
1498, 0.0
1499, 0.0
1500, 0.0
1501, 0.0
1502, 0.0
1503, 0.0
1504, 0.0
1505, 0.0
1506, 0.0
1507, 0.0
1508, 0.0
1509, 0.0
1510, 0.0
1511, 0.0
1512, 0.0
1513, 0.0
1514, 0.0
1515, 0.0
1516, 0.0
1517, 0.0
1518, 0.0
1519, 0.0
1520, 0.0
1521, 0.0
1522, 0.0
1523, 0.0
1524, 0.0
1525, 0.0
1526, 0.0
1527, 0.0
1528, 0.0
1529, 0.0
1530, 0.0
1531, 0.0
1532, 0.0
1533, 0.0
1534, 0.0
1535, 0.0
1536, 0.0
1537, 0.0
1538, 0.0
1539, 0.0
1540, 0.0
1541, 0.0
1542, 0.0
1543, 0.0
1544, 0.0
1545, 0.0
1546, 0.0
1547, 0.0
1548, 0.0
1549, 0.0
1550, 0.0
1551, 0.0
1552, 0.0
1553, 0.0
1554, 0.0
1555, 0.0
1556, 0.0
1557, 0.0
1558, 0.0
1559, 0.0
1560, 0.0
1561, 0.0
1562, 0.0
1563, 0.0
1564, 0.0
1565, 0.0
1566, 0.0
1567, 0.0
1568, 0.0
1569, 0.0
1570, 0.0
1571, 0.0
1572, 0.0
1573, 0.0
1574, 0.0
1575, 0.0
1576, 0.0
1577, 0.0
1578, 0.0
1579, 0.0
1580, 0.0
1581, 0.0
1582, 0.0
1583, 0.0
1584, 0.0
1585, 0.0
1586, 0.0
1587, 0.0
1588, 0.0
1589, 0.0
1590, 0.0
1591, 0.0
1592, 0.0
1593, 0.0
1594, 0.0
1595, 0.0
1596, 0.0
1597, 0.0
1598, 0.0
1599, 0.0
