30, 0.0
31, 0.0
32, 0.0
33, 0.0
34, 0.0
35, 0.0
36, 0.0
37, 0.0
38, 0.0
39, 0.0
40, 0.0
41, 0.0
42, 0.0
43, 0.0
44, 0.0
45, 0.0
46, 0.0
47, 0.0
48, 0.0
49, 0.0
50, 0.0
51, 0.0
52, 0.0
53, 0.0
54, 0.0
55, 0.0
56, 0.0
57, 0.0
58, 0.0
59, 0.0
60, 0.0
61, 0.0
62, 0.0
63, 0.0
64, 0.0
65, 0.0
66, 0.0
67, 0.0
68, 0.0
69, 0.0
70, 0.0
71, 0.0
72, 0.0
73, 0.0
74, 0.0
75, 0.0
76, 0.0
77, 0.0
78, 0.0
79, 0.0
80, 0.0
81, 0.0
82, 0.0
83, 0.0
84, 0.0
85, 0.0
86, 0.0
87, 0.0
88, 0.0
89, 0.0
90, 0.0
91, 0.0
92, 0.0
93, 0.0
94, 0.0
95, 0.0
96, 0.0
97, 0.0
98, 0.0
99, 0.0
100, 0.0
101, 0.0
102, 0.0
103, 0.0
104, 0.0
105, 0.0
106, 0.0
107, 0.0
108, 0.0
109, 0.0
110, 0.0
111, 0.0
112, 0.0
113, 0.0
114, 0.0
115, 0.0
116, 0.0
117, 0.0
118, 0.0
119, 0.0
120, 0.0
121, 0.0
122, 0.0
123, 0.0
124, 0.0
125, 0.0
126, 0.0
127, 0.0
128, 0.0
129, 0.0
130, 0.0
131, 0.0
132, 0.0
133, 0.0
134, 0.0
135, 0.0
136, 0.0
137, 0.0
138, 0.0
139, 0.0
140, 0.0
141, 0.0
142, 0.0
143, 0.0
144, 0.0
145, 0.0
146, 0.0
147, 0.0
148, 0.0
149, 0.0
150, 0.0
151.0, 0.012212961117312234
152.0, 0.012361103685327618
153.0, 0.02417675215072323
154.0, 0.03694720726316799
155.0, 0.027605971382034775
156.0, 0.011599852536963707
157.0, 0.012444563841550084
158.0, 0.0147587488784604
159.0, 0.003645386824815269
160.0, 0.022324308473609493
161.0, 0.03684020855970509
162.0, 0.04113131583197814
163.0, 0.04220721058356344
164.0, 0.050343341877716205
165.0, 0.04172081846720034
166.0, 0.04050428187304287
167.0, 0.048424318933339996
168.0, 0.05160992168605811
169.0, 0.05233441885383812
170.0, 0.054962564968028184
171.0, 0.053883142441321905
172.0, 0.04477378270102175
173.0, 0.042847744931400505
174.0, 0.03528246184783332
175.0, 0.02157406673123038
176.0, 0.012275989749649871
177.0, 0.02439715590310628
178.0, 0.01858175575415341
179.0, 0.009132429071500402
180.0, 0.004760861944621381
181.0, 0.00645442905704559
182.0, 0.007883155237497538
183.0, 0.00729316294270118
184.0, 0.004892130892967402
185.0, 0.010091935983875259
186.0, 0.006661070698810212
187.0, 0.012019312379691987
188.0, 0.016753281329054525
189.0, 0.01952523890994705
190.0, 0.039942481347421094
191.0, 0.0524926121658688
192.0, 0.059820330744759405
193.0, 0.07072804346936608
194.0, 0.08932805465172086
195.0, 0.10059674259819612
196.0, 0.10732129750660264
197.0, 0.1147750075579892
198.0, 0.12123832183454034
199.0, 0.1148664591815106
200.0, 0.11379113148565015
201.0, 0.11351372673788755
202.0, 0.10878840610234856
203.0, 0.09941387504119524
204.0, 0.0858561249026086
205.0, 0.07644620848849107
206.0, 0.07105543174813139
207.0, 0.0677733095091268
208.0, 0.07123453690109964
209.0, 0.06217580665391594
210.0, 0.04930840999516876
211.0, 0.04578753619314588
212.0, 0.05002325809434318
213.0, 0.04198990935212523
214.0, 0.038993839612712314
215.0, 0.03625213648145528
216.0, 0.03714262013428699
217.0, 0.03521264639239562
218.0, 0.03531378087657032
219.0, 0.03158192084361121
220.0, 0.024189297547365148
221.0, 0.009713852204543339
222.0, 0.010625492503624162
223.0, 0.011843502330726549
224.0, 0.007126587533114636
225.0, 0.00691095820062292
226.0, 0.007292892523268372
227.0, 0.00911339834175386
228.0, 0.012528614988556277
229.0, 0.01432383735628788
230.0, 0.011099536178747251
231.0, 0.010714272233280373
232.0, 0.009750297972689516
233.0, 0.006822236797462238
234.0, 0.004266648655384874
235.0, 0.00980190590315165
236.0, 0.009191014545343289
237.0, 0.008403323936437373
238.0, 0.009324376267507213
239.0, 0.008375495700632656
240.0, 0.0063069068172736924
241.0, 0.006584394210586302
242.0, 0.010320114292274762
243.0, 0.011425334813364833
244.0, 0.019208855437167
245.0, 0.025260021073554285
246.0, 0.024653905903168048
247.0, 0.018933484233246194
248.0, 0.016319767591928856
249.0, 0.026128673271304304
250.0, 0.029437427606887945
251.0, 0.025599902998295454
252.0, 0.025188432245240255
253.0, 0.03889535682942239
254.0, 0.05027926735179707
255.0, 0.052823484301398715
256.0, 0.04916738126575776
257.0, 0.04697941693549019
258.0, 0.0607948808870831
259.0, 0.061516794727736045
260.0, 0.05708400627563316
261.0, 0.06192496745316256
262.0, 0.0682719563581459
263.0, 0.07343287409570307
264.0, 0.08151480128575864
265.0, 0.09236230588864976
266.0, 0.09986661512593326
267.0, 0.09821895062251948
268.0, 0.10493987716397961
269.0, 0.11050782120363353
270.0, 0.10924644133725499
271.0, 0.11527719438403704
272.0, 0.10724852515691291
273.0, 0.1125855730773569
274.0, 0.12292101721197472
275.0, 0.12083517401934822
276.0, 0.14184308229124346
277.0, 0.14409137470046765
278.0, 0.14635957834835014
279.0, 0.15797551306997906
280.0, 0.16285354917272427
281.0, 0.17693336596844447
282.0, 0.18640897227503594
283.0, 0.1900114999645235
284.0, 0.1953479749211193
285.0, 0.2082432004978992
286.0, 0.2278839139786685
287.0, 0.2508692001710364
288.0, 0.26931013055219916
289.0, 0.2777105862193924
290.0, 0.2936360260728612
291.0, 0.315632158088439
292.0, 0.3357275600817233
293.0, 0.35209347941336655
294.0, 0.37146789329918695
295.0, 0.381164522739956
296.0, 0.39118545604183447
297.0, 0.4071523223885069
298.0, 0.4269367070249577
299.0, 0.4492131687400185
300.0, 0.4672261967172247
301.0, 0.497046662204222
302.0, 0.5327862771905466
303.0, 0.5603962523880441
304.0, 0.596556800715907
305.0, 0.6329053809613767
306.0, 0.6612590242673112
307.0, 0.6882227587939599
308.0, 0.7230055712641945
309.0, 0.7345844955186374
310.0, 0.7255789977023288
311.0, 0.7150111022442524
312.0, 0.706533940484207
313.0, 0.6802125892384707
314.0, 0.6537193622643969
315.0, 0.6078316432411422
316.0, 0.5570194818472433
317.0, 0.5230515487280853
318.0, 0.49590216644702056
319.0, 0.4709238055806581
320.0, 0.4619693249356808
321.0, 0.4608569627014524
322.0, 0.45103709412578585
323.0, 0.46028456072500457
324.0, 0.4664545362578811
325.0, 0.4702887531224507
326.0, 0.46378567224395617
327.0, 0.4193287069635275
328.0, 0.3849157177148116
329.0, 0.3552057312163813
330.0, 0.31593363534870195
331.0, 0.26360201738295436
332.0, 0.2261623947578963
333.0, 0.18708853854623883
334.0, 0.15342622557376498
335.0, 0.1333590972305847
336.0, 0.12804401167502247
337.0, 0.12658586676266698
338.0, 0.09945100349987948
339.0, 0.09409800350855305
340.0, 0.1002215265663554
341.0, 0.07479582124473948
342.0, 0.07131990143508103
343.0, 0.07577572534328458
344.0, 0.07696041588122471
345.0, 0.07339046853530254
346.0, 0.07049427560546145
347.0, 0.0653966709492078
348.0, 0.06119543462529426
349.0, 0.05242642062489905
350.0, 0.042674433286351954
351.0, 0.04322947868310602
352.0, 0.03420053558908638
353.0, 0.027129504419988227
354.0, 0.018736623058801867
355.0, 0.006697573400728786
356.0, 0.008265188494964016
357.0, 0.006624648496215154
358.0, 0.010422015597331377
359.0, 0.009599489507760127
360.0, 0.013727131566677854
361.0, 0.013957733859486418
362.0, 0.00984826790531451
363.0, 0.006897901866164542
364.0, 0.01777571623417641
365.0, 0.027935980173713907
366.0, 0.03526168515447012
367.0, 0.04211123254161718
368.0, 0.05732496741915526
369.0, 0.07077796013667555
370.0, 0.06607381817313783
371.0, 0.07695001337178842
372.0, 0.09538819418821312
373.0, 0.10671446191384595
374.0, 0.1122984625644472
375.0, 0.1266966270455304
376.0, 0.14986463270597833
377.0, 0.16216118777808886
378.0, 0.17005428103690837
379.0, 0.18201287653137146
380.0, 0.19737955362842596
381.0, 0.20022349520359134
382.0, 0.19726797909463645
383.0, 0.18317514962597925
384.0, 0.15993129824943694
385.0, 0.13884498253673924
386.0, 0.11230813503491487
387.0, 0.0938479672448411
388.0, 0.07774226763852313
389.0, 0.06300289754458228
390.0, 0.05286194371444485
391.0, 0.026765446085189736
392.0, 0.022898772637676933
393.0, 0.024324745429656926
394.0, 0.018916431165790296
395.0, 0.01637641179960539
396.0, 0.02349709895373702
397.0, 0.022273109522905087
398.0, 0.021559235353770526
399.0, 0.027772537994825222
400.0, 0.035606294838563465
401.0, 0.040203219115078015
402.0, 0.03377237605733729
403.0, 0.03228073685155143
404.0, 0.04183222910616087
405.0, 0.050538800404568686
406.0, 0.0503519784306703
407.0, 0.04980826704998221
408.0, 0.0520218849438243
409.0, 0.054959208575101934
410.0, 0.053392003341852526
411.0, 0.046087517013507225
412.0, 0.04371778614207879
413.0, 0.04672877161642389
414.0, 0.04587271903115938
415.0, 0.03400253172863875
416.0, 0.026865808456066766
417.0, 0.020836545721968594
418.0, 0.014919760384840771
419.0, 0.009170074823159817
420.0, 0.004070146784578036
421.0, 0.00687603582229361
422.0, 0.004524446452720493
423.0, 0.005291435994173543
424.0, 0.00516835459948004
425.0, 0.005237400517437341
426.0, 0.013974607796204117
427.0, 0.016848441880465928
428.0, 0.00979012751693703
429.0, 0.00870003387908107
430.0, 0.015746253520017413
431.0, 0.008044355485856124
432.0, 0.005877524372393403
433.0, 0.010611543019373072
434.0, 0.009384159557687153
435.0, 0.007787445038208163
436.0, 0.010730148945259694
437.0, 0.005365745049837881
438.0, 0.009162993162629031
439.0, 0.008037197206556785
440.0, 0.00924766480776592
441.0, 0.005426763881218799
442.0, 0.013364758280049816
443.0, 0.014865387110866312
444.0, 0.014063067735191856
445.0, 0.014593023138643036
446.0, 0.005623680331438449
447.0, 0.013986811298536187
448.0, 0.02654515065180572
449.0, 0.02649584970731145
450.0, 0.01969644660425812
451.0, 0.03282456402256294
452.0, 0.04465384748842346
453.0, 0.05383981941942733
454.0, 0.060491570532310364
455.0, 0.06594120809949244
456.0, 0.07190428257955724
457.0, 0.07330105854005442
458.0, 0.07965286950787909
459.0, 0.08714742451552782
460.0, 0.0974561113524015
461.0, 0.11511965175629181
462.0, 0.11471462385533127
463.0, 0.11973863196173111
464.0, 0.13354204588021212
465.0, 0.14729761393042767
466.0, 0.15156039917059544
467.0, 0.15210275474713636
468.0, 0.16199833600192368
469.0, 0.17935487835591554
470.0, 0.19306977098916456
471.0, 0.19676664435498123
472.0, 0.20129001388701903
473.0, 0.21738724009139485
474.0, 0.23307508697893312
475.0, 0.25423974514677045
476.0, 0.28658467842088314
477.0, 0.3184565716469682
478.0, 0.3484102956478938
479.0, 0.3858929187241545
480.0, 0.4272845157591395
481.0, 0.47196217111379934
482.0, 0.5231463173612663
483.0, 0.5634671323279022
484.0, 0.6040918749923052
485.0, 0.6526872810086076
486.0, 0.709824984391754
487.0, 0.7719260747554105
488.0, 0.8365570548914923
489.0, 0.9078371717224776
490.0, 0.9677457901255249
491.0, 0.9984756772382672
492.0, 0.9940551008834942
493.0, 0.9659265938716195
494.0, 0.8992547462470163
495.0, 0.8184451490909577
496.0, 0.7443964714245223
497.0, 0.6842795011813444
498.0, 0.636737059922812
499.0, 0.60353509776143
500.0, 0.5936603444343088
501.0, 0.6023381486957858
502.0, 0.6223379101657373
503.0, 0.6438290392820875
504.0, 0.6532497266782668
505.0, 0.6706708014748552
506.0, 0.6982292241921169
507.0, 0.7285715742084746
508.0, 0.7599121116275219
509.0, 0.798700942584957
510.0, 0.8033944473573627
511.0, 0.8166343695370802
512.0, 0.8259710707716303
513.0, 0.8217882824526302
514.0, 0.8150608087778437
515.0, 0.7766740043957309
516.0, 0.720841067877557
517.0, 0.6652437006375428
518.0, 0.6123075357722484
519.0, 0.5571494542082085
520.0, 0.4972766314781564
521.0, 0.43145755456291496
522.0, 0.38349201768434416
523.0, 0.34728705255248904
524.0, 0.30470933069426215
525.0, 0.2526129009866305
526.0, 0.22242644667355926
527.0, 0.20014119557324764
528.0, 0.1767789383803687
529.0, 0.15111850431868065
530.0, 0.1270682453458329
531.0, 0.11253187666774844
532.0, 0.10691534601572623
533.0, 0.09935340507849695
534.0, 0.0895717995786743
535.0, 0.07811373098551046
536.0, 0.06102373967796118
537.0, 0.050244277931218946
538.0, 0.04710147751901199
539.0, 0.04133830343210469
540.0, 0.03333352550347679
541.0, 0.030664687689724496
542.0, 0.030204447348397057
543.0, 0.02199159591692663
544.0, 0.008509683453964158
545.0, 0.004492683608407218
546.0, 0.010324235157904132
547.0, 0.013425145406905873
548.0, 0.011247389341878848
549.0, 0.003343354550511501
550.0, 0.007868018981695268
551.0, 0.00390923485318838
552.0, 0.003241966176897099
553.0, 0.008168236439425627
554.0, 0.0040404201881086305
555.0, 0.005559627398324827
556.0, 0.009069170922283787
557.0, 0.007269730562488551
558.0, 0.005095139839396762
559.0, 0.01714255920355405
560.0, 0.007728234166923256
561.0, 0.00902204630072366
562.0, 0.0060332898139826025
563.0, 0.009874339536167004
564.0, 0.009218797282811273
565.0, 0.01205706786948365
566.0, 0.020238574587022908
567.0, 0.021901888476912518
568.0, 0.01727419611204049
569.0, 0.01923092683580649
570.0, 0.03278160004577872
571.0, 0.04842953288025223
572.0, 0.06180863375631858
573.0, 0.07203121516992284
574.0, 0.08084375898072069
575.0, 0.0936751898106906
576.0, 0.12528024262868329
577.0, 0.13332893117759043
578.0, 0.13289122232850992
579.0, 0.1431996746846206
580.0, 0.16251480128587412
581.0, 0.17249626442725546
582.0, 0.19404668039951847
583.0, 0.21166219059182878
584.0, 0.22625309099965651
585.0, 0.24388665067130597
586.0, 0.25911797059711633
587.0, 0.2555888237120734
588.0, 0.27325287481773225
589.0, 0.2836278163624013
590.0, 0.2749501425749665
591.0, 0.25963359896407523
592.0, 0.2549522762952948
593.0, 0.24390575697218916
594.0, 0.22810050176810864
595.0, 0.21191475410401886
596.0, 0.19744216408456192
597.0, 0.1796562384391297
598.0, 0.14969334979618137
599.0, 0.13483803235851874
600.0, 0.11849469024905944
601.0, 0.10538634540904548
602.0, 0.09066461918182565
603.0, 0.07093884866976911
604.0, 0.06758067908457326
605.0, 0.06321440261569639
606.0, 0.057237586317328996
607.0, 0.04953805540742186
608.0, 0.042311883877352595
609.0, 0.03926907276975895
610.0, 0.04192417609068753
611.0, 0.027465273874031696
612.0, 0.020548298772041264
613.0, 0.018829786078978658
614.0, 0.013070471369146637
615.0, 0.005260059028748978
616.0, 0.011749864961801098
617.0, 0.01563024463016805
618.0, 0.01311313992320847
619.0, 0.010435608557876168
620.0, 0.00985392279313879
621.0, 0.007789848229428439
622.0, 0.01176339046526699
623.0, 0.015296894116891634
624.0, 0.01152398549463303
625.0, 0.007830083844471241
626.0, 0.0077065468957629
627.0, 0.0044902788165902706
628.0, 0.012087483051868063
629.0, 0.01163410905328533
630.0, 0.014803937201559156
631.0, 0.017542556966703687
632.0, 0.011664919895250954
633.0, 0.00663675407180658
634.0, 0.011336333184627482
635.0, 0.01817003389657377
636.0, 0.012807813323882023
637.0, 0.007070024132188353
638.0, 0.008249357869381978
639.0, 0.012560473804391313
640.0, 0.010872090418285064
641.0, 0.005745173075257368
642.0, 0.006554180205004446
643.0, 0.010475682022550748
644.0, 0.004495713189083932
645.0, 0.0068115741341398936
646.0, 0.005008690621743959
647.0, 0.008628084876419058
648.0, 0.013854971368700859
649.0, 0.019171535692121995
650.0, 0.020146365606586298
651.0, 0.013879377901204172
652.0, 0.015098778652870612
653.0, 0.022793295550876714
654.0, 0.024212512910470715
655.0, 0.024185448539170686
656.0, 0.029948701167656577
657.0, 0.03522897717350337
658.0, 0.048037028840059046
659.0, 0.053983219479475576
660.0, 0.05838000931742159
661.0, 0.06712077030757811
662.0, 0.07826247597994039
663.0, 0.08530104442696607
664.0, 0.08621644148710174
665.0, 0.0939373666911673
666.0, 0.09603520293253845
667.0, 0.099457326056674
668.0, 0.10889421455388869
669.0, 0.11160890991850976
670.0, 0.11473932953728616
671.0, 0.12176703631212514
672.0, 0.11768405712286545
673.0, 0.11612846268005117
674.0, 0.11617540983592821
675.0, 0.09970011383721905
676.0, 0.09898282727695368
677.0, 0.09122116853333304
678.0, 0.07988777811543968
679.0, 0.07176950258935413
680.0, 0.06496516579711377
681.0, 0.056453125571054114
682.0, 0.05908253231760849
683.0, 0.04438161992347076
684.0, 0.03618785310028048
685.0, 0.03373874362326482
686.0, 0.03132138458971875
687.0, 0.03156453287702421
688.0, 0.03582052169893816
689.0, 0.021973771915514154
690.0, 0.03582109165684628
691.0, 0.03795766900544444
692.0, 0.027515398705937617
693.0, 0.02792442855181023
694.0, 0.024160851855373252
695.0, 0.02138051492816792
696.0, 0.028515112790236923
697.0, 0.03513002364307245
698.0, 0.03306037532091161
699.0, 0.027518545790340673
700.0, 0.031111897889016783
701.0, 0.040115341649805736
702.0, 0.027990473753620397
703.0, 0.02656785414840807
704.0, 0.034728889846778674
705.0, 0.03815265343897063
706.0, 0.03685431128060733
707.0, 0.05110132842279404
708.0, 0.04805429135685885
709.0, 0.04296765407633676
710.0, 0.034378200334005266
711.0, 0.03007454231567297
712.0, 0.03658280663828696
713.0, 0.03661814121288828
714.0, 0.023061341737566687
715.0, 0.025600960851538096
716.0, 0.026030824820467088
717.0, 0.02784877176121163
718.0, 0.032124580267736576
719.0, 0.021413861855904468
720.0, 0.011490505838417979
721.0, 0.011471058079988808
722.0, 0.016676513059504742
723.0, 0.014834708179986136
724.0, 0.009002114184030484
725.0, 0.009313881994242464
726.0, 0.007841145407004318
727.0, 0.009181308324354029
728.0, 0.004750623706115097
729.0, 0.004179227333492478
730.0, 0.005445310268865038
731.0, 0.008568349272053934
732.0, 0.011065298630391745
733.0, 0.004425465061079946
734.0, 0.0055689069325078056
735.0, 0.016797987677610114
736.0, 0.02163259042723872
737.0, 0.013858839443203779
738.0, 0.012447855502988003
739.0, 0.00779580678018925
740.0, 0.008843121345441877
741.0, 0.004644491947430621
742.0, 0.012721332265899749
743.0, 0.01698201154900423
744.0, 0.007426521622087214
745.0, 0.015319311129061987
746.0, 0.02049810835451926
747.0, 0.008300982496206599
748.0, 0.00676312936635327
749.0, 0.006149621522940735
750.0, 0.008972620910431647
751.0, 0.009656374136559955
752.0, 0.004402788467242102
753.0, 0.0037422268365929173
754.0, 0.004443939560218919
755.0, 0.00526118725167224
756.0, 0.0040749049517626685
757.0, 0.006231464321155931
758.0, 0.004504518887132541
759.0, 0.022076528077060165
760.0, 0.016397854391290864
761.0, 0.01828965582829778
762.0, 0.022055242028694858
763.0, 0.02000780548494584
764.0, 0.019168893324521406
765.0, 0.024281310085522395
766.0, 0.019953239095376874
767.0, 0.015278315906418942
768.0, 0.014492828209758427
769.0, 0.016692038859103173
770.0, 0.01715871151900774
771.0, 0.01581697290218042
772.0, 0.020435274584551664
773.0, 0.010527329710992158
774.0, 0.011425351549647862
775.0, 0.007087381001673587
776.0, 0.004415970060314245
777.0, 0.0073796542515568685
778.0, 0.00919221188703114
779.0, 0.004432238859306423
780.0, 0.010092290224705591
781.0, 0.0076602583067020115
782.0, 0.0037989145561403695
783.0, 0.006411183554656182
784.0, 0.011995109476453547
785.0, 0.013445615146566219
786.0, 0.018690202620295165
787.0, 0.014587509213213258
788.0, 0.013732934218692506
789.0, 0.01539668710573527
790.0, 0.013752465322310514
791.0, 0.014755093411166766
792.0, 0.01402894386965703
793.0, 0.01903515950002559
794.0, 0.018180869292903207
795.0, 0.021543094384268067
796.0, 0.01756461359672523
797.0, 0.014766050718203454
798.0, 0.01964543793868817
799.0, 0.025079150380032868
800.0, 0.02205880434331656
801.0, 0.028448947925153806
802.0, 0.030662206121850055
803.0, 0.032393314376740596
804.0, 0.03670051065210203
805.0, 0.04094853718874131
806.0, 0.047473227349299166
807.0, 0.05427641140894999
808.0, 0.05820345095015955
809.0, 0.0560818142343284
810.0, 0.06083492686466161
811.0, 0.06528723620924348
812.0, 0.06232756467491785
813.0, 0.07137696539540604
814.0, 0.07042872478640572
815.0, 0.07589627994838306
816.0, 0.06903666162201302
817.0, 0.06509796014535295
818.0, 0.06310085133594777
819.0, 0.059482001043958885
820.0, 0.04812554484265186
821.0, 0.0400608561714366
822.0, 0.035294216745115264
823.0, 0.035720686642333625
824.0, 0.0376587224750483
825.0, 0.03373363952913959
826.0, 0.03313136782792652
827.0, 0.032865677938153516
828.0, 0.026764970035076264
829.0, 0.027324634660376348
830.0, 0.02510009391796894
831.0, 0.024761189361183666
832.0, 0.02692402954389295
833.0, 0.025028897097634555
834.0, 0.023684214374271904
835.0, 0.023338585949097133
836.0, 0.021749282297818685
837.0, 0.02198176957196337
838.0, 0.022627570928240453
839.0, 0.020742791563524217
840.0, 0.019973648571208417
841.0, 0.026290613861076596
842.0, 0.029499825942625933
843.0, 0.020274218827811184
844.0, 0.02128037566629418
845.0, 0.019260608920912553
846.0, 0.014263768269361276
847.0, 0.016152255106551085
848.0, 0.021386967316670846
849.0, 0.01828673322842304
850.0, 0.018421913643640615
851.0, 0.019399253416513013
852.0, 0.025737275688426466
853.0, 0.020040504510233665
854.0, 0.016510290097470258
855.0, 0.0283618143677332
856.0, 0.023936938568475074
857.0, 0.011196594788611338
858.0, 0.011810224318189753
859.0, 0.006776923091553908
860.0, 0.012555938006692304
861.0, 0.015655129880617617
862.0, 0.0065902270369533516
863.0, 0.00867980861421422
864.0, 0.02397617835699146
865.0, 0.016218948963235235
866.0, 0.011218465550649974
867.0, 0.00997066100529976
868.0, 0.009175064729001186
869.0, 0.011476058926625916
870.0, 0.014921271329343618
871.0, 0.006435431602282314
872.0, 0.014710433447056971
873.0, 0.010449337970476178
874.0, 0.011525222413646386
875.0, 0.012805396983841727
876.0, 0.018664283535720323
877.0, 0.016289543458889923
878.0, 0.017062835657601857
879.0, 0.012860201918355987
880.0, 0.014818335991514275
881.0, 0.007269447556484054
882.0, 0.007874030854177112
883.0, 0.007038546536747714
884.0, 0.007454766342695786
885.0, 0.012497476408670638
886.0, 0.009199191942914131
887.0, 0.008977558816165777
888.0, 0.005377897691033784
889.0, 0.007471417433296968
890.0, 0.004180727371556817
891.0, 0.007274975926434214
892.0, 0.006827332419630968
893.0, 0.01066003536858572
894.0, 0.009227483936780594
895.0, 0.0146647647970569
896.0, 0.014378642584831968
897.0, 0.01327289594246364
898.0, 0.015061949481581434
899.0, 0.01118886523797905
900.0, 0.004622197575521916
901.0, 0.00844019880364641
902.0, 0.008269775826546739
903.0, 0.012832911985657131
904.0, 0.01623154726724077
905.0, 0.02009167842014188
906.0, 0.014278670626850993
907.0, 0.007094365992882371
908.0, 0.008069221388183627
909.0, 0.005660435734620043
910.0, 0.003935019215774726
911.0, 0.008337136328872138
912.0, 0.017216493951324928
913.0, 0.016202350539572592
914.0, 0.017008340400584583
915.0, 0.020301602913822915
916.0, 0.019360465256199198
917.0, 0.024158319686163075
918.0, 0.02160951235081462
919.0, 0.03009212398591564
920.0, 0.023579786469089776
921.0, 0.023201025464046402
922.0, 0.030868072999226868
923.0, 0.03209459018567922
924.0, 0.024560251429020633
925.0, 0.024799664066510227
926.0, 0.026917387273950422
927.0, 0.02248720948276461
928.0, 0.026296199349721182
929.0, 0.023014593223241595
930.0, 0.017993688736707068
931.0, 0.01713670578167316
932.0, 0.016894470558101393
933.0, 0.020574245538996415
934.0, 0.02158289825237057
935.0, 0.01728549315999595
936.0, 0.025167287066172033
937.0, 0.03634676632103917
938.0, 0.04524976646083182
939.0, 0.048225814889236766
940.0, 0.04297132643227372
941.0, 0.04033161002187828
942.0, 0.04685518507098563
943.0, 0.04153064780984413
944.0, 0.04052440783605273
945.0, 0.04132607920090232
946.0, 0.0382610203038558
947.0, 0.03940330288987952
948.0, 0.035262826496086704
949.0, 0.03794618985496781
950.0, 0.03567770804507883
951.0, 0.033719792118264945
952.0, 0.03294830248514724
953.0, 0.02442566828102776
954.0, 0.018335522707014246
955.0, 0.015240118093907323
956.0, 0.010730254953422424
957.0, 0.010598368661186923
958.0, 0.017212783032200342
959.0, 0.0053565598389328575
960.0, 0.009268800697755791
961.0, 0.011526105129336392
962.0, 0.012018704015603454
963.0, 0.006376879304965915
964.0, 0.011327856758277723
965.0, 0.004428438139722534
966.0, 0.004878216085217561
967.0, 0.009012432091113912
968.0, 0.006645061473619617
969.0, 0.004981361950055461
970.0, 0.0068360150904619044
971.0, 0.00952613386230601
972.0, 0.011179869443001174
973.0, 0.011760317064000868
974.0, 0.005824325446993645
975.0, 0.009807982443100174
976.0, 0.008756790728107042
977.0, 0.010632675640201626
978.0, 0.008935203042330348
979.0, 0.0073735982169675736
980.0, 0.0108518160242436
981.0, 0.01388983040248284
982.0, 0.01089685405016405
983.0, 0.008087753629468954
984.0, 0.010322824168286282
985.0, 0.010494487153466079
986.0, 0.016700532585684314
987.0, 0.023678898389735963
988.0, 0.023468800290942414
989.0, 0.021444127536074515
990.0, 0.024592779787488965
991.0, 0.029719357530920223
992.0, 0.03346527390904271
993.0, 0.027349605895194924
994.0, 0.028501806345485096
995.0, 0.03943976659427635
996.0, 0.04664007778755329
997.0, 0.047618235118607466
998.0, 0.050281484360080946
999.0, 0.0539024076458038
1000.0, 0.05588062280049608
1001.0, 0.059449345993563926
1002.0, 0.061189234656113575
1003.0, 0.06554864477356594
1004.0, 0.0633320242358811
1005.0, 0.061417656365421576
1006.0, 0.06522697602444322
1007.0, 0.07052897096902665
1008.0, 0.0733603487019204
1009.0, 0.08132394045259425
1010.0, 0.10066028417386978
1011.0, 0.0921262687159584
1012.0, 0.09061043564369932
1013.0, 0.10490128998095986
1014.0, 0.10620465316697776
1015.0, 0.1093236846488751
1016.0, 0.11874221013767393
1017.0, 0.11796900547809616
1018.0, 0.11983252449970223
1019.0, 0.12997285446183995
1020.0, 0.13736652500609342
1021.0, 0.1302563019018438
1022.0, 0.1237619060428706
1023.0, 0.12141445086601602
1024.0, 0.11314865421282655
1025.0, 0.10535431593829475
1026.0, 0.10011699906129239
1027.0, 0.08259395118289745
1028.0, 0.08321724515821854
1029.0, 0.07526118087112467
1030.0, 0.05365355274977667
1031.0, 0.04662139888526507
1032.0, 0.030555754710348337
1033.0, 0.011654375883976551
1034.0, 0.01583822952850313
1035.0, 0.007619324408097965
1036.0, 0.004611934166975229
1037.0, 0.007517459158633586
1038.0, 0.004487312132835798
1039.0, 0.006412847906957248
1040.0, 0.006433034721161838
1041.0, 0.010109602871209038
1042.0, 0.006427807761388125
1043.0, 0.007943736129013744
1044.0, 0.011330371436213424
1045.0, 0.0067080496155552
1046.0, 0.022183160401552906
1047.0, 0.013169378399627627
1048.0, 0.015063150254824931
1049.0, 0.017576416016874107
1050.0, 0.024122219230141666
1051.0, 0.025666974074903606
1052.0, 0.02066026434233759
1053.0, 0.020381770672088184
1054.0, 0.026638194175672415
1055.0, 0.025943651930776385
1056.0, 0.019481084965049095
1057.0, 0.022434168261874568
1058.0, 0.02673122908352923
1059.0, 0.03255322224160739
1060.0, 0.04062506795568235
1061.0, 0.04041183008259121
1062.0, 0.03995451427825736
1063.0, 0.049848327026424395
1064.0, 0.05865008699651694
1065.0, 0.06191086115192668
1066.0, 0.07177315743203111
1067.0, 0.0710451645147524
1068.0, 0.07286309530364532
1069.0, 0.07584609155432777
1070.0, 0.08475335538783677
1071.0, 0.09342107860250635
1072.0, 0.0999634201393639
1073.0, 0.10275358969799767
1074.0, 0.09614338686160756
1075.0, 0.09466711583075273
1076.0, 0.0859355088250203
1077.0, 0.0938512896427263
1078.0, 0.08268843302045038
1079.0, 0.06894224361303636
1080.0, 0.06746533579734193
1081.0, 0.0624131419030645
1082.0, 0.05828479837357116
1083.0, 0.054481705046368026
1084.0, 0.05230948290694466
1085.0, 0.05599420517359958
1086.0, 0.054393502587244284
1087.0, 0.055370839143234006
1088.0, 0.05650524080065933
1089.0, 0.05790806404509796
1090.0, 0.05910920251382188
1091.0, 0.06031899088329421
1092.0, 0.06118065759280559
1093.0, 0.0665310636821747
1094.0, 0.07392845049497014
1095.0, 0.07228617077261185
1096.0, 0.07322160998059893
1097.0, 0.07480336524562307
1098.0, 0.08266906647415796
1099.0, 0.08504015573623865
1100.0, 0.09007704646775729
1101.0, 0.10220783708109746
1102.0, 0.10654116485405259
1103.0, 0.09789969816121517
1104.0, 0.0911242410879548
1105.0, 0.09018814387237915
1106.0, 0.08166295345622789
1107.0, 0.08006140256060042
1108.0, 0.06879173520603751
1109.0, 0.06296552394851401
1110.0, 0.05664913557071908
1111.0, 0.053042738856206244
1112.0, 0.049388885324085495
1113.0, 0.04621990920639651
1114.0, 0.04685401355429793
1115.0, 0.03782723584019646
1116.0, 0.026177097422816837
1117.0, 0.028946944878575086
1118.0, 0.014406446540962611
1119.0, 0.02400956810657632
1120.0, 0.026593886063958898
1121.0, 0.014841442077630898
1122.0, 0.01103132706353348
1123.0, 0.007667975041846891
1124.0, 0.007378959884749622
1125.0, 0.0217475056197222
1126.0, 0.024763847356762993
1127.0, 0.01984769947237307
1128.0, 0.015382167926282648
1129.0, 0.02578868576182902
1130.0, 0.019153783104377178
1131.0, 0.011227043742687409
1132.0, 0.013523449036866296
1133.0, 0.017228260238307206
1134.0, 0.014594650936738077
1135.0, 0.007643310927081462
1136.0, 0.00551189246109134
1137.0, 0.015334681766539826
1138.0, 0.008812854166216666
1139.0, 0.004121042721153688
1140.0, 0.011588239260029432
1141.0, 0.014871176654081122
1142.0, 0.0096803354653077
1143.0, 0.007571170433284658
1144.0, 0.008536306020227855
1145.0, 0.021876376169766683
1146.0, 0.025585341751338482
1147.0, 0.02295065843783272
1148.0, 0.027750813236617294
1149.0, 0.01962311135118763
1150.0, 0.016612105084619723
1151.0, 0.00994543144622544
1152.0, 0.015636460538180283
1153.0, 0.016068648380840267
1154.0, 0.011549709874467524
1155.0, 0.006534689437329356
1156.0, 0.004289119619058636
1157.0, 0.006886730819300458
1158.0, 0.011974412062490782
1159.0, 0.0037854745380811864
1160.0, 0.011345604868063595
1161.0, 0.0043197225031539905
1162.0, 0.006470991017553609
1163.0, 0.006629926211185581
1164.0, 0.01132630569479917
1165.0, 0.0061465676873588195
1166.0, 0.0070724860900766625
1167.0, 0.007362341155752367
1168.0, 0.006287681734058909
1169.0, 0.009685983581910335
1170.0, 0.006984900659886471
1171.0, 0.020118752381186624
1172.0, 0.011397140383178902
1173.0, 0.010955257718094047
1174.0, 0.005115100679525553
1175.0, 0.01311858265924221
1176.0, 0.007456645760780168
1177.0, 0.008755916228038707
1178.0, 0.0054894516361041505
1179.0, 0.015022160792221791
1180.0, 0.012904963240039168
1181.0, 0.006388786179255324
1182.0, 0.00587833141803794
1183.0, 0.006197302485578501
1184.0, 0.004664082934113929
1185.0, 0.00854575906479605
1186.0, 0.00830534104911815
1187.0, 0.009895587350348276
1188.0, 0.0124346487558222
1189.0, 0.013283964556634588
1190.0, 0.016018086662870263
1191.0, 0.028681727774308156
1192.0, 0.031832326128431274
1193.0, 0.024956465868167646
1194.0, 0.035125962690027684
1195.0, 0.04262610030182763
1196.0, 0.05586542160329005
1197.0, 0.0569413245554009
1198.0, 0.05303014726160684
1199.0, 0.05041374428204542
1200.0, 0.04970490012274278
1201.0, 0.05587386383139109
1202.0, 0.053295158796748135
1203.0, 0.032428833517269814
1204.0, 0.020846001004230973
1205.0, 0.030927685409695142
1206.0, 0.02671707333873918
1207.0, 0.02770335134107814
1208.0, 0.015819858517992617
1209.0, 0.01675214770123406
1210.0, 0.01891956955692699
1211.0, 0.013274978105612296
1212.0, 0.021608700520130558
1213.0, 0.030863582731662127
1214.0, 0.024094715285701767
1215.0, 0.02128959631884735
1216.0, 0.029348595272189006
1217.0, 0.028091247350880415
1218.0, 0.019568369725440807
1219.0, 0.029765220505192577
1220.0, 0.036049728746623606
1221.0, 0.024221021455302808
1222.0, 0.02870743066096054
1223.0, 0.021120041348914008
1224.0, 0.022723438541470777
1225.0, 0.016738166575644486
1226.0, 0.01288719699907673
1227.0, 0.014557367975362912
1228.0, 0.019816478183386412
1229.0, 0.019342128590269004
1230.0, 0.011294611613029807
1231.0, 0.014317272294431437
1232.0, 0.02122564515642346
1233.0, 0.01810577001277736
1234.0, 0.018841832781000142
1235.0, 0.01910322507761927
1236.0, 0.006627366270646834
1237.0, 0.006639130082071294
1238.0, 0.008364386891470791
1239.0, 0.010777359238259348
1240.0, 0.01331665050976757
1241.0, 0.011889994866121441
1242.0, 0.006399292745913273
1243.0, 0.005715713304072277
1244.0, 0.013376407579884989
1245.0, 0.017435304455546106
1246.0, 0.013164979732162194
1247.0, 0.015107184720979806
1248.0, 0.019057021986487642
1249.0, 0.013650383128164129
1250.0, 0.010771093278829445
1251.0, 0.007717219197449541
1252.0, 0.005046956196027133
1253.0, 0.010661319505545509
1254.0, 0.011953658678255735
1255.0, 0.01245807488703873
1256.0, 0.014009527382372391
1257.0, 0.009490546939273056
1258.0, 0.011281341866747494
1259.0, 0.009070028691647494
1260.0, 0.02032030636116525
1261.0, 0.00908325618963087
1262.0, 0.013635935328640434
1263.0, 0.015586089329717957
1264.0, 0.0065987201869356134
1265.0, 0.00926395868261995
1266.0, 0.018013291024502793
1267.0, 0.013835042793005726
1268.0, 0.02025843765130248
1269.0, 0.021101623049331268
1270.0, 0.01440252851509495
1271.0, 0.018495166504355627
1272.0, 0.019829398782500857
1273.0, 0.02154881644965233
1274.0, 0.025782016549011397
1275.0, 0.02059921320619621
1276.0, 0.027375470140708662
1277.0, 0.009740178479266344
1278.0, 0.017097459764637585
1279.0, 0.007309146262488268
1280.0, 0.009015547976435957
1281.0, 0.010541462805457457
1282.0, 0.00671838825441977
1283.0, 0.004409214743404043
1284.0, 0.011422352479069607
1285.0, 0.011204223071364077
1286.0, 0.005334041621343888
1287.0, 0.017305445248105338
1288.0, 0.013657610236803985
1289.0, 0.018738750228288036
1290.0, 0.018741853869535977
1291.0, 0.015531644052839673
1292.0, 0.004201864456876695
1293.0, 0.018076996418060168
1294.0, 0.022979661990167315
1295.0, 0.017545374402370518
1296.0, 0.010699455547115917
1297.0, 0.011862960750902513
1298.0, 0.015487041032566375
1299.0, 0.014186515820566667
1300.0, 0.007756534416561743
1301.0, 0.004190812292723587
1302, 0.0
1303, 0.0
1304, 0.0
1305, 0.0
1306, 0.0
1307, 0.0
1308, 0.0
1309, 0.0
1310, 0.0
1311, 0.0
1312, 0.0
1313, 0.0
1314, 0.0
1315, 0.0
1316, 0.0
1317, 0.0
1318, 0.0
1319, 0.0
1320, 0.0
1321, 0.0
1322, 0.0
1323, 0.0
1324, 0.0
1325, 0.0
1326, 0.0
1327, 0.0
1328, 0.0
1329, 0.0
1330, 0.0
1331, 0.0
1332, 0.0
1333, 0.0
1334, 0.0
1335, 0.0
1336, 0.0
1337, 0.0
1338, 0.0
1339, 0.0
1340, 0.0
1341, 0.0
1342, 0.0
1343, 0.0
1344, 0.0
1345, 0.0
1346, 0.0
1347, 0.0
1348, 0.0
1349, 0.0
1350, 0.0
1351, 0.0
1352, 0.0
1353, 0.0
1354, 0.0
1355, 0.0
1356, 0.0
1357, 0.0
1358, 0.0
1359, 0.0
1360, 0.0
1361, 0.0
1362, 0.0
1363, 0.0
1364, 0.0
1365, 0.0
1366, 0.0
1367, 0.0
1368, 0.0
1369, 0.0
1370, 0.0
1371, 0.0
1372, 0.0
1373, 0.0
1374, 0.0
1375, 0.0
1376, 0.0
1377, 0.0
1378, 0.0
1379, 0.0
1380, 0.0
1381, 0.0
1382, 0.0
1383, 0.0
1384, 0.0
1385, 0.0
1386, 0.0
1387, 0.0
1388, 0.0
1389, 0.0
1390, 0.0
1391, 0.0
1392, 0.0
1393, 0.0
1394, 0.0
1395, 0.0
1396, 0.0
1397, 0.0
1398, 0.0
1399, 0.0
1400, 0.0
1401, 0.0
1402, 0.0
1403, 0.0
1404, 0.0
1405, 0.0
1406, 0.0
1407, 0.0
1408, 0.0
1409, 0.0
1410, 0.0
1411, 0.0
1412, 0.0
1413, 0.0
1414, 0.0
1415, 0.0
1416, 0.0
1417, 0.0
1418, 0.0
1419, 0.0
1420, 0.0
1421, 0.0
1422, 0.0
1423, 0.0
1424, 0.0
1425, 0.0
1426, 0.0
1427, 0.0
1428, 0.0
1429, 0.0
1430, 0.0
1431, 0.0
1432, 0.0
1433, 0.0
1434, 0.0
1435, 0.0
1436, 0.0
1437, 0.0
1438, 0.0
1439, 0.0
1440, 0.0
1441, 0.0
1442, 0.0
1443, 0.0
1444, 0.0
1445, 0.0
1446, 0.0
1447, 0.0
1448, 0.0
1449, 0.0
1450, 0.0
1451, 0.0
1452, 0.0
1453, 0.0
1454, 0.0
1455, 0.0
1456, 0.0
1457, 0.0
1458, 0.0
1459, 0.0
1460, 0.0
1461, 0.0
1462, 0.0
1463, 0.0
1464, 0.0
1465, 0.0
1466, 0.0
1467, 0.0
1468, 0.0
1469, 0.0
1470, 0.0
1471, 0.0
1472, 0.0
1473, 0.0
1474, 0.0
1475, 0.0
1476, 0.0
1477, 0.0
1478, 0.0
1479, 0.0
1480, 0.0
1481, 0.0
1482, 0.0
1483, 0.0
1484, 0.0
1485, 0.0
1486, 0.0
1487, 0.0
1488, 0.0
1489, 0.0
1490, 0.0
1491, 0.0
1492, 0.0
1493, 0.0
1494, 0.0
1495, 0.0
1496, 0.0
1497, 0.0
1498, 0.0
1499, 0.0
1500, 0.0
1501, 0.0
1502, 0.0
1503, 0.0
1504, 0.0
1505, 0.0
1506, 0.0
1507, 0.0
1508, 0.0
1509, 0.0
1510, 0.0
1511, 0.0
1512, 0.0
1513, 0.0
1514, 0.0
1515, 0.0
1516, 0.0
1517, 0.0
1518, 0.0
1519, 0.0
1520, 0.0
1521, 0.0
1522, 0.0
1523, 0.0
1524, 0.0
1525, 0.0
1526, 0.0
1527, 0.0
1528, 0.0
1529, 0.0
1530, 0.0
1531, 0.0
1532, 0.0
1533, 0.0
1534, 0.0
1535, 0.0
1536, 0.0
1537, 0.0
1538, 0.0
1539, 0.0
1540, 0.0
1541, 0.0
1542, 0.0
1543, 0.0
1544, 0.0
1545, 0.0
1546, 0.0
1547, 0.0
1548, 0.0
1549, 0.0
1550, 0.0
1551, 0.0
1552, 0.0
1553, 0.0
1554, 0.0
1555, 0.0
1556, 0.0
1557, 0.0
1558, 0.0
1559, 0.0
1560, 0.0
1561, 0.0
1562, 0.0
1563, 0.0
1564, 0.0
1565, 0.0
1566, 0.0
1567, 0.0
1568, 0.0
1569, 0.0
1570, 0.0
1571, 0.0
1572, 0.0
1573, 0.0
1574, 0.0
1575, 0.0
1576, 0.0
1577, 0.0
1578, 0.0
1579, 0.0
1580, 0.0
1581, 0.0
1582, 0.0
1583, 0.0
1584, 0.0
1585, 0.0
1586, 0.0
1587, 0.0
1588, 0.0
1589, 0.0
1590, 0.0
1591, 0.0
1592, 0.0
1593, 0.0
1594, 0.0
1595, 0.0
1596, 0.0
1597, 0.0
1598, 0.0
1599, 0.0
