30, 0.0
31, 0.0
32, 0.0
33, 0.0
34, 0.0
35, 0.0
36, 0.0
37, 0.0
38, 0.0
39, 0.0
40, 0.0
41, 0.0
42, 0.0
43, 0.0
44, 0.0
45, 0.0
46, 0.0
47, 0.0
48, 0.0
49, 0.0
50, 0.0
51, 0.0
52, 0.0
53, 0.0
54, 0.0
55, 0.0
56, 0.0
57, 0.0
58, 0.0
59, 0.0
60, 0.0
61, 0.0
62, 0.0
63, 0.0
64, 0.0
65, 0.0
66, 0.0
67, 0.0
68, 0.0
69, 0.0
70, 0.0
71, 0.0
72, 0.0
73, 0.0
74, 0.0
75, 0.0
76, 0.0
77, 0.0
78, 0.0
79, 0.0
80, 0.0
81, 0.0
82, 0.0
83, 0.0
84, 0.0
85, 0.0
86, 0.0
87, 0.0
88, 0.0
89, 0.0
90, 0.0
91, 0.0
92, 0.0
93, 0.0
94, 0.0
95, 0.0
96, 0.0
97, 0.0
98, 0.0
99, 0.0
100, 0.0
101, 0.0
102, 0.0
103, 0.0
104, 0.0
105, 0.0
106, 0.0
107, 0.0
108, 0.0
109, 0.0
110, 0.0
111, 0.0
112, 0.0
113, 0.0
114, 0.0
115, 0.0
116, 0.0
117, 0.0
118, 0.0
119, 0.0
120, 0.0
121, 0.0
122, 0.0
123, 0.0
124, 0.0
125, 0.0
126, 0.0
127, 0.0
128, 0.0
129, 0.0
130, 0.0
131, 0.0
132, 0.0
133, 0.0
134, 0.0
135, 0.0
136.0, 0.001181613708916778
137.0, 0.0004919957553215299
138.0, 0.004198241239633095
139.0, 0.012081086204058367
140.0, 0.02327863281110938
141.0, 0.03612201032351908
142.0, 0.051012781625207136
143.0, 0.06922507497328301
144.0, 0.08670677764998365
145.0, 0.10471814381858119
146.0, 0.1241572017925886
147.0, 0.14465251419044395
148.0, 0.15631263712069982
149.0, 0.1635953243728779
150.0, 0.1652058222830113
151.0, 0.15936848420802957
152.0, 0.14944635588608268
153.0, 0.1346362651865547
154.0, 0.11510790798507789
155.0, 0.09371267577572615
156.0, 0.07519576606861501
157.0, 0.05663217704587537
158.0, 0.04280154633050954
159.0, 0.033131664425384504
160.0, 0.025951930520265266
161.0, 0.024550571708923958
162.0, 0.023966243182056684
163.0, 0.025021058717261378
164.0, 0.029378451119594896
165.0, 0.03433078270869158
166.0, 0.036141793367954374
167.0, 0.0365513781177115
168.0, 0.036353179789893865
169.0, 0.03357950945787527
170.0, 0.02995159010662383
171.0, 0.025320981853706962
172.0, 0.021159303448592404
173.0, 0.018422298691814883
174.0, 0.013281484546064783
175.0, 0.007568951822964484
176.0, 0.0026214614490375435
177.0, 0.0014637702636564878
178.0, 0.005479299646267998
179.0, 0.0073705976725073055
180.0, 0.0067466817945903935
181.0, 0.004159294621430044
182.0, 0.0011017025852777676
183.0, 0.00607175726622942
184.0, 0.015682702907674307
185.0, 0.02820637327037617
186.0, 0.04308385558560362
187.0, 0.059659889069270694
188.0, 0.08016475492345182
189.0, 0.10366704007251742
190.0, 0.12895403450147847
191.0, 0.15635293974377895
192.0, 0.18591986305555455
193.0, 0.21939520372075058
194.0, 0.2536354371354094
195.0, 0.2861226786357058
196.0, 0.3211586232565291
197.0, 0.35626247069557493
198.0, 0.39041303557204243
199.0, 0.42375236029416946
200.0, 0.45706559651799583
201.0, 0.4916884467162489
202.0, 0.5254725084721855
203.0, 0.5587893620356592
204.0, 0.5982744311463337
205.0, 0.6382079941172346
206.0, 0.6801653841873758
207.0, 0.7248603987030693
208.0, 0.7708692805659325
209.0, 0.8157239742296712
210.0, 0.8612646834715899
211.0, 0.9040001626373263
212.0, 0.9406168974193879
213.0, 0.9703692352243561
214.0, 0.9914132884843713
215.0, 0.9999965326925013
216.0, 0.9972458505940373
217.0, 0.9842372109751907
218.0, 0.9560842824399823
219.0, 0.92325764511346
220.0, 0.890562885562601
221.0, 0.8592608051483029
222.0, 0.8291549175531052
223.0, 0.8036311405297992
224.0, 0.7824237957044895
225.0, 0.7663593393443903
226.0, 0.7569526055875038
227.0, 0.7526173923934647
228.0, 0.7488496190219016
229.0, 0.7462822076782952
230.0, 0.7442153925883528
231.0, 0.738606829550425
232.0, 0.7299071575563878
233.0, 0.7183898029658575
234.0, 0.7040417872173386
235.0, 0.6864265909428602
236.0, 0.6635718663903408
237.0, 0.635590741649735
238.0, 0.6042422462193459
239.0, 0.5716000063196304
240.0, 0.541284139243679
241.0, 0.5095542040043706
242.0, 0.48079117570141533
243.0, 0.4554455204002172
244.0, 0.4313236056366567
245.0, 0.41005254486338705
246.0, 0.3869133243874693
247.0, 0.3638325907588839
248.0, 0.34163433426872225
249.0, 0.31577193964486455
250.0, 0.2896569927728417
251.0, 0.2647263453949252
252.0, 0.24098620834898307
253.0, 0.21825081816064235
254.0, 0.19742141752501816
255.0, 0.1792429026830252
256.0, 0.16464743599422976
257.0, 0.15353461225598886
258.0, 0.14509907250168944
259.0, 0.13781296075978505
260.0, 0.13315391009354852
261.0, 0.12984368428004245
262.0, 0.12673456137797776
263.0, 0.12476548643274184
264.0, 0.12476738836489915
265.0, 0.12421028507414228
266.0, 0.12293903941419376
267.0, 0.122430960319233
268.0, 0.1223684918578267
269.0, 0.12090918236685698
270.0, 0.11843858045007824
271.0, 0.11524416130905786
272.0, 0.11075385328980597
273.0, 0.10498935168663664
274.0, 0.09874252110033731
275.0, 0.09129575984463217
276.0, 0.08172752550278865
277.0, 0.0702105978630615
278.0, 0.05809645012089089
279.0, 0.04592471774544886
280.0, 0.03421797305641582
281.0, 0.023551728903963395
282.0, 0.013449637538512233
283.0, 0.004549453823302567
284.0, 0.0016351779587378697
285.0, 0.005518534445725951
286.0, 0.009953121862373371
287.0, 0.012295950431598588
288.0, 0.013133741202937862
289.0, 0.01330163316106068
290.0, 0.012816942361829849
291.0, 0.010799880261738278
292.0, 0.008577207654430541
293.0, 0.004817780230904561
294.0, 0.0009906751184431714
295.0, 0.006886545981548923
296.0, 0.014449210477863478
297.0, 0.023295311275805683
298.0, 0.03428588805395466
299.0, 0.046213657224526014
300.0, 0.056572181717843596
301.0, 0.06564463174322342
302.0, 0.07498687875074252
303.0, 0.08320144987907876
304.0, 0.08954562091226703
305.0, 0.09553329120121842
306.0, 0.10368882555563963
307.0, 0.11373977213566978
308.0, 0.12556316743465684
309.0, 0.13977272517551506
310.0, 0.15898521761271792
311.0, 0.1805836718800191
312.0, 0.20546759285083124
313.0, 0.2340026110940147
314.0, 0.26479966982123526
315.0, 0.29384232680869476
316.0, 0.3176762176836299
317.0, 0.33462635468958796
318.0, 0.3422432244179037
319.0, 0.33933862931295344
320.0, 0.3304163191542411
321.0, 0.3197339384143792
322.0, 0.3127189536969211
323.0, 0.3124745375821827
324.0, 0.3185863021454653
325.0, 0.32969932108179223
326.0, 0.34623815752951737
327.0, 0.36758540699132886
328.0, 0.3912046185081092
329.0, 0.41365107340197543
330.0, 0.4287272980928862
331.0, 0.4305960099053887
332.0, 0.41951583610785653
333.0, 0.39813270203750817
334.0, 0.37098975336198214
335.0, 0.3465011945735132
336.0, 0.3267371686423511
337.0, 0.3137266885800575
338.0, 0.30879531811638083
339.0, 0.3093337474343728
340.0, 0.3140829074369065
341.0, 0.31950436511783387
342.0, 0.3207832678887533
343.0, 0.31232384884382364
344.0, 0.29054106469229296
345.0, 0.2554807515814716
346.0, 0.21263629203232792
347.0, 0.16803455380834245
348.0, 0.126875047060818
349.0, 0.09389960463139736
350.0, 0.06857246838225567
351.0, 0.04972158909209806
352.0, 0.03652026407111241
353.0, 0.02755889869926139
354.0, 0.021002561792073698
355.0, 0.01596715364569889
356.0, 0.011991552096997987
357.0, 0.008959252449030904
358.0, 0.006863239651452241
359.0, 0.00506967283821798
360.0, 0.003680360185558592
361.0, 0.0025660687551116628
362.0, 0.0017521623426598894
363.0, 0.0014241091041542371
364.0, 0.0013179068174928059
365.0, 0.0009533362877252531
366.0, 0.0006491494785596546
367.0, 0.0004412670445262115
368.0, 7.649533170434207e-05
369.0, 0.0001756871758469316
370.0, 0.00019441414710601236
371.0, 5.8381523292085874e-05
372.0, 4.429296053916454e-05
373.0, 8.797807052317324e-05
374.0, 0.0005590591254191989
375.0, 0.00048345734060719036
376.0, 0.0005777669871218378
377.0, 0.0010034425358615734
378.0, 0.0007531471177262507
379.0, 0.0007101259817888141
380.0, 0.0010832224352691421
381.0, 0.0012885719644954077
382.0, 0.0013127638650012393
383.0, 0.0017892498067747587
384.0, 0.0015338211877133226
385.0, 0.0016051060971005874
386.0, 0.0016222472993707069
387.0, 0.0014739633635997812
388.0, 0.0017377615310180572
389.0, 0.0021476281103786797
390.0, 0.0022027302800511706
391.0, 0.0019029688260539146
392.0, 0.0018168033023533065
393.0, 0.0022487777438024706
394.0, 0.002380181402085498
395.0, 0.0023414987991552867
396.0, 0.00239726275907393
397.0, 0.0024496985862609484
398.0, 0.002384798038554693
399.0, 0.0025882371100810716
400.0, 0.002457627418593304
401.0, 0.0027141922434149464
402.0, 0.0031549193179161686
403.0, 0.0031282024907797563
404.0, 0.0026650651319033397
405.0, 0.002896281887931411
406.0, 0.0033590880013634533
407.0, 0.0035370932345838973
408.0, 0.003436887359156811
409.0, 0.0038489848714644355
410.0, 0.004058240299466497
411.0, 0.00402522786600314
412.0, 0.003982238752134016
413.0, 0.004085616424381788
414.0, 0.004277503701427514
415.0, 0.004411563086343268
416.0, 0.004342485073907005
417.0, 0.004060026977897783
418.0, 0.003756480930447145
419.0, 0.003774855995397664
420.0, 0.003567111810630382
421.0, 0.0035556589777261637
422.0, 0.003367396432304133
423.0, 0.003038145531366355
424.0, 0.0032019891778626627
425.0, 0.003205850913655982
426.0, 0.0030488300215327714
427.0, 0.002924947021508615
428.0, 0.0027805730947575904
429.0, 0.0025404663735041247
430.0, 0.0023996486379252984
431.0, 0.002264975582732464
432.0, 0.0021647253847025517
433.0, 0.0022539935938983907
434.0, 0.002381368644394118
435.0, 0.002088214345575198
436.0, 0.002353906961403421
437.0, 0.0020310328916054105
438.0, 0.001730982114305449
439.0, 0.0018381018835914194
440.0, 0.0017754125829287622
441.0, 0.0019410677996350625
442.0, 0.0018565157638913855
443.0, 0.0017668395408889789
444.0, 0.0018018412288862077
445.0, 0.0017332608025943078
446.0, 0.0013195320463579236
447.0, 0.0014897227032077793
448.0, 0.0014525845541498896
449.0, 0.001051206601483835
450.0, 0.0008207924821117406
451.0, 0.0011469094569621712
452.0, 0.0009593174877688407
453.0, 0.0010622699994200409
454.0, 0.0012500657428618264
455.0, 0.0011903101566362521
456.0, 0.0009781670306544695
457.0, 0.0008251501607902
458.0, 0.0009228242463995486
459.0, 0.0009542927502374141
460.0, 0.0007996173147769201
461.0, 0.0007056072225187922
462.0, 0.0009251125111206475
463.0, 0.0006060799376930504
464.0, 0.000542188980890919
465.0, 0.0005857504079040852
466.0, 0.00030639425950350596
467.0, 0.00032824778160634176
468.0, 0.00043706142469466944
469.0, 0.0001843036396002242
470.0, 0.0001704327490142907
471.0, 0.0005193808137578422
472.0, 0.0005405337816977247
473.0, 0.0002755964298170374
474.0, 3.2550807727964746e-05
475.0, 6.433790270387487e-05
476.0, 0.00016496271124222492
477.0, 2.355091474698937e-05
478.0, 9.939661408965594e-05
479.0, 0.00023525211112391688
480.0, 0.0001483736261569804
481.0, 0.00014533459413088246
482.0, 0.0003666046371131764
483.0, 0.0004802651223545018
484.0, 0.0004904055897911057
485.0, 0.00048416389047573527
486.0, 0.0006205332854341203
487.0, 0.0005159925257382114
488.0, 0.00012251259741181714
489.0, 0.00030416814301944216
490.0, 0.0005402251548266194
491.0, 0.000616304383289988
492.0, 0.0005437080682055941
493.0, 0.0003591092446254235
494.0, 0.00015212334967212992
495.0, 0.0002701817871288657
496.0, 9.272751793631979e-05
497.0, 1.8127687065187392e-05
498.0, 5.610479662686821e-05
499.0, 0.00015354016772589158
500.0, 0.0002033182984692753
501.0, 0.0002758849306557145
502.0, 0.00028636337155965504
503.0, 0.00015913046137066403
504.0, 3.270673013851591e-05
505.0, 6.445549512849106e-05
506.0, 0.00010051688924819188
507.0, 0.00022237618825251442
508.0, 7.788403667758362e-05
509.0, 0.00011928002150619632
510.0, 0.00017627867202455323
511.0, 0.00024798679869996837
512.0, 0.00013308960602636218
513.0, 0.00017201475103823904
514.0, 0.00024528869279559945
515.0, 0.00014738738905704167
516.0, 0.00036605703844276816
517.0, 0.0003719924290533416
518.0, 0.00026245447626543585
519.0, 0.00037264144404608245
520.0, 0.0005056024578006408
521.0, 0.0004961224268552663
522.0, 0.000385418235767907
523.0, 0.00025439338047214587
524.0, 0.0005172047775720073
525.0, 0.0004667665112876503
526.0, 0.0003471353453518716
527.0, 0.0005156946097498853
528.0, 0.0006308522901724421
529.0, 0.0003516497298182801
530.0, 0.0004559226317822435
531.0, 0.0003766173135122202
532.0, 0.00026964261654483044
533.0, 0.0004757535941677361
534.0, 0.0005237763389110685
535.0, 0.000633171454110029
536.0, 0.0005402401421134427
537.0, 0.0004434500660426205
538.0, 0.0005573808749802663
539.0, 0.0008210950440400237
540.0, 0.00024401154218315087
541.0, 0.00015981376627783255
542.0, 0.0004922929089591743
543.0, 0.0005952866515621382
544.0, 0.00031777098987202765
545.0, 0.00018075964588021575
546.0, 0.00023456860459013685
547.0, 0.00022089773594621506
548.0, 0.0002645197147698691
549.0, 0.00019649522925130924
550.0, 7.536904998024294e-05
551.0, 0.00027719241470449806
552.0, 0.00018383127173865382
553.0, 0.0005277947468800873
554.0, 0.0005166026630759556
555.0, 0.00030076098414828263
556.0, 0.0003441855248022028
557.0, 0.00046364591853580026
558.0, 0.000586276599373233
559.0, 0.0007114223330732562
560.0, 0.0007721837918146544
561.0, 0.0007559124197815888
562.0, 0.0007328901472862533
563.0, 0.0007751435795126211
564.0, 0.0007425080643890229
565.0, 0.0008073961294327241
566.0, 0.0009696264333885544
567.0, 0.0012310522954429263
568.0, 0.0014770863663389454
569.0, 0.0013248443224436867
570.0, 0.0012686426474880772
571.0, 0.00130161785606638
572.0, 0.0014923850080061673
573.0, 0.0016587929660245443
574.0, 0.0016994013727765097
575.0, 0.001788890672770509
576.0, 0.0017322153946009052
577.0, 0.0017685480235434586
578.0, 0.0017557949926184742
579.0, 0.0017577538650390627
580.0, 0.001906034010029637
581.0, 0.002064930437445782
582.0, 0.001973578247266369
583.0, 0.0019868294497505825
584.0, 0.0020164215804818757
585.0, 0.00189879300749456
586.0, 0.0017532879107900307
587.0, 0.0018574383337722038
588.0, 0.0018847424244607205
589.0, 0.0018177746391870246
590.0, 0.0016471130449123928
591.0, 0.0015157428831637939
592.0, 0.0015502995202061572
593.0, 0.001819594755829721
594.0, 0.0016759313724946494
595.0, 0.0017541329719198417
596.0, 0.001590181736757628
597.0, 0.0012871929463778638
598.0, 0.0011904672298808654
599.0, 0.0012179258003943542
600.0, 0.0012405590123296555
601.0, 0.0011915694775193302
602.0, 0.0012704767811146432
603.0, 0.0012971606254144209
604.0, 0.0011416693481462634
605.0, 0.0009389165528081158
606.0, 0.0010077313909347826
607.0, 0.0010339240262747591
608.0, 0.0009692330202078221
609.0, 0.00081493538124726
610.0, 0.0005983425510795107
611.0, 0.000454940505448327
612.0, 0.0004615495076134176
613.0, 0.0006116246583363055
614.0, 0.00046607013352139003
615.0, 0.00034166846752233573
616.0, 0.00039389260194539985
617.0, 0.00048382043167608885
618.0, 0.000551923641288612
619.0, 0.0004909043374660525
620.0, 0.0005015410336285099
621.0, 0.0003327741428350947
622.0, 9.905552506406739e-05
623.0, 2.4708313239952766e-05
624.0, 3.863403588355234e-05
625.0, 0.00017027351000391714
626.0, 0.00024180894589728128
627.0, 0.00021580092726950935
628.0, 8.944695740305813e-05
629.0, 5.4236561282971626e-05
630.0, 0.00024081979040818538
631.0, 0.0001580674087483543
632.0, 0.00023052015579557307
633.0, 0.0002994848503983206
634.0, 0.0003570431572967821
635.0, 0.00036872218329049035
636.0, 0.0003735209832221549
637.0, 0.0005421544976352415
638.0, 0.00046164863282382546
639.0, 0.00045834501970460495
640.0, 0.0004495369625637591
641.0, 0.0005301298647683883
642.0, 0.0006858340581671064
643.0, 0.0007130773491860822
644.0, 0.0007313460815262155
645.0, 0.000759583753339739
646.0, 0.0009382590033897475
647.0, 0.0010076834478922497
648.0, 0.0009889002466571
649.0, 0.0010567805987151417
650.0, 0.0010661830512137527
651.0, 0.0010911189055341707
652.0, 0.001063204787735275
653.0, 0.0010051204553984865
654.0, 0.0010252686481437231
655.0, 0.0010556823265253726
656.0, 0.0009614648376669491
657.0, 0.0009781987929286767
658.0, 0.0013599311845486604
659.0, 0.001267963277563282
660.0, 0.0012130924300178562
661.0, 0.001368767917378116
662.0, 0.0014235528566224362
663.0, 0.0013607248327227853
664.0, 0.0015078099707676676
665.0, 0.0015737790872768656
666.0, 0.001550012778621617
667.0, 0.0014839107911286274
668.0, 0.0013988735090384305
669.0, 0.001402762661540499
670.0, 0.0016462567480757962
671.0, 0.0017049406154793453
672.0, 0.0017048517112988606
673.0, 0.0015809978975251195
674.0, 0.0015204770394341388
675.0, 0.0016211569281208394
676.0, 0.0016619135747643213
677.0, 0.001492087691732624
678.0, 0.0014770924537415209
679.0, 0.0014198594716160178
680.0, 0.001418632940054279
681.0, 0.0015180269006810812
682.0, 0.0014931551747200116
683.0, 0.001324435212528874
684.0, 0.0013267898387030038
685.0, 0.0011016187503946084
686.0, 0.0010973701659094087
687.0, 0.0009481268569771638
688.0, 0.0006577419809900101
689.0, 0.0007333619219348517
690.0, 0.000833646558338102
691.0, 0.000650803841156865
692.0, 0.00047439885053824596
693.0, 0.0004291869562688617
694.0, 0.0003828669446402332
695.0, 0.0002975833329087523
696.0, 0.00027975365954336853
697.0, 0.00022915881619131547
698.0, 0.00016718752771719317
699.0, 3.258639652600855e-05
700.0, 9.21509729827584e-06
701.0, 3.867545231746955e-05
702.0, 7.780923095486637e-05
703.0, 9.838099241909134e-05
704.0, 0.00013418181650781165
705.0, 3.0220146434317555e-05
706.0, 1.2154870589380482e-05
707.0, 4.4064533198765925e-05
708.0, 2.7754626748254867e-05
709.0, 6.472243015296228e-05
710.0, 5.310964941588055e-06
711.0, 0.0001350591636867894
712.0, 1.3589183843170181e-05
713.0, 8.276065477923519e-05
714.0, 3.523777904227462e-05
715.0, 1.4022468171846442e-05
716.0, 4.539844989214212e-05
717.0, 8.466286169054654e-05
718.0, 0.00014087191057150864
719.0, 0.00012865403837630752
720.0, 4.9786346623804265e-05
721.0, 0.00012697651122932452
722.0, 0.00016768901830846103
723.0, 0.00010356095843783042
724.0, 0.00015564079359726556
725.0, 0.00013399245075732964
726.0, 0.0001365092931827336
727.0, 0.00012851981652872637
728.0, 9.763782008672245e-05
729.0, 0.00022302954657866505
730.0, 0.00040059938657453683
731.0, 0.0003559324453359041
732.0, 0.0002411188608946154
733.0, 0.00020598582665291805
734.0, 0.0002166441386098147
735.0, 0.0002610045148592678
736.0, 0.000245501912390539
737.0, 0.0002756001546898868
738.0, 0.00042076681280150507
739.0, 0.00037039597865851613
740.0, 0.0003538125678495144
741.0, 0.00020982370407705522
742.0, 0.0003180943680959129
743.0, 0.0004009808115804768
744.0, 0.0003452541150188694
745.0, 0.0003494027089677703
746.0, 0.00020775057498092787
747.0, 0.0003429076337121314
748.0, 0.00036639094373322256
749.0, 0.0003425241267169364
750.0, 0.00041342568272230185
751.0, 0.0003473268222497422
752.0, 0.00019188637633182597
753.0, 0.0004319584226235268
754.0, 0.00026089970894409807
755.0, 0.00033512730197989915
756.0, 0.0003425138142761864
757.0, 0.00023714007386915366
758.0, 0.00018381807298516222
759.0, 0.0002694986816650352
760.0, 0.000352966646872607
761.0, 0.00028295592442847067
762.0, 0.00038859090306117165
763.0, 0.00044117816181401615
764.0, 0.00037531751699556605
765.0, 0.0003648766940279367
766.0, 0.00028927684993111636
767.0, 0.00019345104566046898
768.0, 0.0004259854194288798
769.0, 0.00041027113097989254
770.0, 0.00034968728159373596
771.0, 0.00034170564726551417
772.0, 0.0003020042545588912
773.0, 0.00033196675786003184
774.0, 0.0003651420424738103
775.0, 0.00023372803266475612
776.0, 0.00022168590858241962
777.0, 0.0002367049081065573
778.0, 0.00012790981803465168
779.0, 8.248587063722751e-05
780.0, 6.472516007579042e-05
781.0, 9.435658361560092e-05
782.0, 0.00018343317211332155
783.0, 0.00014797061055552078
784.0, 0.000180500189056916
785.0, 0.0001315303887511487
786.0, 0.0001584986102591014
787.0, 0.00024835890686126903
788.0, 0.00030787697203893844
789.0, 0.00022772509460972575
790.0, 0.00010958912541913097
791.0, 0.00020517153293612294
792.0, 0.00012287854355562094
793.0, 6.04854766430543e-05
794.0, 0.00020626194726768363
795.0, 0.00019484360823231978
796.0, 0.000125713151529614
797.0, 0.0001808487364096736
798.0, 0.00018977946931192285
799.0, 3.638635999106825e-05
800.0, 7.82284160899083e-05
801.0, 3.4756153559380886e-05
802.0, 0.00023474786356908616
803.0, 0.00023548941827948374
804.0, 0.00010643499011634829
805.0, 9.532179764889304e-05
806.0, 8.110225160171011e-05
807.0, 7.77558640590002e-05
808.0, 0.00010186274797234454
809.0, 0.00012320517471705483
810.0, 0.00013324153572672858
811.0, 0.00013784797715416032
812.0, 0.00010163457317468493
813.0, 8.240452184796677e-05
814.0, 0.00010570929579543074
815.0, 0.00010528456085335378
816.0, 4.45029620572042e-05
817.0, 4.6315767557905546e-05
818.0, 4.991183733897162e-05
819.0, 6.269175116468137e-05
820.0, 4.50131160579264e-05
821.0, 5.0077428153555295e-05
822.0, 0.0001680548805176243
823.0, 2.3965172610498565e-05
824.0, 0.00014806928649469103
825.0, 0.00016107561196238186
826.0, 3.22869139168194e-05
827.0, 4.4434472503109645e-05
828.0, 0.00013311330955109553
829.0, 8.746784773424388e-05
830.0, 2.117604354906491e-05
831.0, 5.4455024925498226e-06
832.0, 5.476927847377742e-05
833.0, 0.00010817593368917924
834.0, 0.00014688465259877058
835.0, 0.00010837047892309698
836.0, 4.204404106561271e-05
837.0, 4.306979785990214e-05
838.0, 9.058644450626843e-05
839.0, 6.354642066071282e-05
840.0, 8.416817039978937e-05
841.0, 9.801553221989918e-05
842.0, 3.3902304651316715e-05
843.0, 3.744960921390512e-05
844.0, 0.0001580049876160854
845.0, 0.00016237026456331915
846.0, 1.3353456542024389e-05
847.0, 4.043249512467833e-05
848.0, 7.282851230899276e-05
849.0, 0.0001714317177020724
850.0, 5.311922431487206e-05
851.0, 3.6180304254585436e-05
852.0, 3.190656784135346e-05
853.0, 0.0001396903994330523
854.0, 0.0002409767724102622
855.0, 0.00013590394035669978
856.0, 0.0001650701629560588
857.0, 3.790614891301286e-05
858.0, 6.328249536649456e-05
859.0, 7.480358400264393e-05
860.0, 6.739024743051305e-05
861.0, 7.971348323779093e-05
862.0, 5.480993089923859e-05
863.0, 2.738562455550009e-05
864.0, 7.426483984023382e-05
865.0, 1.376819841704364e-05
866.0, 9.00156632185945e-05
867.0, 7.258591952822424e-05
868.0, 0.0001287227665468296
869.0, 0.00017692727308625964
870.0, 0.00015397046866439423
871.0, 6.150900869162507e-05
872.0, 1.8555861644839098e-05
873.0, 0.00013886992910866388
874.0, 7.310269693838745e-05
875.0, 0.00013639294028693305
876.0, 0.0001753311729699998
877.0, 4.8199732513818825e-05
878.0, 2.578783404913117e-05
879.0, 1.1315985283483442e-05
880.0, 9.480881442440893e-05
881.0, 9.86008708773419e-05
882.0, 6.22142926273893e-05
883.0, 3.728647607278069e-05
884.0, 0.00013140431275646486
885.0, 0.0001431973871344071
886.0, 0.00018980056496430153
887.0, 0.00019465588018430615
888.0, 0.0001228836615904662
889.0, 6.691379674576374e-05
890.0, 5.749436392997498e-05
891.0, 9.459492198774267e-05
892.0, 0.00020041056693749555
893.0, 0.00019775351970751338
894.0, 0.00015880501461866076
895.0, 0.00017027308500896235
896.0, 0.00017510612184240044
897.0, 9.266351815056633e-05
898.0, 5.4170998696419256e-05
899.0, 0.00013406109747661542
900.0, 0.00014283672774379616
901.0, 0.00013436190881407377
902.0, 1.3940417870270813e-05
903.0, 0.00015156456689221072
904.0, 0.00012476659031131413
905.0, 0.000298763819115109
906.0, 0.0002681499582920314
907.0, 6.527149843756525e-06
908.0, 3.091158739198033e-05
909.0, 8.987951858382078e-05
910.0, 2.6379865774458397e-05
911.0, 0.00014423898877650104
912.0, 9.141181669428819e-05
913.0, 7.388453892971589e-05
914.0, 0.00012871508979400082
915.0, 0.00020736260664461532
916.0, 0.00018724074452094162
917.0, 6.62561786983929e-05
918.0, 4.4865105340164554e-05
919.0, 6.850113486423084e-05
920.0, 0.00015255001555076933
921.0, 0.00012488771772116623
922.0, 0.00020360624579564905
923.0, 0.00020935265743567442
924.0, 6.127352822395821e-05
925.0, 1.05739507722177e-05
926.0, 9.802847583387822e-06
927.0, 2.149302425611707e-05
928.0, 0.00010279650303175993
929.0, 5.324590532560814e-05
930.0, 0.00014806811933412887
931.0, 0.000201071445442586
932.0, 0.00017250041009280628
933.0, 6.960010238795869e-05
934.0, 3.3973174277286655e-05
935.0, 0.00016338093871402976
936.0, 0.00021801278377110353
937.0, 0.00010773009514061365
938.0, 0.00012965279294299974
939.0, 9.566043505808067e-05
940.0, 7.259396132099176e-05
941.0, 0.00013447054492976543
942.0, 0.0001628567153577064
943.0, 0.00019958797903424144
944.0, 0.00018509525866928787
945.0, 0.00014063160229748617
946.0, 0.000112164885910019
947.0, 8.174789308750011e-05
948.0, 8.853547915374346e-05
949.0, 0.00011087934059726311
950.0, 0.0001125297981671887
951.0, 8.780171761457509e-05
952.0, 1.2346822739266347e-05
953.0, 7.440574858838179e-06
954.0, 5.626942301174811e-05
955.0, 0.000149323354247996
956.0, 0.00018113941875317138
957.0, 9.715451954792545e-05
958.0, 4.633584968016562e-05
959.0, 0.00014281709253259319
960.0, 0.00010775565353612913
961.0, 9.193432645566701e-05
962.0, 0.00010246509221976316
963.0, 0.00014447836624925618
964.0, 0.00015613844950018027
965.0, 0.00016591662766603352
966.0, 0.00015644902065547594
967.0, 4.7393845565987696e-05
968.0, 7.099029862636372e-06
969.0, 0.00025067449106806424
970.0, 0.00012500666885500436
971.0, 0.00020466218340259396
972.0, 0.00020191692017554636
973.0, 8.146300316822168e-05
974.0, 3.444365028133221e-05
975.0, 5.2875212613871954e-05
976.0, 9.985608538967584e-05
977.0, 0.00010502520923928691
978.0, 2.8695866553935147e-05
979.0, 8.208376627710635e-05
980.0, 7.261716375467312e-05
981.0, 7.467998176788563e-06
982.0, 6.872443586286658e-05
983.0, 0.0001886875651247754
984.0, 0.0001363601790827828
985.0, 0.00010495638358722386
986.0, 0.00012218157783746068
987.0, 8.791908852055452e-05
988.0, 8.299684105248864e-05
989.0, 8.546571198395994e-05
990.0, 2.818401167885265e-05
991.0, 0.00017066183776999914
992.0, 0.00024847100648647515
993.0, 8.844651753297905e-05
994.0, 0.00012108073343588214
995.0, 8.879244885688474e-05
996.0, 0.00010259170041711297
997.0, 0.00016647086214632568
998.0, 0.00014192390120325042
999.0, 7.380084236656025e-05
1000.0, 9.016870866148817e-05
1001.0, 0.00022699109428324477
1002.0, 0.0002602070041710447
1003.0, 0.00014549167510608796
1004.0, 9.517969394860908e-05
1005.0, 0.00013741802866462264
1006.0, 8.904911824716e-05
1007.0, 4.31726513898174e-05
1008.0, 5.506019102651396e-05
1009.0, 9.443142844617e-05
1010.0, 0.00010469949803567777
1011.0, 4.3866224005367617e-05
1012.0, 4.426790777251993e-05
1013.0, 0.00014166605493325741
1014.0, 8.841585918172488e-05
1015.0, 7.7107206685525e-05
1016.0, 8.411530191307473e-05
1017.0, 6.737340112326674e-05
1018.0, 0.00012783585499051957
1019.0, 6.963073005818045e-05
1020.0, 4.570255506897733e-05
1021.0, 9.452946552704952e-05
1022.0, 1.1355968793363127e-05
1023.0, 7.168455324504984e-05
1024.0, 0.0001932216268623571
1025.0, 5.9757480543711916e-05
1026.0, 0.00012193892988349624
1027.0, 0.00010021216492873416
1028.0, 4.1370584322371446e-05
1029.0, 0.00021417882816112007
1030.0, 0.00021474163331090568
1031.0, 8.517652070934146e-05
1032.0, 0.00014930009693505444
1033.0, 0.00024452707920186276
1034.0, 0.00020377613607454507
1035.0, 8.846988959646622e-05
1036.0, 6.301974387320007e-06
1037.0, 3.0488761631422366e-05
1038.0, 0.00013219107784950945
1039.0, 6.900654315293174e-05
1040.0, 1.5084034200219259e-05
1041.0, 7.334984715046194e-05
1042.0, 0.00013922160689948493
1043.0, 0.00014348465938890712
1044.0, 6.15794188939973e-05
1045.0, 3.603127271266467e-05
1046.0, 0.0001254904911636626
1047.0, 0.00020930000027493642
1048.0, 0.00014225609310950592
1049.0, 7.404608807973218e-05
1050.0, 0.00032958828024625975
1051.0, 0.0002475666747801623
1052.0, 0.00024138442807171428
1053.0, 0.00021774281543810665
1054.0, 0.00018965988829047157
1055.0, 9.083263033213034e-05
1056.0, 9.072866891907547e-05
1057.0, 0.00020801078483409792
1058.0, 0.00021976983088356302
1059.0, 0.00016467036277339372
1060.0, 0.00010172987807681668
1061.0, 2.4448767109476954e-05
1062.0, 6.93289445675146e-05
1063.0, 0.00012205327301430853
1064.0, 0.000128685512342612
1065.0, 6.951471670746407e-05
1066.0, 7.738063745421479e-05
1067.0, 8.198542199162133e-05
1068.0, 0.00010308464640847325
1069.0, 0.00012681234152731133
1070.0, 0.00011882360616502849
1071.0, 8.860661461043744e-05
1072.0, 7.156347923961443e-05
1073.0, 0.00012406175122005184
1074.0, 9.499848783929286e-05
1075.0, 0.00018209338811724893
1076.0, 0.00016418522685190915
1077.0, 0.00023792302219382004
1078.0, 0.00017834806909101128
1079.0, 0.00022618657976302212
1080.0, 0.0001941518339645233
1081.0, 0.00010040147977959087
1082.0, 0.00014679077068535974
1083.0, 0.00017727604108784745
1084.0, 0.00011723587108850933
1085.0, 0.00014982406564439626
1086.0, 0.00020302567107666122
1087.0, 0.000252350922997025
1088.0, 7.691994354728254e-05
1089.0, 0.00011984718802126539
1090.0, 0.00019020332418647073
1091.0, 0.00013556030256401796
1092.0, 0.00010636598358719902
1093.0, 0.00014353688504666764
1094.0, 0.0002019033651763299
1095.0, 0.00015174592086667418
1096.0, 0.00012294474198806094
1097.0, 6.465031474537252e-05
1098.0, 5.6948602848695386e-05
1099.0, 5.793585792353637e-05
1100.0, 8.896521092282863e-05
1101.0, 0.0001187460864611993
1102.0, 5.516151696271737e-05
1103.0, 0.00014710407693876602
1104.0, 1.7124725672866904e-05
1105.0, 2.5538789985030305e-05
1106.0, 5.2413121351094376e-05
1107.0, 4.762409823207429e-05
1108.0, 2.354428359494968e-05
1109.0, 8.298499531770509e-05
1110.0, 9.416062504025659e-05
1111.0, 0.00012494757549444608
1112.0, 0.00019058349895352387
1113.0, 6.978596875640644e-05
1114.0, 2.059611102302299e-05
1115.0, 1.9112778779088885e-05
1116.0, 0.00012181761953541492
1117.0, 8.111076799682836e-05
1118.0, 0.0001201623804018578
1119.0, 0.00016775668610488078
1120.0, 9.889817985821688e-05
1121.0, 0.00010770556397087411
1122.0, 0.00010761551355764557
1123.0, 0.00011893864331065334
1124.0, 0.00013930039869843467
1125.0, 0.00013678302459131615
1126.0, 6.080211107404573e-05
1127.0, 2.9587085718856383e-05
1128.0, 1.703329739039455e-05
1129.0, 2.1693102904072528e-05
1130.0, 7.238040087651643e-05
1131.0, 0.0001192761034483453
1132.0, 9.872961819393152e-05
1133.0, 8.290048193411387e-05
1134.0, 2.6903508672788437e-05
1135.0, 0.0001597209827091193
1136.0, 0.00018781188597971686
1137.0, 0.0001468143558914879
1138.0, 4.5493716888128206e-05
1139.0, 1.799972358475311e-05
1140.0, 7.070976837224374e-05
1141.0, 4.5619238184210336e-05
1142.0, 9.515033240620496e-05
1143.0, 0.0001662355004679674
1144.0, 2.703444416401598e-05
1145.0, 0.00014885276757133317
1146.0, 5.340012539641803e-05
1147.0, 4.614650328761287e-05
1148.0, 0.00011041393250316964
1149.0, 7.538367422285424e-05
1150.0, 0.00014415130251583323
1151.0, 0.00018687713013472727
1152.0, 0.00017834937113651113
1153.0, 0.00013526933861376751
1154.0, 0.00012925970968549513
1155.0, 0.00017126819075738406
1156.0, 7.637548554708729e-05
1157.0, 8.508460707900408e-05
1158.0, 0.0001471821949678351
1159.0, 0.0001411650445099937
1160.0, 0.00016356156115947683
1161.0, 9.893852628427165e-05
1162.0, 6.761638638004048e-05
1163.0, 7.05695126251848e-05
1164.0, 0.00010346873652688918
1165.0, 0.00022347995737595074
1166.0, 0.00012572295238668174
1167.0, 0.00011822487602395283
1168.0, 0.0001325080077365973
1169.0, 0.00013076217025957337
1170.0, 0.00018803856033383287
1171.0, 0.00023329229959022374
1172.0, 0.0001024103515322785
1173.0, 0.0001131262102807636
1174.0, 0.00018833032498293017
1175.0, 0.00017534475366249154
1176.0, 0.00016982518449864238
1177.0, 0.00017327532347061734
1178.0, 9.788572801917513e-05
1179.0, 2.500844832057782e-05
1180.0, 0.00012680772704529443
1181.0, 0.00010753739901646516
1182.0, 0.00012286853418682077
1183.0, 0.00012662634199192083
1184.0, 0.0001526683666493815
1185.0, 0.00014284487349056118
1186.0, 7.674340962189075e-06
1187.0, 0.0001223454543907431
1188.0, 5.149610352044258e-05
1189.0, 7.379935682622391e-05
1190.0, 0.00014527247113567564
1191.0, 0.00019362176845017922
1192.0, 0.00017993482444880396
1193.0, 0.00014492674325167952
1194.0, 0.0001956814122975965
1195.0, 0.0001704604854977726
1196.0, 9.882173040667546e-05
1197.0, 0.0001309488754244788
1198.0, 2.586417117125716e-05
1199.0, 1.9062846562420023e-05
1200.0, 0.00013021339963172068
1201.0, 8.543530581666377e-05
1202.0, 9.807124372319012e-05
1203.0, 0.0001162521287765379
1204.0, 0.00019299247648355447
1205.0, 0.00011850061171702563
1206.0, 9.854944116460304e-05
1207.0, 9.060598668663042e-05
1208.0, 7.349625212814099e-05
1209.0, 5.6585159654473745e-05
1210.0, 0.00010493828750920906
1211.0, 0.00017529169621814707
1212.0, 9.721303696216344e-05
1213.0, 9.656889195196184e-05
1214.0, 0.00012349070539306498
1215.0, 9.047568356550897e-05
1216.0, 0.00017013281382758904
1217.0, 0.00024406953689198256
1218.0, 0.00010463758445271861
1219.0, 5.669325930573054e-05
1220.0, 0.00010746173373418355
1221.0, 6.499751823546356e-05
1222.0, 0.00017042885235839635
1223.0, 3.8394808763688845e-05
1224.0, 7.447061269122546e-05
1225.0, 0.00015310948779159684
1226.0, 2.43815657250035e-05
1227.0, 6.864112833971026e-05
1228.0, 1.4143593772576326e-05
1229.0, 7.50276453027616e-05
1230.0, 0.00013357691959445527
1231.0, 0.00021773018426223645
1232.0, 0.00011599715055244072
1233.0, 0.00013853702599543765
1234.0, 0.00019181843163752107
1235.0, 0.00018434850211440334
1236.0, 0.0001954911278860579
1237.0, 0.00019051384861798728
1238.0, 0.00015310249790301858
1239.0, 0.00012831127849571928
1240.0, 0.00016214905910023173
1241.0, 9.647736919730751e-05
1242.0, 4.8811611966421925e-05
1243.0, 7.532116390693385e-05
1244.0, 0.00013727081745296596
1245.0, 0.00015659022240651689
1246.0, 9.83145689545229e-05
1247.0, 0.00014279261864065827
1248.0, 0.00010882716129821053
1249.0, 4.1011973148523954e-05
1250.0, 7.202232971944381e-05
1251.0, 5.5513652939624916e-05
1252.0, 9.50743644423812e-05
1253.0, 0.0001486546337331387
1254.0, 7.118252341207406e-05
1255.0, 0.00011441546583235993
1256.0, 0.00014578366874292266
1257.0, 6.73764467359935e-05
1258.0, 9.945289218707741e-05
1259.0, 8.81554068617023e-05
1260.0, 5.097506564816678e-05
1261.0, 9.099150505691634e-05
1262.0, 9.669461524675783e-05
1263.0, 9.364337608787959e-05
1264.0, 0.00013227394024668677
1265.0, 0.00016863973720130109
1266.0, 0.00011859856967979194
1267.0, 1.2572294253734132e-05
1268.0, 0.00011291647138953509
1269.0, 1.1761398253958404e-05
1270.0, 1.8966421873673915e-05
1271.0, 1.4378757852459566e-05
1272.0, 0.00010080137215639766
1273.0, 0.00015907848345255528
1274.0, 0.00015075417444757874
1275.0, 0.00021244475133170922
1276.0, 0.00016075356870676652
1277.0, 7.385469034800851e-05
1278.0, 0.00010284386997834249
1279.0, 0.00012535921188753819
1280.0, 0.00011583234337714054
1281.0, 8.53953447269287e-05
1282.0, 1.102135186545717e-06
1283.0, 8.143029627166241e-05
1284.0, 0.00014620912932282543
1285.0, 9.328167070738711e-05
1286.0, 1.1881765127065587e-05
1287, 0.0
1288, 0.0
1289, 0.0
1290, 0.0
1291, 0.0
1292, 0.0
1293, 0.0
1294, 0.0
1295, 0.0
1296, 0.0
1297, 0.0
1298, 0.0
1299, 0.0
1300, 0.0
1301, 0.0
1302, 0.0
1303, 0.0
1304, 0.0
1305, 0.0
1306, 0.0
1307, 0.0
1308, 0.0
1309, 0.0
1310, 0.0
1311, 0.0
1312, 0.0
1313, 0.0
1314, 0.0
1315, 0.0
1316, 0.0
1317, 0.0
1318, 0.0
1319, 0.0
1320, 0.0
1321, 0.0
1322, 0.0
1323, 0.0
1324, 0.0
1325, 0.0
1326, 0.0
1327, 0.0
1328, 0.0
1329, 0.0
1330, 0.0
1331, 0.0
1332, 0.0
1333, 0.0
1334, 0.0
1335, 0.0
1336, 0.0
1337, 0.0
1338, 0.0
1339, 0.0
1340, 0.0
1341, 0.0
1342, 0.0
1343, 0.0
1344, 0.0
1345, 0.0
1346, 0.0
1347, 0.0
1348, 0.0
1349, 0.0
1350, 0.0
1351, 0.0
1352, 0.0
1353, 0.0
1354, 0.0
1355, 0.0
1356, 0.0
1357, 0.0
1358, 0.0
1359, 0.0
1360, 0.0
1361, 0.0
1362, 0.0
1363, 0.0
1364, 0.0
1365, 0.0
1366, 0.0
1367, 0.0
1368, 0.0
1369, 0.0
1370, 0.0
1371, 0.0
1372, 0.0
1373, 0.0
1374, 0.0
1375, 0.0
1376, 0.0
1377, 0.0
1378, 0.0
1379, 0.0
1380, 0.0
1381, 0.0
1382, 0.0
1383, 0.0
1384, 0.0
1385, 0.0
1386, 0.0
1387, 0.0
1388, 0.0
1389, 0.0
1390, 0.0
1391, 0.0
1392, 0.0
1393, 0.0
1394, 0.0
1395, 0.0
1396, 0.0
1397, 0.0
1398, 0.0
1399, 0.0
1400, 0.0
1401, 0.0
1402, 0.0
1403, 0.0
1404, 0.0
1405, 0.0
1406, 0.0
1407, 0.0
1408, 0.0
1409, 0.0
1410, 0.0
1411, 0.0
1412, 0.0
1413, 0.0
1414, 0.0
1415, 0.0
1416, 0.0
1417, 0.0
1418, 0.0
1419, 0.0
1420, 0.0
1421, 0.0
1422, 0.0
1423, 0.0
1424, 0.0
1425, 0.0
1426, 0.0
1427, 0.0
1428, 0.0
1429, 0.0
1430, 0.0
1431, 0.0
1432, 0.0
1433, 0.0
1434, 0.0
1435, 0.0
1436, 0.0
1437, 0.0
1438, 0.0
1439, 0.0
1440, 0.0
1441, 0.0
1442, 0.0
1443, 0.0
1444, 0.0
1445, 0.0
1446, 0.0
1447, 0.0
1448, 0.0
1449, 0.0
1450, 0.0
1451, 0.0
1452, 0.0
1453, 0.0
1454, 0.0
1455, 0.0
1456, 0.0
1457, 0.0
1458, 0.0
1459, 0.0
1460, 0.0
1461, 0.0
1462, 0.0
1463, 0.0
1464, 0.0
1465, 0.0
1466, 0.0
1467, 0.0
1468, 0.0
1469, 0.0
1470, 0.0
1471, 0.0
1472, 0.0
1473, 0.0
1474, 0.0
1475, 0.0
1476, 0.0
1477, 0.0
1478, 0.0
1479, 0.0
1480, 0.0
1481, 0.0
1482, 0.0
1483, 0.0
1484, 0.0
1485, 0.0
1486, 0.0
1487, 0.0
1488, 0.0
1489, 0.0
1490, 0.0
1491, 0.0
1492, 0.0
1493, 0.0
1494, 0.0
1495, 0.0
1496, 0.0
1497, 0.0
1498, 0.0
1499, 0.0
1500, 0.0
1501, 0.0
1502, 0.0
1503, 0.0
1504, 0.0
1505, 0.0
1506, 0.0
1507, 0.0
1508, 0.0
1509, 0.0
1510, 0.0
1511, 0.0
1512, 0.0
1513, 0.0
1514, 0.0
1515, 0.0
1516, 0.0
1517, 0.0
1518, 0.0
1519, 0.0
1520, 0.0
1521, 0.0
1522, 0.0
1523, 0.0
1524, 0.0
1525, 0.0
1526, 0.0
1527, 0.0
1528, 0.0
1529, 0.0
1530, 0.0
1531, 0.0
1532, 0.0
1533, 0.0
1534, 0.0
1535, 0.0
1536, 0.0
1537, 0.0
1538, 0.0
1539, 0.0
1540, 0.0
1541, 0.0
1542, 0.0
1543, 0.0
1544, 0.0
1545, 0.0
1546, 0.0
1547, 0.0
1548, 0.0
1549, 0.0
1550, 0.0
1551, 0.0
1552, 0.0
1553, 0.0
1554, 0.0
1555, 0.0
1556, 0.0
1557, 0.0
1558, 0.0
1559, 0.0
1560, 0.0
1561, 0.0
1562, 0.0
1563, 0.0
1564, 0.0
1565, 0.0
1566, 0.0
1567, 0.0
1568, 0.0
1569, 0.0
1570, 0.0
1571, 0.0
1572, 0.0
1573, 0.0
1574, 0.0
1575, 0.0
1576, 0.0
1577, 0.0
1578, 0.0
1579, 0.0
1580, 0.0
1581, 0.0
1582, 0.0
1583, 0.0
1584, 0.0
1585, 0.0
1586, 0.0
1587, 0.0
1588, 0.0
1589, 0.0
1590, 0.0
1591, 0.0
1592, 0.0
1593, 0.0
1594, 0.0
1595, 0.0
1596, 0.0
1597, 0.0
1598, 0.0
1599, 0.0
