30, 0.0
31, 0.0
32, 0.0
33, 0.0
34, 0.0
35, 0.0
36, 0.0
37, 0.0
38, 0.0
39, 0.0
40, 0.0
41, 0.0
42, 0.0
43, 0.0
44, 0.0
45, 0.0
46, 0.0
47, 0.0
48, 0.0
49, 0.0
50, 0.0
51, 0.0
52, 0.0
53, 0.0
54, 0.0
55, 0.0
56, 0.0
57, 0.0
58, 0.0
59, 0.0
60, 0.0
61, 0.0
62, 0.0
63, 0.0
64, 0.0
65, 0.0
66, 0.0
67, 0.0
68, 0.0
69, 0.0
70, 0.0
71, 0.0
72, 0.0
73, 0.0
74, 0.0
75, 0.0
76, 0.0
77, 0.0
78, 0.0
79, 0.0
80, 0.0
81, 0.0
82, 0.0
83, 0.0
84, 0.0
85, 0.0
86, 0.0
87, 0.0
88, 0.0
89, 0.0
90, 0.0
91, 0.0
92, 0.0
93, 0.0
94, 0.0
95, 0.0
96, 0.0
97, 0.0
98, 0.0
99, 0.0
100, 0.0
101, 0.0
102, 0.0
103, 0.0
104, 0.0
105, 0.0
106, 0.0
107, 0.0
108, 0.0
109, 0.0
110, 0.0
111, 0.0
112, 0.0
113, 0.0
114, 0.0
115, 0.0
116, 0.0
117, 0.0
118, 0.0
119, 0.0
120, 0.0
121, 0.0
122, 0.0
123, 0.0
124, 0.0
125, 0.0
126, 0.0
127, 0.0
128, 0.0
129, 0.0
130, 0.0
131, 0.0
132, 0.0
133, 0.0
134, 0.0
135.0, 0.006333374649753112
136.0, 0.03272147744855052
137.0, 0.12160597943174002
138.0, 0.24935174299518192
139.0, 0.40454435345888795
140.0, 0.5616732776029033
141.0, 0.7076202778980714
142.0, 0.8402495501212441
143.0, 0.9638925907049821
144.0, 0.9994340834162379
145.0, 0.9721823149636215
146.0, 0.9036566386612297
147.0, 0.8132980102784643
148.0, 0.7068799104429611
149.0, 0.6017423922178611
150.0, 0.5147594776854638
151.0, 0.45887029748742275
152.0, 0.4119042800590646
153.0, 0.3561893227151396
154.0, 0.31342482190336557
155.0, 0.2837427767893584
156.0, 0.23540130427062517
157.0, 0.1849048489689276
158.0, 0.14042576856004724
159.0, 0.10873681294027879
160.0, 0.09427656800236696
161.0, 0.06960841621862528
162.0, 0.05694316947603537
163.0, 0.050045293854920576
164.0, 0.03570772244912735
165.0, 0.006433340683395253
166.0, 0.008615287194268519
167.0, 0.002943869936764466
168.0, 0.0036108898722653996
169.0, 0.006890168661980045
170.0, 0.004994098479868314
171.0, 0.0073636930882276805
172.0, 0.005401033404820579
173.0, 0.0091915223565409
174.0, 0.007507056004110084
175.0, 0.006805353377098583
176.0, 0.008915075739632624
177.0, 0.011190629927636458
178.0, 0.015578171520231637
179.0, 0.010818218884461371
180.0, 0.011182144986281358
181.0, 0.016426229556263782
182.0, 0.01430833678816389
183.0, 0.013924843575109841
184.0, 0.023147111656613477
185.0, 0.03156971019532715
186.0, 0.03185974475810304
187.0, 0.04081995058318853
188.0, 0.047866395359057214
189.0, 0.05031471490681047
190.0, 0.05435641455263833
191.0, 0.06825088499042369
192.0, 0.06921562360577288
193.0, 0.07983949627376084
194.0, 0.09409322410844234
195.0, 0.09851376183785683
196.0, 0.10912410362113209
197.0, 0.11738443321426253
198.0, 0.13161248434381592
199.0, 0.15420182135115584
200.0, 0.16722169760833733
201.0, 0.17848918758480153
202.0, 0.1859508404219592
203.0, 0.19156465980266793
204.0, 0.20147586273877996
205.0, 0.21544501733070817
206.0, 0.22300582788799495
207.0, 0.2295466763152017
208.0, 0.23947259407686183
209.0, 0.24240241907241397
210.0, 0.24627401687676326
211.0, 0.2511266903338519
212.0, 0.25660334942856877
213.0, 0.26285005585684934
214.0, 0.26551717838825967
215.0, 0.26727612084856667
216.0, 0.2693335940653928
217.0, 0.2712659560068807
218.0, 0.27072190422309
219.0, 0.2728093703953903
220.0, 0.2742415124148647
221.0, 0.2713474791139844
222.0, 0.2622868953413356
223.0, 0.2574689238718148
224.0, 0.2560704050961514
225.0, 0.2530882865279705
226.0, 0.24473190878437437
227.0, 0.23846662119670256
228.0, 0.2360467707756905
229.0, 0.23595631334426242
230.0, 0.23240779552319052
231.0, 0.21991659434139454
232.0, 0.2135038092710195
233.0, 0.21598500085546515
234.0, 0.2181751826903457
235.0, 0.21446790530461998
236.0, 0.21981255063032876
237.0, 0.22005693631405313
238.0, 0.21500214072204757
239.0, 0.21070188450050087
240.0, 0.21419631699430836
241.0, 0.2134751594646746
242.0, 0.21179658148285696
243.0, 0.21666712261012175
244.0, 0.2260769072207783
245.0, 0.21793969222753257
246.0, 0.22369584557412506
247.0, 0.22050984344651137
248.0, 0.20869965735522056
249.0, 0.20932003840211835
250.0, 0.21108908636468116
251.0, 0.21371758893169238
252.0, 0.21286351418088517
253.0, 0.20675270984017402
254.0, 0.2019779745250563
255.0, 0.19945872020242036
256.0, 0.19249621180085022
257.0, 0.18417268936708026
258.0, 0.18197383073582998
259.0, 0.1804303813299546
260.0, 0.17198123579663935
261.0, 0.16295742475741842
262.0, 0.15871175891053452
263.0, 0.1583045717904326
264.0, 0.1489130200649799
265.0, 0.14201984140106544
266.0, 0.13679233381170705
267.0, 0.12955635481631733
268.0, 0.12705617264873506
269.0, 0.11601932867378541
270.0, 0.11003676747722194
271.0, 0.11142032664091199
272.0, 0.10679529563027909
273.0, 0.0963969750901128
274.0, 0.09578153924660891
275.0, 0.09174120735721797
276.0, 0.07836135288296235
277.0, 0.0784013574956372
278.0, 0.06513948424370303
279.0, 0.05437328300610067
280.0, 0.05255723414376679
281.0, 0.054022361753149756
282.0, 0.04475619799773717
283.0, 0.03963571624937048
284.0, 0.03423655141345788
285.0, 0.026702438637097065
286.0, 0.023607180840635688
287.0, 0.025003332407568562
288.0, 0.023591419578559352
289.0, 0.017801549347760126
290.0, 0.011141898508946892
291.0, 0.011907845390305054
292.0, 0.016052094241656663
293.0, 0.017925514139855755
294.0, 0.019805405096443192
295.0, 0.023687581074849903
296.0, 0.018502862725183786
297.0, 0.01929232023721384
298.0, 0.027726795931592774
299.0, 0.033341129590171915
300.0, 0.028722047412695444
301.0, 0.038430126786122704
302.0, 0.04895097109937392
303.0, 0.053075195157627326
304.0, 0.05481077060720536
305.0, 0.06534626490338402
306.0, 0.07240452679522658
307.0, 0.07556434953734865
308.0, 0.07606169717262956
309.0, 0.07777561814548571
310.0, 0.08729709317684806
311.0, 0.09524494655891946
312.0, 0.10430057114087024
313.0, 0.10890972971659758
314.0, 0.10449141079335675
315.0, 0.11790706486553365
316.0, 0.12554705853374107
317.0, 0.12832478773528305
318.0, 0.1332389125716512
319.0, 0.14282421229241904
320.0, 0.14535097332044794
321.0, 0.14605336174420894
322.0, 0.14866862718429955
323.0, 0.1540519268084862
324.0, 0.16025882036672498
325.0, 0.16751823374909336
326.0, 0.1734206922005379
327.0, 0.173365503704641
328.0, 0.1678253915823051
329.0, 0.1736970810946052
330.0, 0.16767063577362243
331.0, 0.1580319438548603
332.0, 0.14974205996690404
333.0, 0.14209086037626434
334.0, 0.136098506756836
335.0, 0.12705314526472855
336.0, 0.11669404357757243
337.0, 0.10631952856618752
338.0, 0.09373377557746937
339.0, 0.07361198838490829
340.0, 0.058843121168485495
341.0, 0.05438698381081203
342.0, 0.04939657996510288
343.0, 0.026447500059319284
344.0, 0.02712289091972014
345.0, 0.021538593356336296
346.0, 0.012513822655231982
347.0, 0.00979326877357207
348.0, 0.007564989404183706
349.0, 0.008513573138171113
350.0, 0.00839520218361085
351.0, 0.011693249061385953
352.0, 0.015682231842576826
353.0, 0.011471484242948062
354.0, 0.013363174674157197
355.0, 0.013812914351680722
356.0, 0.011397104046389684
357.0, 0.011390405742378974
358.0, 0.01672955347742893
359.0, 0.018418914661317006
360.0, 0.015269139569827204
361.0, 0.0100523538105298
362.0, 0.0066242124307823785
363.0, 0.007454598532159032
364.0, 0.008600646903784077
365.0, 0.006957840992547035
366.0, 0.007848819847875435
367.0, 0.006296238459163421
368.0, 0.006476934053329195
369.0, 0.009418943970293702
370.0, 0.008562793199710105
371.0, 0.005498776555352338
372.0, 0.005674370346556226
373.0, 0.005868102359472844
374.0, 0.010980841188465595
375.0, 0.013377877972840397
376.0, 0.011949916738878717
377.0, 0.02134429615872413
378.0, 0.01938823406876009
379.0, 0.0180440599940174
380.0, 0.026111188423518936
381.0, 0.03458731180378856
382.0, 0.02710319248615486
383.0, 0.0341145365306216
384.0, 0.03235162346082874
385.0, 0.027025195361736164
386.0, 0.028111270009800488
387.0, 0.030340158318932494
388.0, 0.028597046954217255
389.0, 0.030413199237217123
390.0, 0.03449438240898937
391.0, 0.03792373027101039
392.0, 0.0416980069636022
393.0, 0.04097016455821518
394.0, 0.03894981073908103
395.0, 0.03930697883521783
396.0, 0.04049427743642615
397.0, 0.036127116525748355
398.0, 0.03670081103076825
399.0, 0.03831240419742616
400.0, 0.04189245631110114
401.0, 0.045890581449357655
402.0, 0.04140907130449483
403.0, 0.04276945549525506
404.0, 0.04624731643918043
405.0, 0.04899760835626021
406.0, 0.048825118815403565
407.0, 0.04449212206552424
408.0, 0.04576700607140053
409.0, 0.04769933417717537
410.0, 0.043699065164631075
411.0, 0.0392800342253821
412.0, 0.0479090861454739
413.0, 0.04084577203109337
414.0, 0.03902805676575054
415.0, 0.04015376599316112
416.0, 0.03813019848102116
417.0, 0.03752993528481292
418.0, 0.03833791522467281
419.0, 0.0382337532070335
420.0, 0.03459087550062849
421.0, 0.0296807206895867
422.0, 0.029928658172809836
423.0, 0.030164513008972833
424.0, 0.030583532754421376
425.0, 0.029999143014194124
426.0, 0.02916361966047932
427.0, 0.02927885044754697
428.0, 0.024768037211150465
429.0, 0.026327796659489644
430.0, 0.029086959712824913
431.0, 0.029636435025599473
432.0, 0.030867649879575965
433.0, 0.02777306347102247
434.0, 0.025000952080456326
435.0, 0.02463144904196515
436.0, 0.025967199684069547
437.0, 0.027972317654084495
438.0, 0.029933147383298223
439.0, 0.022339348326158075
440.0, 0.022628576924723136
441.0, 0.027831818011240923
442.0, 0.022978811836566814
443.0, 0.014832468957423087
444.0, 0.020729743021210813
445.0, 0.02546725930890932
446.0, 0.023945989711782117
447.0, 0.0218407510290587
448.0, 0.023486898230861045
449.0, 0.021340930230443398
450.0, 0.02185148184108365
451.0, 0.026812798081058156
452.0, 0.03078065718340435
453.0, 0.02219509390653257
454.0, 0.02236312393698162
455.0, 0.019921455610036727
456.0, 0.018754556545127636
457.0, 0.02113804411732706
458.0, 0.018292308071287785
459.0, 0.01952977150191312
460.0, 0.020932934396147934
461.0, 0.020792736410008814
462.0, 0.018681646492172924
463.0, 0.015359510060334288
464.0, 0.01674636292669401
465.0, 0.021737285144116113
466.0, 0.02334719004032046
467.0, 0.02157719586235621
468.0, 0.02094933518566846
469.0, 0.020630940258287274
470.0, 0.012832047886249056
471.0, 0.013562768576668782
472.0, 0.019868437545331494
473.0, 0.019250380238344317
474.0, 0.015878666808584675
475.0, 0.013371981962089139
476.0, 0.01828348397690455
477.0, 0.015116261457840625
478.0, 0.020117491004022308
479.0, 0.01435697057969345
480.0, 0.01564476623328059
481.0, 0.018124214813369018
482.0, 0.017163819462099255
483.0, 0.018459205271884677
484.0, 0.017290756038666037
485.0, 0.019143181079468958
486.0, 0.016846209682691585
487.0, 0.017102355128298264
488.0, 0.017861349997402052
489.0, 0.016450086795829377
490.0, 0.017978730217084748
491.0, 0.019793559054398273
492.0, 0.017147104438280214
493.0, 0.01577908967486787
494.0, 0.01948568654853441
495.0, 0.019052848617510956
496.0, 0.012026838815157268
497.0, 0.01196505756454562
498.0, 0.015031779846072867
499.0, 0.01615019303113187
500.0, 0.01773582373554413
501.0, 0.01904469596796088
502.0, 0.012244433524756206
503.0, 0.011330318918178515
504.0, 0.014428116989409987
505.0, 0.011180719957614068
506.0, 0.007700120823980487
507.0, 0.008033643205568236
508.0, 0.0060107041983260045
509.0, 0.006014663649105052
510.0, 0.010470175886248998
511.0, 0.008872114925861865
512.0, 0.008765882270791848
513.0, 0.009339508336925255
514.0, 0.009589211279567725
515.0, 0.008749244669170372
516.0, 0.007166761972642286
517.0, 0.008770728214436073
518.0, 0.008468886331758818
519.0, 0.009343491015883146
520.0, 0.007501839250501312
521.0, 0.008556344840267568
522.0, 0.009464319970858044
523.0, 0.006803287328877979
524.0, 0.006605160431675004
525.0, 0.006210511060990505
526.0, 0.0075875507597238595
527.0, 0.00579273244099119
528.0, 0.006937180327367294
529.0, 0.008192710703887352
530.0, 0.009165242618397237
531.0, 0.009738894880944222
532.0, 0.009727903961979676
533.0, 0.009604902521088974
534.0, 0.010780369475519908
535.0, 0.009363018555609729
536.0, 0.009010021353693255
537.0, 0.00828357039099669
538.0, 0.009635525354911561
539.0, 0.006782285877660631
540.0, 0.00984507400343644
541.0, 0.009003810624754931
542.0, 0.005932383745752428
543.0, 0.006280832263186916
544.0, 0.011433384542733096
545.0, 0.01120501469393748
546.0, 0.010706446257852092
547.0, 0.010242522552194763
548.0, 0.010862896780281682
549.0, 0.012301054916997609
550.0, 0.009107754253172031
551.0, 0.008228172218356675
552.0, 0.0068442658360951605
553.0, 0.00991841469324097
554.0, 0.008462077404527368
555.0, 0.011508076328745686
556.0, 0.01073580080265741
557.0, 0.006295639532811996
558.0, 0.008485812849261674
559.0, 0.010409597463863005
560.0, 0.008452042745529473
561.0, 0.011295341117033179
562.0, 0.011654415957301571
563.0, 0.007127009828103777
564.0, 0.008078784359501427
565.0, 0.006350894086194189
566.0, 0.00943143926045809
567.0, 0.014108008110794393
568.0, 0.011379072496333777
569.0, 0.009514365269812156
570.0, 0.009914357730980275
571.0, 0.008487841561408686
572.0, 0.008590352026707142
573.0, 0.007155657357868376
574.0, 0.006001751548548532
575.0, 0.005725019502390692
576.0, 0.009018505990290518
577.0, 0.011686829320954186
578.0, 0.008867885723371938
579.0, 0.011839376542379312
580.0, 0.010038781080464116
581.0, 0.008146609284029846
582.0, 0.013095956861278159
583.0, 0.01677082010278975
584.0, 0.015461972449807723
585.0, 0.010615490841739017
586.0, 0.00735502012576036
587.0, 0.006827792368120344
588.0, 0.007423969966187452
589.0, 0.00793827135903248
590.0, 0.006547625176299692
591.0, 0.007485768412238331
592.0, 0.007915917911492076
593.0, 0.008124682712238228
594.0, 0.010596176769065895
595.0, 0.009819788282849632
596.0, 0.0133632546421831
597.0, 0.009673579091329992
598.0, 0.005809707442371988
599.0, 0.007838007355534117
600.0, 0.014856801782044413
601.0, 0.009462733254922825
602.0, 0.006687652315485372
603.0, 0.006266252055494456
604.0, 0.006593215807622015
605.0, 0.006090998871563095
606.0, 0.008700792391019957
607.0, 0.007625913195524083
608.0, 0.01242354139873574
609.0, 0.014257588074169303
610.0, 0.010358420040390755
611.0, 0.007695340584037634
612.0, 0.011597558950812619
613.0, 0.008790401071822815
614.0, 0.009339962448592467
615.0, 0.00875356518996606
616.0, 0.0065718410552787565
617.0, 0.0059495513073637655
618.0, 0.006888294161221048
619.0, 0.010305135036329674
620.0, 0.008438361029693952
621.0, 0.008297771157813617
622.0, 0.00864263071734312
623.0, 0.006021937061872481
624.0, 0.006464375714744891
625.0, 0.008262329750094638
626.0, 0.012668793987676175
627.0, 0.012938609775667416
628.0, 0.008783161400696972
629.0, 0.008212960208725837
630.0, 0.012583979896258816
631.0, 0.00794118695980806
632.0, 0.008356579055804048
633.0, 0.011026111934060159
634.0, 0.01093024166018793
635.0, 0.009831703004999649
636.0, 0.007137249443193522
637.0, 0.008424656461150547
638.0, 0.007812369863333396
639.0, 0.011440505096270728
640.0, 0.014313900188402848
641.0, 0.0057547410651249695
642.0, 0.008773573806855043
643.0, 0.00800288128176166
644.0, 0.009602755193346375
645.0, 0.012366310154594409
646.0, 0.011664099061934677
647.0, 0.007795267347509232
648.0, 0.01176248786299
649.0, 0.010226468270996974
650.0, 0.012010606129413789
651.0, 0.011103755727805146
652.0, 0.006470365004011153
653.0, 0.007240397259206145
654.0, 0.010730410958845136
655.0, 0.013418936702399744
656.0, 0.009041986579660117
657.0, 0.006915761844393503
658.0, 0.008232369965675756
659.0, 0.0060086945592423
660.0, 0.00865222571144509
661.0, 0.013236334104443052
662.0, 0.014844054572493433
663.0, 0.0136939968255753
664.0, 0.013900065290077972
665.0, 0.015521718648323017
666.0, 0.010770734167620788
667.0, 0.009695730006224574
668.0, 0.009219054836613866
669.0, 0.008320169604627241
670.0, 0.007469055964659326
671.0, 0.007927746347424065
672.0, 0.01047935878616724
673.0, 0.006254138670248201
674.0, 0.009908493537424562
675.0, 0.011317916947189947
676.0, 0.008625281202255872
677.0, 0.00992375439148217
678.0, 0.011410496446583747
679.0, 0.01146395133399702
680.0, 0.011353035471807948
681.0, 0.007446791701094572
682.0, 0.00701230275993478
683.0, 0.011799481430510687
684.0, 0.008506866462824194
685.0, 0.008101344399507097
686.0, 0.0060264896137068895
687.0, 0.006087994724641142
688.0, 0.006041914322189471
689.0, 0.006583996883591021
690.0, 0.005954039169755107
691.0, 0.008677243633965152
692.0, 0.010089150966205638
693.0, 0.008759477736096973
694.0, 0.007665905698740203
695.0, 0.0078100012420658765
696.0, 0.007861035546459332
697.0, 0.010744651411928109
698.0, 0.009863243556781915
699.0, 0.009863479888014523
700.0, 0.011586464826683995
701.0, 0.01163649942643445
702.0, 0.007776875157478143
703.0, 0.00606893582966383
704.0, 0.010954865279786624
705.0, 0.009753873818980826
706.0, 0.010917232800113736
707.0, 0.011795953450090223
708.0, 0.007434602135186459
709.0, 0.006317360340801967
710.0, 0.007635222166419444
711.0, 0.00936696157751625
712.0, 0.010033725430223505
713.0, 0.009241560064129592
714.0, 0.007631832490127685
715.0, 0.006969222557139573
716.0, 0.009450596381206983
717.0, 0.006185558673402886
718.0, 0.006007027974970927
719.0, 0.0074486415249737465
720.0, 0.010176150875246679
721.0, 0.010283054999932654
722.0, 0.011120246069999196
723.0, 0.0074526112817981886
724.0, 0.008990577317004263
725.0, 0.008929333435050264
726.0, 0.008372069362647333
727.0, 0.009903512728750789
728.0, 0.01069375075270559
729.0, 0.01164834594285514
730.0, 0.011574433395928495
731.0, 0.011866108810486125
732.0, 0.009767810542895787
733.0, 0.008675887495130092
734.0, 0.010500176916951985
735.0, 0.00620516933792021
736.0, 0.011050933616833642
737.0, 0.006864233550613785
738.0, 0.008612943023948218
739.0, 0.010219195810535911
740.0, 0.006930792857251337
741.0, 0.014710131539419668
742.0, 0.013343092069577494
743.0, 0.009953258199960688
744.0, 0.009212771857424596
745.0, 0.01001439835830271
746.0, 0.010976661590178372
747.0, 0.010460136839954172
748.0, 0.006139490004436115
749.0, 0.008421703234254526
750.0, 0.008507771449561089
751.0, 0.006051994807666419
752.0, 0.007957710725154553
753.0, 0.007208805195650897
754.0, 0.009198266823362012
755.0, 0.01133826043261913
756.0, 0.011519346522136476
757.0, 0.008864800590230293
758.0, 0.00911658864286185
759.0, 0.01051812351916853
760.0, 0.009288821390704945
761.0, 0.008983620976403086
762.0, 0.01033539672424815
763.0, 0.009652139380887848
764.0, 0.010428152821494261
765.0, 0.014132398545825726
766.0, 0.01527807269768006
767.0, 0.009786364722720133
768.0, 0.0096987720619921
769.0, 0.010507777988409283
770.0, 0.010421241312101752
771.0, 0.009786615843629855
772.0, 0.008960075317810868
773.0, 0.008138440994992556
774.0, 0.008463740160265404
775.0, 0.012858863880247292
776.0, 0.012600318411748492
777.0, 0.011208966087144211
778.0, 0.012647925055326494
779.0, 0.009284632351567365
780.0, 0.00825454836725011
781.0, 0.006785406157971021
782.0, 0.009761112319567436
783.0, 0.008234118248630852
784.0, 0.011169088581388627
785.0, 0.01166171762574806
786.0, 0.015326767484167355
787.0, 0.012048037143107728
788.0, 0.01255474659163109
789.0, 0.009281807004145411
790.0, 0.008658872787592071
791.0, 0.008334577200578255
792.0, 0.0066852631422384895
793.0, 0.009478829384085587
794.0, 0.015623045144795868
795.0, 0.008273432967446004
796.0, 0.013189399564402524
797.0, 0.00828943106211842
798.0, 0.007454701104160249
799.0, 0.006940123373275373
800.0, 0.009148442446564323
801.0, 0.009248162160390328
802.0, 0.008852338927877361
803.0, 0.009656225952013224
804.0, 0.006309216897421985
805.0, 0.010729251935821214
806.0, 0.013554106722820033
807.0, 0.0086735544005318
808.0, 0.006073966259185611
809.0, 0.008775727137482526
810.0, 0.00800299814758872
811.0, 0.012031913966302972
812.0, 0.013572140688764873
813.0, 0.009264471995465406
814.0, 0.005884310042650547
815.0, 0.008379395561736103
816.0, 0.01023893289345382
817.0, 0.010286108901537581
818.0, 0.009373282784157031
819.0, 0.0060549629387605915
820.0, 0.006192168019737089
821.0, 0.010071508466351388
822.0, 0.01044472840763534
823.0, 0.008398727598336667
824.0, 0.010192283194069202
825.0, 0.007516926815137853
826.0, 0.008720425936710801
827.0, 0.010536175079276145
828.0, 0.01018333625424481
829.0, 0.010609562872978406
830.0, 0.011803029439070576
831.0, 0.009010878927262784
832.0, 0.008919445085697832
833.0, 0.008044239528033398
834.0, 0.009201751010778572
835.0, 0.009745771661973998
836.0, 0.006945997297983705
837.0, 0.009406283451028266
838.0, 0.015966552401691144
839.0, 0.012158010472405589
840.0, 0.01342236154135797
841.0, 0.01155497970095134
842.0, 0.0086523928150077
843.0, 0.010536708656747064
844.0, 0.010598162840939071
845.0, 0.010224959314617916
846.0, 0.0110457253423302
847.0, 0.009454302574138908
848.0, 0.008351506292800891
849.0, 0.010697264663144652
850.0, 0.013716987646935
851.0, 0.011738787341790355
852.0, 0.008573916779855084
853.0, 0.014115096900661976
854.0, 0.014629762073209407
855.0, 0.010009625198755008
856.0, 0.006819218936535507
857.0, 0.006871668715489507
858.0, 0.009035472629450536
859.0, 0.012782366571656394
860.0, 0.010328944509415423
861.0, 0.01113370112379261
862.0, 0.011077733314049187
863.0, 0.009507008878747173
864.0, 0.010633037155339638
865.0, 0.012021646527112935
866.0, 0.007042249322765836
867.0, 0.008859081461556078
868.0, 0.008967729328794017
869.0, 0.012908382511156127
870.0, 0.011193672143357185
871.0, 0.007877099366673659
872.0, 0.006380652517994043
873.0, 0.0065358646905572665
874.0, 0.015744098533662546
875.0, 0.017830998420721444
876.0, 0.010655111895957735
877.0, 0.006984653313575998
878.0, 0.010144259710069962
879.0, 0.011977022150352111
880.0, 0.009411089787052818
881.0, 0.00926090137951774
882.0, 0.00725326329832879
883.0, 0.007097134227741162
884.0, 0.009940215846280718
885.0, 0.00826689802680377
886.0, 0.009795507884868812
887.0, 0.010496572968580043
888.0, 0.006908327351498463
889.0, 0.011813336349024248
890.0, 0.019090357300527026
891.0, 0.013288754664568378
892.0, 0.010856267273652975
893.0, 0.007658640990661709
894.0, 0.01248831507186944
895.0, 0.008143025054857131
896.0, 0.00881422801751096
897.0, 0.01145584928270784
898.0, 0.009885701913172546
899.0, 0.011603313768398682
900.0, 0.009373926292756794
901.0, 0.009943267254655021
902.0, 0.009441875017612199
903.0, 0.009770377263430215
904.0, 0.009070640514103804
905.0, 0.005716571455064189
906.0, 0.006832511234698402
907.0, 0.008556303967313165
908.0, 0.006740565127079252
909.0, 0.006597372035400629
910.0, 0.005848185444790769
911.0, 0.010082022694253354
912.0, 0.007055185630474252
913.0, 0.00587389005695544
914.0, 0.006431322735509268
915.0, 0.005650242868763179
916.0, 0.005619112040521582
917.0, 0.006051983593331426
918.0, 0.006732147659361686
919.0, 0.0069626476814000325
920.0, 0.006411260359012999
921.0, 0.006375587914906569
922.0, 0.007138597234114612
923.0, 0.00642662216085584
924.0, 0.0081628452714277
925.0, 0.011042185907771129
926.0, 0.012981239688846954
927.0, 0.009416495700000983
928.0, 0.01167478182648419
929.0, 0.007249018175792424
930.0, 0.005770220160563761
931.0, 0.00568234387430877
932.0, 0.005651095073032037
933.0, 0.006966288708691717
934.0, 0.009211127865276125
935.0, 0.009447601969017944
936.0, 0.010571200691078366
937.0, 0.011528678644366469
938.0, 0.012460270958593792
939.0, 0.00737825273246882
940.0, 0.009647859814450249
941.0, 0.010622451758031995
942.0, 0.007822528308764405
943.0, 0.010439592887445977
944.0, 0.007063613398719388
945.0, 0.007306983635117173
946.0, 0.010585464647441298
947.0, 0.013750479362645585
948.0, 0.010789102413696877
949.0, 0.011338223462492672
950.0, 0.012108891676511952
951.0, 0.007604072562305367
952.0, 0.00960139696508306
953.0, 0.014109351860635371
954.0, 0.011020467224984263
955.0, 0.008633864110510592
956.0, 0.011272576851440157
957.0, 0.012747171185986625
958.0, 0.010073565772036235
959.0, 0.007308486709627955
960.0, 0.008318933818137565
961.0, 0.012913780760904797
962.0, 0.012866365129421516
963.0, 0.012149486965468482
964.0, 0.012706909212329203
965.0, 0.010847731061936618
966.0, 0.011065226491135671
967.0, 0.01419459626843051
968.0, 0.013791721563414067
969.0, 0.013732035980706228
970.0, 0.01240469152566672
971.0, 0.015204430468018419
972.0, 0.016634174108650857
973.0, 0.01663880211738515
974.0, 0.014646960553045166
975.0, 0.011650573412973575
976.0, 0.014049428105093808
977.0, 0.018104457528413435
978.0, 0.01459379349726423
979.0, 0.013160714123725428
980.0, 0.012174199125247212
981.0, 0.016413124261043924
982.0, 0.013141752754761416
983.0, 0.011464998164471503
984.0, 0.011990556534601841
985.0, 0.010249740868775559
986.0, 0.010934188754196083
987.0, 0.013054789736885166
988.0, 0.009514295311603669
989.0, 0.007219036876405283
990.0, 0.008839703122227406
991.0, 0.010594667034710733
992.0, 0.010683044262597429
993.0, 0.010689877014790967
994.0, 0.0116238396737901
995.0, 0.01224623432245005
996.0, 0.011722705151040626
997.0, 0.012686960669347533
998.0, 0.009865028420875516
999.0, 0.008910766054029698
1000.0, 0.006656568147906798
1001.0, 0.006200006673316585
1002.0, 0.010068460842625098
1003.0, 0.010128099710124659
1004.0, 0.005721343981653421
1005.0, 0.00869339872080654
1006.0, 0.008957949607669538
1007.0, 0.008668184342466257
1008.0, 0.008249094177869069
1009.0, 0.006494808774282256
1010.0, 0.007113383707073969
1011.0, 0.006987942391394669
1012.0, 0.008970166596153276
1013.0, 0.013382852165827082
1014.0, 0.010263729624136566
1015.0, 0.007942985653765429
1016.0, 0.011960260527163535
1017.0, 0.013604822652728214
1018.0, 0.009469532450552225
1019.0, 0.007249581593645518
1020.0, 0.010898508578027696
1021.0, 0.010647141142633756
1022.0, 0.012916544579863349
1023.0, 0.008843787285932105
1024.0, 0.010490580456295242
1025.0, 0.013791083571376782
1026.0, 0.012077568819877506
1027.0, 0.009630374363545467
1028.0, 0.011647062384584411
1029.0, 0.013227339145319943
1030.0, 0.00956616384259912
1031.0, 0.009396289998151548
1032.0, 0.009662260796078178
1033.0, 0.007783363687922867
1034.0, 0.01320008542306009
1035.0, 0.011067534511233238
1036.0, 0.008476475607587717
1037.0, 0.012781446510600255
1038.0, 0.011607515541286032
1039.0, 0.007224795326468747
1040.0, 0.005951374793169227
1041.0, 0.00964488262792043
1042.0, 0.014053074209783365
1043.0, 0.01307301542708599
1044.0, 0.010015230140403097
1045.0, 0.006133952044358509
1046.0, 0.0059060581231992725
1047.0, 0.008882132042428523
1048.0, 0.005798409861025614
1049.0, 0.010016975622008446
1050.0, 0.012737717652961009
1051.0, 0.01366667514505083
1052.0, 0.01415603258581874
1053.0, 0.014148381244285104
1054.0, 0.011194857292781966
1055.0, 0.00871040010351587
1056.0, 0.011138048161446751
1057.0, 0.01363619650415866
1058.0, 0.008829871937894744
1059.0, 0.008582022985207088
1060.0, 0.0055211707787148605
1061.0, 0.006440983040924027
1062.0, 0.011690638624253838
1063.0, 0.012718102532865677
1064.0, 0.010950623520612688
1065.0, 0.008896800367238025
1066.0, 0.01253451456714388
1067.0, 0.010383742482127586
1068.0, 0.009637308951011725
1069.0, 0.011199101042974821
1070.0, 0.010014073318426136
1071.0, 0.012627517203157643
1072.0, 0.010387930295239815
1073.0, 0.014252972909145942
1074.0, 0.01155275498558325
1075.0, 0.011625412987407586
1076.0, 0.009512578180567905
1077.0, 0.007152787968587137
1078.0, 0.006910131167503937
1079.0, 0.014998884776370104
1080.0, 0.01573427810955884
1081.0, 0.014468178209374995
1082.0, 0.0130594082575694
1083.0, 0.00852463035923286
1084.0, 0.007591280221629403
1085.0, 0.008975069811060204
1086.0, 0.0058250476951300974
1087.0, 0.009623397073413899
1088.0, 0.008650057874494917
1089.0, 0.008983784923430225
1090.0, 0.008176349049051172
1091.0, 0.012506288281714384
1092.0, 0.01183664605137062
1093.0, 0.009424975954047995
1094.0, 0.011829530682973552
1095.0, 0.013277429100410723
1096.0, 0.009813046116409953
1097.0, 0.007376070710720047
1098.0, 0.009172238359584497
1099.0, 0.00814521114679146
1100.0, 0.01014729977732324
1101.0, 0.013707524162065231
1102.0, 0.011468888754233155
1103.0, 0.009478436464390136
1104.0, 0.012465145673709552
1105.0, 0.013193300620471212
1106.0, 0.008219018297669136
1107.0, 0.006352570710955083
1108.0, 0.006989928173775235
1109.0, 0.00848514855954859
1110.0, 0.012322782254336476
1111.0, 0.013873890708848974
1112.0, 0.012321285031114487
1113.0, 0.012240955732733184
1114.0, 0.009797680680760028
1115.0, 0.007318558083478081
1116.0, 0.010727358288904603
1117.0, 0.012585584921201348
1118.0, 0.010562773121077465
1119.0, 0.008292094148461566
1120.0, 0.010817369962468707
1121.0, 0.006861025714562476
1122.0, 0.008335574799842163
1123.0, 0.010585468652211895
1124.0, 0.009187189986075109
1125.0, 0.008285370498604594
1126.0, 0.01048643517980387
1127.0, 0.01562513527598543
1128.0, 0.012824011524046445
1129.0, 0.010503636138678987
1130.0, 0.012034926679431616
1131.0, 0.010365441095905934
1132.0, 0.014937129632567511
1133.0, 0.01035782228973588
1134.0, 0.01241521432851696
1135.0, 0.013406167576983184
1136.0, 0.008700422400944487
1137.0, 0.009546113762915866
1138.0, 0.010874322276518118
1139.0, 0.01008648322454451
1140.0, 0.009629035804447664
1141.0, 0.007314213921018207
1142.0, 0.012405241398978705
1143.0, 0.011583382407983196
1144.0, 0.012586859575421437
1145.0, 0.01279236150160192
1146.0, 0.009145179497237716
1147.0, 0.006588608038681127
1148.0, 0.00784786015303784
1149.0, 0.010118536658388926
1150.0, 0.008697327660311656
1151.0, 0.011821328626179782
1152.0, 0.011188324761075535
1153.0, 0.010695634234950499
1154.0, 0.010037300701719348
1155.0, 0.006230061184031555
1156.0, 0.006448642529854737
1157.0, 0.006670525239055222
1158.0, 0.006627115824464068
1159.0, 0.008105756690369099
1160.0, 0.0100542515104621
1161.0, 0.005603662054821445
1162.0, 0.008861856640782807
1163.0, 0.013725150290365064
1164.0, 0.008089994241940112
1165.0, 0.008634707838916462
1166.0, 0.009939080077299793
1167.0, 0.009367174033195336
1168.0, 0.012075287232182716
1169.0, 0.012772339672449002
1170.0, 0.008492951109185947
1171.0, 0.0075444338714491955
1172.0, 0.009436514593749976
1173.0, 0.013307017533076747
1174.0, 0.015492475949150382
1175.0, 0.009420721006267108
1176.0, 0.011416405985802612
1177.0, 0.011438153653335136
1178.0, 0.007320577851757252
1179.0, 0.00773586926738123
1180.0, 0.010499598323782942
1181.0, 0.008444805900881595
1182.0, 0.005781777427892401
1183.0, 0.007641590623233056
1184.0, 0.009858903708685212
1185.0, 0.008828064761106265
1186.0, 0.011727934915092443
1187.0, 0.007048351831876159
1188.0, 0.012371129994915546
1189.0, 0.014420958754548215
1190.0, 0.010774152167614943
1191.0, 0.008301961405849965
1192.0, 0.010759618905235474
1193.0, 0.01223587246169957
1194.0, 0.008564604771439015
1195.0, 0.007271334351929582
1196.0, 0.012351560854681518
1197.0, 0.014184922362213795
1198.0, 0.011304212487387338
1199.0, 0.008333108987380648
1200.0, 0.008556462118797264
1201.0, 0.00696890885103352
1202.0, 0.008032554778598594
1203.0, 0.007622054573671255
1204.0, 0.008397390502191765
1205.0, 0.01110825333256603
1206.0, 0.010284544868808062
1207.0, 0.006598677896492295
1208.0, 0.006697322611970742
1209.0, 0.008716587135591949
1210.0, 0.010588423405512045
1211.0, 0.012412177504762294
1212.0, 0.009035273520264044
1213.0, 0.008495108136032001
1214.0, 0.008065254785018764
1215.0, 0.011049938207016696
1216.0, 0.009639442389718646
1217.0, 0.006787227772887222
1218.0, 0.0065102589645557665
1219.0, 0.011985006179361393
1220.0, 0.013400935049967361
1221.0, 0.012226891928542236
1222.0, 0.006366179901217408
1223.0, 0.007359701586205001
1224.0, 0.006400746750865667
1225.0, 0.007000354930971943
1226.0, 0.01563525353015017
1227.0, 0.009976987151813293
1228.0, 0.008643521248754546
1229.0, 0.011120810803633028
1230.0, 0.01028447003747134
1231.0, 0.011345489940919039
1232.0, 0.012262411056464228
1233.0, 0.012492413562213162
1234.0, 0.010789578390170241
1235.0, 0.011506245316833148
1236.0, 0.011616096264751803
1237.0, 0.009526355646443498
1238.0, 0.007856584185520415
1239.0, 0.006566840212779647
1240.0, 0.008790816215914815
1241.0, 0.013993566901463668
1242.0, 0.011100318852027878
1243.0, 0.006615823585918002
1244.0, 0.01096942572097957
1245.0, 0.015287663921805543
1246.0, 0.013670953179383731
1247.0, 0.011800329258461388
1248.0, 0.01273635513970182
1249.0, 0.01352724461427035
1250.0, 0.012425930338656247
1251.0, 0.011625243545943818
1252.0, 0.010712878004942208
1253.0, 0.013386398539355932
1254.0, 0.016940984391104745
1255.0, 0.014803701874662949
1256.0, 0.010279259526051871
1257.0, 0.010944669982819994
1258.0, 0.012279160438045007
1259.0, 0.010209451134076463
1260.0, 0.013131799970996911
1261.0, 0.01325457471536174
1262.0, 0.008715329182858472
1263.0, 0.008231208363139605
1264.0, 0.014444410475322422
1265.0, 0.008964090454207235
1266.0, 0.009495769299940546
1267.0, 0.010383409048872494
1268.0, 0.011312418434868358
1269.0, 0.01253463619517956
1270.0, 0.012513964469437762
1271.0, 0.009733021687944725
1272.0, 0.0074531449815048376
1273.0, 0.010319851296788767
1274.0, 0.012192836675093818
1275.0, 0.006287440822973131
1276.0, 0.008243924484774928
1277.0, 0.00887811399276644
1278.0, 0.008225803593199884
1279.0, 0.006513401772259441
1280.0, 0.00942834977639191
1281.0, 0.010778008353841536
1282.0, 0.012710905391243215
1283.0, 0.014377121771049549
1284.0, 0.011259744873640995
1285.0, 0.009188133904764464
1286.0, 0.01215933347898914
1287.0, 0.013941466347918784
1288.0, 0.011264908561249174
1289.0, 0.010040834360185841
1290.0, 0.007908637430984636
1291.0, 0.014563176659505997
1292.0, 0.007911756367801724
1293.0, 0.005932641079742931
1294.0, 0.011428130486522185
1295.0, 0.011611662064966046
1296.0, 0.006531069952517542
1297.0, 0.0062912254900445415
1298.0, 0.009201107625143859
1299.0, 0.009524184013543255
1300.0, 0.01021779927465405
1301.0, 0.009757671523495734
1302.0, 0.007979785563401174
1303.0, 0.00722177747855979
1304.0, 0.006545563508196518
1305, 0.0
1306, 0.0
1307, 0.0
1308, 0.0
1309, 0.0
1310, 0.0
1311, 0.0
1312, 0.0
1313, 0.0
1314, 0.0
1315, 0.0
1316, 0.0
1317, 0.0
1318, 0.0
1319, 0.0
1320, 0.0
1321, 0.0
1322, 0.0
1323, 0.0
1324, 0.0
1325, 0.0
1326, 0.0
1327, 0.0
1328, 0.0
1329, 0.0
1330, 0.0
1331, 0.0
1332, 0.0
1333, 0.0
1334, 0.0
1335, 0.0
1336, 0.0
1337, 0.0
1338, 0.0
1339, 0.0
1340, 0.0
1341, 0.0
1342, 0.0
1343, 0.0
1344, 0.0
1345, 0.0
1346, 0.0
1347, 0.0
1348, 0.0
1349, 0.0
1350, 0.0
1351, 0.0
1352, 0.0
1353, 0.0
1354, 0.0
1355, 0.0
1356, 0.0
1357, 0.0
1358, 0.0
1359, 0.0
1360, 0.0
1361, 0.0
1362, 0.0
1363, 0.0
1364, 0.0
1365, 0.0
1366, 0.0
1367, 0.0
1368, 0.0
1369, 0.0
1370, 0.0
1371, 0.0
1372, 0.0
1373, 0.0
1374, 0.0
1375, 0.0
1376, 0.0
1377, 0.0
1378, 0.0
1379, 0.0
1380, 0.0
1381, 0.0
1382, 0.0
1383, 0.0
1384, 0.0
1385, 0.0
1386, 0.0
1387, 0.0
1388, 0.0
1389, 0.0
1390, 0.0
1391, 0.0
1392, 0.0
1393, 0.0
1394, 0.0
1395, 0.0
1396, 0.0
1397, 0.0
1398, 0.0
1399, 0.0
1400, 0.0
1401, 0.0
1402, 0.0
1403, 0.0
1404, 0.0
1405, 0.0
1406, 0.0
1407, 0.0
1408, 0.0
1409, 0.0
1410, 0.0
1411, 0.0
1412, 0.0
1413, 0.0
1414, 0.0
1415, 0.0
1416, 0.0
1417, 0.0
1418, 0.0
1419, 0.0
1420, 0.0
1421, 0.0
1422, 0.0
1423, 0.0
1424, 0.0
1425, 0.0
1426, 0.0
1427, 0.0
1428, 0.0
1429, 0.0
1430, 0.0
1431, 0.0
1432, 0.0
1433, 0.0
1434, 0.0
1435, 0.0
1436, 0.0
1437, 0.0
1438, 0.0
1439, 0.0
1440, 0.0
1441, 0.0
1442, 0.0
1443, 0.0
1444, 0.0
1445, 0.0
1446, 0.0
1447, 0.0
1448, 0.0
1449, 0.0
1450, 0.0
1451, 0.0
1452, 0.0
1453, 0.0
1454, 0.0
1455, 0.0
1456, 0.0
1457, 0.0
1458, 0.0
1459, 0.0
1460, 0.0
1461, 0.0
1462, 0.0
1463, 0.0
1464, 0.0
1465, 0.0
1466, 0.0
1467, 0.0
1468, 0.0
1469, 0.0
1470, 0.0
1471, 0.0
1472, 0.0
1473, 0.0
1474, 0.0
1475, 0.0
1476, 0.0
1477, 0.0
1478, 0.0
1479, 0.0
1480, 0.0
1481, 0.0
1482, 0.0
1483, 0.0
1484, 0.0
1485, 0.0
1486, 0.0
1487, 0.0
1488, 0.0
1489, 0.0
1490, 0.0
1491, 0.0
1492, 0.0
1493, 0.0
1494, 0.0
1495, 0.0
1496, 0.0
1497, 0.0
1498, 0.0
1499, 0.0
1500, 0.0
1501, 0.0
1502, 0.0
1503, 0.0
1504, 0.0
1505, 0.0
1506, 0.0
1507, 0.0
1508, 0.0
1509, 0.0
1510, 0.0
1511, 0.0
1512, 0.0
1513, 0.0
1514, 0.0
1515, 0.0
1516, 0.0
1517, 0.0
1518, 0.0
1519, 0.0
1520, 0.0
1521, 0.0
1522, 0.0
1523, 0.0
1524, 0.0
1525, 0.0
1526, 0.0
1527, 0.0
1528, 0.0
1529, 0.0
1530, 0.0
1531, 0.0
1532, 0.0
1533, 0.0
1534, 0.0
1535, 0.0
1536, 0.0
1537, 0.0
1538, 0.0
1539, 0.0
1540, 0.0
1541, 0.0
1542, 0.0
1543, 0.0
1544, 0.0
1545, 0.0
1546, 0.0
1547, 0.0
1548, 0.0
1549, 0.0
1550, 0.0
1551, 0.0
1552, 0.0
1553, 0.0
1554, 0.0
1555, 0.0
1556, 0.0
1557, 0.0
1558, 0.0
1559, 0.0
1560, 0.0
1561, 0.0
1562, 0.0
1563, 0.0
1564, 0.0
1565, 0.0
1566, 0.0
1567, 0.0
1568, 0.0
1569, 0.0
1570, 0.0
1571, 0.0
1572, 0.0
1573, 0.0
1574, 0.0
1575, 0.0
1576, 0.0
1577, 0.0
1578, 0.0
1579, 0.0
1580, 0.0
1581, 0.0
1582, 0.0
1583, 0.0
1584, 0.0
1585, 0.0
1586, 0.0
1587, 0.0
1588, 0.0
1589, 0.0
1590, 0.0
1591, 0.0
1592, 0.0
1593, 0.0
1594, 0.0
1595, 0.0
1596, 0.0
1597, 0.0
1598, 0.0
1599, 0.0
