30, 0.0
31, 0.0
32, 0.0
33, 0.0
34, 0.0
35, 0.0
36, 0.0
37, 0.0
38, 0.0
39, 0.0
40, 0.0
41, 0.0
42, 0.0
43, 0.0
44, 0.0
45, 0.0
46, 0.0
47, 0.0
48, 0.0
49, 0.0
50, 0.0
51, 0.0
52, 0.0
53, 0.0
54, 0.0
55, 0.0
56, 0.0
57, 0.0
58, 0.0
59, 0.0
60, 0.0
61, 0.0
62, 0.0
63, 0.0
64, 0.0
65, 0.0
66, 0.0
67, 0.0
68, 0.0
69, 0.0
70, 0.0
71, 0.0
72, 0.0
73, 0.0
74, 0.0
75, 0.0
76, 0.0
77, 0.0
78, 0.0
79, 0.0
80, 0.0
81, 0.0
82, 0.0
83, 0.0
84, 0.0
85, 0.0
86, 0.0
87, 0.0
88, 0.0
89, 0.0
90, 0.0
91.0, 0.00031378552722660094
92.0, 0.0003531130326432607
93.0, 0.001159782413993336
94.0, 0.005603595793561917
95.0, 0.007532913850261496
96.0, 0.011510001306677467
97.0, 0.019248047698195547
98.0, 0.03101908877100204
99.0, 0.045477537836670634
100.0, 0.06295503419786286
101.0, 0.08509658324172355
102.0, 0.11848711990201574
103.0, 0.16528414891515106
104.0, 0.22698101244452804
105.0, 0.30645732992876995
106.0, 0.3793255774689084
107.0, 0.44777357116129374
108.0, 0.5133259789372857
109.0, 0.6866408206487389
110.0, 0.7998217362903524
111.0, 0.8010590278678751
112.0, 0.4881841405958659
113.0, 0.30693321639435495
114.0, 0.20444373046677383
115.0, 0.1530108798537295
116.0, 0.11498259342228549
117.0, 0.08672814891945328
118.0, 0.0663451951046542
119.0, 0.047348205734104115
120.0, 0.033716812982342456
121.0, 0.023433872383545024
122.0, 0.015931201324861526
123.0, 0.012440612423825463
124.0, 0.007058971806545864
125.0, 0.0012963320451529815
126.0, 0.00023877604372149312
127.0, 0.0016591731824961928
128.0, 0.0024198523679923875
129.0, 0.0013703593027981557
130.0, 0.002009189818587488
131.0, 0.0019959520986887708
132.0, 0.002461049934582362
133.0, 0.005579555688025815
134.0, 0.010436613575832625
135.0, 0.018494528591813077
136.0, 0.030209135913358956
137.0, 0.04595533604646946
138.0, 0.06287219556438693
139.0, 0.08012669258631076
140.0, 0.09696882379366162
141.0, 0.10734088303003378
142.0, 0.11570480105773417
143.0, 0.12098165033708394
144.0, 0.11541668827318341
145.0, 0.10430663100008539
146.0, 0.09368441340208836
147.0, 0.0868743811780705
148.0, 0.07995620498722712
149.0, 0.07720563734987795
150.0, 0.07798271216288848
151.0, 0.08150789667351493
152.0, 0.0866400519124466
153.0, 0.091494158363132
154.0, 0.09631797170164548
155.0, 0.11283224663414178
156.0, 0.11126562550777007
157.0, 0.10470548606542593
158.0, 0.1072335873007516
159.0, 0.10734228337112378
160.0, 0.10765925349489759
161.0, 0.10825661014588958
162.0, 0.10797826817998663
163.0, 0.10840473326870288
164.0, 0.10983285825998297
165.0, 0.11257145249770968
166.0, 0.12047125315824654
167.0, 0.13213061132214288
168.0, 0.14707205106421803
169.0, 0.1650393383509927
170.0, 0.18178929828413945
171.0, 0.1940607513968543
172.0, 0.20097305831174753
173.0, 0.20382885393788747
174.0, 0.1963502630563417
175.0, 0.18118243732659417
176.0, 0.15913896082465412
177.0, 0.1355070366125797
178.0, 0.1130405165878064
179.0, 0.0916396907111532
180.0, 0.07034425626137118
181.0, 0.058258082274798395
182.0, 0.04930860884448272
183.0, 0.04138678941649734
184.0, 0.0353355371357312
185.0, 0.0334771303824179
186.0, 0.03532054833108671
187.0, 0.04106136333333098
188.0, 0.050961866688256835
189.0, 0.06500082554460852
190.0, 0.08319979362228376
191.0, 0.105928537375165
192.0, 0.12204346013630783
193.0, 0.1314914337152178
194.0, 0.13343109726131266
195.0, 0.1270966085850309
196.0, 0.11951672360733331
197.0, 0.11399862264394038
198.0, 0.11742481403579244
199.0, 0.12528407120643575
200.0, 0.14097307127863987
201.0, 0.16395676651406818
202.0, 0.18452248168987592
203.0, 0.20725551427867506
204.0, 0.22776248982480055
205.0, 0.24271270642774978
206.0, 0.2437991817368087
207.0, 0.23675600411690154
208.0, 0.22429771961766645
209.0, 0.21106378456374628
210.0, 0.1889000154576793
211.0, 0.17196180146705364
212.0, 0.16214094977674925
213.0, 0.14743557993942927
214.0, 0.1254790248210393
215.0, 0.1047905758704773
216.0, 0.09180277529378696
217.0, 0.0756836127494501
218.0, 0.06382755606095074
219.0, 0.05413175452624136
220.0, 0.041700158628923095
221.0, 0.03303682855524745
222.0, 0.023979318636207846
223.0, 0.01426762801410577
224.0, 0.00935100871782046
225.0, 0.004061326079346217
226.0, 0.0009062222009714793
227.0, 0.0019020696936531871
228.0, 0.008651198596202916
229.0, 0.011775100203017082
230.0, 0.012784506927858121
231.0, 0.01475314365430555
232.0, 0.014918444336739552
233.0, 0.014435459023414894
234.0, 0.013413394160856112
235.0, 0.011178663652929513
236.0, 0.007364756749456105
237.0, 0.004659230132246274
238.0, 0.0047276009694662904
239.0, 0.013556603564068785
240.0, 0.02331897879398805
241.0, 0.03286788298965954
242.0, 0.04029117612255003
243.0, 0.053907332406470644
244.0, 0.06319128097075531
245.0, 0.06910604035238248
246.0, 0.08234775062501629
247.0, 0.0897235522848497
248.0, 0.09793735849425583
249.0, 0.10972140740810399
250.0, 0.12178093510692796
251.0, 0.132191136122345
252.0, 0.140155090385484
253.0, 0.14434370101273358
254.0, 0.14737819807676036
255.0, 0.15026132993626104
256.0, 0.1535252831205312
257.0, 0.15856384503337506
258.0, 0.16953700509361616
259.0, 0.18299368262146817
260.0, 0.19850140357680543
261.0, 0.219585733099398
262.0, 0.24820563038660137
263.0, 0.2789611431715245
264.0, 0.30845182071984056
265.0, 0.3352497722529533
266.0, 0.36341300389556214
267.0, 0.39050246244120307
268.0, 0.4121104089802013
269.0, 0.42886151602865547
270.0, 0.4389394876716857
271.0, 0.4424050632663225
272.0, 0.4400597255868663
273.0, 0.43516457727663355
274.0, 0.4104601056477397
275.0, 0.3613172306239171
276.0, 0.3293025335238502
277.0, 0.297115172627326
278.0, 0.2643592819039706
279.0, 0.23061425965001775
280.0, 0.20689822068131516
281.0, 0.18216918283368408
282.0, 0.16047703752404754
283.0, 0.15119318801790094
284.0, 0.14276305269127246
285.0, 0.13610360353845122
286.0, 0.1318939462278015
287.0, 0.1327407299697518
288.0, 0.13747222946190568
289.0, 0.14420656755182867
290.0, 0.1526350395123465
291.0, 0.16757381026764404
292.0, 0.18415272750256
293.0, 0.200887480481873
294.0, 0.21650448989988344
295.0, 0.23859596232149893
296.0, 0.25914407471741846
297.0, 0.27938443491023957
298.0, 0.30208588363542016
299.0, 0.31938390546452905
300.0, 0.33601058855153315
301.0, 0.3526384224249793
302.0, 0.36916063371616564
303.0, 0.42270506207417036
304.0, 0.4431663331720688
305.0, 0.41128461899042357
306.0, 0.3903123408880463
307.0, 0.3718347090608373
308.0, 0.3484974187458722
309.0, 0.3148466783956571
310.0, 0.27847062515743143
311.0, 0.24239563975484504
312.0, 0.20578947763565886
313.0, 0.1674015718029458
314.0, 0.14001002631967224
315.0, 0.11956936346651034
316.0, 0.10404746191662893
317.0, 0.08951270145229588
318.0, 0.08154537042326691
319.0, 0.07444616589956979
320.0, 0.06760398267749422
321.0, 0.0647804240551226
322.0, 0.06498367556911243
323.0, 0.06571644567478109
324.0, 0.06610812485480456
325.0, 0.06939028381665772
326.0, 0.07445282697823807
327.0, 0.0816730468760613
328.0, 0.09156466121466676
329.0, 0.09037883475453524
330.0, 0.09097559061667693
331.0, 0.09092399809455963
332.0, 0.08609888747931185
333.0, 0.08088672697354901
334.0, 0.07548676326985061
335.0, 0.07102289236471437
336.0, 0.07065284621789132
337.0, 0.07569685096496455
338.0, 0.08388811312882553
339.0, 0.09572113154384859
340.0, 0.11620550635517204
341.0, 0.13900430709494913
342.0, 0.16126645959917207
343.0, 0.18244880203771852
344.0, 0.2093676056198
345.0, 0.23127211760101837
346.0, 0.2533460515407324
347.0, 0.279110949375515
348.0, 0.30854168000463994
349.0, 0.347698460420048
350.0, 0.38980380360656
351.0, 0.4272549260330475
352.0, 0.4445185226060729
353.0, 0.436587743438297
354.0, 0.40726275473801044
355.0, 0.3618241565164686
356.0, 0.3044195139983989
357.0, 0.2499591251196889
358.0, 0.20011273104409116
359.0, 0.15436263002234013
360.0, 0.12149954054830968
361.0, 0.09765107372750846
362.0, 0.08060403094699778
363.0, 0.06304579972441877
364.0, 0.05257716938990359
365.0, 0.044102524719161346
366.0, 0.0358911388737469
367.0, 0.02964776338700116
368.0, 0.02752021601970345
369.0, 0.02571126384466889
370.0, 0.02207410004276137
371.0, 0.02059745262467839
372.0, 0.019438030021728517
373.0, 0.019594315437857186
374.0, 0.022080553663806343
375.0, 0.023805796197683766
376.0, 0.024264334530192014
377.0, 0.025610775979981175
378.0, 0.030973832212081262
379.0, 0.035215137766275106
380.0, 0.03971782747062645
381.0, 0.04625188532327732
382.0, 0.05847437632020988
383.0, 0.07290627629282909
384.0, 0.09097705948368816
385.0, 0.11304238004272267
386.0, 0.13987079807395214
387.0, 0.17326563687297175
388.0, 0.20986992045099886
389.0, 0.24631550082589718
390.0, 0.270854751990118
391.0, 0.27319182787936486
392.0, 0.2592593717981497
393.0, 0.23133512116080543
394.0, 0.19465390976242739
395.0, 0.1602783764171201
396.0, 0.13191728210106723
397.0, 0.11194383749290153
398.0, 0.10549549493004816
399.0, 0.0974334706499165
400.0, 0.0906540957644884
401.0, 0.08705453756840026
402.0, 0.08801539495556028
403.0, 0.08808623479085052
404.0, 0.0883231310139738
405.0, 0.08962520231385056
406.0, 0.09650919274693306
407.0, 0.10793543906775817
408.0, 0.1257052953966446
409.0, 0.15208863016730734
410.0, 0.19046143040646818
411.0, 0.2470671916754571
412.0, 0.322039496592016
413.0, 0.4165026495326215
414.0, 0.5235442482682378
415.0, 0.6227001263251719
416.0, 0.690985456775248
417.0, 0.6872505495718614
418.0, 0.6321733668800027
419.0, 0.5519020480162271
420.0, 0.4607416661931557
421.0, 0.3838646039158468
422.0, 0.334276680486917
423.0, 0.2993446102448797
424.0, 0.27850880680735496
425.0, 0.27602240727333827
426.0, 0.2776739055604858
427.0, 0.2791730481599076
428.0, 0.2778723530666414
429.0, 0.26733535629374966
430.0, 0.25191082113109553
431.0, 0.2292452331071592
432.0, 0.1999139761232243
433.0, 0.16847540018800816
434.0, 0.13765773089199426
435.0, 0.11221316581004677
436.0, 0.09388766830355809
437.0, 0.08461562022335821
438.0, 0.07945434380710131
439.0, 0.07764925634515613
440.0, 0.08004742721851672
441.0, 0.09281445033201949
442.0, 0.10241424769301745
443.0, 0.10980964971748894
444.0, 0.11447166800806058
445.0, 0.11048276955644651
446.0, 0.09690625312946581
447.0, 0.08110609734613351
448.0, 0.06573095316856635
449.0, 0.047155837608042234
450.0, 0.0328940998461333
451.0, 0.022950125587119855
452.0, 0.017092034314665463
453.0, 0.01180985502582489
454.0, 0.008851766283495788
455.0, 0.005600370528497579
456.0, 0.0011488258786025286
457.0, 0.0007093162232659873
458.0, 0.0007848541208675934
459.0, 0.0017281231842096088
460.0, 0.003590308864431675
461.0, 0.004160894261454018
462.0, 0.002825884258990159
463.0, 0.0017525118423406376
464.0, 0.002032051634653052
465.0, 0.0009085332544541138
466.0, 0.0014357134236227852
467.0, 0.00319086729314846
468.0, 0.006090413621449912
469.0, 0.012185071110747518
470.0, 0.016947332178992264
471.0, 0.022628203439951082
472.0, 0.03071744380817528
473.0, 0.041736828947481305
474.0, 0.04972000472011277
475.0, 0.06042660091807011
476.0, 0.07772211907860112
477.0, 0.10361090725892765
478.0, 0.13518615030108025
479.0, 0.17476535215354363
480.0, 0.22424083590079494
481.0, 0.28680927737177
482.0, 0.35947882046642327
483.0, 0.4300720341106484
484.0, 0.4872751141874113
485.0, 0.47892315622407333
486.0, 0.44633369012911345
487.0, 0.38628013057686517
488.0, 0.29910219253733217
489.0, 0.22207807752224215
490.0, 0.16523447252282797
491.0, 0.1206845516384113
492.0, 0.08496592849499955
493.0, 0.06628080028377119
494.0, 0.051528217555353514
495.0, 0.03977368957269738
496.0, 0.030721713643321
497.0, 0.0256936606366426
498.0, 0.02315139931310882
499.0, 0.0216935878326685
500.0, 0.020545412555359983
501.0, 0.018773723554074816
502.0, 0.0191246981678792
503.0, 0.019400911713682755
504.0, 0.018792805170106508
505.0, 0.01850336725668132
506.0, 0.01776475576624722
507.0, 0.015981176934700504
508.0, 0.013237471181529903
509.0, 0.011582243044537456
510.0, 0.008429486089734957
511.0, 0.0046328133667199916
512.0, 0.0011378411899446192
513.0, 0.0012914127694985014
514.0, 0.0019055374334197687
515.0, 0.0028487224778357516
516.0, 0.0039427589600378714
517.0, 0.004590957551979627
518.0, 0.00615276684607478
519.0, 0.006312867109109086
520.0, 0.005647391963062985
521.0, 0.008213808669650253
522.0, 0.0048661461696543245
523.0, 0.004172098148875342
524.0, 0.00577678241491925
525.0, 0.003698400251197915
526.0, 0.003114437458777429
527.0, 0.003051352920396453
528.0, 0.003574019234253855
529.0, 0.0052145632261376635
530.0, 0.008488058892359955
531.0, 0.013632219709438172
532.0, 0.01950358302511734
533.0, 0.0238940095806961
534.0, 0.02807024643196384
535.0, 0.030220306916987363
536.0, 0.031017754076416357
537.0, 0.031686496569644965
538.0, 0.02807191730735434
539.0, 0.026162163279298295
540.0, 0.023692326485196674
541.0, 0.017654206170833027
542.0, 0.01732487590543979
543.0, 0.014625105942946285
544.0, 0.011961427018326748
545.0, 0.011595748926629701
546.0, 0.009785032161868464
547.0, 0.00761558681854493
548.0, 0.006738907769212912
549.0, 0.008096460924362649
550.0, 0.007484673330807398
551.0, 0.006535520041560606
552.0, 0.005658165043308087
553.0, 0.005524201012824017
554.0, 0.009901792061489698
555.0, 0.01613923323027618
556.0, 0.019904087654699983
557.0, 0.02014551415182995
558.0, 0.02103053775422071
559.0, 0.02715787162017906
560.0, 0.029383235309942506
561.0, 0.027567880707238153
562.0, 0.031368419791542
563.0, 0.03488174242874466
564.0, 0.03946914518594603
565.0, 0.04579448336070459
566.0, 0.05488579201843903
567.0, 0.0636152268698734
568.0, 0.07699226205685543
569.0, 0.0937885998334773
570.0, 0.11061267489539559
571.0, 0.12420566569493037
572.0, 0.1360821272528634
573.0, 0.1450872347328133
574.0, 0.14965412108851314
575.0, 0.15295132570816147
576.0, 0.1491898029801537
577.0, 0.1426085256497382
578.0, 0.13740269445406378
579.0, 0.13786882356939512
580.0, 0.1381494191642588
581.0, 0.1428103198837946
582.0, 0.15435485876993713
583.0, 0.16917108551241547
584.0, 0.19348395768652749
585.0, 0.21954930607510603
586.0, 0.24407460677110498
587.0, 0.26685071210948436
588.0, 0.2737533833969151
589.0, 0.2711537952207742
590.0, 0.2587545860409315
591.0, 0.23022950077015064
592.0, 0.19694631626597145
593.0, 0.16476127405716864
594.0, 0.13590923082728526
595.0, 0.11300693066408679
596.0, 0.0918096598678142
597.0, 0.07577368482424947
598.0, 0.06236836916951449
599.0, 0.04798549477718861
600.0, 0.04099578950911453
601.0, 0.03574699452852718
602.0, 0.030696907286173823
603.0, 0.024962498706988752
604.0, 0.02505338411382592
605.0, 0.022074858019348036
606.0, 0.020597060575562126
607.0, 0.022570245089561524
608.0, 0.024792336286772302
609.0, 0.024737306777730363
610.0, 0.025689136570218287
611.0, 0.028289976856991764
612.0, 0.031100291348702288
613.0, 0.030818361155974392
614.0, 0.0321677316774412
615.0, 0.03417335547394275
616.0, 0.03311464123320266
617.0, 0.03602866307348448
618.0, 0.03547448919426701
619.0, 0.033613614986111276
620.0, 0.03375321834638149
621.0, 0.026417780463467613
622.0, 0.02166873476964297
623.0, 0.016631056884810903
624.0, 0.00962209825830212
625.0, 0.006454422059006832
626.0, 0.003726671980324243
627.0, 0.0024658424798344705
628.0, 0.0027728000553565286
629.0, 0.002957883371864227
630.0, 0.003382839149998626
631.0, 0.0044153058577612635
632.0, 0.005611106010908929
633.0, 0.0056215495652863845
634.0, 0.005367062347330819
635.0, 0.00365151978325842
636.0, 0.0014817902884164047
637.0, 0.00045589802334810984
638.0, 0.0036916003001650696
639.0, 0.007391009194651031
640.0, 0.010598388312005649
641.0, 0.012610890099305612
642.0, 0.0139202235099646
643.0, 0.015109349161338345
644.0, 0.014109756585054716
645.0, 0.011145850344184104
646.0, 0.011765701211380467
647.0, 0.008947584018439671
648.0, 0.007419541327769157
649.0, 0.006829935598237105
650.0, 0.0037736041463551266
651.0, 0.001262975312369227
652.0, 0.0012754737371270923
653.0, 0.002008894491562599
654.0, 0.0010046475768363977
655.0, 0.0021852852489662603
656.0, 0.001621023497194764
657.0, 0.0006555035787832645
658.0, 0.0004470843095412851
659.0, 0.0027013277762609044
660.0, 0.003722913296371105
661.0, 0.005551864629060216
662.0, 0.008839865202739619
663.0, 0.013313165159692142
664.0, 0.01687447529755118
665.0, 0.02316364931282527
666.0, 0.031038163255726586
667.0, 0.03757293303793205
668.0, 0.04758593532022499
669.0, 0.0606502444595513
670.0, 0.07506986013485499
671.0, 0.09001034258135202
672.0, 0.11553310609375224
673.0, 0.13344013501760316
674.0, 0.15154157488208708
675.0, 0.16935508317880574
676.0, 0.1693897704907462
677.0, 0.16190286082759991
678.0, 0.14988568892400891
679.0, 0.13420241309053257
680.0, 0.115440378652446
681.0, 0.09360400185462871
682.0, 0.07913442069801686
683.0, 0.06792804926096219
684.0, 0.05573558121928435
685.0, 0.050726203908844726
686.0, 0.04390912953494994
687.0, 0.03921127382138256
688.0, 0.03825664693390348
689.0, 0.039818895949359966
690.0, 0.03812622269216091
691.0, 0.03841278747446965
692.0, 0.04110270281169124
693.0, 0.04482082368049499
694.0, 0.0458547560608132
695.0, 0.05210875733427311
696.0, 0.060469293832695545
697.0, 0.06808110610399941
698.0, 0.08307418697485142
699.0, 0.0954003810554972
700.0, 0.11234996662633845
701.0, 0.1357102509350713
702.0, 0.15973372127431087
703.0, 0.19528850496599773
704.0, 0.23911687215918404
705.0, 0.2890484465741603
706.0, 0.34218492725460686
707.0, 0.41848609597262676
708.0, 0.5102306014894713
709.0, 0.6162764082622281
710.0, 0.7338229292538414
711.0, 0.8497281682246358
712.0, 0.9387732144788791
713.0, 0.9876701041461043
714.0, 0.9924431550068981
715.0, 0.9550330312786706
716.0, 0.8576195521300273
717.0, 0.741779491222762
718.0, 0.6282304165755859
719.0, 0.5361009368518396
720.0, 0.4314102472812374
721.0, 0.3592013911979341
722.0, 0.29933393729017616
723.0, 0.2432134662677177
724.0, 0.2086372367428147
725.0, 0.17668297215917828
726.0, 0.14781259839250424
727.0, 0.12421241956639321
728.0, 0.10969358738871036
729.0, 0.09260656059329005
730.0, 0.07945780728934744
731.0, 0.07020440752364886
732.0, 0.06367572481233816
733.0, 0.052537097703375155
734.0, 0.0498761029768652
735.0, 0.0452418973825238
736.0, 0.03666433736809194
737.0, 0.02889172567510065
738.0, 0.028539936324289524
739.0, 0.02688192571449232
740.0, 0.023421767340581618
741.0, 0.01890636865883978
742.0, 0.018440905818963235
743.0, 0.018898451401374788
744.0, 0.0176126610170023
745.0, 0.014314357749631851
746.0, 0.012879602039794982
747.0, 0.01220369964296963
748.0, 0.01189330630624364
749.0, 0.012022986951042635
750.0, 0.012747041792392324
751.0, 0.012434645006644412
752.0, 0.016094102998252438
753.0, 0.01875682957856528
754.0, 0.018677952905420014
755.0, 0.022419810111495693
756.0, 0.025180375215146954
757.0, 0.029186715814873403
758.0, 0.034730077448922696
759.0, 0.04142748400978229
760.0, 0.04880093356627196
761.0, 0.05559877757414269
762.0, 0.0641617545200578
763.0, 0.0755843827579577
764.0, 0.08668477592316257
765.0, 0.10126728152933549
766.0, 0.1063645343734868
767.0, 0.10316875217468655
768.0, 0.10036058610341711
769.0, 0.09372713110992086
770.0, 0.08865933968913087
771.0, 0.08048338820396175
772.0, 0.06714358891702113
773.0, 0.05906699279179826
774.0, 0.049729147704567454
775.0, 0.0403912541270679
776.0, 0.03283312221455353
777.0, 0.029813580423364672
778.0, 0.025367638040573612
779.0, 0.02311858715140635
780.0, 0.018598587352229284
781.0, 0.01008055667036132
782.0, 0.009443226475729316
783.0, 0.006063483184683675
784.0, 0.0034084353976106853
785.0, 0.0024084380466755685
786.0, 0.003039382245418786
787.0, 0.00486237794281114
788.0, 0.004221841416852278
789.0, 0.003947972479846123
790.0, 0.005677633763684356
791.0, 0.00630729080368914
792.0, 0.0047067346400621775
793.0, 0.005851845601113551
794.0, 0.008766202823357326
795.0, 0.009687159771890167
796.0, 0.009223818581223772
797.0, 0.008191256409040998
798.0, 0.007043173150977391
799.0, 0.005946635244384218
800.0, 0.004251828182232089
801.0, 0.001391511632795763
802.0, 0.0021852600422225727
803.0, 0.005259056501882491
804.0, 0.007238202327102112
805.0, 0.014180334479541782
806.0, 0.022068797798108032
807.0, 0.031386986174378906
808.0, 0.04175256606006472
809.0, 0.050890783574248
810.0, 0.060227178557290637
811.0, 0.06592334813329748
812.0, 0.06779848429229805
813.0, 0.06629569166887705
814.0, 0.05840296505291091
815.0, 0.04924149162558234
816.0, 0.04024820540829817
817.0, 0.03193321938827593
818.0, 0.024066969350459395
819.0, 0.017162494427687348
820.0, 0.010134689824540393
821.0, 0.005234228682267268
822.0, 0.003877968651620087
823.0, 0.0012691320858506472
824.0, 0.0010645054571080076
825.0, 0.0018871849982669533
826.0, 0.0030644078987705375
827.0, 0.0040474561981021315
828.0, 0.00323396722407689
829.0, 0.0029549083781904035
830.0, 0.0022009999825687463
831.0, 0.0013595144623517294
832.0, 0.00519141924804528
833.0, 0.0018251217832780317
834.0, 0.0013509832987927313
835.0, 0.0036995364169941825
836.0, 0.0063502575224134335
837.0, 0.006381765943013779
838.0, 0.010056893319224564
839.0, 0.01257461696494031
840.0, 0.014418524839532888
841.0, 0.022096922108152083
842.0, 0.024036838788717554
843.0, 0.027201322974715156
844.0, 0.032301752650556764
845.0, 0.03877642248221852
846.0, 0.04214462139501038
847.0, 0.048453465913333243
848.0, 0.052705422125538186
849.0, 0.05344489385852252
850.0, 0.05058384883403081
851.0, 0.05123036186783095
852.0, 0.051541809064343753
853.0, 0.04963138142293057
854.0, 0.04591741217948357
855.0, 0.044498841378536
856.0, 0.039241005021033525
857.0, 0.03788472751675516
858.0, 0.037560200908392176
859.0, 0.03580866335117376
860.0, 0.03934759211789332
861.0, 0.037728974324819385
862.0, 0.03410461394251562
863.0, 0.03191915571207978
864.0, 0.035139112079053667
865.0, 0.03446880496023842
866.0, 0.03204355497313968
867.0, 0.031103155687694842
868.0, 0.03249253867672775
869.0, 0.033840788917329244
870.0, 0.033020061021880195
871.0, 0.03612041141132305
872.0, 0.039281107768292224
873.0, 0.03973047158143376
874.0, 0.044430010625473665
875.0, 0.0451763023828542
876.0, 0.04923484297551536
877.0, 0.055641927726529976
878.0, 0.06049662264205177
879.0, 0.062226918705023025
880.0, 0.07144307477248504
881.0, 0.0770187455771377
882.0, 0.07958835712216651
883.0, 0.09243114076670121
884.0, 0.10120070265123407
885.0, 0.11290547902728987
886.0, 0.12613208490699251
887.0, 0.14024503414347292
888.0, 0.15840660435871892
889.0, 0.17611158234281982
890.0, 0.2016088742801784
891.0, 0.2306450923933596
892.0, 0.2578969132347634
893.0, 0.29442947334288966
894.0, 0.3270950393611156
895.0, 0.35799549554470195
896.0, 0.38891000375860024
897.0, 0.42154781803780783
898.0, 0.4362833958808575
899.0, 0.44428547900342025
900.0, 0.4481940163985926
901.0, 0.44605102836563887
902.0, 0.42856349154849066
903.0, 0.4156086204023937
904.0, 0.40563138987446984
905.0, 0.3920894763285422
906.0, 0.3735526931455005
907.0, 0.36592579868618597
908.0, 0.34700594626675535
909.0, 0.3341432571880203
910.0, 0.31931497262497766
911.0, 0.2925431799717897
912.0, 0.26916329564831365
913.0, 0.2484323519387456
914.0, 0.2260291725226969
915.0, 0.20310555946221112
916.0, 0.18315619321181115
917.0, 0.16189708015604282
918.0, 0.14433539776878399
919.0, 0.13487579595179555
920.0, 0.12904632749676828
921.0, 0.11287613698365173
922.0, 0.11702440263353484
923.0, 0.11443729759069463
924.0, 0.1121835681475524
925.0, 0.11475010762566346
926.0, 0.12100248946501703
927.0, 0.12651851130230665
928.0, 0.12984894827817547
929.0, 0.1341353893212198
930.0, 0.13934568567763594
931.0, 0.131434607380372
932.0, 0.1310387607152214
933.0, 0.1267449967871316
934.0, 0.12070006909850388
935.0, 0.11681975065861967
936.0, 0.11051757149702295
937.0, 0.1053308587887056
938.0, 0.10404147413443954
939.0, 0.10608493092986446
940.0, 0.10947835079379213
941.0, 0.11400556051920556
942.0, 0.1197194096220422
943.0, 0.12430061639255238
944.0, 0.13056300208722976
945.0, 0.144715444987497
946.0, 0.15809938584511415
947.0, 0.17709732511832788
948.0, 0.19729133642175203
949.0, 0.21659545920530587
950.0, 0.23515485902086666
951.0, 0.24172478620140017
952.0, 0.2550255711271723
953.0, 0.2620293467419361
954.0, 0.25970834273791205
955.0, 0.2625263340935592
956.0, 0.26154875963670104
957.0, 0.265680539455185
958.0, 0.27317578155868183
959.0, 0.282683094973025
960.0, 0.2959729984775408
961.0, 0.3171125985697099
962.0, 0.33282209077404323
963.0, 0.3386559463535579
964.0, 0.3360147239768429
965.0, 0.34233556250072156
966.0, 0.32674789983584396
967.0, 0.31531720130599333
968.0, 0.3115752265296772
969.0, 0.312053311129171
970.0, 0.2990376982695404
971.0, 0.3192104817366557
972.0, 0.3406984133483564
973.0, 0.3651689128147268
974.0, 0.39993440979525885
975.0, 0.43662453157589454
976.0, 0.47038417308691505
977.0, 0.5045044082968225
978.0, 0.5306275360165036
979.0, 0.5381263010145105
980.0, 0.5293305851686361
981.0, 0.5112066572918662
982.0, 0.4905380585525254
983.0, 0.46763768983834
984.0, 0.4425438144677629
985.0, 0.4413669938518824
986.0, 0.4264151173677947
987.0, 0.42603020348480214
988.0, 0.43454663931122095
989.0, 0.4312811767955926
990.0, 0.4244423098102722
991.0, 0.42997240040494616
992.0, 0.42701374416335186
993.0, 0.4188251048375066
994.0, 0.4208487623124383
995.0, 0.4222270062566157
996.0, 0.4230734759491658
997.0, 0.43416204674990866
998.0, 0.4506834448035891
999.0, 0.45973146434220713
1000.0, 0.48821303357771956
1001.0, 0.5198612240044272
1002.0, 0.5396352998478189
1003.0, 0.5492882039481458
1004.0, 0.5599587680105969
1005.0, 0.5409770017392611
1006.0, 0.5126642021338079
1007.0, 0.47944538121349856
1008.0, 0.4379592350602135
1009.0, 0.38158764818332574
1010.0, 0.34240033083565546
1011.0, 0.2966668108659363
1012.0, 0.2539072807488607
1013.0, 0.21923393150003948
1014.0, 0.19424850095501756
1015.0, 0.16495128701865558
1016.0, 0.14785969191308565
1017.0, 0.13351073429905763
1018.0, 0.11902826475305346
1019.0, 0.10563117705529342
1020.0, 0.10124034561782448
1021.0, 0.08985996974142353
1022.0, 0.08310836572038784
1023.0, 0.08048110559500489
1024.0, 0.07542038391029622
1025.0, 0.07123246630806855
1026.0, 0.07169084341457316
1027.0, 0.06828462077136395
1028.0, 0.06143853110084038
1029.0, 0.0559633096624609
1030.0, 0.0564568980813782
1031.0, 0.05017504150408606
1032.0, 0.04639132429741724
1033.0, 0.04436213306751334
1034.0, 0.03998502377699857
1035.0, 0.035247776848878073
1036.0, 0.03478847610030072
1037.0, 0.030218654960409604
1038.0, 0.02554901761217785
1039.0, 0.026756022326706513
1040.0, 0.026028590721382652
1041.0, 0.027408372538492827
1042.0, 0.027384891348771756
1043.0, 0.026581658112338837
1044.0, 0.025951625962062835
1045.0, 0.022745002798711503
1046.0, 0.02468291548102388
1047.0, 0.025432727158584488
1048.0, 0.025869155272843645
1049.0, 0.027410117295610385
1050.0, 0.02866451436034479
1051.0, 0.026390715562272165
1052.0, 0.026889977611727733
1053.0, 0.027902695236385174
1054.0, 0.02664161951398932
1055.0, 0.02167767716222873
1056.0, 0.024612449367907168
1057.0, 0.02456422400933639
1058.0, 0.02274205113911279
1059.0, 0.02119430191748071
1060.0, 0.021684781857401327
1061.0, 0.016664615568012707
1062.0, 0.01860327964933078
1063.0, 0.019271289507003176
1064.0, 0.016358703091877633
1065.0, 0.015360117277562256
1066.0, 0.016073753671791934
1067.0, 0.013137961085092256
1068.0, 0.013440182193383998
1069.0, 0.016035629798107968
1070.0, 0.014331197624553305
1071.0, 0.013881053978871533
1072.0, 0.013994897129222689
1073.0, 0.013487063230127862
1074.0, 0.012243777687424783
1075.0, 0.01128016994169377
1076.0, 0.016788746557831573
1077.0, 0.013897379455058003
1078.0, 0.012943326968056345
1079.0, 0.015031040181110627
1080.0, 0.01795269042428223
1081.0, 0.017686235526560144
1082.0, 0.019280990370274875
1083.0, 0.01711010263782393
1084.0, 0.016868249178623757
1085.0, 0.02081789842610233
1086.0, 0.01700210172644821
1087.0, 0.015248724381526855
1088.0, 0.016587684278412874
1089.0, 0.01664717085216796
1090.0, 0.014172277205662331
1091.0, 0.013247611486347068
1092.0, 0.014254377443793634
1093.0, 0.01581976818504036
1094.0, 0.017520412293096338
1095.0, 0.019612120694557166
1096.0, 0.022826046061700658
1097.0, 0.025962116132948177
1098.0, 0.03191095673731185
1099.0, 0.03498605073398366
1100.0, 0.03730123919882577
1101.0, 0.04352998811404538
1102.0, 0.05030349839721136
1103.0, 0.050477066266302106
1104.0, 0.055262445752506384
1105.0, 0.06060925929586429
1106.0, 0.06168843250013489
1107.0, 0.0629977882873932
1108.0, 0.06178179042400587
1109.0, 0.05696672243195403
1110.0, 0.05211517234280165
1111.0, 0.0492933711905592
1112.0, 0.047317076138530846
1113.0, 0.04480118487803541
1114.0, 0.0400075007506813
1115.0, 0.03403049158183633
1116.0, 0.02823743796210855
1117.0, 0.02409407654475597
1118.0, 0.023207936109086245
1119.0, 0.02369188252938117
1120.0, 0.026068736124059404
1121.0, 0.028132150335806218
1122.0, 0.026650293968981446
1123.0, 0.01834635877134034
1124.0, 0.017606221010288633
1125.0, 0.0151573751038031
1126.0, 0.010843800308953627
1127.0, 0.007981687413372116
1128.0, 0.013795308213000257
1129.0, 0.005082195540697231
1130.0, 0.00798097491617828
1131.0, 0.00877376367078223
1132.0, 0.003825863168318032
1133.0, 0.000934537127928646
1134.0, 0.006271833801865033
1135.0, 0.0039335039716832405
1136.0, 0.0019499885257046855
1137.0, 0.0027061976918683786
1138.0, 0.005079538948717339
1139.0, 0.003010399690362197
1140.0, 0.0028069168389550933
1141.0, 0.0032159467492094275
1142.0, 0.003521831434695944
1143.0, 0.0038608510773893855
1144.0, 0.0058454950644336815
1145.0, 0.002447078929103156
1146.0, 0.0013274692743387466
1147.0, 0.0009527923848774646
1148.0, 0.0017600582709250063
1149.0, 0.005241711524040869
1150.0, 0.0034789965323235523
1151.0, 0.0017473541537507415
1152.0, 0.0007240229122069875
1153.0, 0.0011347246447883995
1154.0, 0.002933390465972589
1155.0, 0.0035521643640069925
1156.0, 0.0010738685205493228
1157.0, 0.0007893410534131352
1158.0, 0.0015698131334060332
1159.0, 0.0017930621140363433
1160.0, 0.00031239235622074635
1161.0, 0.0019631233651845946
1162.0, 0.0035273303957651333
1163.0, 0.002841227719831924
1164.0, 0.0018762722228205424
1165.0, 0.0031320624993135867
1166.0, 0.00032381532443081
1167.0, 0.0001157864469780814
1168.0, 0.0017421354654874183
1169.0, 0.0028423903976278414
1170.0, 0.0022270178244866586
1171.0, 0.0013731056949224953
1172.0, 0.0031089943318236184
1173.0, 0.0019442721089500013
1174.0, 0.0010693977152136658
1175.0, 0.0011778272228062546
1176.0, 0.0011838246135285233
1177.0, 0.0007247931092598644
1178.0, 0.0019697123690142044
1179.0, 0.0030666643253483682
1180.0, 0.0023863049184256464
1181.0, 0.00011687687201731808
1182.0, 2.1316499283624655e-05
1183.0, 0.001020034198607822
1184.0, 0.0017724108257701618
1185.0, 0.002237633963489493
1186.0, 0.0020683557843761947
1187.0, 0.0010079590137573068
1188.0, 0.0014643744360820856
1189.0, 0.004535528370176718
1190.0, 0.003880936823706026
1191.0, 0.001666523906936886
1192.0, 0.0013006267723160503
1193.0, 0.00417495143610802
1194.0, 0.0015009378813476484
1195.0, 0.001934157049357595
1196.0, 0.002393250111647681
1197.0, 0.0029297292799461347
1198.0, 0.00515944001770845
1199.0, 0.0033802727966682376
1200.0, 0.003991746394769542
1201.0, 0.003038316049504602
1202.0, 0.004983697587571769
1203.0, 0.009942255238751276
1204.0, 0.007091202939441649
1205.0, 0.007234532842648794
1206.0, 0.008791391961568699
1207.0, 0.007599186325326373
1208.0, 0.007120798179602758
1209.0, 0.012464005695273834
1210.0, 0.0129422736126655
1211.0, 0.006962333770809447
1212.0, 0.007736614054456663
1213.0, 0.010043552198466619
1214.0, 0.00983242303106085
1215.0, 0.009157895474292592
1216.0, 0.01144934841628491
1217.0, 0.009254737915307395
1218.0, 0.009157956806965335
1219.0, 0.00942474542014741
1220.0, 0.007467882857684268
1221.0, 0.010442281897844565
1222.0, 0.01032640665896642
1223.0, 0.010662105060145921
1224.0, 0.01117815299285511
1225.0, 0.011090835659168692
1226.0, 0.00968982818233072
1227.0, 0.008279569940658834
1228.0, 0.009879292020923056
1229.0, 0.008220731802181165
1230.0, 0.006475006429244293
1231.0, 0.00795146314927244
1232.0, 0.011101262325575761
1233.0, 0.007250010445729888
1234.0, 0.007240368252642271
1235.0, 0.007147240086063305
1236.0, 0.005518600783231379
1237.0, 0.0039038951340557757
1238.0, 0.009787433635641909
1239.0, 0.0072558920844092165
1240.0, 0.0061982366030636695
1241.0, 0.007564387486256511
1242.0, 0.008569944349705105
1243.0, 0.004910645236656789
1244.0, 0.00689411612984462
1245.0, 0.008532731069860095
1246.0, 0.005947222797964236
1247.0, 0.004362824364001297
1248.0, 0.0065363029064080995
1249.0, 0.00534044549016746
1250.0, 0.003783972955941588
1251.0, 0.0060366656732114615
1252.0, 0.006302020766302004
1253.0, 0.004945162613277005
1254.0, 0.004792742164542299
1255.0, 0.004716824507012781
1256.0, 0.002068317664803295
1257.0, 0.007040310992449305
1258.0, 0.008941597333781259
1259.0, 0.0054001834130275655
1260.0, 0.003365872552027127
1261.0, 0.008246774323374194
1262.0, 0.007232113989450214
1263.0, 0.003608217608169994
1264.0, 0.003820011535465636
1265.0, 0.0078083925649517355
1266.0, 0.006112650473369262
1267.0, 0.005316594744582331
1268.0, 0.004715582035365603
1269.0, 0.0030809553258136307
1270.0, 0.0043309846240321016
1271.0, 0.008990755228484231
1272.0, 0.006350848449480785
1273.0, 0.002071144188552655
1274.0, 0.0046484825022832955
1275.0, 0.004083598150726203
1276.0, 0.002231694587222013
1277.0, 0.004820303769499431
1278.0, 0.0065947350351544705
1279.0, 0.0016436569462465178
1280.0, 0.0064400310594383715
1281.0, 0.007493790561329117
1282.0, 0.003164312767268149
1283.0, 0.002175156609165316
1284.0, 0.006314335278204738
1285.0, 0.0019254418815117817
1286.0, 0.0028726934250992158
1287.0, 0.005149805767753211
1288.0, 0.0044018125921601835
1289, 0.0
1290, 0.0
1291, 0.0
1292, 0.0
1293, 0.0
1294, 0.0
1295, 0.0
1296, 0.0
1297, 0.0
1298, 0.0
1299, 0.0
1300, 0.0
1301, 0.0
1302, 0.0
1303, 0.0
1304, 0.0
1305, 0.0
1306, 0.0
1307, 0.0
1308, 0.0
1309, 0.0
1310, 0.0
1311, 0.0
1312, 0.0
1313, 0.0
1314, 0.0
1315, 0.0
1316, 0.0
1317, 0.0
1318, 0.0
1319, 0.0
1320, 0.0
1321, 0.0
1322, 0.0
1323, 0.0
1324, 0.0
1325, 0.0
1326, 0.0
1327, 0.0
1328, 0.0
1329, 0.0
1330, 0.0
1331, 0.0
1332, 0.0
1333, 0.0
1334, 0.0
1335, 0.0
1336, 0.0
1337, 0.0
1338, 0.0
1339, 0.0
1340, 0.0
1341, 0.0
1342, 0.0
1343, 0.0
1344, 0.0
1345, 0.0
1346, 0.0
1347, 0.0
1348, 0.0
1349, 0.0
1350, 0.0
1351, 0.0
1352, 0.0
1353, 0.0
1354, 0.0
1355, 0.0
1356, 0.0
1357, 0.0
1358, 0.0
1359, 0.0
1360, 0.0
1361, 0.0
1362, 0.0
1363, 0.0
1364, 0.0
1365, 0.0
1366, 0.0
1367, 0.0
1368, 0.0
1369, 0.0
1370, 0.0
1371, 0.0
1372, 0.0
1373, 0.0
1374, 0.0
1375, 0.0
1376, 0.0
1377, 0.0
1378, 0.0
1379, 0.0
1380, 0.0
1381, 0.0
1382, 0.0
1383, 0.0
1384, 0.0
1385, 0.0
1386, 0.0
1387, 0.0
1388, 0.0
1389, 0.0
1390, 0.0
1391, 0.0
1392, 0.0
1393, 0.0
1394, 0.0
1395, 0.0
1396, 0.0
1397, 0.0
1398, 0.0
1399, 0.0
1400, 0.0
1401, 0.0
1402, 0.0
1403, 0.0
1404, 0.0
1405, 0.0
1406, 0.0
1407, 0.0
1408, 0.0
1409, 0.0
1410, 0.0
1411, 0.0
1412, 0.0
1413, 0.0
1414, 0.0
1415, 0.0
1416, 0.0
1417, 0.0
1418, 0.0
1419, 0.0
1420, 0.0
1421, 0.0
1422, 0.0
1423, 0.0
1424, 0.0
1425, 0.0
1426, 0.0
1427, 0.0
1428, 0.0
1429, 0.0
1430, 0.0
1431, 0.0
1432, 0.0
1433, 0.0
1434, 0.0
1435, 0.0
1436, 0.0
1437, 0.0
1438, 0.0
1439, 0.0
1440, 0.0
1441, 0.0
1442, 0.0
1443, 0.0
1444, 0.0
1445, 0.0
1446, 0.0
1447, 0.0
1448, 0.0
1449, 0.0
1450, 0.0
1451, 0.0
1452, 0.0
1453, 0.0
1454, 0.0
1455, 0.0
1456, 0.0
1457, 0.0
1458, 0.0
1459, 0.0
1460, 0.0
1461, 0.0
1462, 0.0
1463, 0.0
1464, 0.0
1465, 0.0
1466, 0.0
1467, 0.0
1468, 0.0
1469, 0.0
1470, 0.0
1471, 0.0
1472, 0.0
1473, 0.0
1474, 0.0
1475, 0.0
1476, 0.0
1477, 0.0
1478, 0.0
1479, 0.0
1480, 0.0
1481, 0.0
1482, 0.0
1483, 0.0
1484, 0.0
1485, 0.0
1486, 0.0
1487, 0.0
1488, 0.0
1489, 0.0
1490, 0.0
1491, 0.0
1492, 0.0
1493, 0.0
1494, 0.0
1495, 0.0
1496, 0.0
1497, 0.0
1498, 0.0
1499, 0.0
1500, 0.0
1501, 0.0
1502, 0.0
1503, 0.0
1504, 0.0
1505, 0.0
1506, 0.0
1507, 0.0
1508, 0.0
1509, 0.0
1510, 0.0
1511, 0.0
1512, 0.0
1513, 0.0
1514, 0.0
1515, 0.0
1516, 0.0
1517, 0.0
1518, 0.0
1519, 0.0
1520, 0.0
1521, 0.0
1522, 0.0
1523, 0.0
1524, 0.0
1525, 0.0
1526, 0.0
1527, 0.0
1528, 0.0
1529, 0.0
1530, 0.0
1531, 0.0
1532, 0.0
1533, 0.0
1534, 0.0
1535, 0.0
1536, 0.0
1537, 0.0
1538, 0.0
1539, 0.0
1540, 0.0
1541, 0.0
1542, 0.0
1543, 0.0
1544, 0.0
1545, 0.0
1546, 0.0
1547, 0.0
1548, 0.0
1549, 0.0
1550, 0.0
1551, 0.0
1552, 0.0
1553, 0.0
1554, 0.0
1555, 0.0
1556, 0.0
1557, 0.0
1558, 0.0
1559, 0.0
1560, 0.0
1561, 0.0
1562, 0.0
1563, 0.0
1564, 0.0
1565, 0.0
1566, 0.0
1567, 0.0
1568, 0.0
1569, 0.0
1570, 0.0
1571, 0.0
1572, 0.0
1573, 0.0
1574, 0.0
1575, 0.0
1576, 0.0
1577, 0.0
1578, 0.0
1579, 0.0
1580, 0.0
1581, 0.0
1582, 0.0
1583, 0.0
1584, 0.0
1585, 0.0
1586, 0.0
1587, 0.0
1588, 0.0
1589, 0.0
1590, 0.0
1591, 0.0
1592, 0.0
1593, 0.0
1594, 0.0
1595, 0.0
1596, 0.0
1597, 0.0
1598, 0.0
1599, 0.0
