30, 0.0
31, 0.0
32, 0.0
33, 0.0
34, 0.0
35, 0.0
36, 0.0
37, 0.0
38, 0.0
39, 0.0
40, 0.0
41, 0.0
42, 0.0
43, 0.0
44, 0.0
45, 0.0
46, 0.0
47, 0.0
48, 0.0
49, 0.0
50, 0.0
51, 0.0
52, 0.0
53, 0.0
54, 0.0
55, 0.0
56, 0.0
57, 0.0
58, 0.0
59, 0.0
60, 0.0
61, 0.0
62, 0.0
63, 0.0
64, 0.0
65, 0.0
66, 0.0
67, 0.0
68, 0.0
69, 0.0
70, 0.0
71, 0.0
72, 0.0
73, 0.0
74, 0.0
75, 0.0
76, 0.0
77, 0.0
78, 0.0
79, 0.0
80, 0.0
81, 0.0
82, 0.0
83, 0.0
84, 0.0
85, 0.0
86, 0.0
87, 0.0
88, 0.0
89, 0.0
90, 0.0
91, 0.0
92, 0.0
93, 0.0
94, 0.0
95, 0.0
96, 0.0
97, 0.0
98, 0.0
99, 0.0
100, 0.0
101, 0.0
102, 0.0
103, 0.0
104, 0.0
105, 0.0
106, 0.0
107, 0.0
108, 0.0
109, 0.0
110, 0.0
111, 0.0
112, 0.0
113, 0.0
114, 0.0
115, 0.0
116, 0.0
117, 0.0
118, 0.0
119, 0.0
120, 0.0
121, 0.0
122, 0.0
123, 0.0
124, 0.0
125, 0.0
126, 0.0
127, 0.0
128, 0.0
129.0, 0.0
130.0, 0.0002815017609360823
131.0, 0.0011737784548068754
132.0, 0.002521600157627451
133.0, 0.004537356803592222
134.0, 0.007736058235165877
135.0, 0.013361950934221168
136.0, 0.024560718282758902
137.0, 0.035641929932862935
138.0, 0.050452223748509044
139.0, 0.07334760277326098
140.0, 0.09824742539573171
141.0, 0.12304751204444765
142.0, 0.1331404535260579
143.0, 0.13752954387786304
144.0, 0.1398484046850315
145.0, 0.12725384999565623
146.0, 0.11387242233837391
147.0, 0.10415014319269167
148.0, 0.09376985873153787
149.0, 0.08450590265045475
150.0, 0.08239144242348363
151.0, 0.07669975516333302
152.0, 0.07886950729104389
153.0, 0.08375698152105644
154.0, 0.08704201480632599
155.0, 0.08754098048356933
156.0, 0.09647413693347275
157.0, 0.1014488180857371
158.0, 0.10405026680071149
159.0, 0.10620754803976469
160.0, 0.10493941405225869
161.0, 0.08866272376428229
162.0, 0.0704203689810329
163.0, 0.0645802502221373
164.0, 0.06386055746555824
165.0, 0.062438727146885094
166.0, 0.058104896019136515
167.0, 0.0678390112818803
168.0, 0.07927321082186292
169.0, 0.09170361868223398
170.0, 0.10588507015877571
171.0, 0.12205012142247364
172.0, 0.13741024381602465
173.0, 0.1391187098666819
174.0, 0.1292782819082089
175.0, 0.1165774514464176
176.0, 0.10498306548323028
177.0, 0.0910529309789651
178.0, 0.0699245508115705
179.0, 0.05364509594972845
180.0, 0.041586807819914626
181.0, 0.030662005644086915
182.0, 0.018103508583928396
183.0, 0.010140118073566767
184.0, 0.007551329953954391
185.0, 0.004140813988173931
186.0, 0.0018647885101299036
187.0, 0.0018311244731889177
188.0, 0.0007570789337004308
189.0, 0.0023487662907835847
190.0, 0.005057009449578234
191.0, 0.004944509636705946
192.0, 0.00492080489714644
193.0, 0.011759095813098978
194.0, 0.022220690241296415
195.0, 0.026114265094638905
196.0, 0.03313010616176454
197.0, 0.03673359562292171
198.0, 0.032462433716816716
199.0, 0.031031597384913283
200.0, 0.028165723500752884
201.0, 0.03675336154491179
202.0, 0.04935721874762279
203.0, 0.061714025269808015
204.0, 0.0739974472185946
205.0, 0.09013798603544727
206.0, 0.10315556147342973
207.0, 0.11294890562608137
208.0, 0.12205988450365488
209.0, 0.13191143994987373
210.0, 0.138438672303999
211.0, 0.1394799559945581
212.0, 0.1483090652455423
213.0, 0.1572640429987137
214.0, 0.1616170564251726
215.0, 0.16112386050105304
216.0, 0.15589174343908452
217.0, 0.1468715375521416
218.0, 0.13889689825686657
219.0, 0.13276437580464728
220.0, 0.12559257394710974
221.0, 0.10825918893141093
222.0, 0.08994520576706783
223.0, 0.07897872593753608
224.0, 0.06460751323861433
225.0, 0.04869093460751955
226.0, 0.042278135640684784
227.0, 0.02876143156447259
228.0, 0.01780620825098147
229.0, 0.012057305865695058
230.0, 0.00815418597892224
231.0, 0.0041570074645882
232.0, 0.005160505222549436
233.0, 0.007017915048757867
234.0, 0.009617266236855439
235.0, 0.01159875270167798
236.0, 0.012314770661647111
237.0, 0.011775012733367273
238.0, 0.010159246519895488
239.0, 0.007635575432904464
240.0, 0.007660749721523077
241.0, 0.005715593916425013
242.0, 0.0019084729347373342
243.0, 0.0061362945190076125
244.0, 0.007383429590732866
245.0, 0.016132550084419214
246.0, 0.02077188717093769
247.0, 0.025907325824630168
248.0, 0.03968021297263144
249.0, 0.0493385561885309
250.0, 0.05470091709507776
251.0, 0.06404272204265345
252.0, 0.08075208635341344
253.0, 0.10030874994339903
254.0, 0.11228361224137186
255.0, 0.1338777481604374
256.0, 0.15096715257907367
257.0, 0.16391929303916744
258.0, 0.17105585974545057
259.0, 0.17399125574074228
260.0, 0.18313077531169725
261.0, 0.191647048183247
262.0, 0.20376445182454625
263.0, 0.21536317095199484
264.0, 0.22645315162815752
265.0, 0.24059462681475294
266.0, 0.2640633670386631
267.0, 0.28912230286540497
268.0, 0.31277519020709177
269.0, 0.3361104999135576
270.0, 0.3600659029544348
271.0, 0.3842884174105194
272.0, 0.40484662160087614
273.0, 0.4111351229061818
274.0, 0.41315197943578147
275.0, 0.40655667948063456
276.0, 0.3902793380051377
277.0, 0.38317180874669765
278.0, 0.35184910398288105
279.0, 0.32141522369698566
280.0, 0.2890990715958752
281.0, 0.25800656172211806
282.0, 0.23165480705090682
283.0, 0.19306924386478175
284.0, 0.17886574667829452
285.0, 0.16136262653796124
286.0, 0.14967926935373924
287.0, 0.14764747799503486
288.0, 0.14743960288876215
289.0, 0.14393253325581676
290.0, 0.15214385033739627
291.0, 0.16030905756789146
292.0, 0.16919851505235706
293.0, 0.18191806112363754
294.0, 0.1990916463748614
295.0, 0.21753722818075072
296.0, 0.2343477896188994
297.0, 0.2508633263952401
298.0, 0.26756746760140127
299.0, 0.2828390430198171
300.0, 0.28987623533938245
301.0, 0.30178111892044956
302.0, 0.3061062099471384
303.0, 0.3065185500709723
304.0, 0.30582889003681973
305.0, 0.3048716014579899
306.0, 0.30269423695303554
307.0, 0.3011667447517936
308.0, 0.29626306834474697
309.0, 0.28557301778114935
310.0, 0.2693391839442258
311.0, 0.2504416510288524
312.0, 0.23163333784605536
313.0, 0.1957448938738011
314.0, 0.1706415505297859
315.0, 0.14929698307010036
316.0, 0.12585876591035156
317.0, 0.10981766636657982
318.0, 0.09586585009518014
319.0, 0.09112173769935791
320.0, 0.08170728490432005
321.0, 0.07201163127349117
322.0, 0.06827993659322498
323.0, 0.06538269191612067
324.0, 0.0583547772633882
325.0, 0.05456135334271335
326.0, 0.05425960369476204
327.0, 0.05484997418367908
328.0, 0.05393751020373092
329.0, 0.05392193608812588
330.0, 0.059031867381828834
331.0, 0.06383208034280896
332.0, 0.06858882637119867
333.0, 0.07115688032650798
334.0, 0.07058111076355893
335.0, 0.07780554462241429
336.0, 0.07776037179142023
337.0, 0.08099926281241861
338.0, 0.0863938657225123
339.0, 0.09630175162071504
340.0, 0.11369018340638055
341.0, 0.12496874061431598
342.0, 0.14077334470898545
343.0, 0.16737227972856872
344.0, 0.19800328601652142
345.0, 0.2295005384604622
346.0, 0.26236549279192356
347.0, 0.2817597360935158
348.0, 0.2893823840914559
349.0, 0.2989538288394704
350.0, 0.31012940615555684
351.0, 0.32271988495044934
352.0, 0.3395458019780544
353.0, 0.36482785886764085
354.0, 0.3615973805883045
355.0, 0.35198666565828546
356.0, 0.33326738893211666
357.0, 0.30044962786290136
358.0, 0.25372209478415525
359.0, 0.20616840169588216
360.0, 0.16749917849198567
361.0, 0.1340638177005722
362.0, 0.10431597020587119
363.0, 0.07979600112516776
364.0, 0.0645843866754889
365.0, 0.05106723572550681
366.0, 0.040797428149511636
367.0, 0.03114227005715543
368.0, 0.02307159400536172
369.0, 0.016936802843131118
370.0, 0.011191049972772158
371.0, 0.008532844078667525
372.0, 0.007373366308837921
373.0, 0.0076285208293055415
374.0, 0.007697677228445929
375.0, 0.0065114852647384655
376.0, 0.004751457798494005
377.0, 0.007796431250644621
378.0, 0.010975054266394666
379.0, 0.015486763153748157
380.0, 0.020341769216917025
381.0, 0.024549156067087335
382.0, 0.02859577372690095
383.0, 0.04085618729428669
384.0, 0.04631444625699854
385.0, 0.06157435891527687
386.0, 0.07630814178220119
387.0, 0.08626670163796549
388.0, 0.1025393716798379
389.0, 0.11810742655024381
390.0, 0.13269456953944225
391.0, 0.14502604410453895
392.0, 0.1496537268014725
393.0, 0.14385136500157905
394.0, 0.1302178211071719
395.0, 0.11769804113239801
396.0, 0.10674926455610052
397.0, 0.087518440657362
398.0, 0.07086663771292913
399.0, 0.061185762290795406
400.0, 0.05261614876903882
401.0, 0.0484941288583682
402.0, 0.0476532188695647
403.0, 0.04391821168323561
404.0, 0.043916289498622633
405.0, 0.05041788005632753
406.0, 0.05967087290475461
407.0, 0.06315165066660534
408.0, 0.07229940513035217
409.0, 0.08136467446786266
410.0, 0.09298295336625774
411.0, 0.10827553444665122
412.0, 0.12571802897192638
413.0, 0.1412539811403233
414.0, 0.1593226415828785
415.0, 0.1968193040642077
416.0, 0.2367215067682393
417.0, 0.2801998910076373
418.0, 0.3320390196648229
419.0, 0.37012870491991035
420.0, 0.39706868505585646
421.0, 0.44121989785490456
422.0, 0.43146455787028226
423.0, 0.3981139831712364
424.0, 0.39120853045661214
425.0, 0.39147461719573523
426.0, 0.403323533021032
427.0, 0.4000266613535783
428.0, 0.39132326022891784
429.0, 0.38054075218026107
430.0, 0.3644807628603347
431.0, 0.33510739873718054
432.0, 0.2995966580687162
433.0, 0.26797832896376106
434.0, 0.23362682176604418
435.0, 0.20811219268764966
436.0, 0.19479403711659266
437.0, 0.18384234824234386
438.0, 0.17662852827781064
439.0, 0.18500413695477647
440.0, 0.19831395134420607
441.0, 0.2154960627586021
442.0, 0.2408785543372095
443.0, 0.2798717405375269
444.0, 0.3299211625180585
445.0, 0.370903551916475
446.0, 0.4094628937105742
447.0, 0.4135104172826812
448.0, 0.382621446827923
449.0, 0.3335730709103036
450.0, 0.2743068153059808
451.0, 0.21366673489991087
452.0, 0.1660456838454012
453.0, 0.12358743111119824
454.0, 0.0910972703081677
455.0, 0.07033187981430573
456.0, 0.05232925177587221
457.0, 0.04493585944511997
458.0, 0.03342666814591171
459.0, 0.024322659046326998
460.0, 0.017613867143713085
461.0, 0.012837688259649038
462.0, 0.010410414298313445
463.0, 0.010340809226432018
464.0, 0.005021757352772629
465.0, 0.006695223412002701
466.0, 0.010632591584215006
467.0, 0.0131759781828783
468.0, 0.014560439964318475
469.0, 0.01978471309256825
470.0, 0.015725142031156665
471.0, 0.022927972398707766
472.0, 0.030932726593791374
473.0, 0.041036684364266544
474.0, 0.053259031812449086
475.0, 0.06049120421536339
476.0, 0.07494404331885554
477.0, 0.08650494861297134
478.0, 0.10264769223013248
479.0, 0.12106376688734417
480.0, 0.14021564506450446
481.0, 0.16282161616003335
482.0, 0.19857083948004545
483.0, 0.22799028256761786
484.0, 0.2625787994640737
485.0, 0.2937039353145729
486.0, 0.3141810992126611
487.0, 0.3195095727687704
488.0, 0.30762134311637446
489.0, 0.2763718003248015
490.0, 0.22609368623292483
491.0, 0.17450679351304846
492.0, 0.13201146930587307
493.0, 0.09967580230932398
494.0, 0.07160443465521772
495.0, 0.04850043503384579
496.0, 0.03403921054778512
497.0, 0.025891306468110633
498.0, 0.017146822239241865
499.0, 0.010502887881468284
500.0, 0.00939462224479641
501.0, 0.005507334580810921
502.0, 0.0023392012593589943
503.0, 0.000615495527249217
504.0, 0.0011674676494028671
505.0, 0.0016288257889951088
506.0, 0.001590431965114645
507.0, 0.003111588863898277
508.0, 0.0032579463526890076
509.0, 0.0025650583683238725
510.0, 0.0029307558359811265
511.0, 0.003417138529219542
512.0, 0.002501041061815665
513.0, 0.0005082447661858799
514.0, 0.0015377161554351853
515.0, 0.0010213088291964175
516.0, 0.0021161160048968853
517.0, 0.0015745529253049948
518.0, 0.0009298426557386036
519.0, 0.002432886896943309
520.0, 0.006183864381547959
521.0, 0.006087942939316764
522.0, 0.009189274152907637
523.0, 0.009228852563114903
524.0, 0.006517129532334214
525.0, 0.0046421278001732725
526.0, 0.0052729226302533965
527.0, 0.004438738100613393
528.0, 0.002165874682541839
529.0, 0.0030802727379792626
530.0, 0.003196242569776432
531.0, 0.0022734179629005776
532.0, 0.0025513405484914055
533.0, 0.00663703436822656
534.0, 0.013864584796193537
535.0, 0.010944791285515319
536.0, 0.013113843224284275
537.0, 0.014348892134680102
538.0, 0.014655302507960868
539.0, 0.014649275249384289
540.0, 0.012767961213911733
541.0, 0.009488354705620972
542.0, 0.008187214497197861
543.0, 0.007041785713299295
544.0, 0.004102521040537408
545.0, 0.0010791213007803743
546.0, 0.0008102195365088029
547.0, 0.0034732059120241516
548.0, 0.0033143852787519026
549.0, 0.002273608088430063
550.0, 0.0025412372616667117
551.0, 0.003523960065453794
552.0, 0.004246278282274002
553.0, 0.004098038998632153
554.0, 0.002853795703364376
555.0, 0.0032565815959339096
556.0, 0.0042200821241055
557.0, 0.004342748750510025
558.0, 0.004599512088931715
559.0, 0.007509845182074431
560.0, 0.01488859917539015
561.0, 0.021980740177488037
562.0, 0.03354095403447414
563.0, 0.03435911326853833
564.0, 0.034681775847054334
565.0, 0.03375764177996912
566.0, 0.03035723468777782
567.0, 0.03127469609995682
568.0, 0.03219196879324666
569.0, 0.03400992983580046
570.0, 0.0354908138378472
571.0, 0.03994516251844439
572.0, 0.044074592628094565
573.0, 0.04476744678799235
574.0, 0.048445635478463464
575.0, 0.05769273408506069
576.0, 0.06520900559634629
577.0, 0.06781947715796868
578.0, 0.06725397272166705
579.0, 0.0680686039054034
580.0, 0.07419351665751896
581.0, 0.08453769014491311
582.0, 0.09568981723660931
583.0, 0.11020972008956936
584.0, 0.12517282311043426
585.0, 0.13916264517952173
586.0, 0.1550551431100108
587.0, 0.17671113642627864
588.0, 0.20001670569697128
589.0, 0.2182921254627617
590.0, 0.23526928643238265
591.0, 0.24303979099784728
592.0, 0.23842222098220955
593.0, 0.2235018196515755
594.0, 0.2029057726047298
595.0, 0.1765315790913397
596.0, 0.15194171940375226
597.0, 0.1239417739360545
598.0, 0.09883444151060616
599.0, 0.08133982392417637
600.0, 0.07059140042109384
601.0, 0.06089221162865986
602.0, 0.04947357187530095
603.0, 0.04832979968923448
604.0, 0.03806697386609707
605.0, 0.036893091165252176
606.0, 0.04003267945075559
607.0, 0.041706047502656156
608.0, 0.045687797865832776
609.0, 0.048090579765967714
610.0, 0.05041311540384047
611.0, 0.05253558289591682
612.0, 0.05659609844506569
613.0, 0.06281841409238621
614.0, 0.06675150927137705
615.0, 0.06395419392187536
616.0, 0.07000469776381386
617.0, 0.06668481396110494
618.0, 0.06648365556304721
619.0, 0.06235752047928186
620.0, 0.05710348712416455
621.0, 0.05035646825358621
622.0, 0.03749533121158416
623.0, 0.03450433210540077
624.0, 0.024569679966929266
625.0, 0.01739194399425397
626.0, 0.014809662784279594
627.0, 0.013793845110620255
628.0, 0.011866449594610227
629.0, 0.009792544608297645
630.0, 0.010118322109340057
631.0, 0.006103827540160953
632.0, 0.005577105310940626
633.0, 0.005436193139584906
634.0, 0.008296062835892857
635.0, 0.013228128297938098
636.0, 0.015477076249274158
637.0, 0.016584513348613602
638.0, 0.02663240428744335
639.0, 0.03059837261772968
640.0, 0.030258343311443465
641.0, 0.03655848066914369
642.0, 0.04597136745646397
643.0, 0.04789051281187839
644.0, 0.053452938581330316
645.0, 0.059715432906099854
646.0, 0.05240323371327078
647.0, 0.05392741441338639
648.0, 0.051869702735730626
649.0, 0.04453265506124043
650.0, 0.03812151593104166
651.0, 0.026411448642703134
652.0, 0.02551453611599521
653.0, 0.01812956227917725
654.0, 0.016502889541038786
655.0, 0.01412434506285302
656.0, 0.010289958314888908
657.0, 0.009174359330591318
658.0, 0.012365490857975645
659.0, 0.0128486504797346
660.0, 0.008683531107749646
661.0, 0.010394804154479208
662.0, 0.013340523533062823
663.0, 0.01611807502841304
664.0, 0.01978254635345709
665.0, 0.02529423830433614
666.0, 0.032637396511343064
667.0, 0.03780519870716195
668.0, 0.04679195885822324
669.0, 0.06313471975073191
670.0, 0.07876414044438004
671.0, 0.0941068739499363
672.0, 0.11589145970595298
673.0, 0.13410815329243786
674.0, 0.15386919332303103
675.0, 0.18457109770485142
676.0, 0.2031269032031182
677.0, 0.2152639398049631
678.0, 0.22152255039001356
679.0, 0.2171899241716909
680.0, 0.2039572164557744
681.0, 0.18296069258835218
682.0, 0.1606528058606665
683.0, 0.135660156322124
684.0, 0.11091856646276342
685.0, 0.09097684506887646
686.0, 0.07817428430183997
687.0, 0.07018164693479582
688.0, 0.06056808784996425
689.0, 0.05532938384836868
690.0, 0.05025884569256206
691.0, 0.049630023084329206
692.0, 0.049907477969147594
693.0, 0.050936089621202815
694.0, 0.05494258366333999
695.0, 0.05773962671000042
696.0, 0.06575868792100366
697.0, 0.07304928559376578
698.0, 0.083143282234611
699.0, 0.09992968483935583
700.0, 0.11630866961919058
701.0, 0.12934206447311933
702.0, 0.15107163101192883
703.0, 0.18973747935482668
704.0, 0.22230170673580515
705.0, 0.2685760362258718
706.0, 0.3245327662475385
707.0, 0.38753145858634575
708.0, 0.4574666488220956
709.0, 0.5354914067299771
710.0, 0.6216825807979588
711.0, 0.7135312501278577
712.0, 0.8129833906270016
713.0, 0.8942967753961447
714.0, 0.9634490101340479
715.0, 0.9987631332757627
716.0, 0.98592270996056
717.0, 0.9406983346168577
718.0, 0.8472606057042045
719.0, 0.7394457855942085
720.0, 0.6379753602722551
721.0, 0.5387933900114495
722.0, 0.45217276087656644
723.0, 0.3775297991961749
724.0, 0.31020535523339643
725.0, 0.2615447384604552
726.0, 0.22210841261924644
727.0, 0.1896707882330203
728.0, 0.16135349665280288
729.0, 0.1356983155578267
730.0, 0.11485286453517447
731.0, 0.10010112432038928
732.0, 0.0897808441039904
733.0, 0.08204883186477038
734.0, 0.06979825524530411
735.0, 0.06042826646784108
736.0, 0.052681541216050745
737.0, 0.046267029658119144
738.0, 0.04096069972954801
739.0, 0.03632641184693292
740.0, 0.032239534093355796
741.0, 0.03100675737978354
742.0, 0.03051579173781399
743.0, 0.02674204177755878
744.0, 0.020518829335925862
745.0, 0.01835643429195491
746.0, 0.018471555067003986
747.0, 0.016423315779248573
748.0, 0.016393942197359616
749.0, 0.009255716855785323
750.0, 0.01367319976041426
751.0, 0.011826282078164704
752.0, 0.011189019368916508
753.0, 0.013413898896813792
754.0, 0.015839514862615544
755.0, 0.016190395747477878
756.0, 0.016150840823417167
757.0, 0.020137170534490843
758.0, 0.021335384224200907
759.0, 0.025019162792229342
760.0, 0.026658845485833454
761.0, 0.027606780916511742
762.0, 0.029340964942398618
763.0, 0.030742626289215938
764.0, 0.03330966615212285
765.0, 0.034341157112372414
766.0, 0.041134078763366076
767.0, 0.04254169337319108
768.0, 0.047819536368544927
769.0, 0.05159182140190845
770.0, 0.05029318882317599
771.0, 0.05082627145397333
772.0, 0.049410442218055746
773.0, 0.048158098552132315
774.0, 0.036948150396699894
775.0, 0.029974093788143093
776.0, 0.02587821395554041
777.0, 0.02442259308492013
778.0, 0.024182542293428543
779.0, 0.020339569161860707
780.0, 0.011903250667636036
781.0, 0.01369138579470149
782.0, 0.008542132682432478
783.0, 0.007277389331510082
784.0, 0.007006331221378314
785.0, 0.004759753519301953
786.0, 0.0017649558452237462
787.0, 0.0013954437670385946
788.0, 0.00243492123626397
789.0, 0.0020575020745297605
790.0, 0.0005247656712418736
791.0, 0.0009083077545766558
792.0, 0.0010836036943133302
793.0, 0.0019005088599383766
794.0, 0.0033729835703166975
795.0, 0.003242692336341119
796.0, 0.00361480987481462
797.0, 0.003104422081031959
798.0, 0.0007712617244017307
799.0, 0.0010415682122520524
800.0, 0.002175615408775585
801.0, 0.0022727884386832655
802.0, 0.0013959897726393737
803.0, 0.0014954346612995335
804.0, 0.004291499303998129
805.0, 0.003872883187688479
806.0, 0.0025213620527511854
807.0, 0.0056978791353091635
808.0, 0.009011463906250844
809.0, 0.009619731545681486
810.0, 0.009798505400232409
811.0, 0.012617610030044663
812.0, 0.014393971295541836
813.0, 0.014144351665885983
814.0, 0.015015715128315876
815.0, 0.014928912307503704
816.0, 0.011817168808583679
817.0, 0.008172941782795016
818.0, 0.005255440468022883
819.0, 0.002545131864142257
820.0, 0.0007954069832118311
821.0, 0.0005360522582073232
822.0, 0.0015298383055670564
823.0, 0.0021189129288278928
824.0, 0.005561058333974312
825.0, 0.008311992140400433
826.0, 0.006809125153621249
827.0, 0.004107163223327253
828.0, 0.006356272802596698
829.0, 0.0035132491039926383
830.0, 0.010248813192257632
831.0, 0.006973449990966334
832.0, 0.0059044184577443795
833.0, 0.004549763765097766
834.0, 0.0030502469776043043
835.0, 0.004760482911023497
836.0, 0.008523065228115233
837.0, 0.003268128149340266
838.0, 0.004124331372343288
839.0, 0.0012359682182999164
840.0, 0.002362725526151103
841.0, 0.0025502702168439173
842.0, 0.005518138318298357
843.0, 0.008626570103569667
844.0, 0.009138969482166599
845.0, 0.015811281775116842
846.0, 0.023446528179277643
847.0, 0.024112660646107436
848.0, 0.028457497345029833
849.0, 0.027071384431981028
850.0, 0.030376002332769846
851.0, 0.03445449129376555
852.0, 0.03444041094141951
853.0, 0.0354451618690636
854.0, 0.03636713763156595
855.0, 0.04008725149768838
856.0, 0.03545062929826253
857.0, 0.0414702131067996
858.0, 0.04245124531080024
859.0, 0.038688283702325486
860.0, 0.03589696737925106
861.0, 0.03734100237942494
862.0, 0.04119764714072225
863.0, 0.0313178784801549
864.0, 0.03982806356714355
865.0, 0.03754444117833897
866.0, 0.03801923581197927
867.0, 0.0407897559778109
868.0, 0.039989216744695785
869.0, 0.038997203428440014
870.0, 0.04221428578027868
871.0, 0.03516893453544751
872.0, 0.0440296472495605
873.0, 0.046794283272070955
874.0, 0.046118336107303405
875.0, 0.0461227207222405
876.0, 0.04590188894014044
877.0, 0.048510144812703694
878.0, 0.05401238616677636
879.0, 0.05703103401278373
880.0, 0.06255312287593934
881.0, 0.06791372766394706
882.0, 0.07510019067786311
883.0, 0.07942673130461672
884.0, 0.08620855481389653
885.0, 0.09118588832755808
886.0, 0.09831768426086956
887.0, 0.11098580081142619
888.0, 0.11983927658381592
889.0, 0.13030640724143575
890.0, 0.15367220832092332
891.0, 0.17589807672790866
892.0, 0.19149285296053353
893.0, 0.21155652370451294
894.0, 0.23724264554264857
895.0, 0.2620012003868605
896.0, 0.286997576362066
897.0, 0.323672986567775
898.0, 0.35120142821860906
899.0, 0.3734955166807613
900.0, 0.39419243506970225
901.0, 0.40815945609247506
902.0, 0.41908658753463046
903.0, 0.4237352298777238
904.0, 0.42544371527509234
905.0, 0.4292938136052911
906.0, 0.4283447081518142
907.0, 0.4346674134508815
908.0, 0.39649136794438977
909.0, 0.3901102482406621
910.0, 0.3697052803340817
911.0, 0.3403347699437295
912.0, 0.3089315636841715
913.0, 0.282336739196904
914.0, 0.26142477930356245
915.0, 0.23289347377168296
916.0, 0.2014129979791455
917.0, 0.18023502928629465
918.0, 0.16096224681866156
919.0, 0.14789098654871582
920.0, 0.13415869743624187
921.0, 0.1219717153439864
922.0, 0.11222366429723919
923.0, 0.10372829960968946
924.0, 0.09989748059114274
925.0, 0.09470445146624876
926.0, 0.09307363827205893
927.0, 0.08919683743904132
928.0, 0.08677520308145585
929.0, 0.0876235008872679
930.0, 0.08331754950277004
931.0, 0.07976164590676223
932.0, 0.08324273946103067
933.0, 0.08202928748250075
934.0, 0.08474743915359889
935.0, 0.08317500774713885
936.0, 0.08109295054254556
937.0, 0.08115084463091722
938.0, 0.07594142954500287
939.0, 0.07381015885385205
940.0, 0.07547907820766381
941.0, 0.07899986937881837
942.0, 0.08601189755791731
943.0, 0.0854432933005678
944.0, 0.0940660779018029
945.0, 0.09455240571177238
946.0, 0.09588050699385196
947.0, 0.10360299073815067
948.0, 0.11510366034487936
949.0, 0.12594620436414092
950.0, 0.1332739563444914
951.0, 0.1401246691468687
952.0, 0.15448646771905222
953.0, 0.16305024309223984
954.0, 0.17376859904482708
955.0, 0.19231075449683455
956.0, 0.20737428682636333
957.0, 0.22337124308061984
958.0, 0.23919523695951117
959.0, 0.25750306636476694
960.0, 0.28280375871811075
961.0, 0.3133708845137731
962.0, 0.3480286797177801
963.0, 0.3766053957313694
964.0, 0.3918605810075053
965.0, 0.4126017844731557
966.0, 0.43132881694846587
967.0, 0.4390883795833363
968.0, 0.435684547171935
969.0, 0.43065131663985845
970.0, 0.43281201380694734
971.0, 0.4391509689455949
972.0, 0.4488151450184039
973.0, 0.46130683304880754
974.0, 0.5009881612641276
975.0, 0.5368485823166986
976.0, 0.584645453785726
977.0, 0.636666558584662
978.0, 0.6818468926828942
979.0, 0.7251305718728579
980.0, 0.7720515565022087
981.0, 0.7963544874086779
982.0, 0.7891795474982253
983.0, 0.7769228588050623
984.0, 0.7487722590779105
985.0, 0.6977625650529418
986.0, 0.659144842734542
987.0, 0.6302069328788651
988.0, 0.5999159183455011
989.0, 0.5717905213516227
990.0, 0.5512632451925532
991.0, 0.5445014110244272
992.0, 0.5612930550833675
993.0, 0.5609055546430245
994.0, 0.5657231947916522
995.0, 0.5662622583735096
996.0, 0.5706857434369151
997.0, 0.5876073663534563
998.0, 0.6055511329954673
999.0, 0.6129364577706019
1000.0, 0.6245944400905695
1001.0, 0.6350248496585923
1002.0, 0.6414959700324188
1003.0, 0.6398869879330471
1004.0, 0.6219935667683232
1005.0, 0.6063574977926557
1006.0, 0.5819340093277738
1007.0, 0.5508104782038794
1008.0, 0.5134017857260965
1009.0, 0.4646884150700101
1010.0, 0.4168135040439338
1011.0, 0.37673072635701427
1012.0, 0.3230187512932441
1013.0, 0.287104801598404
1014.0, 0.2540329618536632
1015.0, 0.2203583339255257
1016.0, 0.1929561099388657
1017.0, 0.1717037414802477
1018.0, 0.15101776717151563
1019.0, 0.13034473872410848
1020.0, 0.11598338582344385
1021.0, 0.10666205213577587
1022.0, 0.0996156522212405
1023.0, 0.0925588935958831
1024.0, 0.08327397036115233
1025.0, 0.08025149877315814
1026.0, 0.08109286218234968
1027.0, 0.07932247194355922
1028.0, 0.07525393390760214
1029.0, 0.07384677844038642
1030.0, 0.07310344804812438
1031.0, 0.06355366821899601
1032.0, 0.06483865719215542
1033.0, 0.06236130411149191
1034.0, 0.05599852196534429
1035.0, 0.053018618756967166
1036.0, 0.049280413955539684
1037.0, 0.04368017791709027
1038.0, 0.03990625857296778
1039.0, 0.037772932130169884
1040.0, 0.03361340051970098
1041.0, 0.03251012150770196
1042.0, 0.031189870166356617
1043.0, 0.031697467662204305
1044.0, 0.028971255661745014
1045.0, 0.03443923699800165
1046.0, 0.0316434201580193
1047.0, 0.023582303093495356
1048.0, 0.023835295832282114
1049.0, 0.030528938577923662
1050.0, 0.030278971033515727
1051.0, 0.026243840129877998
1052.0, 0.033047837186140884
1053.0, 0.03041099289610211
1054.0, 0.032545843637182006
1055.0, 0.038965169961468225
1056.0, 0.03498037296305954
1057.0, 0.03401898315992127
1058.0, 0.037033642059820716
1059.0, 0.03687304990474232
1060.0, 0.031542347152780245
1061.0, 0.028207623577839683
1062.0, 0.03537213737949228
1063.0, 0.040135674832939464
1064.0, 0.031725740046215783
1065.0, 0.029993600561961695
1066.0, 0.0319330108379835
1067.0, 0.029302251233323123
1068.0, 0.023068577200416624
1069.0, 0.021278077881891858
1070.0, 0.019753233113884862
1071.0, 0.013089190202752652
1072.0, 0.012441803037790307
1073.0, 0.019717114807043547
1074.0, 0.01338604362981302
1075.0, 0.014278329387988212
1076.0, 0.013737818510053103
1077.0, 0.01071558552130723
1078.0, 0.013631139376952968
1079.0, 0.013380403040142373
1080.0, 0.012717536683034495
1081.0, 0.014541680035995246
1082.0, 0.01430969046495731
1083.0, 0.012976265967618363
1084.0, 0.013715052481352252
1085.0, 0.015496655561687517
1086.0, 0.01736256447683872
1087.0, 0.018552411426733455
1088.0, 0.011980632058664734
1089.0, 0.01341730228450338
1090.0, 0.0108149674016965
1091.0, 0.007094884978322311
1092.0, 0.005594909919972005
1093.0, 0.004644969141877208
1094.0, 0.010392413111401573
1095.0, 0.010376303411422384
1096.0, 0.010352168540208989
1097.0, 0.009258899079589959
1098.0, 0.013395747389570892
1099.0, 0.012967697320963404
1100.0, 0.008552543553291908
1101.0, 0.0092833604793073
1102.0, 0.010654481959310685
1103.0, 0.008316176811506254
1104.0, 0.005847638633235024
1105.0, 0.005424916105975069
1106.0, 0.005865646785966542
1107.0, 0.0047541000654763585
1108.0, 0.0031329499204706553
1109.0, 0.010840261514078813
1110.0, 0.011050083786233246
1111.0, 0.0068138079352399895
1112.0, 0.008095900805552673
1113.0, 0.007235942768171374
1114.0, 0.0055860756119860844
1115.0, 0.008022104738295002
1116.0, 0.007766778177923381
1117.0, 0.004165061807560976
1118.0, 0.00803049386469585
1119.0, 0.009250662628372897
1120.0, 0.008988306879259727
1121.0, 0.008785281197462183
1122.0, 0.003439719297790173
1123.0, 0.003040631584219204
1124.0, 0.002580774973878001
1125.0, 0.0018609074822249594
1126.0, 0.003705329716741797
1127.0, 0.00605044447875995
1128.0, 0.005211986174385476
1129.0, 0.00010937226027909816
1130.0, 0.0003103743208637752
1131.0, 0.0027292452115646533
1132.0, 0.0009766150876250046
1133.0, 0.0036348089966720468
1134.0, 0.0040769719946456414
1135.0, 0.0034569404003924322
1136.0, 0.0019187469568509566
1137.0, 0.0008311224117762598
1138.0, 0.0014078700526718234
1139.0, 0.001702625370981458
1140.0, 0.00019081709093162936
1141.0, 0.0007165053772835654
1142.0, 0.00019348895934347685
1143.0, 0.0018901168200732375
1144.0, 0.004571144542404824
1145.0, 0.0038884566853498066
1146.0, 0.002110487594694701
1147.0, 0.0014396513955017966
1148.0, 0.0008335293333345862
1149.0, 0.0015330373793186415
1150.0, 0.002912705368437509
1151.0, 0.0025920136303376924
1152.0, 0.0032137455781533503
1153.0, 0.0015905910361071864
1154.0, 0.0030240761213895526
1155.0, 0.002707593931871274
1156.0, 0.0007565339653870126
1157.0, 0.0013083771393393208
1158.0, 0.004392161584173988
1159.0, 0.00311300060861971
1160.0, 0.0018704672737231303
1161.0, 0.0020490128576063963
1162.0, 0.002599941609271928
1163.0, 0.004799504571804169
1164.0, 0.006256163315179385
1165.0, 0.005765884010769103
1166.0, 0.0014602609772400232
1167.0, 0.002752464974587979
1168.0, 0.0023293575958259188
1169.0, 0.003126375847541571
1170.0, 0.00464354174319459
1171.0, 0.004432197163780083
1172.0, 0.002515240084390382
1173.0, 0.003201818733491316
1174.0, 0.0042903713586067765
1175.0, 0.002206950375878708
1176.0, 0.002479341939422762
1177.0, 0.004512421730116234
1178.0, 0.0002573420131330858
1179.0, 0.0021203987523095375
1180.0, 0.002031847235738593
1181.0, 0.0014874296850488238
1182.0, 0.0005467665640110145
1183.0, 0.0027319670211262822
1184.0, 0.0028580700414710305
1185.0, 0.003323764714201236
1186.0, 0.0032207312046387613
1187.0, 0.0018055393417454031
1188.0, 0.0023888837856870394
1189.0, 0.0016680917239034246
1190.0, 0.00026974451323881997
1191.0, 0.00024287624620151983
1192.0, 0.001441533547075634
1193.0, 0.00018926498552869595
1194.0, 0.000733585162930067
1195.0, 0.0051406318068217445
1196.0, 0.0026929906097889113
1197.0, 0.001893867797208342
1198.0, 0.00249616196996211
1199.0, 0.0015077584809353038
1200.0, 0.0011053714202087102
1201.0, 0.0021771001121193246
1202.0, 0.0033224388915084314
1203.0, 0.0009688015495342501
1204.0, 0.0016346253836239785
1205.0, 0.0025646700921210922
1206.0, 0.003074274330413315
1207.0, 0.0028751636529934107
1208.0, 0.0031679496991739837
1209.0, 0.003019075475390414
1210.0, 0.0019439817638650305
1211.0, 0.0025075893595483357
1212.0, 0.0038133616507265698
1213.0, 0.0026227793838506075
1214.0, 0.0006164197966142004
1215.0, 0.0017834109166627453
1216.0, 0.00288110978511792
1217.0, 0.0025896206902556902
1218.0, 0.0008084405904577245
1219.0, 0.0036078137769022627
1220.0, 0.0017716058409644388
1221.0, 0.0007256202926963571
1222.0, 0.002036810281494243
1223.0, 0.0033749726023938127
1224.0, 0.0039081142574404915
1225.0, 0.0026479856270605153
1226.0, 0.0013161095123475023
1227.0, 0.0017076156380099671
1228.0, 0.001960298142276627
1229.0, 0.005166995755578387
1230.0, 0.0047901537004095655
1231.0, 0.008103885586605172
1232.0, 0.0007703089405023951
1233.0, 0.002355122224441011
1234.0, 0.005524978708191386
1235.0, 0.001881156147894937
1236.0, 0.004843610687193819
1237.0, 0.005519404833224319
1238.0, 0.003114521106317248
1239.0, 0.0013406786905852841
1240.0, 0.0011154760903420934
1241.0, 0.0027908076274040373
1242.0, 0.0027064816815374447
1243.0, 0.006460361162694809
1244.0, 0.00745913489421483
1245.0, 0.001805224707247882
1246.0, 0.003753573146111288
1247.0, 0.0015791692049590478
1248.0, 0.001957880521943137
1249.0, 0.005243472687545485
1250.0, 0.007396176506904437
1251.0, 0.010215691255474469
1252.0, 0.010101033994121881
1253.0, 0.0056761201827884465
1254.0, 0.004716416067032345
1255.0, 0.007447268904241128
1256.0, 0.0035841889296463134
1257.0, 0.006971647851836042
1258.0, 0.010417159440177166
1259.0, 0.009607961964487807
1260.0, 0.013258249078741947
1261.0, 0.011484669525010132
1262.0, 0.007620653490889966
1263.0, 0.0057555605107970816
1264.0, 0.006289681286449962
1265.0, 0.0040310009064207205
1266.0, 0.007321650010433684
1267.0, 0.008316092652349314
1268.0, 0.0024772400606600693
1269.0, 0.0032771164170034475
1270.0, 0.005955338802525219
1271.0, 0.0014864616298193851
1272.0, 0.0026414506375620865
1273.0, 0.003148751512886866
1274.0, 0.005335597885018008
1275.0, 0.004124008354112334
1276.0, 0.0029511599003904363
1277.0, 0.00651661151031107
1278.0, 0.005319019007474213
1279.0, 0.005388178188811007
1280.0, 0.005816811911125303
1281.0, 0.0046025210264988795
1282.0, 0.004298652787700961
1283.0, 0.005569097014420377
1284.0, 0.005707364914104939
1285.0, 0.00462523488437993
1286.0, 0.0037798331449456803
1287.0, 0.004349659345938406
1288.0, 0.0002305432415792522
1289.0, 0.0029947556984024877
1290.0, 0.007857790201507996
1291.0, 0.0054931317283700275
1292.0, 0.004962275118403438
1293.0, 0.006438836724853038
1294.0, 0.006340076762572352
1295.0, 0.005757757620063931
1296.0, 0.003253558806645573
1297.0, 0.003115054974299438
1298.0, 0.004657035914303616
1299.0, 0.0031627799148897526
1300.0, 0.00570837782393101
1301.0, 0.004278068648563602
1302.0, 0.0058735045301252405
1303.0, 0.003027461219472555
1304.0, 0.002308214087884917
1305.0, 0.00611540872947944
1306.0, 0.007843350026357833
1307.0, 0.005469934184306235
1308.0, 0.0059525933898434
1309.0, 0.004941928809159504
1310.0, 0.005094683107158858
1311.0, 0.005891433521975033
1312.0, 0.006112882162910468
1313.0, 0.006374656923015115
1314.0, 0.006100939548198479
1315.0, 0.004744125259279461
1316.0, 0.0030398289100532854
1317.0, 0.001127407850485583
1318.0, 0.0058179476995876235
1319.0, 0.0009260446452976417
1320.0, 0.003190392517360555
1321.0, 0.006335456047707863
1322.0, 0.0035286196068379312
1323.0, 0.0026531450429708972
1324.0, 0.007907488416654323
1325.0, 0.004558498099960388
1326.0, 0.0018592960101551793
1327.0, 0.005073251393365161
1328.0, 0.0064122376459669304
1329.0, 0.006174388296054856
1330.0, 0.0077573954717400735
1331.0, 0.008169754401143212
1332.0, 0.009490788965483731
1333.0, 0.003787847803963463
1334.0, 0.0037330442934751205
1335.0, 0.007229711879325892
1336.0, 0.004981381854956789
1337.0, 0.004511311559205525
1338.0, 0.00790279350603992
1339.0, 0.0056923216835030235
1340.0, 0.004157028265953848
1341.0, 0.008807753076554743
1342.0, 0.004619333802809612
1343.0, 0.0022114267901639927
1344.0, 0.0060276156214621205
1345.0, 0.008237795505240836
1346.0, 0.007638289547585701
1347.0, 0.008149569078311509
1348.0, 0.008393573763089583
1349.0, 0.00420523743851964
1350.0, 0.0033140295592887343
1351.0, 0.00925304162295721
1352.0, 0.009882641025654618
1353.0, 0.004569899745557467
1354.0, 0.0006917654460635075
1355.0, 0.0048009231407290034
1356.0, 0.0044453226446743745
1357.0, 0.003961813693991379
1358.0, 0.003962551533219422
1359.0, 0.0038871052946433354
1360.0, 0.0045554957387834326
1361.0, 0.004567447177909536
1362.0, 0.004362012633793026
1363.0, 0.004467208811864979
1364.0, 0.003067001736721555
1365.0, 0.0031385448344838297
1366.0, 0.007451429391924993
1367.0, 0.006328836682872834
1368.0, 0.01206837554620006
1369.0, 0.011682241441511459
1370.0, 0.0082853776407052
1371.0, 0.0036323029095596056
1372.0, 0.0059585429974114475
1373.0, 0.007947633993501825
1374.0, 0.00707072939232938
1375.0, 0.0064149491181456925
1376.0, 0.006994256612729707
1377.0, 0.006804672458836624
1378.0, 0.006089734579304749
1379.0, 0.004863457879680811
1380.0, 0.004822066535277642
1381.0, 0.006414237886738833
1382.0, 0.005347566561533684
1383.0, 0.0018216277473618273
1384.0, 0.002992826131909735
1385.0, 0.005048975230915494
1386.0, 0.0011248697346890777
1387.0, 0.0032906372477542996
1388.0, 0.004797613181040676
1389.0, 0.009095531744429411
1390.0, 0.0031995896758846873
1391.0, 0.0008884425867308078
1392.0, 0.007082553004231676
1393.0, 0.011109947993194825
1394.0, 0.009155462120625978
1395.0, 0.006374754553890845
1396.0, 0.004328098240900234
1397.0, 0.005700585548909713
1398.0, 0.005988051453192503
1399.0, 0.004053488856823334
1400.0, 0.004440408286270431
1401.0, 0.004089528743704107
1402.0, 0.0019914123559935564
1403.0, 0.005480965004078852
1404.0, 0.00747076890521018
1405.0, 0.002987166070804753
1406.0, 0.00211730510553991
1407.0, 0.006473508883341743
1408.0, 0.009034099234669673
1409.0, 0.0025366618087176817
1410.0, 0.0027832845645335844
1411.0, 0.007795289532663377
1412.0, 0.005044390131954147
1413.0, 0.0020575209456018843
1414.0, 0.0014606590532421175
1415.0, 0.004084969911708329
1416.0, 0.002984743779171105
1417.0, 0.0023081086108251796
1418.0, 0.0036614066300057653
1419.0, 0.00737368131993986
1420.0, 0.010343169691544755
1421.0, 0.007472859709755367
1422.0, 0.008230881300220871
1423.0, 0.005315529110963906
1424.0, 0.008611979508339654
1425.0, 0.006738313155546123
1426.0, 0.003770382232056559
1427.0, 0.0066106214388215265
1428.0, 0.009450093235294554
1429.0, 0.007105190645018269
1430.0, 0.007394917766339497
1431.0, 0.004395457759316182
1432.0, 0.0032212316951843053
1433.0, 0.007285338683157338
1434.0, 0.00801950077149403
1435.0, 0.007328509028690753
1436.0, 0.00513757799547802
1437.0, 0.005920350224267207
1438.0, 0.005877315834488179
1439.0, 0.0035802782810595065
1440.0, 0.005249533004760812
1441.0, 0.007539964531993069
1442.0, 0.00663498802104186
1443.0, 0.007894424068416636
1444.0, 0.006077456026142501
1445.0, 0.003547233287569612
1446.0, 0.004225671727204796
1447.0, 0.0035194242416516685
1448.0, 0.003408632299441386
1449.0, 0.00016975838572673126
1450.0, 0.004714918750804074
1451.0, 0.004920521505328347
1452.0, 0.008907163647851516
1453.0, 0.0060471288521404
1454.0, 0.005263640531217144
1455.0, 0.003973180931602449
1456.0, 0.0038140012373366746
1457.0, 0.004954840007653659
1458.0, 0.003957079507926692
1459.0, 0.001815247752891412
1460.0, 0.0012419387233725736
1461.0, 0.0027874893444794556
1462.0, 0.004257393012448933
1463.0, 0.0052990589188417975
1464.0, 0.007015651400014581
1465.0, 0.0065503214785181145
1466.0, 0.006457071592542124
1467.0, 0.003433916370431173
1468.0, 0.008101779421619139
1469.0, 0.0059711639817005505
1470.0, 0.004091608107478164
1471.0, 0.005079407253419326
1472.0, 0.003773997290844731
1473.0, 0.008182615054916345
1474.0, 0.011428388412739434
1475.0, 0.002727100800754529
1476.0, 0.006875451253981179
1477.0, 0.004811538675214419
1478.0, 0.0031056050133487375
1479.0, 0.004178682969080475
1480.0, 0.004746123704478024
1481.0, 0.004545156979670768
1482.0, 0.00504606209905472
1483.0, 0.004618688610015253
1484.0, 0.002616984411063582
1485.0, 0.0012756109229138826
1486.0, 0.004830362349935885
1487.0, 0.008530237483477796
1488.0, 0.006427532396963623
1489.0, 0.009349038000825554
1490.0, 0.0036243528715310907
1491.0, 0.00770286213136906
1492.0, 0.003723495602898083
1493.0, 0.004788216647348193
1494.0, 0.0054749491450339334
1495.0, 0.005494570756511461
1496.0, 0.007062892710077108
1497.0, 0.004181126894532703
1498.0, 0.006855066944027235
1499.0, 0.00291699798256774
1500.0, 0.0044418580318905665
1501.0, 0.005292859552625442
1502.0, 0.005601145612734433
1503.0, 0.005665235920968541
1504.0, 0.005400776444538465
1505.0, 0.004295304318631966
1506.0, 0.002289263163764823
1507.0, 0.002607829981841694
1508.0, 0.004713329769713512
1509.0, 0.004085524964605333
1510.0, 0.0033674843317707025
1511.0, 0.00303377735860061
1512.0, 0.0023329589870242076
1513.0, 0.005547163265331971
1514.0, 0.004513315759057119
1515.0, 0.003376957094525086
1516.0, 0.007403846902165955
1517.0, 0.007728267690009697
1518.0, 0.011246342006237874
1519.0, 0.0059646794466993195
1520.0, 0.0015868656135294527
1521.0, 0.006282179827214412
1522.0, 0.005633819756884768
1523.0, 0.006008905566137419
1524.0, 0.008711086883374233
1525.0, 0.007437291725191919
1526.0, 0.007997981737240905
1527.0, 0.00852008568474149
1528.0, 0.005293555878633332
1529.0, 0.008131926574787316
1530.0, 0.0072217923059248
1531.0, 0.007065433194533547
1532.0, 0.005556451563600773
1533.0, 0.005001795795264986
1534.0, 0.006931512857522175
1535.0, 0.008389800163782712
1536.0, 0.007939816178698975
1537.0, 0.00906030957792723
1538.0, 0.010881324454546377
1539.0, 0.008971442670256145
1540.0, 0.008023837816997689
1541.0, 0.010257465445543954
1542.0, 0.006746673850340816
1543.0, 0.0036717033148679465
1544.0, 0.010659458295367246
1545.0, 0.005164630353907931
1546.0, 0.00609447459899867
1547.0, 0.00775314952911475
1548.0, 0.0036975341146364615
1549.0, 0.0019344415268232544
1550.0, 0.0037806453857828896
1551.0, 0.004889306528889575
1552.0, 0.0034975957185967065
1553.0, 0.015760205013983914
1554.0, 0.007618277250546966
1555.0, 0.012656582244593711
1556.0, 0.014070148133444179
1557.0, 0.0028102356320385807
1558.0, 0.0032175600643495504
1559.0, 0.006815211470699327
1560.0, 0.0066208466952876535
1561.0, 0.00520603658809367
1562.0, 0.0030916144283980756
1563.0, 0.0008263172367167773
1564, 0.0
1565, 0.0
1566, 0.0
1567, 0.0
1568, 0.0
1569, 0.0
1570, 0.0
1571, 0.0
1572, 0.0
1573, 0.0
1574, 0.0
1575, 0.0
1576, 0.0
1577, 0.0
1578, 0.0
1579, 0.0
1580, 0.0
1581, 0.0
1582, 0.0
1583, 0.0
1584, 0.0
1585, 0.0
1586, 0.0
1587, 0.0
1588, 0.0
1589, 0.0
1590, 0.0
1591, 0.0
1592, 0.0
1593, 0.0
1594, 0.0
1595, 0.0
1596, 0.0
1597, 0.0
1598, 0.0
1599, 0.0
