30, 0.0
31, 0.0
32, 0.0
33, 0.0
34, 0.0
35, 0.0
36, 0.0
37, 0.0
38, 0.0
39, 0.0
40, 0.0
41, 0.0
42, 0.0
43, 0.0
44, 0.0
45, 0.0
46, 0.0
47, 0.0
48, 0.0
49, 0.0
50, 0.0
51, 0.0
52, 0.0
53, 0.0
54, 0.0
55, 0.0
56, 0.0
57, 0.0
58, 0.0
59, 0.0
60, 0.0
61, 0.0
62, 0.0
63, 0.0
64, 0.0
65, 0.0
66, 0.0
67, 0.0
68, 0.0
69, 0.0
70, 0.0
71, 0.0
72, 0.0
73, 0.0
74, 0.0
75, 0.0
76, 0.0
77, 0.0
78, 0.0
79, 0.0
80, 0.0
81, 0.0
82, 0.0
83, 0.0
84, 0.0
85, 0.0
86.0, 0.0009440134523848104
87.0, 0.004154943562537261
88.0, 0.0017754786945557502
89.0, 0.00036005068864759923
90.0, 0.0008118806273587026
91.0, 0.0036944472884331177
92.0, 0.013738062884236736
93.0, 0.025881222837927747
94.0, 0.03646441070275249
95.0, 0.04218931729754555
96.0, 0.047183918032890966
97.0, 0.0519886516931183
98.0, 0.05753154210237442
99.0, 0.059960566000452076
100.0, 0.0612948484319885
101.0, 0.06253643319734073
102.0, 0.0708267087375778
103.0, 0.06855831074530079
104.0, 0.058363773262917355
105.0, 0.04894991261725791
106.0, 0.04450902411034474
107.0, 0.04333849177019652
108.0, 0.04512873246849066
109.0, 0.049565446671989116
110.0, 0.0547658164045325
111.0, 0.06331781968820122
112.0, 0.08186811087526555
113.0, 0.07742829082406788
114.0, 0.0851232899905984
115.0, 0.11049886615336171
116.0, 0.06915463704169109
117.0, 0.04261325306552381
118.0, 0.026514415763943977
119.0, 0.018084254472405477
120.0, 0.016813307103909353
121.0, 0.016402075198871845
122.0, 0.015941897246410815
123.0, 0.01602035664934741
124.0, 0.017064994528673202
125.0, 0.01867928620361465
126.0, 0.02067290945334612
127.0, 0.024753515253872253
128.0, 0.028612312471003345
129.0, 0.03195799682988251
130.0, 0.03417796146053474
131.0, 0.03435122278419394
132.0, 0.03285222735274039
133.0, 0.029647541441218617
134.0, 0.021905759079987472
135.0, 0.016434310343076578
136.0, 0.013046914824240299
137.0, 0.011833028571457342
138.0, 0.013762738995199836
139.0, 0.016546836414175044
140.0, 0.019608505092959153
141.0, 0.02247754361580313
142.0, 0.0250727086649799
143.0, 0.026313568617005272
144.0, 0.024573123214840734
145.0, 0.02513584785610931
146.0, 0.026394176969685858
147.0, 0.028621232955406552
148.0, 0.03435448074854035
149.0, 0.04104334659444886
150.0, 0.04935330037596332
151.0, 0.059929331832196744
152.0, 0.07490534073388336
153.0, 0.09164002784012648
154.0, 0.1095035154286397
155.0, 0.1273638259544498
156.0, 0.14600474262781124
157.0, 0.16120277376973802
158.0, 0.17124916915416902
159.0, 0.17118391879258277
160.0, 0.16099312558964635
161.0, 0.1456383252606284
162.0, 0.12943484593665616
163.0, 0.1119514294029491
164.0, 0.10116940000221432
165.0, 0.09793668439188945
166.0, 0.10339094969889877
167.0, 0.11919528631053655
168.0, 0.1414793809587279
169.0, 0.1690852523641404
170.0, 0.19921916861298458
171.0, 0.22700110251979969
172.0, 0.24820458910158555
173.0, 0.2530516391654387
174.0, 0.24929567031782268
175.0, 0.23614231192926222
176.0, 0.21331218200858307
177.0, 0.181684521554641
178.0, 0.1535983776163003
179.0, 0.12750777621595938
180.0, 0.10258472185746793
181.0, 0.08171921248074893
182.0, 0.06148456514370844
183.0, 0.04343603806135565
184.0, 0.03296588935636497
185.0, 0.022935532751902514
186.0, 0.012680376557215602
187.0, 0.002730294261968303
188.0, 0.004058847944083966
189.0, 0.006482840557294993
190.0, 0.00928489560930642
191.0, 0.011774762800939937
192.0, 0.013126883823487426
193.0, 0.013486490966749556
194.0, 0.013093003249236092
195.0, 0.012671829937530096
196.0, 0.009900159026009322
197.0, 0.006573678436134539
198.0, 0.0034320294658734722
199.0, 0.0026605315465438213
200.0, 0.006682208269436805
201.0, 0.01404296879391593
202.0, 0.023607611545108674
203.0, 0.03822204436043838
204.0, 0.05506297454555852
205.0, 0.07405433583363684
206.0, 0.09653493821370568
207.0, 0.12140609521649208
208.0, 0.14593160757358026
209.0, 0.1689404233557286
210.0, 0.1919494568061783
211.0, 0.2068115354250481
212.0, 0.21578889530641765
213.0, 0.22072648510328957
214.0, 0.21570200708872786
215.0, 0.2058867578532835
216.0, 0.19242505078536198
217.0, 0.17720309607078705
218.0, 0.15761128570183164
219.0, 0.14016087304941374
220.0, 0.1274563788670254
221.0, 0.10917519768595467
222.0, 0.09477972214273495
223.0, 0.08094282999560119
224.0, 0.06348082094404868
225.0, 0.05307639573129338
226.0, 0.043003184765787066
227.0, 0.032830903461011494
228.0, 0.023607848464862097
229.0, 0.018257918045689235
230.0, 0.013404866630503096
231.0, 0.008048604301030233
232.0, 0.005846241857460225
233.0, 0.003187811727158982
234.0, 0.0013076569089372403
235.0, 0.0016582930542463781
236.0, 0.0021753442391556476
237.0, 0.003911887258949307
238.0, 0.006938683786348236
239.0, 0.01146709728000235
240.0, 0.017413630447620978
241.0, 0.025688347196119177
242.0, 0.036350226006578064
243.0, 0.04656253900537887
244.0, 0.05764017623080557
245.0, 0.06811476704598345
246.0, 0.07678637851615705
247.0, 0.08256748683058733
248.0, 0.08868413399077446
249.0, 0.09384897795818246
250.0, 0.09509211108018314
251.0, 0.09437260488232553
252.0, 0.0947246109156861
253.0, 0.09609494021088526
254.0, 0.0950961118143753
255.0, 0.09287108829506789
256.0, 0.08976041172675396
257.0, 0.0858353049414194
258.0, 0.08042221457552359
259.0, 0.07298562638946217
260.0, 0.06520485717004958
261.0, 0.05911704914826
262.0, 0.05610947862521403
263.0, 0.05512895740298846
264.0, 0.05575982500834879
265.0, 0.05724735412117918
266.0, 0.06022180060772672
267.0, 0.06543204614763803
268.0, 0.0728261547413175
269.0, 0.07944389171087901
270.0, 0.08521696499721089
271.0, 0.09159821274587461
272.0, 0.09961742288903339
273.0, 0.10570831194959723
274.0, 0.10975649669657095
275.0, 0.1115425427165772
276.0, 0.11037017560998068
277.0, 0.10803177938496202
278.0, 0.1026213124837376
279.0, 0.09443482605589866
280.0, 0.0851038045740133
281.0, 0.07840055155112934
282.0, 0.07090641064392687
283.0, 0.06215086891537807
284.0, 0.059192083629472245
285.0, 0.05544249453200549
286.0, 0.051962321452530956
287.0, 0.04954338840042899
288.0, 0.051631002804067315
289.0, 0.05578702686621746
290.0, 0.062215389007558956
291.0, 0.07160001983669381
292.0, 0.08348229297099097
293.0, 0.09757115059030086
294.0, 0.11379554778551758
295.0, 0.13227214405012921
296.0, 0.1527388325109037
297.0, 0.17394526957421858
298.0, 0.19534876273174392
299.0, 0.21528838732428388
300.0, 0.23522686134627138
301.0, 0.2564869457856822
302.0, 0.2799789373214404
303.0, 0.30426339902665855
304.0, 0.3293592583713626
305.0, 0.3533342801725709
306.0, 0.3735233033444372
307.0, 0.38905424196674837
308.0, 0.39007695008830223
309.0, 0.37652185940713295
310.0, 0.34817203945149794
311.0, 0.3082600149267367
312.0, 0.2640903386819912
313.0, 0.2193438206545842
314.0, 0.1858268262574011
315.0, 0.1584646034953338
316.0, 0.1348977602313214
317.0, 0.11461201391953893
318.0, 0.10164258569434222
319.0, 0.09321523521201687
320.0, 0.08760320117295302
321.0, 0.08367287264045985
322.0, 0.07501486705838914
323.0, 0.06725172122087286
324.0, 0.05936244218201655
325.0, 0.0495932143813894
326.0, 0.042149238392482656
327.0, 0.034644605179683666
328.0, 0.027737458855472408
329.0, 0.024109265147830954
330.0, 0.02170013161504374
331.0, 0.019223830385943497
332.0, 0.016500707918869876
333.0, 0.014172493956769337
334.0, 0.012926790677677887
335.0, 0.01194477111498814
336.0, 0.011216732960224449
337.0, 0.015107409061265953
338.0, 0.020027731387341513
339.0, 0.02681752960096115
340.0, 0.03624104123725036
341.0, 0.04683898478736268
342.0, 0.05996142555494342
343.0, 0.07599426771495366
344.0, 0.09572958176437965
345.0, 0.11752232293295543
346.0, 0.1387963013500683
347.0, 0.16068860342671903
348.0, 0.18619195737160338
349.0, 0.21811550863805773
350.0, 0.2493964217674226
351.0, 0.27886193869704984
352.0, 0.3063220008864883
353.0, 0.32646260727545456
354.0, 0.3301245311320976
355.0, 0.314921332139135
356.0, 0.28521215041649356
357.0, 0.24240238037041373
358.0, 0.19847301038022072
359.0, 0.15927241182603605
360.0, 0.12659038420539845
361.0, 0.09675260026556565
362.0, 0.07224741546349046
363.0, 0.05528924165105744
364.0, 0.04087007121789306
365.0, 0.030024672700286997
366.0, 0.021836094460944217
367.0, 0.015398851076175116
368.0, 0.010834092785043149
369.0, 0.007928894388228044
370.0, 0.006018753405949194
371.0, 0.003990746652230566
372.0, 0.005271400072878576
373.0, 0.005476174116681394
374.0, 0.005299282796168801
375.0, 0.008197562772583648
376.0, 0.008977766777369306
377.0, 0.01101336263051847
378.0, 0.014417722449936174
379.0, 0.016649653338349203
380.0, 0.020188394788963945
381.0, 0.025670813513404958
382.0, 0.03340516348027434
383.0, 0.04382058901239536
384.0, 0.059815057642674654
385.0, 0.07771640805353032
386.0, 0.09640707735825857
387.0, 0.12238510471061714
388.0, 0.1458913987351073
389.0, 0.1665484301488817
390.0, 0.1840244426028889
391.0, 0.2010368094125684
392.0, 0.21437005771650375
393.0, 0.22302564081778645
394.0, 0.2257903936897355
395.0, 0.225300903523219
396.0, 0.21402407939914483
397.0, 0.19714267718197498
398.0, 0.18118586545689638
399.0, 0.1582509839250072
400.0, 0.13658375741286227
401.0, 0.11746480148487616
402.0, 0.10258753505728511
403.0, 0.08606677203413567
404.0, 0.07356938575557607
405.0, 0.063962526203142
406.0, 0.05351480235196198
407.0, 0.04624300608317954
408.0, 0.040250442609750865
409.0, 0.035286894643579786
410.0, 0.03155048934551863
411.0, 0.03375620153471194
412.0, 0.03616392293917929
413.0, 0.039085948945892415
414.0, 0.04882609961341851
415.0, 0.05993763128187552
416.0, 0.07207614907205465
417.0, 0.08556850422991968
418.0, 0.10264155941043189
419.0, 0.11594558330054186
420.0, 0.12826569517344463
421.0, 0.14008551930644428
422.0, 0.14781649733814123
423.0, 0.15969559393614935
424.0, 0.1697718997781133
425.0, 0.17584202293501017
426.0, 0.18341432792897663
427.0, 0.184893549834941
428.0, 0.18347394631009037
429.0, 0.18085714623295907
430.0, 0.17793015944782384
431.0, 0.16778433215016614
432.0, 0.15378193738654583
433.0, 0.13809938279595152
434.0, 0.12351861311944938
435.0, 0.1073269624645337
436.0, 0.09114929077998013
437.0, 0.07637495253882294
438.0, 0.06881890847178235
439.0, 0.06742026105698976
440.0, 0.07014904065695622
441.0, 0.07531416203068599
442.0, 0.08789970877352558
443.0, 0.10338893388650297
444.0, 0.11813467515360607
445.0, 0.128353240282064
446.0, 0.1340198752402017
447.0, 0.13075402177583267
448.0, 0.11917201180825115
449.0, 0.09978803868025546
450.0, 0.08196153879132512
451.0, 0.06361470905346309
452.0, 0.04728028966104489
453.0, 0.03635210063203473
454.0, 0.028637758609940347
455.0, 0.02253471343165161
456.0, 0.018607405359175377
457.0, 0.017828858407534617
458.0, 0.01467650225929329
459.0, 0.011850587035148233
460.0, 0.009373699354774025
461.0, 0.007097603546034695
462.0, 0.00480444746208489
463.0, 0.003962360351033021
464.0, 0.004000016341765233
465.0, 0.0039305911878291
466.0, 0.007985393004285381
467.0, 0.012600817824412615
468.0, 0.018003307194888057
469.0, 0.024986762670972322
470.0, 0.03043082580155164
471.0, 0.03408163829022765
472.0, 0.03613667845829518
473.0, 0.036878406063598
474.0, 0.03518367700666514
475.0, 0.0335580913240909
476.0, 0.03213040948079804
477.0, 0.03081255336689864
478.0, 0.03446397532665954
479.0, 0.04130897462893066
480.0, 0.05063476095116581
481.0, 0.06158508199663897
482.0, 0.07911429145288257
483.0, 0.09423210613225019
484.0, 0.10878159867317092
485.0, 0.12681764302649348
486.0, 0.13166455298775007
487.0, 0.12480818124411464
488.0, 0.11042649605360215
489.0, 0.09460432310934784
490.0, 0.08184720952965266
491.0, 0.0624570546585264
492.0, 0.040002009368241706
493.0, 0.020564827890688496
494.0, 0.010129195765350497
495.0, 0.0037733754130153847
496.0, 0.0016838713416275854
497.0, 0.004603992262094767
498.0, 0.005238677913977444
499.0, 0.005881253331566069
500.0, 0.005786039542763624
501.0, 0.0038621792184667715
502.0, 0.0010424525457671259
503.0, 0.001208705296252588
504.0, 0.0041393962160221915
505.0, 0.009462283969332226
506.0, 0.01240556864731331
507.0, 0.016958471282569616
508.0, 0.02240544588586185
509.0, 0.027931679991802984
510.0, 0.03134139091518371
511.0, 0.03704872411421157
512.0, 0.042474550107389576
513.0, 0.04526226029385251
514.0, 0.04891415328938531
515.0, 0.049152192286209345
516.0, 0.046979882108859616
517.0, 0.04316805347634872
518.0, 0.036644645927946376
519.0, 0.029650867715261618
520.0, 0.024067153100127605
521.0, 0.020857059442254296
522.0, 0.01412461631627573
523.0, 0.00952437093915044
524.0, 0.006442795883218599
525.0, 0.004387901678706052
526.0, 0.0017463365721580705
527.0, 0.0031527779238740236
528.0, 0.004885854452429546
529.0, 0.005246835354778444
530.0, 0.005311306729205184
531.0, 0.00575145200565391
532.0, 0.005494598647221404
533.0, 0.004513192977037582
534.0, 0.005196267521073266
535.0, 0.00375739152506684
536.0, 0.0027981767783667156
537.0, 0.002747063790181051
538.0, 0.0017657637644535593
539.0, 0.0006430935697151073
540.0, 0.002605699116221752
541.0, 0.007108051324667822
542.0, 0.009580818333999158
543.0, 0.014449742042871992
544.0, 0.01966331420365025
545.0, 0.024031448749783944
546.0, 0.02545884395350391
547.0, 0.029626255241313345
548.0, 0.030588086525799606
549.0, 0.029376808958020736
550.0, 0.0295239955189414
551.0, 0.026626662322573505
552.0, 0.024627269803613166
553.0, 0.024674261905530123
554.0, 0.02800257692622308
555.0, 0.028037705921430126
556.0, 0.02932641144940211
557.0, 0.03406863693062477
558.0, 0.04444583474091376
559.0, 0.048496040581925845
560.0, 0.05610332167858306
561.0, 0.06294454794316955
562.0, 0.06552373439850902
563.0, 0.06835855690874795
564.0, 0.0680769346109872
565.0, 0.06656903860919489
566.0, 0.06539853220110382
567.0, 0.06838622680980685
568.0, 0.07072436014294502
569.0, 0.07386368189966919
570.0, 0.07878278771599223
571.0, 0.08738032653395952
572.0, 0.09307603981667009
573.0, 0.09975698401684853
574.0, 0.10701813435503058
575.0, 0.10860759068538098
576.0, 0.10763409302306563
577.0, 0.10782959530733234
578.0, 0.10869160700175642
579.0, 0.10694284440722045
580.0, 0.11031012606152037
581.0, 0.11521494802538389
582.0, 0.12255359645245054
583.0, 0.1346664110177362
584.0, 0.1502811548941977
585.0, 0.169460806961756
586.0, 0.1900144085478285
587.0, 0.20932280615919202
588.0, 0.22796356297157708
589.0, 0.23962544929733268
590.0, 0.2434379673949639
591.0, 0.23876254033786148
592.0, 0.22379983494381772
593.0, 0.20339885499818178
594.0, 0.1784533604911125
595.0, 0.15087321247275182
596.0, 0.13089344049390803
597.0, 0.11209783870947523
598.0, 0.09566634083336391
599.0, 0.08304414094367628
600.0, 0.07836511677341851
601.0, 0.07009250964565146
602.0, 0.06698604252663831
603.0, 0.06830451857216872
604.0, 0.06772642731219375
605.0, 0.07265739820085976
606.0, 0.07801646857443102
607.0, 0.08340660104721775
608.0, 0.08906035735609057
609.0, 0.09707515221000483
610.0, 0.10154966090392377
611.0, 0.10281918853527072
612.0, 0.10162974377391698
613.0, 0.10205817352715671
614.0, 0.09909306994497215
615.0, 0.09444204477477593
616.0, 0.08919627161655289
617.0, 0.08356913759130158
618.0, 0.07889397946494178
619.0, 0.0728985394703025
620.0, 0.06561192889704182
621.0, 0.060522095259446275
622.0, 0.0535533265113273
623.0, 0.0457788951596933
624.0, 0.037941988956203335
625.0, 0.0312369179921224
626.0, 0.025059423419852324
627.0, 0.019162493068382743
628.0, 0.013889365874438786
629.0, 0.009703057539558151
630.0, 0.005062768758906915
631.0, 0.002721698393254779
632.0, 0.0019441646847765577
633.0, 0.001984150205582636
634.0, 0.0017384024792866147
635.0, 0.0012639798232327243
636.0, 0.001048769964130085
637.0, 0.0013400418646662537
638.0, 0.0022331684718235006
639.0, 0.0029967456143222826
640.0, 0.004106091590015393
641.0, 0.005978164447552108
642.0, 0.009388777623684686
643.0, 0.009446515426947997
644.0, 0.010106522123393203
645.0, 0.011224483838799464
646.0, 0.01196137431469391
647.0, 0.010222396321816127
648.0, 0.008743686469393582
649.0, 0.006268431240609804
650.0, 0.0021620091107087823
651.0, 0.0015012638362419722
652.0, 0.0012539885523470775
653.0, 0.001488376364685897
654.0, 0.0020011223770361013
655.0, 0.0017191415212779195
656.0, 0.0023727599806516743
657.0, 0.0019059168618247295
658.0, 0.0010034290254268305
659.0, 0.002265781658119029
660.0, 0.002779033397391188
661.0, 0.0063047446253974284
662.0, 0.010409065342815478
663.0, 0.011900095103481997
664.0, 0.01693639327605286
665.0, 0.023275641360172863
666.0, 0.03076325642851071
667.0, 0.03932693535182005
668.0, 0.049378229257245505
669.0, 0.05973465308859773
670.0, 0.07481728323511833
671.0, 0.09419127072225768
672.0, 0.11192885720714654
673.0, 0.1403934620745645
674.0, 0.16946251001034632
675.0, 0.19835236561327585
676.0, 0.2280007237752669
677.0, 0.2570663256755413
678.0, 0.2758029565112688
679.0, 0.28206189410934124
680.0, 0.2752732960883474
681.0, 0.2621902974943183
682.0, 0.23428720174237194
683.0, 0.20579859959538674
684.0, 0.18093737274674476
685.0, 0.15414151819552635
686.0, 0.13057313158518172
687.0, 0.11266264429252576
688.0, 0.09885940668655903
689.0, 0.08568919558842295
690.0, 0.07776450813647881
691.0, 0.07365590961099108
692.0, 0.07095847925334595
693.0, 0.06805782106207188
694.0, 0.07067322528930853
695.0, 0.07329434786348883
696.0, 0.0771040427395935
697.0, 0.08272294320942229
698.0, 0.09066176664577441
699.0, 0.1019227266071111
700.0, 0.1165139091410877
701.0, 0.13367046700765556
702.0, 0.15203832543923398
703.0, 0.18054926112558276
704.0, 0.2128494670198795
705.0, 0.2489136710912591
706.0, 0.2897342856209726
707.0, 0.34522386343757167
708.0, 0.4164009707454064
709.0, 0.4961951297070258
710.0, 0.5835969989756536
711.0, 0.6835574122686352
712.0, 0.77757874755333
713.0, 0.8737223902125536
714.0, 0.9555112315766024
715.0, 0.9998798026941884
716.0, 0.9848551394678068
717.0, 0.9590765604188252
718.0, 0.8955196603726981
719.0, 0.7882275041443354
720.0, 0.7041315485757609
721.0, 0.5975633444506043
722.0, 0.5052210843379623
723.0, 0.4303999235830017
724.0, 0.35778730579147255
725.0, 0.2989041352327023
726.0, 0.25380454062565877
727.0, 0.21641525138401915
728.0, 0.18080223923981856
729.0, 0.15623363440155572
730.0, 0.1377521122625657
731.0, 0.11955761620679403
732.0, 0.10188067103302495
733.0, 0.09529400456643007
734.0, 0.08278323526343545
735.0, 0.07088236247101576
736.0, 0.06185117438918269
737.0, 0.05731167331345808
738.0, 0.05019154722140971
739.0, 0.04486820878994636
740.0, 0.04069148469466632
741.0, 0.037071814362530986
742.0, 0.03332975863036075
743.0, 0.03190153259521603
744.0, 0.029559740530109634
745.0, 0.026683191301112515
746.0, 0.025751727170979274
747.0, 0.02444503070182534
748.0, 0.022917889732720003
749.0, 0.021695715764041147
750.0, 0.021130571571332236
751.0, 0.020300286507844763
752.0, 0.02044249449524358
753.0, 0.020949839072251397
754.0, 0.02153138038260702
755.0, 0.02197836941751334
756.0, 0.024783096324528475
757.0, 0.02708670455252766
758.0, 0.029531330777357857
759.0, 0.032978654038552796
760.0, 0.035470553545962805
761.0, 0.0409059973857722
762.0, 0.04665712847648392
763.0, 0.05174391878359315
764.0, 0.05683051440398968
765.0, 0.06719897130655042
766.0, 0.07311379938028079
767.0, 0.07623076187828708
768.0, 0.08040282543830359
769.0, 0.08641443598671879
770.0, 0.08427760095300933
771.0, 0.07997019153985951
772.0, 0.07608786060822889
773.0, 0.07048262869078643
774.0, 0.06326619600104542
775.0, 0.056613621998499064
776.0, 0.049681917782091085
777.0, 0.04101861347270399
778.0, 0.03746305871884319
779.0, 0.03250124524954609
780.0, 0.027852724285030172
781.0, 0.024572400685984798
782.0, 0.02309984810002587
783.0, 0.019217754575911246
784.0, 0.016723932000453138
785.0, 0.014951152710204828
786.0, 0.012077657584682017
787.0, 0.010380459251856107
788.0, 0.008533612524065195
789.0, 0.006378109332120993
790.0, 0.004153095154732258
791.0, 0.0031791303715947303
792.0, 0.0028877435722208865
793.0, 0.0018085098132944696
794.0, 0.0005346808609612657
795.0, 0.00017780351838493427
796.0, 9.08382732477173e-05
797.0, 0.0012928993668648134
798.0, 0.0020887237212858867
799.0, 0.0017626640050934575
800.0, 0.000914584833388616
801.0, 0.002085923698896127
802.0, 0.0030121998090308147
803.0, 0.0031442450435037956
804.0, 0.002295190121960787
805.0, 0.0016933926148499554
806.0, 0.0009364363461510654
807.0, 0.0004825988479978536
808.0, 0.0003655068147482443
809.0, 5.3607970175465494e-05
810.0, 0.0015686600366742762
811.0, 0.0024149160529987486
812.0, 0.00271686107358735
813.0, 0.0028304138177453007
814.0, 0.0018697358451381946
815.0, 0.0021010670082273865
816.0, 0.0014752572837863128
817.0, 0.00033605021291546733
818.0, 0.0013147045198982905
819.0, 0.003059880431828286
820.0, 0.0034625024367941795
821.0, 0.003599724554832154
822.0, 0.004359100952411379
823.0, 0.0046755047992267425
824.0, 0.004339925536398416
825.0, 0.0048203606111173695
826.0, 0.005050442920381447
827.0, 0.002451096406130837
828.0, 0.0021320909783672168
829.0, 0.0029022311335915184
830.0, 0.0028369576838246377
831.0, 0.0015495453535213518
832.0, 0.002739835488207239
833.0, 0.0019588216014330704
834.0, 0.0008884974955266743
835.0, 0.00029407397833227115
836.0, 0.0007281353996907747
837.0, 0.0011959851589544075
838.0, 0.0009992033066169909
839.0, 0.001518039643845715
840.0, 0.002849052746786618
841.0, 0.003567688853592568
842.0, 0.0031955608381682233
843.0, 0.004911998625953669
844.0, 0.0063468335755131385
845.0, 0.005675878965903682
846.0, 0.007001825651289595
847.0, 0.008086034257417642
848.0, 0.008304225277544697
849.0, 0.00874402930833011
850.0, 0.011538056732682841
851.0, 0.010748189417198394
852.0, 0.012136837608252495
853.0, 0.013550057855951798
854.0, 0.013963452232050757
855.0, 0.014376818076367112
856.0, 0.015286596294096877
857.0, 0.0161447213123893
858.0, 0.01722112801054425
859.0, 0.018892174098364457
860.0, 0.02137769962954025
861.0, 0.019161639928281692
862.0, 0.019236048381111905
863.0, 0.022172866815392676
864.0, 0.02439971290056337
865.0, 0.024782698113559837
866.0, 0.027345118399122882
867.0, 0.029688860471716406
868.0, 0.03087431317189684
869.0, 0.03375426171888593
870.0, 0.0351670312135022
871.0, 0.03472257116320788
872.0, 0.03524616744638951
873.0, 0.03934223535059777
874.0, 0.04006891812314551
875.0, 0.042303474132800625
876.0, 0.04450435945258551
877.0, 0.045913288797478004
878.0, 0.04608744087647581
879.0, 0.05232965989907041
880.0, 0.05288226285767484
881.0, 0.0534263071691159
882.0, 0.056839349085203536
883.0, 0.0600969328126145
884.0, 0.06235337774546407
885.0, 0.0658353430976653
886.0, 0.07062288096648954
887.0, 0.07644948586230722
888.0, 0.08336736001207266
889.0, 0.09161891886505699
890.0, 0.10044059488361645
891.0, 0.10991006963725963
892.0, 0.12048390614412492
893.0, 0.13421356691238087
894.0, 0.14795139971472204
895.0, 0.16572938471439155
896.0, 0.18666289251589166
897.0, 0.20265856068500385
898.0, 0.2271053587361743
899.0, 0.2569954382201668
900.0, 0.28407261246970866
901.0, 0.3044077504947369
902.0, 0.3313314372746233
903.0, 0.35614988972525685
904.0, 0.3698429243331133
905.0, 0.3756703534950247
906.0, 0.3786088203338927
907.0, 0.35833741241122136
908.0, 0.3416578190006875
909.0, 0.31795196861354486
910.0, 0.2871208107614646
911.0, 0.25588890735390707
912.0, 0.23229358388180021
913.0, 0.20564971943732382
914.0, 0.18170591405310604
915.0, 0.16260050940345377
916.0, 0.1454277410147334
917.0, 0.13103220826963524
918.0, 0.1194051912807059
919.0, 0.10859059629130771
920.0, 0.09819863506727347
921.0, 0.09453295055915173
922.0, 0.08820472270688813
923.0, 0.08291045953022114
924.0, 0.07952931859705127
925.0, 0.07790815459788739
926.0, 0.07460905942092703
927.0, 0.07281807992695674
928.0, 0.0717883556302036
929.0, 0.07036001849485175
930.0, 0.06727656196101037
931.0, 0.06932062634773539
932.0, 0.0690511569284764
933.0, 0.06797080086768129
934.0, 0.06695304203490149
935.0, 0.06643979720961488
936.0, 0.0653140650709277
937.0, 0.06509413071454512
938.0, 0.06530606738801757
939.0, 0.06557826802795146
940.0, 0.06577992587418817
941.0, 0.06919986677107076
942.0, 0.07035298903111271
943.0, 0.07084130943414504
944.0, 0.07265251163979514
945.0, 0.0770949268693322
946.0, 0.08002476812823112
947.0, 0.08443013252185805
948.0, 0.09016469535570736
949.0, 0.09614126502866241
950.0, 0.0994130988481733
951.0, 0.11054907383548007
952.0, 0.11999168335809801
953.0, 0.12936365090343832
954.0, 0.14355282358077365
955.0, 0.15769529401661134
956.0, 0.17496591833085418
957.0, 0.19633724451435167
958.0, 0.22186973863825543
959.0, 0.2510428067110833
960.0, 0.2890076995541343
961.0, 0.3285391629678911
962.0, 0.3635593992314151
963.0, 0.3976906597863575
964.0, 0.4440383613065626
965.0, 0.45466696012386953
966.0, 0.46205782546929364
967.0, 0.4631167956365924
968.0, 0.4521801649619387
969.0, 0.4189850259503024
970.0, 0.4148415764197177
971.0, 0.4028604577950754
972.0, 0.3932480217933655
973.0, 0.3942323696805699
974.0, 0.4069967797613687
975.0, 0.42528373399471847
976.0, 0.4553274004059194
977.0, 0.48769605025839585
978.0, 0.5159859132410836
979.0, 0.5462202935489631
980.0, 0.5669426381764486
981.0, 0.5754800313169839
982.0, 0.5700230434183461
983.0, 0.5541476533006047
984.0, 0.5498401828918402
985.0, 0.512942516446815
986.0, 0.4891692451538756
987.0, 0.47401334985759386
988.0, 0.45604098230585255
989.0, 0.43856375813540305
990.0, 0.4365436201163619
991.0, 0.4310725118724634
992.0, 0.4273967174842197
993.0, 0.4333100149778416
994.0, 0.43513932028279523
995.0, 0.43681132365446845
996.0, 0.45077178435189835
997.0, 0.46432155193798147
998.0, 0.46228158315982165
999.0, 0.47480971936972893
1000.0, 0.49000379132860944
1001.0, 0.4905603871215651
1002.0, 0.4851955050013583
1003.0, 0.4883512931755615
1004.0, 0.47402930265161847
1005.0, 0.4557770549311359
1006.0, 0.44074477234253173
1007.0, 0.4217622270058499
1008.0, 0.388501434255264
1009.0, 0.36008942968285806
1010.0, 0.33069448225024745
1011.0, 0.30036987702990736
1012.0, 0.27256698753824915
1013.0, 0.250673266474341
1014.0, 0.21899375997854512
1015.0, 0.1969873690402165
1016.0, 0.17907318290456298
1017.0, 0.16245110481418834
1018.0, 0.14597841406424458
1019.0, 0.13690989643216442
1020.0, 0.12471436944217859
1021.0, 0.11489618029014949
1022.0, 0.10796309940050584
1023.0, 0.10206991655613325
1024.0, 0.09532347382807417
1025.0, 0.09220058289308843
1026.0, 0.08930336144390272
1027.0, 0.08566416320538409
1028.0, 0.08156721378525547
1029.0, 0.07971956187581233
1030.0, 0.07618342274512861
1031.0, 0.07280270448168617
1032.0, 0.07026955772944199
1033.0, 0.06839013988641808
1034.0, 0.0629919601563735
1035.0, 0.06260613881897263
1036.0, 0.060831220040316485
1037.0, 0.05849773053099775
1038.0, 0.058536120649406165
1039.0, 0.059552662073408265
1040.0, 0.05951116374903076
1041.0, 0.05995794783143766
1042.0, 0.06041250835179659
1043.0, 0.06012321084121713
1044.0, 0.06074347250747289
1045.0, 0.06247643539630943
1046.0, 0.06359838585149964
1047.0, 0.06525945931047016
1048.0, 0.06900040921393545
1049.0, 0.07470205830825438
1050.0, 0.07862559029177812
1051.0, 0.08397694777661974
1052.0, 0.08963152278597851
1053.0, 0.09429987159865087
1054.0, 0.09966866098038893
1055.0, 0.10464561132975221
1056.0, 0.10908266425474315
1057.0, 0.11004263569421688
1058.0, 0.10718488726433661
1059.0, 0.10875651892331603
1060.0, 0.1039698219686576
1061.0, 0.09922232294191806
1062.0, 0.09261847176591576
1063.0, 0.08378279521846056
1064.0, 0.07748905233900982
1065.0, 0.07167896663281587
1066.0, 0.06377320617494668
1067.0, 0.05751380398096743
1068.0, 0.05403720299466388
1069.0, 0.04980920799211392
1070.0, 0.04572842116638443
1071.0, 0.044861601989025245
1072.0, 0.04321835060769955
1073.0, 0.04095895794443568
1074.0, 0.04294124157556897
1075.0, 0.04723617966412438
1076.0, 0.04831462585775996
1077.0, 0.05128968794723328
1078.0, 0.05675212773701719
1079.0, 0.06192868201065105
1080.0, 0.06734182107205171
1081.0, 0.07453352993594489
1082.0, 0.07998701763318213
1083.0, 0.08381789691831924
1084.0, 0.08757179788906881
1085.0, 0.08866904856561247
1086.0, 0.0840581071060373
1087.0, 0.0799531712524716
1088.0, 0.07454799781118833
1089.0, 0.06542570250643501
1090.0, 0.0593089120024148
1091.0, 0.05438538972101839
1092.0, 0.04942690904843484
1093.0, 0.0448015779298614
1094.0, 0.04114339910526934
1095.0, 0.03910881495367491
1096.0, 0.03537743418361706
1097.0, 0.034597285901417335
1098.0, 0.03383015177688161
1099.0, 0.03152792990590024
1100.0, 0.029637550146074203
1101.0, 0.03174067593475428
1102.0, 0.031084614586647925
1103.0, 0.030568247704646705
1104.0, 0.031165613117000373
1105.0, 0.03168455264390545
1106.0, 0.03134280980208496
1107.0, 0.031116263898278717
1108.0, 0.030288406616370073
1109.0, 0.02870983686305522
1110.0, 0.026630703904197053
1111.0, 0.02478684067746239
1112.0, 0.022994732723231555
1113.0, 0.020377207551955573
1114.0, 0.018448797122668704
1115.0, 0.01809659901973834
1116.0, 0.014929983689555296
1117.0, 0.015350453890725506
1118.0, 0.014222525145428235
1119.0, 0.012269115272963597
1120.0, 0.010742151037359942
1121.0, 0.010247562798469069
1122.0, 0.010132851460093927
1123.0, 0.012855476469783165
1124.0, 0.013909024192179863
1125.0, 0.011898725946562997
1126.0, 0.009064384003062932
1127.0, 0.008948692880460818
1128.0, 0.006011980847846449
1129.0, 0.0044930882737366255
1130.0, 0.004005763397370906
1131.0, 0.0023756950795666434
1132.0, 0.0022830813885216096
1133.0, 0.0030959424078335425
1134.0, 0.002667797819098933
1135.0, 0.0017835877189550189
1136.0, 0.0016337301766267914
1137.0, 0.0024588788680461075
1138.0, 0.0011699146345326872
1139.0, 0.0013942664600464728
1140.0, 0.001483286687859808
1141.0, 0.0008154481374722325
1142.0, 0.0007682991629709682
1143.0, 0.0017148795175626933
1144.0, 0.0009577504494445363
1145.0, 0.0005693016011144376
1146.0, 0.0007206856708659589
1147.0, 0.0005378523986448959
1148.0, 0.0009720455102272857
1149.0, 0.0008670089537457303
1150.0, 0.0004886102292024535
1151.0, 0.000395130966386013
1152.0, 0.0007578151797157583
1153.0, 0.0003371760743346473
1154.0, 0.0009251888024316084
1155.0, 0.0012690603131739625
1156.0, 0.0010905898294458441
1157.0, 0.0007491600539291797
1158.0, 0.0012175085173708705
1159.0, 0.000510229756406271
1160.0, 0.00020075148181220614
1161.0, 0.0010264356622157703
1162.0, 0.0016064007250431887
1163.0, 0.00023468570256440807
1164.0, 0.0005618907502728016
1165.0, 0.00042703025882326155
1166.0, 0.0003638836016208765
1167.0, 0.0006923969017591243
1168.0, 0.0012316399724057665
1169.0, 0.0008083412350848543
1170.0, 0.0003032404245702075
1171.0, 0.0010740674790066852
1172.0, 0.00131680918405429
1173.0, 0.0011096188737729782
1174.0, 0.0020331254528954427
1175.0, 0.0008748302546341678
1176.0, 0.0005251201187493883
1177.0, 0.001291635444208093
1178.0, 0.0017202968370368763
1179.0, 0.0006781503343073125
1180.0, 0.00025353209792579166
1181.0, 0.0004963815553520049
1182.0, 0.0003560861098277215
1183.0, 0.0008002782953308294
1184.0, 0.0015146969339764314
1185.0, 0.0005349524573094618
1186.0, 0.0006784967617437224
1187.0, 0.0009731907064711308
1188.0, 0.001041617314521906
1189.0, 0.0007994616122773441
1190.0, 0.0004159113945295705
1191.0, 0.0005386391726267419
1192.0, 0.0007982868756418156
1193.0, 0.0005443648213404959
1194.0, 0.0004310681673110269
1195.0, 0.0007586082599521615
1196.0, 0.0010065239777789004
1197.0, 0.0003920956004770057
1198.0, 0.0007682433442965037
1199.0, 0.0010458784336551626
1200.0, 0.0009183251364748062
1201.0, 0.0006157216693686427
1202.0, 0.0007595186987225604
1203.0, 0.000563071170503164
1204.0, 0.00024567211689088386
1205.0, 0.0007907873904462394
1206.0, 0.0017322404223263004
1207.0, 0.0003566413137862973
1208.0, 0.0008341911901108545
1209.0, 0.0012009918003740622
1210.0, 0.000970801059533504
1211.0, 0.0004216874274004839
1212.0, 0.00012950891970990632
1213.0, 9.85370862999729e-05
1214.0, 0.0002459611723356601
1215.0, 0.0004121768366992689
1216.0, 0.00036047592295607026
1217.0, 0.00023557868760744853
1218.0, 0.000658548955860322
1219.0, 0.0006052406255965326
1220.0, 0.0005913369405161656
1221.0, 0.0006320033598826835
1222.0, 0.000678845639885001
1223.0, 0.0006124765414729712
1224.0, 0.00014582191934062302
1225.0, 5.622163375223212e-05
1226.0, 0.00037705193687405386
1227.0, 0.0004474473567698281
1228.0, 0.00031376343531193754
1229.0, 0.0007326335329770465
1230.0, 0.00010501092178040439
1231.0, 9.027512584036125e-06
1232.0, 0.0005199889177791351
1233.0, 0.000891701709480945
1234.0, 0.0007906131534219194
1235.0, 0.0016665617464113095
1236.0, 0.001536493298570916
1237.0, 0.0014187777694053421
1238.0, 0.0010894795285938128
1239.0, 0.0007910310897338295
1240.0, 0.000943823452415151
1241.0, 0.0004079737061836893
1242.0, 0.00015997413801090623
1243.0, 0.0006417891685030992
1244.0, 0.0009459631977968968
1245.0, 0.0006074186513754397
1246.0, 0.00035417291575086385
1247.0, 0.0018170611718505304
1248.0, 0.0020143501831749355
1249.0, 0.002013315788708528
1250.0, 0.0029625829977087
1251.0, 0.004673163684044353
1252.0, 0.0023267241003785922
1253.0, 0.001705245917046686
1254.0, 0.001710811052784087
1255.0, 0.0018574192093973997
1256.0, 0.0017011965992926208
1257.0, 0.0010983466510276637
1258.0, 0.0022575773154592804
1259.0, 0.0019608906101592958
1260.0, 0.0020516009803347906
1261.0, 0.0021267473907099293
1262.0, 0.001632550367271278
1263.0, 0.0007147721516942573
1264.0, 0.0017275100577890672
1265.0, 0.001232822585186067
1266.0, 0.0012845630228412546
1267.0, 0.0016917805797484968
1268.0, 0.0018248327127619061
1269.0, 0.003143745508431625
1270.0, 0.002367445289044561
1271.0, 0.0013253342181069926
1272.0, 0.0013316257994832716
1273.0, 0.00200512857078513
1274.0, 0.001961458709155272
1275.0, 0.002096180835633542
1276.0, 0.0027813496730231457
1277.0, 0.00231356623672685
1278.0, 0.002070899760852099
1279.0, 0.0027936489323142203
1280.0, 0.003560913278771339
1281.0, 0.0024187356278917048
1282.0, 0.0016557153254633866
1283.0, 0.0028042467869683206
1284.0, 0.00325308339633544
1285.0, 0.0016529082304134364
1286.0, 0.0020343308926356663
1287.0, 0.0024696281537750237
1288.0, 0.0018386167336201166
1289.0, 0.002030446582309898
1290.0, 0.0024649669061328526
1291.0, 0.0017959148612528755
1292.0, 0.0006092047665261775
1293.0, 0.0014410399160677087
1294.0, 0.0016402241852891462
1295.0, 0.0011247321666556262
1296.0, 0.0010765980259321317
1297.0, 0.00250896679794864
1298.0, 0.0012646143704136397
1299.0, 0.001634162807971665
1300.0, 0.0011884451641230363
1301.0, 0.000963889792047933
1302.0, 0.0012600570496586572
1303.0, 0.0011420841758762834
1304.0, 0.0005885176893760311
1305.0, 0.0010060281605716083
1306.0, 0.0012128384424419615
1307.0, 0.0011115375429475267
1308.0, 0.0007908917402674049
1309.0, 0.00029407981215607155
1310.0, 0.000528645661609183
1311.0, 0.0005468674633615954
1312.0, 0.0005588056650962038
1313.0, 0.0006833930673962045
1314.0, 0.0008431011212410474
1315.0, 0.0007011559502373368
1316.0, 0.0019133044302365992
1317.0, 0.0009873101657422027
1318.0, 0.00060605026355832
1319.0, 0.001047443537898979
1320.0, 0.001682172034959872
1321.0, 0.0023349639519944245
1322.0, 0.0017453296378490235
1323.0, 0.001862353993468818
1324.0, 0.0011713485469100069
1325.0, 0.000751188864641566
1326.0, 0.0018270099493622124
1327.0, 0.0020514105822356547
1328.0, 0.001015780225328102
1329.0, 0.0012900029085341702
1330.0, 0.00151316760107987
1331.0, 0.0014623064681633493
1332.0, 0.0015214125600670615
1333.0, 0.0012745243291461747
1334.0, 0.0010403591789833314
1335.0, 0.0008195316545992294
1336.0, 0.0009282761819910785
1337.0, 0.0012966405412401794
1338.0, 0.0016486138878219212
1339.0, 0.0020143871134871358
1340.0, 0.002115794544699184
1341.0, 0.002048990541481754
1342.0, 0.0020045733567436775
1343.0, 0.0021963414528906335
1344.0, 0.0025710141905913343
1345.0, 0.0019463745159261124
1346.0, 0.0015773776271024954
1347.0, 0.0016012257789649873
1348.0, 0.002092602958605209
1349.0, 0.0025984655277838235
1350.0, 0.0025079460540167477
1351.0, 0.0021724647311329665
1352.0, 0.0023371702799969947
1353.0, 0.0020637734195802005
1354.0, 0.002375395872224684
1355.0, 0.003160959349311724
1356.0, 0.0033998578166250988
1357.0, 0.0026532919305694794
1358.0, 0.003182223762692003
1359.0, 0.0033361625336546497
1360.0, 0.003802123544663421
1361.0, 0.004269844624816295
1362.0, 0.003934023772848932
1363.0, 0.0037190735516444444
1364.0, 0.003104044261720126
1365.0, 0.004193977534264285
1366.0, 0.004450795368828624
1367.0, 0.0038000123698484997
1368.0, 0.0038260394364221352
1369.0, 0.004439281930556917
1370.0, 0.0029468443263702877
1371.0, 0.0032809814631957167
1372.0, 0.003353573537094733
1373.0, 0.002863046867893616
1374.0, 0.0027743893856214327
1375.0, 0.003349245925339464
1376.0, 0.002912460439358092
1377.0, 0.0034342412500538324
1378.0, 0.0038206214571301954
1379.0, 0.003456807704700395
1380.0, 0.002663522799275296
1381.0, 0.0031160909838069883
1382.0, 0.0031834700376030364
1383.0, 0.0034142724331736804
1384.0, 0.00363678870036965
1385.0, 0.0036426326540689186
1386.0, 0.003412202791596833
1387.0, 0.003319396106633648
1388.0, 0.0033634393035521996
1389.0, 0.0030008005616565412
1390.0, 0.0030086388219316973
1391.0, 0.0032182232466667075
1392.0, 0.003161016973139049
1393.0, 0.0026285682475373938
1394.0, 0.0031750280885184667
1395.0, 0.0022567282801053768
1396.0, 0.0027931777793330954
1397.0, 0.0033145337624942094
1398.0, 0.0027854529189396673
1399.0, 0.0024384866459363085
1400.0, 0.0018680999140001319
1401.0, 0.0030162525107895305
1402.0, 0.002566744629988461
1403.0, 0.0021396216046374677
1404.0, 0.0026729406401518607
1405.0, 0.0031709186130567633
1406.0, 0.002048451297647329
1407.0, 0.0027498314779375987
1408.0, 0.0031959930142055125
1409.0, 0.002814428038272368
1410.0, 0.0022871582009892436
1411.0, 0.002565074421899788
1412.0, 0.002604556456539257
1413.0, 0.0017705445125317577
1414.0, 0.0034412893369115
1415.0, 0.003955636667939982
1416.0, 0.0034223321472438653
1417.0, 0.003517196159712435
1418.0, 0.0038075303970292597
1419.0, 0.002070117831119064
1420.0, 0.002826368771652346
1421.0, 0.002854128042317397
1422.0, 0.0024459639439968397
1423.0, 0.0024378084758877594
1424.0, 0.0023689970246565557
1425.0, 0.002994558004159998
1426.0, 0.0030934611594933643
1427.0, 0.003458930983150673
1428.0, 0.0030437516159142666
1429.0, 0.0020440711476966567
1430.0, 0.0020877609208573675
1431.0, 0.0030901896944358284
1432.0, 0.0028514033330866067
1433.0, 0.003456498266218789
1434.0, 0.0033216419931803454
1435.0, 0.0022770971594097775
1436.0, 0.001525803633142332
1437.0, 0.0023873483028594915
1438.0, 0.0015712475435659024
1439.0, 0.001645294488735001
1440.0, 0.0021617933439086515
1441.0, 0.002370538240971154
1442.0, 0.0018364223101976856
1443.0, 0.0009494751597551652
1444.0, 0.002087468276866956
1445.0, 0.0013765284728538773
1446.0, 0.0017153237946405224
1447.0, 0.002062370433489064
1448.0, 0.0016543941799765885
1449.0, 0.0011240081857784626
1450.0, 0.0015550342746366334
1451.0, 0.0025420898418028084
1452.0, 0.0011717514661988375
1453.0, 0.0014688812484580913
1454.0, 0.0020704160834538136
1455.0, 0.0006935339119259205
1456.0, 0.0018615589890647833
1457.0, 0.0007669090011785464
1458.0, 0.000699803771721062
1459.0, 0.0015011014944673702
1460.0, 0.001947836356312272
1461.0, 0.0016112596198970311
1462.0, 0.0015457810893153656
1463.0, 0.002439725261723296
1464.0, 0.001591346645498266
1465.0, 0.001238588718976617
1466.0, 0.0015095395294932364
1467.0, 0.001716336371313187
1468.0, 0.001433885411407726
1469.0, 0.0020386544562730124
1470.0, 0.0014422911353557787
1471.0, 0.0013786278649344909
1472.0, 0.0013194874037381525
1473.0, 0.0012392723355624138
1474.0, 0.001082136739755256
1475.0, 0.000650920633263745
1476.0, 0.0016728028043201915
1477.0, 0.0013733850202861048
1478.0, 0.001700876164582963
1479.0, 0.0020150345001443233
1480.0, 0.0018788856004119804
1481.0, 0.0013815651135214066
1482.0, 0.0006691169899549813
1483.0, 0.002553031605509383
1484.0, 0.0012135547574891328
1485.0, 0.0010113607015245143
1486.0, 0.0016830467872965963
1487.0, 0.0016050906221036234
1488.0, 0.00046504522771711966
1489.0, 0.0015191340951896091
1490.0, 0.0006410285821572978
1491.0, 0.000511783066354547
1492.0, 0.0012024806625552604
1493.0, 0.0015607355732211244
1494.0, 0.0009273281405572913
1495.0, 0.0011702979471307617
1496.0, 0.0017833121773263353
1497.0, 0.0013667202104797277
1498.0, 0.0008365351944655961
1499.0, 0.0011438419288007052
1500.0, 0.0018165243734044433
1501.0, 0.0014326453927334835
1502.0, 0.0016373498608726474
1503.0, 0.001164012899176404
1504.0, 0.0009813277730075193
1505.0, 0.0006422972802311016
1506.0, 0.00036340629335318336
1507.0, 0.00033013106441036897
1508.0, 5.893030482856886e-05
1509.0, 0.0006056214886131096
1510.0, 0.0006390260839445077
1511.0, 0.000927470063724569
1512.0, 0.0011534828187582903
1513.0, 0.0011170297511972121
1514.0, 0.0009438302841880853
1515.0, 0.0008841584059023441
1516.0, 0.0018967794038212654
1517.0, 0.0008848741442109443
1518.0, 0.0013556656863048559
1519.0, 0.001916175444185659
1520.0, 0.0011799717889832374
1521.0, 0.00022793816391639783
1522.0, 0.0019826075595672094
1523.0, 0.00039854776843965486
1524, 0.0
1525, 0.0
1526, 0.0
1527, 0.0
1528, 0.0
1529, 0.0
1530, 0.0
1531, 0.0
1532, 0.0
1533, 0.0
1534, 0.0
1535, 0.0
1536, 0.0
1537, 0.0
1538, 0.0
1539, 0.0
1540, 0.0
1541, 0.0
1542, 0.0
1543, 0.0
1544, 0.0
1545, 0.0
1546, 0.0
1547, 0.0
1548, 0.0
1549, 0.0
1550, 0.0
1551, 0.0
1552, 0.0
1553, 0.0
1554, 0.0
1555, 0.0
1556, 0.0
1557, 0.0
1558, 0.0
1559, 0.0
1560, 0.0
1561, 0.0
1562, 0.0
1563, 0.0
1564, 0.0
1565, 0.0
1566, 0.0
1567, 0.0
1568, 0.0
1569, 0.0
1570, 0.0
1571, 0.0
1572, 0.0
1573, 0.0
1574, 0.0
1575, 0.0
1576, 0.0
1577, 0.0
1578, 0.0
1579, 0.0
1580, 0.0
1581, 0.0
1582, 0.0
1583, 0.0
1584, 0.0
1585, 0.0
1586, 0.0
1587, 0.0
1588, 0.0
1589, 0.0
1590, 0.0
1591, 0.0
1592, 0.0
1593, 0.0
1594, 0.0
1595, 0.0
1596, 0.0
1597, 0.0
1598, 0.0
1599, 0.0
