30, 0.0
31, 0.0
32, 0.0
33, 0.0
34, 0.0
35, 0.0
36, 0.0
37, 0.0
38, 0.0
39, 0.0
40, 0.0
41, 0.0
42, 0.0
43, 0.0
44, 0.0
45, 0.0
46, 0.0
47, 0.0
48, 0.0
49, 0.0
50, 0.0
51, 0.0
52, 0.0
53, 0.0
54, 0.0
55, 0.0
56, 0.0
57, 0.0
58, 0.0
59, 0.0
60, 0.0
61, 0.0
62, 0.0
63, 0.0
64, 0.0
65, 0.0
66, 0.0
67, 0.0
68, 0.0
69, 0.0
70, 0.0
71, 0.0
72, 0.0
73, 0.0
74, 0.0
75, 0.0
76, 0.0
77, 0.0
78, 0.0
79, 0.0
80, 0.0
81, 0.0
82, 0.0
83, 0.0
84, 0.0
85, 0.0
86, 0.0
87, 0.0
88, 0.0
89, 0.0
90, 0.0
91, 0.0
92, 0.0
93, 0.0
94, 0.0
95, 0.0
96, 0.0
97, 0.0
98, 0.0
99, 0.0
100, 0.0
101, 0.0
102, 0.0
103, 0.0
104, 0.0
105, 0.0
106, 0.0
107, 0.0
108, 0.0
109, 0.0
110, 0.0
111, 0.0
112, 0.0
113, 0.0
114, 0.0
115, 0.0
116, 0.0
117, 0.0
118, 0.0
119, 0.0
120, 0.0
121, 0.0
122, 0.0
123, 0.0
124, 0.0
125, 0.0
126, 0.0
127.0, 0.0014047333003595337
128.0, 0.0031752961398702883
129.0, 0.0008724260686069714
130.0, 0.005208325411723321
131.0, 0.009517340255918773
132.0, 0.016183295978695274
133.0, 0.024842243977310656
134.0, 0.03389394402886454
135.0, 0.050991214254485356
136.0, 0.06960807941594083
137.0, 0.08840987914450057
138.0, 0.11068588416398839
139.0, 0.1383507593304805
140.0, 0.16166043687049939
141.0, 0.17049014938747506
142.0, 0.170886476668888
143.0, 0.16763257352886363
144.0, 0.1622876046020495
145.0, 0.15039889293358447
146.0, 0.12848586933594025
147.0, 0.12026966876557628
148.0, 0.1129713167227704
149.0, 0.10423930160418461
150.0, 0.10110257969993287
151.0, 0.10021238040142616
152.0, 0.10133674384863604
153.0, 0.10367983909737971
154.0, 0.10588873078503129
155.0, 0.10656151575042845
156.0, 0.10491828896774781
157.0, 0.10618605765889949
158.0, 0.11029262398738032
159.0, 0.11544083496348066
160.0, 0.12134460611689786
161.0, 0.1309243851403135
162.0, 0.13677902396135247
163.0, 0.14943197265438007
164.0, 0.16106594476391875
165.0, 0.17087446421200664
166.0, 0.18316504190553226
167.0, 0.19306582072020112
168.0, 0.20759840275466193
169.0, 0.21671465051649152
170.0, 0.2225791153474646
171.0, 0.2271597465823295
172.0, 0.21808192147626637
173.0, 0.2073819274701304
174.0, 0.1898251941867607
175.0, 0.16761231795109255
176.0, 0.14306733483371575
177.0, 0.11762788086812175
178.0, 0.10215611166518708
179.0, 0.08596713502769901
180.0, 0.06948808282784914
181.0, 0.05445813500745404
182.0, 0.042797248620649556
183.0, 0.03414301174705563
184.0, 0.029793918811812533
185.0, 0.027613466310176273
186.0, 0.02660890410952958
187.0, 0.027373571552749082
188.0, 0.03316370262652602
189.0, 0.04344910798885968
190.0, 0.049712920316111686
191.0, 0.055772610140082876
192.0, 0.06376393858301893
193.0, 0.07400578481204216
194.0, 0.0853635989577857
195.0, 0.0876132496819378
196.0, 0.09208286725752106
197.0, 0.09710230632761678
198.0, 0.10114431361648775
199.0, 0.11132592725694222
200.0, 0.12284797896542049
201.0, 0.13119795150764973
202.0, 0.1432934835472989
203.0, 0.15816436738249842
204.0, 0.1677529221677885
205.0, 0.1685330608175376
206.0, 0.17184569528372415
207.0, 0.17111623533816356
208.0, 0.16605951914961792
209.0, 0.15807911159402435
210.0, 0.147400600286785
211.0, 0.13826821373541084
212.0, 0.12753402869909058
213.0, 0.1151868239835412
214.0, 0.10192336165750232
215.0, 0.08890774800419626
216.0, 0.07776871705700472
217.0, 0.06614964569424074
218.0, 0.05442745109093937
219.0, 0.04335857592664157
220.0, 0.0333853593055505
221.0, 0.023858323541432275
222.0, 0.015713648711768186
223.0, 0.007621044419584206
224.0, 0.0030029744975044828
225.0, 0.0036657157264174843
226.0, 0.008962203980163043
227.0, 0.012396268466391112
228.0, 0.0176902547534735
229.0, 0.018031922556800174
230.0, 0.01825821871707387
231.0, 0.021294953549622644
232.0, 0.018708659892959913
233.0, 0.015735989631729223
234.0, 0.013838438334490577
235.0, 0.00939247680944509
236.0, 0.0034859321359069382
237.0, 0.0009486517802622927
238.0, 0.008591688056365208
239.0, 0.01659598409587199
240.0, 0.025405614469542842
241.0, 0.03355939926521701
242.0, 0.040637247996419205
243.0, 0.04858531778137929
244.0, 0.06455637013666443
245.0, 0.07078146065529528
246.0, 0.07881943272004274
247.0, 0.0870538432251157
248.0, 0.09051482830771389
249.0, 0.09981541672361084
250.0, 0.11038665295800332
251.0, 0.11622771945885972
252.0, 0.12319172125591824
253.0, 0.13344793445819308
254.0, 0.14335801939275003
255.0, 0.15045080785319784
256.0, 0.16629238079081396
257.0, 0.17726355343096434
258.0, 0.18981721577902783
259.0, 0.2120553205463312
260.0, 0.2403156918581047
261.0, 0.26732153892575833
262.0, 0.2890095609956608
263.0, 0.3102127406426259
264.0, 0.33633299996444155
265.0, 0.3704328972155309
266.0, 0.404262547690126
267.0, 0.4322646398161024
268.0, 0.4554892144719953
269.0, 0.4743155336365319
270.0, 0.4893532741460767
271.0, 0.5010476477606132
272.0, 0.49991741092535213
273.0, 0.487435334472619
274.0, 0.4654841757451936
275.0, 0.44033502201577474
276.0, 0.4165097259701374
277.0, 0.3899616578342546
278.0, 0.3565317366759647
279.0, 0.32298390137290733
280.0, 0.2930603984988664
281.0, 0.2677479325039827
282.0, 0.24648735732908567
283.0, 0.23110967233307778
284.0, 0.21931432241773818
285.0, 0.20733763949956255
286.0, 0.19952245123469592
287.0, 0.19724620090801376
288.0, 0.19739182284422668
289.0, 0.19988691023115693
290.0, 0.20891636880201384
291.0, 0.21653669981295498
292.0, 0.22667773093319776
293.0, 0.24148198130861104
294.0, 0.2537305654970363
295.0, 0.2728921972342477
296.0, 0.29091794773124363
297.0, 0.3057211691552386
298.0, 0.32144396522701496
299.0, 0.33983129981443283
300.0, 0.3456951202262064
301.0, 0.35256174648866084
302.0, 0.35471674923136304
303.0, 0.35292229134518927
304.0, 0.3458458108471072
305.0, 0.3321049511486159
306.0, 0.31975812482243954
307.0, 0.3055418577681713
308.0, 0.2839428122199157
309.0, 0.2592549268038692
310.0, 0.23242187291988936
311.0, 0.19991514704177518
312.0, 0.16878490642295718
313.0, 0.14116001587410323
314.0, 0.11761712803634372
315.0, 0.09960458487886369
316.0, 0.08764944432186737
317.0, 0.08037415248461824
318.0, 0.06935276778809649
319.0, 0.06592130468378594
320.0, 0.06512524426722947
321.0, 0.06657425297980231
322.0, 0.06993523037835936
323.0, 0.07141665922023567
324.0, 0.07877700961173503
325.0, 0.08667095931276386
326.0, 0.09259425152279153
327.0, 0.09661131629397317
328.0, 0.10006629188295213
329.0, 0.1038906505976979
330.0, 0.10657384787069596
331.0, 0.10269030908696027
332.0, 0.09762769971494673
333.0, 0.09402431750392153
334.0, 0.09127467155202476
335.0, 0.08571524714436764
336.0, 0.08245635786827821
337.0, 0.08312036018657289
338.0, 0.08671785994604725
339.0, 0.09496547894692514
340.0, 0.11048525583815144
341.0, 0.12828982430382885
342.0, 0.14131774945413572
343.0, 0.16764454000400958
344.0, 0.19311041698148335
345.0, 0.21447808846643465
346.0, 0.24124124423572196
347.0, 0.2622766987219279
348.0, 0.272875153617091
349.0, 0.2879637719514503
350.0, 0.3040184243325758
351.0, 0.3147414250268617
352.0, 0.3157033854018879
353.0, 0.30838327786356706
354.0, 0.28951183250564827
355.0, 0.2610081324760629
356.0, 0.22822510487051154
357.0, 0.19473646594905147
358.0, 0.16044432625614113
359.0, 0.12578074823163757
360.0, 0.10113156628317714
361.0, 0.07977724082468429
362.0, 0.06256330679844324
363.0, 0.04915819517643845
364.0, 0.035892893374732934
365.0, 0.026134192433289637
366.0, 0.022498871424222976
367.0, 0.0165431858426714
368.0, 0.010872317350141138
369.0, 0.007547166222527169
370.0, 0.004077494113372815
371.0, 0.004279863707939623
372.0, 0.0024190859662949343
373.0, 0.0023077470486650253
374.0, 0.006033345171287508
375.0, 0.010782903396383998
376.0, 0.008961042596796623
377.0, 0.008220779403010635
378.0, 0.01490992217314251
379.0, 0.022449817975951906
380.0, 0.030795086221281735
381.0, 0.041448181251071775
382.0, 0.05548602750660333
383.0, 0.07325262802282437
384.0, 0.09419209777102466
385.0, 0.11196468174004261
386.0, 0.13254145047339316
387.0, 0.1544252030735139
388.0, 0.1655420617692251
389.0, 0.18595996191636982
390.0, 0.1915093331763006
391.0, 0.19797395175459143
392.0, 0.19590357366890107
393.0, 0.18066963009184706
394.0, 0.16042385195190595
395.0, 0.1433623176557794
396.0, 0.11997795608859545
397.0, 0.10281477849694015
398.0, 0.08990435483593966
399.0, 0.07895274684488696
400.0, 0.07044903109649756
401.0, 0.06511413871064904
402.0, 0.06362993944719503
403.0, 0.0661744589660811
404.0, 0.06939988939686113
405.0, 0.07575483210471363
406.0, 0.09095644817120074
407.0, 0.108253384618761
408.0, 0.12964211419390465
409.0, 0.16821583667473827
410.0, 0.2138931863152328
411.0, 0.2611656613896242
412.0, 0.3091898349121927
413.0, 0.35173816067658314
414.0, 0.3944896752808643
415.0, 0.44762303224233074
416.0, 0.4921388996277074
417.0, 0.5168729147804548
418.0, 0.5190032854325536
419.0, 0.4990836369258128
420.0, 0.4488139784538895
421.0, 0.39553764764577676
422.0, 0.35399890285935876
423.0, 0.3230038944778598
424.0, 0.29575544363050976
425.0, 0.2712933052821116
426.0, 0.2675090200919409
427.0, 0.25591296279158254
428.0, 0.24901020156414053
429.0, 0.2448733646705567
430.0, 0.23625603190664182
431.0, 0.21793662102969802
432.0, 0.20290900869491674
433.0, 0.17736257689720725
434.0, 0.15409898578801287
435.0, 0.13784067467376504
436.0, 0.1256717201675071
437.0, 0.1101916834094288
438.0, 0.0964451526335368
439.0, 0.0933783967259606
440.0, 0.08736024235390094
441.0, 0.0851892515782094
442.0, 0.08951600258140349
443.0, 0.09583893485324052
444.0, 0.09562018017984522
445.0, 0.09288565354028987
446.0, 0.08528377964530254
447.0, 0.0764977890717654
448.0, 0.06621781001081165
449.0, 0.05298744948626782
450.0, 0.03888484583861522
451.0, 0.029450025524982142
452.0, 0.02173242872419203
453.0, 0.013781274982152907
454.0, 0.008467954493328057
455.0, 0.005918738545532572
456.0, 0.0006976704352340249
457.0, 0.0038340592329105003
458.0, 0.001729246226976232
459.0, 0.004912243098835379
460.0, 0.007775272282577144
461.0, 0.007321385709918522
462.0, 0.006137729717243342
463.0, 0.002793239855671447
464.0, 0.005187406560066389
465.0, 0.004303450199595035
466.0, 0.0025517645027558393
467.0, 0.0019307686921288258
468.0, 0.0036196383148172973
469.0, 0.009256117873294506
470.0, 0.01442787823788932
471.0, 0.019676006399354573
472.0, 0.02581319033137335
473.0, 0.032547851374780855
474.0, 0.04228694300650899
475.0, 0.06100441768915342
476.0, 0.08637932246033377
477.0, 0.11470801651655148
478.0, 0.14394229855618695
479.0, 0.17572588863910923
480.0, 0.21005529724989652
481.0, 0.24383310918579756
482.0, 0.27014932948804543
483.0, 0.30024885663036166
484.0, 0.31959697342937593
485.0, 0.3264793613462014
486.0, 0.31628497757598084
487.0, 0.2879400593714609
488.0, 0.2503279883245736
489.0, 0.2009816969014982
490.0, 0.16056199484845537
491.0, 0.12289988477675673
492.0, 0.08690211550177353
493.0, 0.05883636092935714
494.0, 0.046099796584023
495.0, 0.03051543075942969
496.0, 0.024313821179395043
497.0, 0.014488389404979735
498.0, 0.009746437604229535
499.0, 0.00801093148894591
500.0, 0.004059249181088427
501.0, 0.0030298371472516706
502.0, 0.0016923392720381548
503.0, 0.0020886351587783895
504.0, 0.004602000630823125
505.0, 0.0048536056390848315
506.0, 0.0028630323506256897
507.0, 0.0033739267299045476
508.0, 0.00046006081211682624
509.0, 0.006414207806793444
510.0, 0.0056734537059559805
511.0, 0.004463087116892043
512.0, 0.0038533560122804207
513.0, 0.001982122033230246
514.0, 0.00038086912647711257
515.0, 0.0009057766718998671
516.0, 0.0010963688530577546
517.0, 0.0023715508183616155
518.0, 0.004008146615444241
519.0, 0.005617624993003456
520.0, 0.007145533975750209
521.0, 0.005430831105645374
522.0, 0.007714939820842185
523.0, 0.004531493769777627
524.0, 0.0037125231965329402
525.0, 0.004089724358561504
526.0, 0.0022033898436841287
527.0, 0.0006343860868270085
528.0, 0.00601660577947197
529.0, 0.007997185040957951
530.0, 0.007013394069889358
531.0, 0.008777118338602504
532.0, 0.01584064422269338
533.0, 0.023327632635151432
534.0, 0.015764404533617896
535.0, 0.022002114534060646
536.0, 0.02362321797447444
537.0, 0.022677203284405673
538.0, 0.019772702038347703
539.0, 0.014817275721749686
540.0, 0.009060031330331793
541.0, 0.012330065702997998
542.0, 0.009565438567151611
543.0, 0.007751420912474063
544.0, 0.0072937109846757265
545.0, 0.005797004077786261
546.0, 0.0024432751649882435
547.0, 0.0015636002247092463
548.0, 0.0009420045481615256
549.0, 0.0012309515010134212
550.0, 0.002745939546170182
551.0, 0.0032352942998847755
552.0, 0.003945877849100392
553.0, 0.007663441662818038
554.0, 0.011157751845544656
555.0, 0.01848014182737647
556.0, 0.021692633120500043
557.0, 0.026318227129167857
558.0, 0.030927826020806543
559.0, 0.03522211647768139
560.0, 0.042065237694865386
561.0, 0.04827287624423231
562.0, 0.0511252847246011
563.0, 0.05840943290428326
564.0, 0.06655145593030197
565.0, 0.07550391530703145
566.0, 0.08577125183928422
567.0, 0.09589281971450207
568.0, 0.10962660151937843
569.0, 0.12273998471422137
570.0, 0.13981885269017472
571.0, 0.15315977611706008
572.0, 0.16298712806880156
573.0, 0.17083971340838858
574.0, 0.16967818539383184
575.0, 0.17606745660482906
576.0, 0.17122911008010142
577.0, 0.16366600043180304
578.0, 0.15952430189720165
579.0, 0.15421944916047922
580.0, 0.14452782532809022
581.0, 0.14997277894658803
582.0, 0.1494590499179634
583.0, 0.1566264531796536
584.0, 0.16524623689121304
585.0, 0.17275179560920736
586.0, 0.1821510940272025
587.0, 0.19574041980990114
588.0, 0.20085782886223458
589.0, 0.19980513128504615
590.0, 0.1955367811919137
591.0, 0.18230797584558903
592.0, 0.16744862880655662
593.0, 0.15051568034568308
594.0, 0.12459270050060145
595.0, 0.1061895068393017
596.0, 0.1042084299616816
597.0, 0.08212911190858058
598.0, 0.06605010636971768
599.0, 0.055700863212061316
600.0, 0.04525373352707271
601.0, 0.03649971424458742
602.0, 0.03658168400087898
603.0, 0.02787615939698881
604.0, 0.025802356636275843
605.0, 0.02640661839265574
606.0, 0.02619289043809766
607.0, 0.02608041740946799
608.0, 0.02938210468962984
609.0, 0.02934719337432324
610.0, 0.029883186009861257
611.0, 0.035789869280714016
612.0, 0.04048312131004803
613.0, 0.04368218940199524
614.0, 0.046949376365334916
615.0, 0.05015826085881563
616.0, 0.051950007073814274
617.0, 0.05474056057374604
618.0, 0.0549807088507008
619.0, 0.05397739389268423
620.0, 0.054366674398470635
621.0, 0.0532847136959863
622.0, 0.04506851881509786
623.0, 0.04169149489914609
624.0, 0.035870814462812206
625.0, 0.02503921560177998
626.0, 0.017083051594374055
627.0, 0.012486541246740847
628.0, 0.009719944709123284
629.0, 0.008224959580702516
630.0, 0.0063021271637606685
631.0, 0.001189645918258409
632.0, 0.0018544021905084022
633.0, 0.0021005364336256775
634.0, 0.003854420890912132
635.0, 0.007715729381934999
636.0, 0.010756661235236113
637.0, 0.013055533773794264
638.0, 0.014660420410794
639.0, 0.01605732365414801
640.0, 0.018282427102785118
641.0, 0.01952967590933854
642.0, 0.020803301909895697
643.0, 0.02411892230674084
644.0, 0.025616567222307426
645.0, 0.023998326988530164
646.0, 0.026140045796214983
647.0, 0.023231447486334128
648.0, 0.017861578688368022
649.0, 0.012348240025008641
650.0, 0.007871146501484953
651.0, 0.00722142221401826
652.0, 0.002981243972590002
653.0, 0.0022274001972077658
654.0, 0.0012332178976327776
655.0, 0.0006688746591878374
656.0, 0.0011997705132759204
657.0, 0.002084160744788566
658.0, 0.0015693299359370667
659.0, 0.0018145167979281148
660.0, 0.0034986690110176497
661.0, 0.007612939664305373
662.0, 0.010993896004039428
663.0, 0.014985774164813672
664.0, 0.020215350328273554
665.0, 0.02507822341385277
666.0, 0.03597829216055601
667.0, 0.044279521053438645
668.0, 0.05189455441727119
669.0, 0.0659110978575875
670.0, 0.08095925873455524
671.0, 0.09511234505683569
672.0, 0.11244896977752072
673.0, 0.13138842100545753
674.0, 0.144422441229706
675.0, 0.15036008825881775
676.0, 0.15661991648366197
677.0, 0.15629988264128952
678.0, 0.14707487543607137
679.0, 0.13300021563940062
680.0, 0.11916973729779254
681.0, 0.11189280153699942
682.0, 0.08857839515270162
683.0, 0.07335300381893431
684.0, 0.06502271200238496
685.0, 0.05738720141210789
686.0, 0.04811268599081468
687.0, 0.04173258874325704
688.0, 0.04401748281842466
689.0, 0.041753655818559374
690.0, 0.039007827212822525
691.0, 0.04061125176233236
692.0, 0.04802691880456958
693.0, 0.05575038070260338
694.0, 0.058867927262251415
695.0, 0.06583414112290042
696.0, 0.08192215622388767
697.0, 0.09049480895749107
698.0, 0.10828055968213934
699.0, 0.1306758925973566
700.0, 0.15723274297472511
701.0, 0.19000462912806998
702.0, 0.22867924026026126
703.0, 0.27638892611926585
704.0, 0.33596147451035235
705.0, 0.3928659091570521
706.0, 0.47126873177450473
707.0, 0.5624717730609766
708.0, 0.6551967517956867
709.0, 0.7468039054674346
710.0, 0.8329710828651704
711.0, 0.9065911145644147
712.0, 0.9725068153658447
713.0, 0.9961462781098301
714.0, 0.9874485168059124
715.0, 0.948013296193321
716.0, 0.8798487230322188
717.0, 0.7936215634234214
718.0, 0.6786761897401021
719.0, 0.580135667609971
720.0, 0.479663113970309
721.0, 0.4020677690718233
722.0, 0.3390925421269818
723.0, 0.2838085787288327
724.0, 0.23723980202194653
725.0, 0.19628307791814145
726.0, 0.16231965297111375
727.0, 0.14110530538433436
728.0, 0.11698911600670887
729.0, 0.10072284997189287
730.0, 0.08965142698275458
731.0, 0.07690301208240174
732.0, 0.06311695045269951
733.0, 0.0585510404019199
734.0, 0.04757264788475274
735.0, 0.04093649624768346
736.0, 0.0332978776593519
737.0, 0.02868120315845778
738.0, 0.026331052095942633
739.0, 0.023425809847526166
740.0, 0.020584251675078956
741.0, 0.01860922231051867
742.0, 0.01567999876273119
743.0, 0.014603614565473618
744.0, 0.01291932920117791
745.0, 0.011827972349319465
746.0, 0.010988871118214314
747.0, 0.00957721972898586
748.0, 0.009463641019992078
749.0, 0.008298160315516074
750.0, 0.00761509125356514
751.0, 0.01062151038510005
752.0, 0.012683158186797844
753.0, 0.013811159718749473
754.0, 0.016491364677909674
755.0, 0.022135198623353353
756.0, 0.028705124642348215
757.0, 0.03287103406837076
758.0, 0.03783416002219809
759.0, 0.04252946864289416
760.0, 0.04679527574388577
761.0, 0.051164064036419314
762.0, 0.055752351128716605
763.0, 0.06022187977863053
764.0, 0.06489513976840397
765.0, 0.06534533856649533
766.0, 0.06846440956722574
767.0, 0.07062722487985916
768.0, 0.06732183362826112
769.0, 0.0637365087459669
770.0, 0.06155224788119554
771.0, 0.054877676283210504
772.0, 0.04774111247098412
773.0, 0.041726869368809386
774.0, 0.03620649037150643
775.0, 0.029024739358765782
776.0, 0.02307772927134364
777.0, 0.017411343875257747
778.0, 0.010758374772264415
779.0, 0.005011782521160573
780.0, 0.0022067333407261784
781.0, 0.007124106314765415
782.0, 0.003628342597554484
783.0, 0.002403707559616197
784.0, 0.0015741386159084092
785.0, 0.0014687767454842975
786.0, 0.0021955266617694085
787.0, 0.001691864812120733
788.0, 0.002796565612890724
789.0, 0.007147423699424761
790.0, 0.006852507587235164
791.0, 0.007608010185438168
792.0, 0.010271961469618627
793.0, 0.009599335703963522
794.0, 0.007306035054678017
795.0, 0.010897537554115969
796.0, 0.009009900641844482
797.0, 0.007971949839051801
798.0, 0.008723712559734816
799.0, 0.005900440826336176
800.0, 0.002920144127469369
801.0, 0.0013652257816650945
802.0, 0.003260660355425501
803.0, 0.008802569796383606
804.0, 0.008523698194173045
805.0, 0.016348186525945396
806.0, 0.02062921301063909
807.0, 0.026974875171604587
808.0, 0.03743062012089903
809.0, 0.043768995474169556
810.0, 0.04736209177182324
811.0, 0.055890973955700446
812.0, 0.05992811640257584
813.0, 0.05650738868036679
814.0, 0.05700594570338287
815.0, 0.050819601848564884
816.0, 0.04457746279033717
817.0, 0.03583204396875547
818.0, 0.027736936900963002
819.0, 0.023804233980658958
820.0, 0.0162099834027802
821.0, 0.013207734819545416
822.0, 0.008464831382882034
823.0, 0.002974997367921153
824.0, 0.0012096851533937743
825.0, 0.0018702318134415068
826.0, 0.0032087614678319195
827.0, 0.003312339034724222
828.0, 0.0009950559608048767
829.0, 0.002592619332203374
830.0, 0.0007314990703598055
831.0, 0.0025184170290380795
832.0, 0.0030074517754972536
833.0, 0.0013795322696873978
834.0, 0.00015926355809246787
835.0, 0.0005545046634885624
836.0, 0.0022601284514243763
837.0, 0.007533976020896416
838.0, 0.005884188797788007
839.0, 0.008976262869586749
840.0, 0.008666393535130112
841.0, 0.011194821360989869
842.0, 0.013693046998575854
843.0, 0.01610075501593598
844.0, 0.020453783345808822
845.0, 0.02387482317000899
846.0, 0.028885579942455105
847.0, 0.031372015465265815
848.0, 0.0308555854320616
849.0, 0.03243218983053729
850.0, 0.03275041248183227
851.0, 0.033158346469846695
852.0, 0.03285094526045307
853.0, 0.029444762089512203
854.0, 0.034106460126568365
855.0, 0.03217696525859345
856.0, 0.027095519888365092
857.0, 0.025242884873562837
858.0, 0.025288819072940612
859.0, 0.021427629679110497
860.0, 0.0194208549555196
861.0, 0.022799921002607377
862.0, 0.01870728647933826
863.0, 0.01924652677157431
864.0, 0.02249219104356726
865.0, 0.01761468613431594
866.0, 0.019034775520723204
867.0, 0.01928591892849066
868.0, 0.018267353056528945
869.0, 0.018065828911817947
870.0, 0.018021076079899938
871.0, 0.02024965727349562
872.0, 0.020754776955375545
873.0, 0.02387916923517011
874.0, 0.025011747442267435
875.0, 0.029099979699205508
876.0, 0.03380552112895903
877.0, 0.03811908564466021
878.0, 0.04345198157539978
879.0, 0.049413900377352236
880.0, 0.05107479651049618
881.0, 0.055938132376905966
882.0, 0.0622867117363136
883.0, 0.0717672500021043
884.0, 0.07875469988032319
885.0, 0.0879928349367266
886.0, 0.09906095759865549
887.0, 0.11083688607640228
888.0, 0.1287175867532258
889.0, 0.1425143142591755
890.0, 0.1645984185574515
891.0, 0.1839798766420818
892.0, 0.2054026975092437
893.0, 0.23347486174906296
894.0, 0.2590621179375155
895.0, 0.27992940251746207
896.0, 0.30164706901737814
897.0, 0.3221072019444846
898.0, 0.33598513097155724
899.0, 0.3363907377931031
900.0, 0.34675666158857743
901.0, 0.3518002001086853
902.0, 0.35122551390157586
903.0, 0.35194704933109183
904.0, 0.35140446502644174
905.0, 0.34492772342423883
906.0, 0.3435622129381059
907.0, 0.35038793542339414
908.0, 0.34621953743923856
909.0, 0.341219632171259
910.0, 0.3271744985088221
911.0, 0.3134319355652947
912.0, 0.2963095022739951
913.0, 0.2725277659981829
914.0, 0.24569568662210706
915.0, 0.2188831829325992
916.0, 0.20190474575688178
917.0, 0.1808064153701342
918.0, 0.1620974706394613
919.0, 0.15029158103359352
920.0, 0.13619006041770443
921.0, 0.12613983844796312
922.0, 0.12077731815999522
923.0, 0.11519131365485123
924.0, 0.11663749375684809
925.0, 0.12680382174873775
926.0, 0.1230943112174331
927.0, 0.13127273381552798
928.0, 0.13744626103936544
929.0, 0.13978410361266577
930.0, 0.14087674471244058
931.0, 0.14128490770514418
932.0, 0.14005209003183605
933.0, 0.13766094841901916
934.0, 0.13315351892834357
935.0, 0.12280784548970515
936.0, 0.111888911368981
937.0, 0.10737625075416082
938.0, 0.10062579333762048
939.0, 0.09504093171621761
940.0, 0.09268184743410061
941.0, 0.09283870996047634
942.0, 0.09597428716231204
943.0, 0.10029442037313796
944.0, 0.10716912674135418
945.0, 0.11706964615432756
946.0, 0.1309690534511646
947.0, 0.14615585858619096
948.0, 0.1614074785147375
949.0, 0.1735601584733737
950.0, 0.18521833625541378
951.0, 0.20234540603898415
952.0, 0.22069331114428373
953.0, 0.23203181396554354
954.0, 0.23875280818202027
955.0, 0.24077980616222053
956.0, 0.24962181209945433
957.0, 0.25729491186822234
958.0, 0.25927862110751904
959.0, 0.2638337174524822
960.0, 0.27588098761273555
961.0, 0.28683612018484433
962.0, 0.30176396380109816
963.0, 0.31012209456331863
964.0, 0.3131308430048945
965.0, 0.30752899223096924
966.0, 0.30195359216000417
967.0, 0.2974226339243698
968.0, 0.29057007098390314
969.0, 0.28203643336022755
970.0, 0.2787984255105597
971.0, 0.2859660054810353
972.0, 0.2940215204936839
973.0, 0.31736423774698136
974.0, 0.3383572919329969
975.0, 0.3681854659844142
976.0, 0.39309054073007965
977.0, 0.41897932903103907
978.0, 0.4429941487536792
979.0, 0.4568441661348472
980.0, 0.46442686924148097
981.0, 0.4681218587434307
982.0, 0.4531982459262809
983.0, 0.4435689338159546
984.0, 0.4282815057898511
985.0, 0.4143509107451259
986.0, 0.4088231910206462
987.0, 0.4094442688933776
988.0, 0.4091025359218235
989.0, 0.4059982580182124
990.0, 0.4069562624546063
991.0, 0.4154575377731736
992.0, 0.42154528410789566
993.0, 0.4209545983122932
994.0, 0.4199408481904847
995.0, 0.42300061814069106
996.0, 0.42451252594243155
997.0, 0.4231057912201439
998.0, 0.4239065686376397
999.0, 0.42901144233900895
1000.0, 0.4343577489858156
1001.0, 0.44970681425112924
1002.0, 0.4493084394870245
1003.0, 0.4543005460138864
1004.0, 0.44797016772139114
1005.0, 0.4366705785761306
1006.0, 0.41540006156442605
1007.0, 0.38586681175339416
1008.0, 0.3546698738982907
1009.0, 0.3224406984872905
1010.0, 0.28489526585833125
1011.0, 0.2516982260244851
1012.0, 0.21355863205291223
1013.0, 0.18422657037836498
1014.0, 0.1580575207071059
1015.0, 0.13449286781835965
1016.0, 0.11604680453195272
1017.0, 0.09841156515227678
1018.0, 0.08272196043377449
1019.0, 0.07266555053941437
1020.0, 0.06304746776875453
1021.0, 0.06116481982052499
1022.0, 0.05589856950227236
1023.0, 0.0522376385261202
1024.0, 0.047029676913667995
1025.0, 0.04141218881395029
1026.0, 0.038565573830999206
1027.0, 0.0377020928324984
1028.0, 0.03422498073909501
1029.0, 0.02986747018898745
1030.0, 0.03164883388801217
1031.0, 0.027683567703538664
1032.0, 0.02422219137662896
1033.0, 0.02287284277832344
1034.0, 0.01845186611957161
1035.0, 0.018278669156235737
1036.0, 0.01809563616793466
1037.0, 0.016867247265588782
1038.0, 0.018996013182098117
1039.0, 0.02230255692924391
1040.0, 0.019116462640620436
1041.0, 0.015938282768857007
1042.0, 0.012109005730996991
1043.0, 0.0214667271255057
1044.0, 0.024463794526449326
1045.0, 0.023245884142798486
1046.0, 0.0232805163095963
1047.0, 0.022076918398616065
1048.0, 0.018829283964262075
1049.0, 0.01702616205239498
1050.0, 0.017338231381387802
1051.0, 0.016020005595636693
1052.0, 0.02049142017859284
1053.0, 0.01423279030980408
1054.0, 0.01738283479410857
1055.0, 0.01807383062773037
1056.0, 0.021293537387455767
1057.0, 0.02034787322290371
1058.0, 0.018774654664975493
1059.0, 0.020067555029236843
1060.0, 0.021237320491869535
1061.0, 0.020127355772660897
1062.0, 0.021114433477224036
1063.0, 0.02099785914606878
1064.0, 0.019596162641336765
1065.0, 0.019048269760090556
1066.0, 0.017932845975091503
1067.0, 0.016288777991033964
1068.0, 0.014296890832871853
1069.0, 0.01282031504084808
1070.0, 0.010475043194646426
1071.0, 0.007833975348492677
1072.0, 0.008135071175914835
1073.0, 0.0060946311333665345
1074.0, 0.011833503074932337
1075.0, 0.01259095910525139
1076.0, 0.01414753273042586
1077.0, 0.015861061338248956
1078.0, 0.019735543967335335
1079.0, 0.02418437317526251
1080.0, 0.030841091909415176
1081.0, 0.03694659636733384
1082.0, 0.04025530733733105
1083.0, 0.04670378674427284
1084.0, 0.05209033819447459
1085.0, 0.066048033939925
1086.0, 0.07024643319052648
1087.0, 0.05893583504251976
1088.0, 0.04458090745378887
1089.0, 0.03709205600843745
1090.0, 0.031837136655582285
1091.0, 0.027957025801806548
1092.0, 0.04657777768026797
1093.0, 0.07053673371383119
1094.0, 0.048532786300162785
1095.0, 0.06502120823733551
1096.0, 0.0449319244229438
1097.0, 0.042931232221423844
1098.0, 0.042859494447272606
1099.0, 0.050203086476538816
1100.0, 0.052178709689033535
1101.0, 0.055478187027987055
1102.0, 0.058471758719673556
1103.0, 0.06076605172684343
1104.0, 0.06720143247115173
1105.0, 0.07390939486141294
1106.0, 0.07144379247783283
1107.0, 0.07014066212102296
1108.0, 0.06599806888536741
1109.0, 0.06406952475158965
1110.0, 0.06393985182752544
1111.0, 0.05922811223971263
1112.0, 0.055522075943211624
1113.0, 0.05134160037736233
1114.0, 0.046054463192494184
1115.0, 0.040709289149462834
1116.0, 0.034462116540900124
1117.0, 0.02951435289327639
1118.0, 0.027943307959045795
1119.0, 0.027902852001266378
1120.0, 0.023063994404469622
1121.0, 0.022044169003641718
1122.0, 0.016449596611847916
1123.0, 0.016045920377658483
1124.0, 0.016624469703985404
1125.0, 0.014894031892630428
1126.0, 0.013325943145364472
1127.0, 0.011886263365809497
1128.0, 0.007775711099151356
1129.0, 0.006263332409089728
1130.0, 0.006195302232089742
1131.0, 0.003920256854756976
1132.0, 0.006072882954322904
1133.0, 0.004682775044871355
1134.0, 0.0029445495513408908
1135.0, 0.004846933256294905
1136.0, 0.007147125542071862
1137.0, 0.005624165208810187
1138.0, 0.0023835621594418387
1139.0, 0.0024479555453381595
1140.0, 0.004496127623144783
1141.0, 0.0031149506121800567
1142.0, 0.004241174148531462
1143.0, 0.0020048949171075376
1144.0, 0.0022106143137685793
1145.0, 0.0019900728516505373
1146.0, 0.0020971138268971556
1147.0, 0.0016215094627245465
1148.0, 0.0010378539569020026
1149.0, 0.0012367624014422587
1150.0, 0.002353998440145747
1151.0, 0.0035747771612525746
1152.0, 0.003154643327639556
1153.0, 0.0005690837075262624
1154.0, 0.003505308334889155
1155.0, 0.0018562616848073637
1156.0, 0.0021893348062776066
1157.0, 0.0008990643800700404
1158.0, 0.0009063406359423518
1159.0, 0.0021002515912504566
1160.0, 0.0016610488888496781
1161.0, 0.0012740211167152236
1162.0, 0.001619481561141052
1163.0, 0.0009392261173833576
1164.0, 0.0015901946072047442
1165.0, 0.001998011324044066
1166.0, 0.0020212457167097624
1167.0, 0.0018343214962155568
1168.0, 0.0011791854135636316
1169.0, 0.0004897175727051298
1170.0, 0.0032611899664736098
1171.0, 0.0023222752697346937
1172.0, 0.001977868664407605
1173.0, 0.002986208170425002
1174.0, 0.0022416955407241345
1175.0, 0.0005497985740709316
1176.0, 0.0007501988523303827
1177.0, 0.002417727471986748
1178.0, 0.0015345245839065212
1179.0, 0.00039520501473429954
1180.0, 0.0035730638073849584
1181.0, 0.003564594473843764
1182.0, 0.004785775284095588
1183.0, 0.002099122576520193
1184.0, 0.0005339857913780709
1185.0, 0.0011233425108797405
1186.0, 0.0010280518682571102
1187.0, 0.0018350052441263947
1188.0, 0.004844686834393388
1189.0, 0.0036041052980360097
1190.0, 0.0006835914549871882
1191.0, 0.00409952264738081
1192.0, 0.0005773931896404466
1193.0, 0.0013133775390553111
1194.0, 0.003188717342053134
1195.0, 0.0024110895427961235
1196.0, 0.0010749413810692706
1197.0, 0.002364536410787484
1198.0, 0.002303736862930153
1199.0, 0.0019759267151864017
1200.0, 0.0029391670643852544
1201.0, 0.0021727132204976433
1202.0, 0.003915647397750702
1203.0, 0.00397528049120907
1204.0, 0.003562485538908487
1205.0, 0.00505768564977345
1206.0, 0.0026035138792123765
1207.0, 0.0028899698959808442
1208.0, 0.0014216254080644474
1209.0, 0.004404179424294308
1210.0, 0.0036780062864775367
1211.0, 0.003259828828195334
1212.0, 0.0039004745581071518
1213.0, 0.0029531053398398122
1214.0, 0.003927684962829435
1215.0, 0.004171941717850404
1216.0, 0.0052377985220544016
1217.0, 0.006496691700896185
1218.0, 0.0007470092946433209
1219.0, 0.0021019361693981713
1220.0, 0.0026903897130209848
1221.0, 0.0038453295205016216
1222.0, 0.004253835015961215
1223.0, 0.004114230357360992
1224.0, 0.0023371749953673762
1225.0, 0.001550083188918958
1226.0, 0.0022863764488114317
1227.0, 0.0013587280703200564
1228.0, 0.0015118825164588945
1229.0, 0.006618376081431605
1230.0, 0.0069424933737221575
1231.0, 0.006046341062061781
1232.0, 0.00807855688331999
1233.0, 0.006735271723024488
1234.0, 0.007140304453348192
1235.0, 0.0049753677184954034
1236.0, 0.002644472628173051
1237.0, 0.0009518774997600494
1238.0, 0.0036522132836712758
1239.0, 0.006176112160634084
1240.0, 0.0060852321857479755
1241.0, 0.009204869263000171
1242.0, 0.00984994492722589
1243.0, 0.005338860678566225
1244.0, 0.0026362294218167095
1245.0, 0.003502904535723402
1246.0, 0.0034368213847569655
1247.0, 0.005283165604818297
1248.0, 0.005764414768325835
1249.0, 0.002502160333048253
1250.0, 0.0005940198824278737
1251.0, 0.0012598597812146473
1252.0, 0.002490735888283011
1253.0, 0.005052311915315489
1254.0, 0.008000658492088794
1255.0, 0.008066484245964626
1256.0, 0.007125545394663499
1257.0, 0.004047507771016947
1258.0, 0.004987355286235613
1259.0, 0.006521700870981015
1260.0, 0.0069719445435771354
1261.0, 0.006323288305941526
1262.0, 0.006121912803535176
1263.0, 0.0031621384487175172
1264.0, 0.0036471225475606613
1265.0, 0.008384778642395323
1266.0, 0.0077806042035071295
1267.0, 0.006660218147944402
1268.0, 0.009335836967565066
1269.0, 0.007797470227947751
1270.0, 0.005440013105256479
1271.0, 0.007895171881550691
1272.0, 0.0072664528879322395
1273.0, 0.010218830137486288
1274.0, 0.011391217595140016
1275.0, 0.011167535021162344
1276.0, 0.01095982561915657
1277.0, 0.010744736748642693
1278.0, 0.009025821397110594
1279.0, 0.007302977449986123
1280.0, 0.012047429749960557
1281.0, 0.012101118112765147
1282.0, 0.010391224862021447
1283.0, 0.013479018147168868
1284.0, 0.011288566287670835
1285.0, 0.008866168339796622
1286.0, 0.007481818506353537
1287.0, 0.005327812395884973
1288.0, 0.006811235917517083
1289.0, 0.006575812093319635
1290.0, 0.011189261507421005
1291.0, 0.010698476000468754
1292.0, 0.012136982155599933
1293.0, 0.01589951363082474
1294.0, 0.013844476771059662
1295.0, 0.010899084488964957
1296.0, 0.009597230536698899
1297.0, 0.010409125192150353
1298.0, 0.011924719413738837
1299.0, 0.01111157983642544
1300.0, 0.011103514486824687
1301.0, 0.010894710264839324
1302.0, 0.01090844558331231
1303.0, 0.014642023052725944
1304.0, 0.0097124983962802
1305.0, 0.006371389164324874
1306.0, 0.004549856226662335
1307.0, 0.009245928567281419
1308.0, 0.00921715245926955
1309.0, 0.009310237830870783
1310.0, 0.00843176983799282
1311.0, 0.008423726087004589
1312.0, 0.008722668455910387
1313.0, 0.009289216248207676
1314.0, 0.00948624093967344
1315.0, 0.006450381885716103
1316.0, 0.0066135811716506
1317.0, 0.009373819938881875
1318.0, 0.009801437761189481
1319.0, 0.006779658987573553
1320.0, 0.005809149071802263
1321.0, 0.007057012530467855
1322.0, 0.008111770447417095
1323.0, 0.006930447866297365
1324.0, 0.005434168822105934
1325.0, 0.004603068728027099
1326.0, 0.006573087653544479
1327.0, 0.003990983131236903
1328.0, 0.004252693906377328
1329.0, 0.009590873130146189
1330.0, 0.009028095625131731
1331.0, 0.005969036117553059
1332.0, 0.007059820490531257
1333.0, 0.007679256549783056
1334.0, 0.008635913250986843
1335.0, 0.00837682950474673
1336.0, 0.011086595836624094
1337.0, 0.01086312076202189
1338.0, 0.008018729720273688
1339.0, 0.0103984495787986
1340.0, 0.010214671024282054
1341.0, 0.008994915641516252
1342.0, 0.010236981861756827
1343.0, 0.009919436265580213
1344.0, 0.008422145986597561
1345.0, 0.007769352415847232
1346.0, 0.009027670375401578
1347.0, 0.009309515640735094
1348.0, 0.006147067832207764
1349.0, 0.009465187158169332
1350.0, 0.007831510823976266
1351.0, 0.006980902483457821
1352.0, 0.007473994539466779
1353.0, 0.004903117636181149
1354.0, 0.0037861481605241136
1355.0, 0.002494742065802734
1356.0, 0.006527023477255358
1357.0, 0.01062823626295953
1358.0, 0.010413241756970712
1359.0, 0.008790714999971371
1360.0, 0.012323391257592537
1361.0, 0.012791130073079492
1362.0, 0.009042321820967215
1363.0, 0.007359919041770228
1364.0, 0.007284768573345262
1365.0, 0.007999289148621481
1366.0, 0.008199091144945552
1367.0, 0.007863307104893552
1368.0, 0.009197541971950607
1369.0, 0.006778405664330608
1370.0, 0.00502911980067268
1371.0, 0.005977439836535602
1372.0, 0.0032779807668817827
1373.0, 0.008377385360923643
1374.0, 0.007216902913241175
1375.0, 0.006616184797198036
1376.0, 0.007791325935972874
1377.0, 0.006632942997502555
1378.0, 0.006435484431147323
1379.0, 0.0048911122318688865
1380.0, 0.0045271051806428765
1381.0, 0.007211441145348976
1382.0, 0.007524089730351267
1383.0, 0.006087586331814453
1384.0, 0.004107151477308059
1385.0, 0.004467571240193447
1386.0, 0.00765246291084134
1387.0, 0.006616559531319895
1388.0, 0.007245636526972685
1389.0, 0.006702788522165971
1390.0, 0.005835935236845664
1391.0, 0.006082139650894184
1392.0, 0.0036680169250978504
1393.0, 0.003925378458321519
1394.0, 0.0016599604408723497
1395.0, 0.002660181465869839
1396.0, 0.0028414750658323175
1397.0, 0.003971765820737924
1398.0, 0.003854092565029147
1399.0, 0.005125920072852379
1400.0, 0.007771752381811539
1401.0, 0.005874847392413186
1402.0, 0.007099029457183303
1403.0, 0.009989764488365568
1404.0, 0.011258166469030882
1405.0, 0.003150431572978226
1406.0, 0.0031629149328610212
1407.0, 0.0002113143349944096
1408.0, 0.009473870962233032
1409.0, 0.0031086927048655853
1410.0, 0.005904968648266424
1411.0, 0.005144389066503558
1412.0, 0.005615436194312791
1413.0, 0.004998635916662038
1414.0, 0.005689438008696753
1415.0, 0.004486329583065603
1416.0, 0.0020007973966338203
1417.0, 0.005088971037103124
1418.0, 0.007897338475836358
1419.0, 0.01058344866056188
1420.0, 0.014135579197328177
1421.0, 0.009945743434258643
1422.0, 0.007018571643349779
1423.0, 0.0034746725371542376
1424.0, 0.006966045932829971
1425.0, 0.007998728696968764
1426.0, 0.005950047734646876
1427.0, 0.009045981708354701
1428.0, 0.009768116901826706
1429.0, 0.00709679123670697
1430.0, 0.008661643906514225
1431.0, 0.00932166165352753
1432.0, 0.011815369694621493
1433.0, 0.013735454370304613
1434.0, 0.012421028133140832
1435.0, 0.015207247516171297
1436.0, 0.018331916784727054
1437.0, 0.018501348761322124
1438.0, 0.014748818290939708
1439.0, 0.013198088736918056
1440.0, 0.014896062627973291
1441.0, 0.012574180326986147
1442.0, 0.011424797528475352
1443.0, 0.014159718004320011
1444.0, 0.01007620832609265
1445.0, 0.008190153045223315
1446.0, 0.012467656867730294
1447.0, 0.005892871063566188
1448.0, 0.010813052630629216
1449.0, 0.006731502548445612
1450.0, 0.010682734926490174
1451.0, 0.012210110007637118
1452.0, 0.010091153908964041
1453.0, 0.01200766429439296
1454.0, 0.009590476690338969
1455.0, 0.014174749234246171
1456.0, 0.0129708521769216
1457.0, 0.013378124391206486
1458.0, 0.01224018129093948
1459.0, 0.010638940047259337
1460.0, 0.011533997122824324
1461.0, 0.010214667258736118
1462.0, 0.008893012733515029
1463.0, 0.009121421049532025
1464.0, 0.005773574303686369
1465.0, 0.0051338428156719835
1466.0, 0.004547634845190987
1467.0, 0.0033094799353785118
1468.0, 0.003591050447976419
1469.0, 0.005449493006049577
1470.0, 0.00552435530545292
1471.0, 0.006313995643754986
1472.0, 0.006298449036199171
1473.0, 0.0047521646840367705
1474.0, 0.005875962377796517
1475.0, 0.004244502681422134
1476.0, 0.005705379350040653
1477.0, 0.003752151280158723
1478.0, 0.007005509881098004
1479.0, 0.004877566482061909
1480.0, 0.0013910402553382194
1481.0, 0.0028118811251457397
1482.0, 0.0045082708881896225
1483.0, 0.0051014037486327105
1484.0, 0.007242502926920754
1485.0, 0.0061116699307841174
1486.0, 0.0033044726548175146
1487.0, 0.0035110894116948442
1488.0, 0.0013702445871351687
1489.0, 0.0038194553232331614
1490.0, 0.0015688003183049767
1491.0, 0.0016377827054786197
1492.0, 0.005068595743204657
1493.0, 0.0010370534686967685
1494.0, 0.0019946479505041554
1495.0, 0.0014636064957334709
1496.0, 0.0005316884288528543
1497.0, 0.003747298534496208
1498.0, 0.003466730852191905
1499.0, 0.001984506132919092
1500.0, 0.0022696712754222493
1501.0, 0.0015841936180165425
1502.0, 0.0006838125709345481
1503.0, 0.0035950893210345523
1504.0, 0.002127195780904245
1505.0, 0.0029471204019817943
1506.0, 0.006515166013282638
1507.0, 0.00391799152885242
1508.0, 0.0017869321186447893
1509.0, 0.004461170573332715
1510.0, 0.00535710462728625
1511.0, 0.002843640535260007
1512.0, 0.003099628768659256
1513.0, 0.005716727175101352
1514.0, 0.0018888744599445644
1515.0, 0.002330330426183173
1516.0, 0.0029563430173878886
1517.0, 0.005256191910239427
1518.0, 0.008103721358686028
1519.0, 0.005530468243366402
1520.0, 0.0037203754453700947
1521.0, 0.00236847160273072
1522.0, 0.0018238407089068134
1523.0, 0.006023224332858069
1524.0, 0.003503913936974846
1525.0, 0.005073954104700904
1526.0, 0.008624018185186166
1527.0, 0.006502468003419766
1528.0, 0.0034295569271018934
1529.0, 0.007228216134527177
1530.0, 0.008036417155054348
1531.0, 0.006201393185641722
1532.0, 0.00350557019421964
1533.0, 0.006992855137196377
1534.0, 0.009043384946630059
1535.0, 0.006355597289067773
1536.0, 0.0027439112866073654
1537.0, 0.0006517659370562016
1538.0, 0.004764534747744827
1539.0, 0.008352600503095848
1540.0, 0.008465402261792194
1541.0, 0.012928235865014383
1542.0, 0.0077717023917721695
1543.0, 0.0024513055224676915
1544.0, 0.006927360867586062
1545.0, 0.005055953573423918
1546.0, 0.006199838790558617
1547.0, 0.003884340938146312
1548.0, 0.003033587519567564
1549.0, 0.005643513973978593
1550.0, 0.005424123611478216
1551.0, 0.006614139217998394
1552.0, 0.0065028567841986995
1553.0, 0.005247953618696493
1554.0, 0.008230196323567548
1555.0, 0.00487403783064042
1556.0, 0.00880381963116031
1557.0, 0.003603183286324106
1558.0, 0.0005019770879622364
1559.0, 0.004131327298948768
1560.0, 0.003300692929696398
1561.0, 0.003597124219641547
1562.0, 0.0014054280019200542
1563.0, 6.593705032673305e-06
1564, 0.0
1565, 0.0
1566, 0.0
1567, 0.0
1568, 0.0
1569, 0.0
1570, 0.0
1571, 0.0
1572, 0.0
1573, 0.0
1574, 0.0
1575, 0.0
1576, 0.0
1577, 0.0
1578, 0.0
1579, 0.0
1580, 0.0
1581, 0.0
1582, 0.0
1583, 0.0
1584, 0.0
1585, 0.0
1586, 0.0
1587, 0.0
1588, 0.0
1589, 0.0
1590, 0.0
1591, 0.0
1592, 0.0
1593, 0.0
1594, 0.0
1595, 0.0
1596, 0.0
1597, 0.0
1598, 0.0
1599, 0.0
