30, 0.0
31, 0.0
32, 0.0
33, 0.0
34, 0.0
35, 0.0
36, 0.0
37, 0.0
38, 0.0
39, 0.0
40, 0.0
41, 0.0
42, 0.0
43, 0.0
44, 0.0
45, 0.0
46, 0.0
47, 0.0
48, 0.0
49, 0.0
50, 0.0
51, 0.0
52, 0.0
53, 0.0
54, 0.0
55, 0.0
56, 0.0
57, 0.0
58, 0.0
59, 0.0
60, 0.0
61, 0.0
62, 0.0
63, 0.0
64, 0.0
65, 0.0
66, 0.0
67, 0.0
68, 0.0
69, 0.0
70, 0.0
71, 0.0
72, 0.0
73, 0.0
74, 0.0
75, 0.0
76, 0.0
77, 0.0
78, 0.0
79, 0.0
80, 0.0
81, 0.0
82, 0.0
83, 0.0
84, 0.0
85, 0.0
86, 0.0
87, 0.0
88, 0.0
89, 0.0
90, 0.0
91.0, 8.872077257906715e-05
92.0, 0.0002148991371708306
93.0, 0.0006782094516740835
94.0, 0.002338850643291342
95.0, 0.008132744847582331
96.0, 0.016862045163327344
97.0, 0.028504425122836567
98.0, 0.04658845250784683
99.0, 0.06604789404164002
100.0, 0.08444118291908445
101.0, 0.09676800241173109
102.0, 0.09781150993648115
103.0, 0.08780519483796273
104.0, 0.06729076474440332
105.0, 0.05387110780507436
106.0, 0.045591352653427335
107.0, 0.044414225499126526
108.0, 0.055346874688585235
109.0, 0.07059581933673921
110.0, 0.0868073725345416
111.0, 0.10322826011825087
112.0, 0.11794604436044524
113.0, 0.11662227959934501
114.0, 0.10757315485000689
115.0, 0.09643311681596428
116.0, 0.08295417229339845
117.0, 0.07629762677330472
118.0, 0.07622643785279498
119.0, 0.0783690338952454
120.0, 0.08835073833795837
121.0, 0.10392268970365993
122.0, 0.12480863644889656
123.0, 0.1440321334860923
124.0, 0.16102045880553947
125.0, 0.17260852700401216
126.0, 0.16785441282515473
127.0, 0.1509869886440061
128.0, 0.12796615872512518
129.0, 0.1005972558988287
130.0, 0.07890283879180811
131.0, 0.06053728637035268
132.0, 0.046123703026123446
133.0, 0.03797489277145631
134.0, 0.03478944548988561
135.0, 0.03273898707852178
136.0, 0.03147797491450151
137.0, 0.03537339952945557
138.0, 0.03902997818805502
139.0, 0.04318121193436452
140.0, 0.04870071654220177
141.0, 0.05066226307858067
142.0, 0.04991545148918405
143.0, 0.04671509430341597
144.0, 0.041481007617928285
145.0, 0.034486291181695904
146.0, 0.027771863445101453
147.0, 0.022479534096155555
148.0, 0.02025443027628545
149.0, 0.01877263883953976
150.0, 0.018150655702276537
151.0, 0.018973225323408595
152.0, 0.02054613540858301
153.0, 0.02186228205315637
154.0, 0.02274099870768082
155.0, 0.024862466357091873
156.0, 0.026823361868185885
157.0, 0.028147206068313207
158.0, 0.02810065527552028
159.0, 0.027588596935228055
160.0, 0.027220154707610293
161.0, 0.02676771946327413
162.0, 0.02469291164923955
163.0, 0.023014038976230392
164.0, 0.021188671898061166
165.0, 0.018897104482710488
166.0, 0.018712397683969588
167.0, 0.018293591462699002
168.0, 0.018643877717451057
169.0, 0.02226467675150629
170.0, 0.02581791141043535
171.0, 0.02703596195315043
172.0, 0.02572440268922113
173.0, 0.027070943652464347
174.0, 0.022849307041351456
175.0, 0.017263189009781382
176.0, 0.014070929350538471
177.0, 0.010995864297516414
178.0, 0.008257072205572678
179.0, 0.005883568938008464
180.0, 0.003989677876586134
181.0, 0.0016451168007063958
182.0, 0.00025537550446947077
183.0, 0.0005072985957259974
184.0, 0.0038074674955716516
185.0, 0.003535311689735199
186.0, 0.0018200823852472367
187.0, 0.0014335724669001482
188.0, 0.001456657850102756
189.0, 0.005384572303707515
190.0, 0.011535193126485536
191.0, 0.007869059988715194
192.0, 0.007233592058692923
193.0, 0.006078785932122
194.0, 0.002381795658911332
195.0, 0.001023104017101428
196.0, 0.0012558517565513174
197.0, 0.0026805622556432033
198.0, 0.004778320796422041
199.0, 0.005439752692633624
200.0, 0.005532259932049703
201.0, 0.005239337649585549
202.0, 0.004728574970750534
203.0, 0.005294319023845098
204.0, 0.004922186825372908
205.0, 0.0020975779628414097
206.0, 0.0006619961218882199
207.0, 0.0012396849727234849
208.0, 0.003574174532083725
209.0, 0.007432668344813806
210.0, 0.011274846348601963
211.0, 0.01593548362751336
212.0, 0.021127779139029527
213.0, 0.022674149516091327
214.0, 0.023794507647283126
215.0, 0.024503408323437243
216.0, 0.024746179630664042
217.0, 0.021793428326780346
218.0, 0.018986055731662493
219.0, 0.01607786146914741
220.0, 0.012246640537292564
221.0, 0.01229965099590149
222.0, 0.011513570352939076
223.0, 0.009159599232159837
224.0, 0.008028391929402724
225.0, 0.006124712710045651
226.0, 0.00499210013535384
227.0, 0.0057959219571120605
228.0, 0.0075380686014413735
229.0, 0.007877068161688863
230.0, 0.008135710238888596
231.0, 0.011115865015532748
232.0, 0.01263657344309369
233.0, 0.015698991610069796
234.0, 0.020770203054391034
235.0, 0.027102844436972924
236.0, 0.033385084596868696
237.0, 0.04135457324198538
238.0, 0.05214742274043405
239.0, 0.05866483149652565
240.0, 0.06416649854476299
241.0, 0.06877834108367342
242.0, 0.07254255690729007
243.0, 0.07182058656068535
244.0, 0.07000937572388179
245.0, 0.06817364765716363
246.0, 0.06902284971590529
247.0, 0.06848088811302393
248.0, 0.06746971709164111
249.0, 0.06626451897156214
250.0, 0.0632197281538115
251.0, 0.06080816082370208
252.0, 0.05827597100818305
253.0, 0.05475533891378273
254.0, 0.05504698526999493
255.0, 0.05512445770063379
256.0, 0.05565855090028632
257.0, 0.05955164131496659
258.0, 0.0648196700338243
259.0, 0.0697880689840948
260.0, 0.07445093912386137
261.0, 0.08274162690673222
262.0, 0.08232822188053149
263.0, 0.08101528331267087
264.0, 0.08396165976234628
265.0, 0.0782692838513493
266.0, 0.07265808800488113
267.0, 0.06690147955826456
268.0, 0.06046636947712328
269.0, 0.055308142941809774
270.0, 0.05230605495631637
271.0, 0.050806264080217475
272.0, 0.0476862261040242
273.0, 0.046089941910784214
274.0, 0.04514138871111773
275.0, 0.04448794072486103
276.0, 0.04320664888336196
277.0, 0.042491817920039796
278.0, 0.04058152925525685
279.0, 0.03578582390972622
280.0, 0.035816658593693096
281.0, 0.03364889559311515
282.0, 0.030476184637711786
283.0, 0.029017038358683928
284.0, 0.02680494102211874
285.0, 0.025586992317872974
286.0, 0.025535324529004925
287.0, 0.026152653163902313
288.0, 0.027003172344009247
289.0, 0.028674918971455323
290.0, 0.031393211360790915
291.0, 0.03425845693708052
292.0, 0.03898469937749755
293.0, 0.04414151589161005
294.0, 0.048536071215714016
295.0, 0.05453839054189342
296.0, 0.06420616917589253
297.0, 0.07516946855729681
298.0, 0.08300185044598503
299.0, 0.09441048260654983
300.0, 0.10398057792263052
301.0, 0.1109470513902743
302.0, 0.11526643730452447
303.0, 0.11859683778997362
304.0, 0.1198170120035892
305.0, 0.11873839111723482
306.0, 0.11830651502835873
307.0, 0.11508367740881274
308.0, 0.11090982048567613
309.0, 0.10696407227004837
310.0, 0.10282492833341678
311.0, 0.09541301596810282
312.0, 0.08636681397370385
313.0, 0.07782643259095516
314.0, 0.06642597958280809
315.0, 0.05871055625193853
316.0, 0.05345803582401639
317.0, 0.045994035919599774
318.0, 0.042283079061277797
319.0, 0.039066405625167056
320.0, 0.03606629828701134
321.0, 0.03584182974011407
322.0, 0.03499198353858881
323.0, 0.03357766877158301
324.0, 0.031777628050491426
325.0, 0.03248935986944257
326.0, 0.03218912424236658
327.0, 0.030983503132605672
328.0, 0.02887439181095466
329.0, 0.032121675042543534
330.0, 0.033182128081414373
331.0, 0.03411256280730583
332.0, 0.03825108553914012
333.0, 0.037955410711107515
334.0, 0.0389616231708679
335.0, 0.0418478370808179
336.0, 0.04685598261849633
337.0, 0.04931094448978
338.0, 0.05314855212270987
339.0, 0.05867289533486615
340.0, 0.06301411698864705
341.0, 0.06901686783807393
342.0, 0.07342475236857418
343.0, 0.0759071857911572
344.0, 0.0880175090330936
345.0, 0.09324958095336704
346.0, 0.09517032407860129
347.0, 0.09597620965850297
348.0, 0.09718688674221247
349.0, 0.0956534932715636
350.0, 0.09287341156145705
351.0, 0.09047013192940154
352.0, 0.08809354823464154
353.0, 0.08508046924786665
354.0, 0.08375054652843737
355.0, 0.08880830569773616
356.0, 0.09101001377763226
357.0, 0.09672578329743041
358.0, 0.10462856116512377
359.0, 0.10808607264466753
360.0, 0.1161189816804508
361.0, 0.126454646804322
362.0, 0.13663900302126997
363.0, 0.1364109799461043
364.0, 0.1420402903672057
365.0, 0.14696193762266582
366.0, 0.1489489766160526
367.0, 0.1515453254361006
368.0, 0.15215025319790088
369.0, 0.1511631641448989
370.0, 0.14879177643043104
371.0, 0.14676648395885006
372.0, 0.138321135046709
373.0, 0.12743031988909928
374.0, 0.11760483977606076
375.0, 0.10534660311589115
376.0, 0.0935099958617847
377.0, 0.08295267213543829
378.0, 0.07492728258083185
379.0, 0.06646262510838279
380.0, 0.0580784226854669
381.0, 0.050410253020483124
382.0, 0.04476647887492263
383.0, 0.040863531681242744
384.0, 0.038193914293759304
385.0, 0.03607981379498798
386.0, 0.03273624077349294
387.0, 0.0302645055589026
388.0, 0.0287981854606018
389.0, 0.02752512263121879
390.0, 0.022706765392621696
391.0, 0.020480317170141503
392.0, 0.01779853498262311
393.0, 0.014119365029922507
394.0, 0.012403319241256983
395.0, 0.010185071380346385
396.0, 0.008755838180228766
397.0, 0.008607276938671636
398.0, 0.008442238684649966
399.0, 0.008368108976823569
400.0, 0.007118566677040509
401.0, 0.004053351413280388
402.0, 0.0034964625385576304
403.0, 0.005168691875079607
404.0, 0.006115150123375469
405.0, 0.003944823709794799
406.0, 0.005381539568467131
407.0, 0.00554313777410151
408.0, 0.00505086772245927
409.0, 0.004546362018557524
410.0, 0.005448036418926958
411.0, 0.005092984692503634
412.0, 0.00432575434739694
413.0, 0.004408529086762031
414.0, 0.003918589859505231
415.0, 0.00273011182679821
416.0, 0.0017987203375995431
417.0, 0.00286108823038519
418.0, 0.0015396467704843395
419.0, 0.0005218231828480914
420.0, 0.0002018565360398644
421.0, 0.0009090423735474554
422.0, 0.0005245037658163927
423.0, 0.0009973854431487219
424.0, 0.0019602003058599568
425.0, 0.0016642653621563128
426.0, 0.00218829550998668
427.0, 0.0020809624294369864
428.0, 0.0015833255666919063
429.0, 0.0023971555852560023
430.0, 0.0023214293993706957
431.0, 0.0025724786377945203
432.0, 0.003201561812978665
433.0, 0.0032733057408008645
434.0, 0.0028119667271344594
435.0, 0.002806107782576252
436.0, 0.0030995274669081653
437.0, 0.0015292228453167975
438.0, 0.0012389891850149964
439.0, 0.0011255820987433741
440.0, 0.0008999008862300812
441.0, 0.0009746653811720515
442.0, 0.0007497346205625588
443.0, 0.0005396964304484788
444.0, 0.00045472898064471636
445.0, 0.0004278809339117341
446.0, 0.001149280276201211
447.0, 0.001215971557643637
448.0, 0.0005221533828096349
449.0, 0.003321701292141708
450.0, 0.0019775581446122483
451.0, 0.0014084260287403312
452.0, 0.0034279029094617403
453.0, 0.002753371496864645
454.0, 0.004143336454858424
455.0, 0.005258850538290569
456.0, 0.004899967971432573
457.0, 0.003382188714387297
458.0, 0.004873341987383632
459.0, 0.006336047038379592
460.0, 0.00609717958897849
461.0, 0.0044879473523232955
462.0, 0.003009883264906701
463.0, 0.002471109148512153
464.0, 0.0033053331232755826
465.0, 0.004510695235593372
466.0, 0.003888152924095691
467.0, 0.0036961515200200014
468.0, 0.005106488459479186
469.0, 0.004643022547950935
470.0, 0.00563395289674285
471.0, 0.0074457309845717265
472.0, 0.009517632851904014
473.0, 0.008999298618360537
474.0, 0.009285314473392278
475.0, 0.010522920784658277
476.0, 0.012613135246725287
477.0, 0.012111199514757516
478.0, 0.013858098982092792
479.0, 0.014665101877412457
480.0, 0.01287705544784419
481.0, 0.014404692967141718
482.0, 0.015110305292965335
483.0, 0.0152153897499983
484.0, 0.01488288621905938
485.0, 0.014684939986274124
486.0, 0.015326700801449607
487.0, 0.01735509841219696
488.0, 0.020763436413923673
489.0, 0.020870134739188164
490.0, 0.02566776063520969
491.0, 0.03108070484067851
492.0, 0.035096133012488026
493.0, 0.040978148358246334
494.0, 0.04460790880609468
495.0, 0.04533833058744752
496.0, 0.04328715009911816
497.0, 0.04359040909741437
498.0, 0.03987204332688459
499.0, 0.03456372089004021
500.0, 0.029108477149927665
501.0, 0.025899739007900657
502.0, 0.021364766733276464
503.0, 0.018824524510036102
504.0, 0.0188225045080618
505.0, 0.01442132086876114
506.0, 0.014072952011261252
507.0, 0.013378643990972135
508.0, 0.011508602699683824
509.0, 0.014029144304894594
510.0, 0.015643139539489176
511.0, 0.015192024532983586
512.0, 0.013182666563871263
513.0, 0.014331751323487114
514.0, 0.017579813560956142
515.0, 0.019322346115047472
516.0, 0.019759196146638486
517.0, 0.024319655458998897
518.0, 0.022921073405547648
519.0, 0.022284337390511944
520.0, 0.022620540845292834
521.0, 0.018788398486785103
522.0, 0.01845962989134183
523.0, 0.015845776121232936
524.0, 0.011750240564549852
525.0, 0.011836018266622656
526.0, 0.012287087817844064
527.0, 0.010837705869307197
528.0, 0.008285272849089543
529.0, 0.0073064786449781845
530.0, 0.005886836976316365
531.0, 0.004304403570082187
532.0, 0.003255199127612126
533.0, 0.004010229820294886
534.0, 0.002661356931486676
535.0, 0.0016825715983319364
536.0, 0.0012496221791708072
537.0, 0.001334181278533267
538.0, 0.0008264652396098618
539.0, 0.00036229908952075144
540.0, 0.000494966304206575
541.0, 0.0018466009739330138
542.0, 0.0007737348066344373
543.0, 0.0007679231904593168
544.0, 0.000993898081495926
545.0, 0.0006625414664371576
546.0, 0.0012685841232853243
547.0, 0.001794626868419444
548.0, 0.0025842315492367682
549.0, 0.0037427003631061973
550.0, 0.0030420319940572546
551.0, 0.003582313275265154
552.0, 0.0036231673074168837
553.0, 0.0023979182849208375
554.0, 0.0017127053501196875
555.0, 0.004256666668293436
556.0, 0.007360480616580101
557.0, 0.009220484301895465
558.0, 0.005977340097267875
559.0, 0.008592902465319026
560.0, 0.009833116591886284
561.0, 0.008570880614319407
562.0, 0.008626202980266041
563.0, 0.008154027487741236
564.0, 0.007786068204763655
565.0, 0.007660806030048329
566.0, 0.0078054534230711445
567.0, 0.008194110592992635
568.0, 0.008251300942631322
569.0, 0.008567917309602081
570.0, 0.010366849814083794
571.0, 0.008570306928231202
572.0, 0.009248802022624994
573.0, 0.01077396862140991
574.0, 0.010534443702747648
575.0, 0.008533643350978207
576.0, 0.008524525490678198
577.0, 0.008963379008836328
578.0, 0.008432560453745462
579.0, 0.008225333350337774
580.0, 0.007160104183079716
581.0, 0.006655753096275525
582.0, 0.007213683311370267
583.0, 0.005129336911197313
584.0, 0.00579524497717841
585.0, 0.0067658400626111545
586.0, 0.0067552282467623626
587.0, 0.004436796623632281
588.0, 0.0034586810054917402
589.0, 0.002864171543287184
590.0, 0.0023489976513697626
591.0, 0.0017654813768029107
592.0, 0.0022327998857167523
593.0, 0.001805434060188517
594.0, 0.0012278114436693821
595.0, 0.002600014451443265
596.0, 0.0010972406630898213
597.0, 0.0010155463912793492
598.0, 0.0016972813973021635
599.0, 0.001885517634166287
600.0, 0.0007822655840334048
601.0, 0.002024564614579782
602.0, 0.002840482213761866
603.0, 0.00111710843709827
604.0, 0.0008745024883363168
605.0, 0.0008416509452270242
606.0, 0.00194963590287034
607.0, 0.003956979454144986
608.0, 0.0020246122747775855
609.0, 0.0020279157627623137
610.0, 0.0027262446299404527
611.0, 0.0035414840463485597
612.0, 0.0038334350413622028
613.0, 0.004568748607430927
614.0, 0.0053350217785171836
615.0, 0.005971554479383739
616.0, 0.006299197925739955
617.0, 0.006394409344152459
618.0, 0.006336462217580798
619.0, 0.006466076998300334
620.0, 0.007180444720000832
621.0, 0.007453249693387665
622.0, 0.008556053161589592
623.0, 0.009476219220248442
624.0, 0.009651092281797554
625.0, 0.011442193475035885
626.0, 0.013056670556351064
627.0, 0.013718213051505604
628.0, 0.01358056481438393
629.0, 0.015026570648822297
630.0, 0.016378749517856492
631.0, 0.017188159632743845
632.0, 0.017988770662618395
633.0, 0.020404873909501818
634.0, 0.022364909047421826
635.0, 0.023420860650766505
636.0, 0.02449339985708394
637.0, 0.026935210417630258
638.0, 0.027108595094733533
639.0, 0.028624248143719392
640.0, 0.03169877363150749
641.0, 0.03602244241855692
642.0, 0.036422684686091375
643.0, 0.04086163091850772
644.0, 0.04532724943899843
645.0, 0.04821708697026841
646.0, 0.0506324005872407
647.0, 0.05613229318527854
648.0, 0.06182000909058325
649.0, 0.06851599110859379
650.0, 0.07972061712399776
651.0, 0.08369385106829992
652.0, 0.09407922786975549
653.0, 0.10868372062330421
654.0, 0.12311426873800686
655.0, 0.14093538220790824
656.0, 0.16677401686181847
657.0, 0.1960045209432861
658.0, 0.22639426565108053
659.0, 0.26752913559027724
660.0, 0.32710070625637644
661.0, 0.388738223219197
662.0, 0.4562490748264757
663.0, 0.5631748499091456
664.0, 0.6623399627346576
665.0, 0.7654259265280241
666.0, 0.8696455041331493
667.0, 0.9671970299545969
668.0, 0.9885944812265216
669.0, 0.9975356958209134
670.0, 0.969078262466689
671.0, 0.8839676245581396
672.0, 0.7930037294544665
673.0, 0.7038024872530255
674.0, 0.6147948599006201
675.0, 0.5298251129094478
676.0, 0.4686346848891082
677.0, 0.4142427570963624
678.0, 0.3700401358996926
679.0, 0.3378110818303224
680.0, 0.3194469422208232
681.0, 0.30274721943326355
682.0, 0.26852805925775985
683.0, 0.22872620962876788
684.0, 0.1961273477186815
685.0, 0.16690962796114656
686.0, 0.145349748526467
687.0, 0.12477816989035606
688.0, 0.10399309372676849
689.0, 0.09241403674688477
690.0, 0.08335922058760789
691.0, 0.0734928774040275
692.0, 0.06354993090509456
693.0, 0.0563413246555862
694.0, 0.05095874700125309
695.0, 0.04714124754587384
696.0, 0.04395618467107752
697.0, 0.04067187113121557
698.0, 0.03977032748619374
699.0, 0.03867708658457628
700.0, 0.03796297053073088
701.0, 0.03768983820691919
702.0, 0.0370969690386556
703.0, 0.04184690063755158
704.0, 0.0450895670554649
705.0, 0.04690862517665035
706.0, 0.04950031039791712
707.0, 0.055153511204099795
708.0, 0.06453464889827835
709.0, 0.07718498135708249
710.0, 0.09201867522322808
711.0, 0.10381311483301107
712.0, 0.12267074624096212
713.0, 0.13445627705048682
714.0, 0.13837947042124799
715.0, 0.14670273283732763
716.0, 0.1439627786674971
717.0, 0.13036142776846105
718.0, 0.11445968722481016
719.0, 0.10652208581640056
720.0, 0.08229913798387914
721.0, 0.07087078837919962
722.0, 0.061497622607696416
723.0, 0.04971268161263808
724.0, 0.04509330170508461
725.0, 0.04062699357816757
726.0, 0.034659088967538255
727.0, 0.029262825255219116
728.0, 0.029081027079378017
729.0, 0.026041056268694632
730.0, 0.023394701922950106
731.0, 0.02232379513230274
732.0, 0.022942797708704218
733.0, 0.018313803418277787
734.0, 0.019419015753138386
735.0, 0.019043170407123566
736.0, 0.01632977023417786
737.0, 0.015960483567375342
738.0, 0.016950862132890456
739.0, 0.01644048643726036
740.0, 0.015163991297795026
741.0, 0.014393178849810817
742.0, 0.015822548036063387
743.0, 0.014073640527282135
744.0, 0.01248860559365676
745.0, 0.012083342688344613
746.0, 0.010519362914107027
747.0, 0.009243570545212923
748.0, 0.008507032054636841
749.0, 0.008312218191230004
750.0, 0.008567591812250771
751.0, 0.008294278921133607
752.0, 0.007887763285775451
753.0, 0.006915750829666698
754.0, 0.005370613981627811
755.0, 0.004482344940968864
756.0, 0.003374099030069305
757.0, 0.003399231501771157
758.0, 0.0040619155366978235
759.0, 0.004007942080295593
760.0, 0.00414767187780115
761.0, 0.0025569681341165236
762.0, 0.002260113681647122
763.0, 0.004579891798568872
764.0, 0.004565379931646335
765.0, 0.003311325171225261
766.0, 0.0035396006155035227
767.0, 0.00426660607827263
768.0, 0.0023376128899081235
769.0, 0.0011863322984900391
770.0, 0.0032710696975498275
771.0, 0.003788207327712852
772.0, 0.00022367694498631922
773.0, 0.000550717290521694
774.0, 0.001855404527865865
775.0, 0.0015562177849773376
776.0, 0.00021864220815213971
777.0, 0.00035151784513812943
778.0, 0.00028629981760657983
779.0, 0.0008117594495069393
780.0, 0.0009685443979763116
781.0, 0.00025270193625103225
782.0, 0.00033910106461773176
783.0, 0.0021202501972719975
784.0, 0.0020698353668985804
785.0, 0.0008161482009060294
786.0, 0.001356623886520381
787.0, 0.0008246354790190677
788.0, 0.0014498746279072187
789.0, 0.0016637502981503513
790.0, 0.000589221720216718
791.0, 9.99847027319609e-05
792.0, 0.00017999482309562068
793.0, 0.0016442970534063794
794.0, 0.0028271568388232434
795.0, 0.0005756175781291993
796.0, 0.0007300315361163985
797.0, 0.0012420829364469127
798.0, 0.0010809002455286951
799.0, 8.759161572043621e-05
800.0, 0.000644012969074712
801.0, 0.0009748741435794098
802.0, 0.0007064757930026952
803.0, 0.0008205983432889133
804.0, 0.002737276388730199
805.0, 0.0012307244106369794
806.0, 0.0015219058088667661
807.0, 0.0017471388699580059
808.0, 0.0011059900001843303
809.0, 0.00039363840390062765
810.0, 0.0009959690485729653
811.0, 0.0013538279843591536
812.0, 0.0018194767433511645
813.0, 0.0029359698193490934
814.0, 0.0027409386197419653
815.0, 0.0023655196775430143
816.0, 0.0015206772083468522
817.0, 0.0006380494658379561
818.0, 0.0011896571645263572
819.0, 0.0019160110535318916
820.0, 0.002295972672391684
821.0, 0.002688193084225152
822.0, 0.003191605299628731
823.0, 0.0016722846362790603
824.0, 0.001859057946914019
825.0, 0.0017055378000729782
826.0, 0.0013715286240792899
827.0, 0.0022312058602727987
828.0, 0.0025693034135581675
829.0, 0.002327339425104691
830.0, 0.0018856444520090497
831.0, 0.001378776667789536
832.0, 0.0002447283749835059
833.0, 0.00013861551876812763
834.0, 0.001062384313076674
835.0, 0.0021163383184084226
836.0, 0.0022303695938703082
837.0, 0.002927619427160884
838.0, 0.001657706255135876
839.0, 0.0011902598012109929
840.0, 0.0016150709220008443
841.0, 0.00013305773226362702
842.0, 0.00024418124298250066
843.0, 0.00032671151017010845
844.0, 0.0007111438620371605
845.0, 0.0014372470774402352
846.0, 0.00047814499340633143
847.0, 0.0010188745324844254
848.0, 0.001630260122792467
849.0, 0.0021042443904278245
850.0, 0.002596871175958482
851.0, 0.001115742310870289
852.0, 0.0008380911843726176
853.0, 0.000633353019676536
854.0, 0.00023295334110215042
855.0, 0.0005870528603902098
856.0, 0.0007849718863312961
857.0, 0.0011085437106821575
858.0, 0.0016787987032713544
859.0, 0.0023623691055052755
860.0, 0.0015875613811400624
861.0, 0.003471805782418738
862.0, 0.0031594232456205957
863.0, 0.0013384968219638286
864.0, 0.001195093341140512
865.0, 0.005499745297964054
866.0, 0.003236569242652714
867.0, 0.002515131881741867
868.0, 0.005910981075762807
869.0, 0.008712100691639134
870.0, 0.008189491394432967
871.0, 0.009519098543674245
872.0, 0.010340351882257084
873.0, 0.009430992047500652
874.0, 0.01468402563072293
875.0, 0.013243357020112586
876.0, 0.01209993641755905
877.0, 0.011731961657206087
878.0, 0.01063090734954939
879.0, 0.010984934883343412
880.0, 0.011338720015810669
881.0, 0.01094424008595447
882.0, 0.010044190975817721
883.0, 0.01001143230193107
884.0, 0.009816375540256404
885.0, 0.009477622582117514
886.0, 0.009711260878045337
887.0, 0.01084900999860778
888.0, 0.012145929103868124
889.0, 0.011907785861140352
890.0, 0.011284223088141948
891.0, 0.011122234139978919
892.0, 0.011937542908353782
893.0, 0.011536805607890598
894.0, 0.012056088932587595
895.0, 0.012170810999222442
896.0, 0.0125576116965327
897.0, 0.014956830923774037
898.0, 0.014367037345395035
899.0, 0.013075018577732713
900.0, 0.015147721195072792
901.0, 0.01953916131256691
902.0, 0.01781532167018611
903.0, 0.02002166570903761
904.0, 0.026307488785503295
905.0, 0.03136941256302429
906.0, 0.03285969042803428
907.0, 0.038698124649165035
908.0, 0.042705077345903904
909.0, 0.050903036477804836
910.0, 0.06138845413243232
911.0, 0.07052217775871211
912.0, 0.07447719423272603
913.0, 0.08294504480435977
914.0, 0.0864685034541357
915.0, 0.08402794775408651
916.0, 0.07854507924329632
917.0, 0.07397694621316518
918.0, 0.06331207436763409
919.0, 0.05736678873307967
920.0, 0.05591493560905617
921.0, 0.04813026429098953
922.0, 0.0442181167751486
923.0, 0.03946004759675663
924.0, 0.035077233626221484
925.0, 0.032403901668426535
926.0, 0.03313326505782557
927.0, 0.0301863450501807
928.0, 0.026808085747971017
929.0, 0.02686095537720837
930.0, 0.03137303410912019
931.0, 0.031132418511159724
932.0, 0.034077764373275324
933.0, 0.03793140940479464
934.0, 0.04146062786985706
935.0, 0.04435789311469443
936.0, 0.051928250452607225
937.0, 0.053169165311615384
938.0, 0.05020926306832595
939.0, 0.0464177410593925
940.0, 0.045333951217369155
941.0, 0.038853295407230225
942.0, 0.03477580475946351
943.0, 0.03092045522172887
944.0, 0.027326640895425344
945.0, 0.0254527180283855
946.0, 0.027901108023210556
947.0, 0.025023565388737814
948.0, 0.02398505292826568
949.0, 0.026844375536288313
950.0, 0.03043508800575926
951.0, 0.02454156282674078
952.0, 0.027441578875645432
953.0, 0.031258459202754656
954.0, 0.031801372668058124
955.0, 0.031581985052038866
956.0, 0.03639938340102242
957.0, 0.039129892247479446
958.0, 0.04225803527618384
959.0, 0.0476252517266615
960.0, 0.05419606598983099
961.0, 0.05960829024375723
962.0, 0.07179393291316939
963.0, 0.08404051881848802
964.0, 0.09283670738839683
965.0, 0.11261736828221464
966.0, 0.13934181669136964
967.0, 0.16687705011419987
968.0, 0.20162759182944764
969.0, 0.24614307614037706
970.0, 0.2733900492837746
971.0, 0.3162609624238568
972.0, 0.3493233948533844
973.0, 0.3595321625556842
974.0, 0.3432471129549807
975.0, 0.3352158417973016
976.0, 0.3133450542364439
977.0, 0.287558505791758
978.0, 0.2644896769050536
979.0, 0.24851724523049062
980.0, 0.23041868131676566
981.0, 0.21779489721224066
982.0, 0.2179579007627943
983.0, 0.22193232977179378
984.0, 0.21757220739847985
985.0, 0.24428319151342945
986.0, 0.2572660444574286
987.0, 0.2800504803484974
988.0, 0.3168269442224564
989.0, 0.36066192581680523
990.0, 0.37857284260986024
991.0, 0.41141719367995405
992.0, 0.42582940982125705
993.0, 0.41727952155522996
994.0, 0.39831943949777215
995.0, 0.39598991358303853
996.0, 0.3857906620748248
997.0, 0.3965072123520013
998.0, 0.4256393940662365
999.0, 0.452013334931083
1000.0, 0.47514351528892207
1001.0, 0.5216935966454862
1002.0, 0.5433617218384488
1003.0, 0.534538048610743
1004.0, 0.5162637957236463
1005.0, 0.4859960723891211
1006.0, 0.41915657219550984
1007.0, 0.3601980441784451
1008.0, 0.31322471028987836
1009.0, 0.25814636209321634
1010.0, 0.21712409803700203
1011.0, 0.19359684338620908
1012.0, 0.16913536950537314
1013.0, 0.14656018094851384
1014.0, 0.14029032205143438
1015.0, 0.12652079782903872
1016.0, 0.11361867856462417
1017.0, 0.10530241712155917
1018.0, 0.09987458285978368
1019.0, 0.09260358978335716
1020.0, 0.0856788055364142
1021.0, 0.07998623560461486
1022.0, 0.07400296037464218
1023.0, 0.0691378625821513
1024.0, 0.06779458168162247
1025.0, 0.06347861295580656
1026.0, 0.05767346263647345
1027.0, 0.054862254335129416
1028.0, 0.05345494287685374
1029.0, 0.04957469877927885
1030.0, 0.04763933529376856
1031.0, 0.04967777005640212
1032.0, 0.04613853308280965
1033.0, 0.041119833354610884
1034.0, 0.042152923241840265
1035.0, 0.037924284348658126
1036.0, 0.037889077640404646
1037.0, 0.038085183758397936
1038.0, 0.03694911562203619
1039.0, 0.03461818474481504
1040.0, 0.03710358956572163
1041.0, 0.04239507327152915
1042.0, 0.043453149961297365
1043.0, 0.044179869832087076
1044.0, 0.04871946781920182
1045.0, 0.04876752520803197
1046.0, 0.05792722900546518
1047.0, 0.06744589525635586
1048.0, 0.07608426718449798
1049.0, 0.08435950638921756
1050.0, 0.09398557100055738
1051.0, 0.1004557174832789
1052.0, 0.10392591633596786
1053.0, 0.10359899270418196
1054.0, 0.09791669420204013
1055.0, 0.08300537800841862
1056.0, 0.0735600418384548
1057.0, 0.06462642959966583
1058.0, 0.053360169045139884
1059.0, 0.04208449700502995
1060.0, 0.04168986121197926
1061.0, 0.034017822715640036
1062.0, 0.032981395032734194
1063.0, 0.0313381784744805
1064.0, 0.026862185902868346
1065.0, 0.02410960212306928
1066.0, 0.024292724369412894
1067.0, 0.022558572861227352
1068.0, 0.020335675005198516
1069.0, 0.019458024281943286
1070.0, 0.021669564776939258
1071.0, 0.021847012704098105
1072.0, 0.020790876334735645
1073.0, 0.02073060349017095
1074.0, 0.020783765028588863
1075.0, 0.019175711307039184
1076.0, 0.020221845619278374
1077.0, 0.017604302311586256
1078.0, 0.015471110768692784
1079.0, 0.014880263570330034
1080.0, 0.015371431354166385
1081.0, 0.014003067816927211
1082.0, 0.01469635730784514
1083.0, 0.015019488623567312
1084.0, 0.013417876751030487
1085.0, 0.010626790111087655
1086.0, 0.012930322491803507
1087.0, 0.011794780841836768
1088.0, 0.011530978234180637
1089.0, 0.011548847271312763
1090.0, 0.01023831487788567
1091.0, 0.005115540429073261
1092.0, 0.008851871991053998
1093.0, 0.01097490864371212
1094.0, 0.008643414107859551
1095.0, 0.005321067643784511
1096.0, 0.008689185909371035
1097.0, 0.005190083623742481
1098.0, 0.006062276479235027
1099.0, 0.00666406438003676
1100.0, 0.006328238517102719
1101.0, 0.006330015224579159
1102.0, 0.008167566345640422
1103.0, 0.006396965906684984
1104.0, 0.00518677284566622
1105.0, 0.0066874682941574105
1106.0, 0.010018468343830871
1107.0, 0.006315214164329163
1108.0, 0.007296320967982874
1109.0, 0.0071816748892113095
1110.0, 0.0051580016147078816
1111.0, 0.0034927378773249715
1112.0, 0.008328423297992797
1113.0, 0.008184374158999941
1114.0, 0.005965939009074156
1115.0, 0.005489975315737194
1116.0, 0.006269745865086268
1117.0, 0.004916055578355229
1118.0, 0.007274212606812473
1119.0, 0.009273605465034706
1120.0, 0.007305871053801698
1121.0, 0.005197923374566372
1122.0, 0.007431505593662332
1123.0, 0.007605613094940319
1124.0, 0.007609416022364324
1125.0, 0.008361042431562746
1126.0, 0.008495871800179907
1127.0, 0.00741125118577
1128.0, 0.0068372402102746315
1129.0, 0.0051130740392986125
1130.0, 0.005349343735140018
1131.0, 0.004938433823484021
1132.0, 0.0030736552306313662
1133.0, 0.001083293351460706
1134.0, 0.0026391978857117616
1135.0, 0.005447692167750229
1136.0, 0.004013607484003665
1137.0, 0.00213542874689705
1138.0, 0.004812117887678942
1139.0, 0.00308302375473667
1140.0, 0.0025382736011930153
1141.0, 0.005371792265861036
1142.0, 0.005616162298052597
1143.0, 0.0020654021298207813
1144.0, 0.005174308286709773
1145.0, 0.0026090250505149456
1146.0, 0.0029363383906702953
1147.0, 0.005298976330213763
1148.0, 0.005993957545109269
1149.0, 0.0008932609787829454
1150.0, 0.004002654360888869
1151.0, 0.004857657406675021
1152.0, 0.0029966975656479447
1153.0, 0.0020466254554278164
1154.0, 0.004405634885638401
1155.0, 0.0036339823418849093
1156.0, 0.0033854639571920006
1157.0, 0.0034510886544968085
1158.0, 0.0028970670163242333
1159.0, 0.0018582328852034275
1160.0, 0.0019108697895487538
1161.0, 0.004294203490770894
1162.0, 0.0023218224648113347
1163.0, 0.00338399216362546
1164.0, 0.005217875386616417
1165.0, 0.0025074643766406692
1166.0, 0.000726749419790498
1167.0, 0.0034728841547083246
1168.0, 0.0035386635393039154
1169.0, 0.0021351420561561466
1170.0, 0.0016608113921790157
1171.0, 0.0038007173490813514
1172.0, 0.002497677448298089
1173.0, 0.0031740810756606926
1174.0, 0.0032375605334723453
1175.0, 0.001989481769872786
1176.0, 0.0005739692817789024
1177.0, 0.003126984647756105
1178.0, 0.0012740213423239905
1179.0, 0.00027159326130341894
1180.0, 0.0013665554723455739
1181.0, 0.003081151096801907
1182.0, 0.0003229448389816508
1183.0, 6.634958593661552e-05
1184.0, 0.00027600165569396305
1185.0, 0.000836758710970135
1186.0, 0.0018917007820970127
1187.0, 0.0035067064892857387
1188.0, 0.00388142054317572
1189.0, 0.0016169504450048782
1190.0, 0.0012056494909814678
1191.0, 0.0014517287308023273
1192.0, 0.0012292690678626476
1193.0, 0.0025499080796086726
1194.0, 0.002929539059696485
1195.0, 0.002865218449657328
1196.0, 0.0016856993706603578
1197.0, 0.0005908652270027093
1198.0, 0.0014482585098545661
1199.0, 0.0014094760854231508
1200.0, 0.002740337469787906
1201.0, 0.0026134656038030307
1202.0, 0.0029532698503690136
1203.0, 0.004224203914527326
1204.0, 0.002417456896326919
1205.0, 0.001834567236040048
1206.0, 0.0022413352158247705
1207.0, 0.002092898478793573
1208.0, 0.0011340408936326178
1209.0, 0.0006862257666029586
1210.0, 0.0061425023452728105
1211.0, 0.0035701856869794473
1212.0, 0.0026209538645003316
1213.0, 0.004000001930306515
1214.0, 0.004989354473053873
1215.0, 0.0007995442864475154
1216.0, 0.0038951161660730903
1217.0, 0.004451080263301953
1218.0, 0.0037035052734746515
1219.0, 0.002908781369766626
1220.0, 0.003066397391912058
1221.0, 0.004387797981766846
1222.0, 0.0036816653603905553
1223.0, 0.004538540600016997
1224.0, 0.005163170479834296
1225.0, 0.004570178797806646
1226.0, 0.0033312004946733868
1227.0, 0.004649672770418456
1228.0, 0.004166470719300994
1229.0, 0.0047231041834933565
1230.0, 0.0037114702294402378
1231.0, 0.0011524120514655376
1232.0, 0.004832305180214493
1233.0, 0.006362100061707096
1234.0, 0.002465146874744269
1235.0, 0.0031795918027822255
1236.0, 0.005323726168858345
1237.0, 0.0020041236246225403
1238.0, 0.004510629434968993
1239.0, 0.0019413019738838207
1240.0, 0.0008564594230453322
1241.0, 0.0029999064866045185
1242.0, 0.005817405026576864
1243.0, 0.0037736718582133824
1244.0, 0.0017308336451715817
1245.0, 0.004537885496432031
1246.0, 0.0034529672421842895
1247.0, 0.0013254403994725503
1248.0, 0.002561255431014718
1249.0, 0.007743954307802771
1250.0, 0.0017719868258288707
1251.0, 0.0005751193062508551
1252.0, 0.0032930230910249046
1253.0, 0.004485754124067673
1254.0, 0.0003910214320584464
1255.0, 0.001691492301916167
1256.0, 0.004468778204224555
1257.0, 0.00477832077466964
1258.0, 0.0036977480458441174
1259.0, 0.0020843396619689447
1260.0, 0.0006049076217666974
1261.0, 0.0039738964987730005
1262.0, 0.004481995111635924
1263.0, 0.004213106645648176
1264.0, 0.0045445727217357824
1265.0, 0.006017844137293963
1266.0, 0.007804516382883595
1267.0, 0.0016022204125029009
1268.0, 0.0037137140388483893
1269.0, 0.004638922281982437
1270.0, 0.004411653605995185
1271.0, 0.004982468017701161
1272.0, 0.004758491438863144
1273.0, 0.004422692170980101
1274.0, 0.004151766422134256
1275.0, 0.003992381061442812
1276.0, 0.0034244323889508353
1277.0, 0.002277008697401278
1278.0, 0.002644646778334104
1279.0, 0.0015140371426863686
1280.0, 0.0030602063844252098
1281.0, 0.005187371363392436
1282.0, 0.006031708175582013
1283.0, 0.004618069288677775
1284.0, 0.0006837877381768494
1285.0, 0.003503521262086969
1286.0, 0.003170417169611665
1287.0, 0.0028020737458453156
1288.0, 0.0036861802692792047
1289.0, 0.0032228648625958704
1290.0, 0.0006069055054217295
1291.0, 0.004705775808362128
1292.0, 0.004902716591238773
1293.0, 0.002845431192404807
1294.0, 0.0018586381451688998
1295.0, 0.0030404521162664022
1296.0, 0.00078430770279229
1297.0, 0.0028347919935526058
1298.0, 0.0027166196110961775
1299.0, 0.0013723695979783869
1300.0, 0.001411293958558922
1301.0, 0.003890911887120955
1302.0, 0.00398231220027607
1303.0, 0.004045210352587352
1304.0, 0.002457009655829932
1305.0, 0.0006454800115745596
1306.0, 0.000860304774871987
1307.0, 0.004268022823160662
1308.0, 0.0042482417350823394
1309.0, 0.002330608652092226
1310.0, 0.005289541690054711
1311.0, 0.007219636149661525
1312.0, 0.0024620934950078115
1313.0, 0.0017882433446225355
1314.0, 0.0061842539660020195
1315.0, 0.002956750362243938
1316.0, 0.0019597956021354043
1317.0, 0.004127349517004727
1318.0, 0.005035967967141985
1319.0, 0.000983132038406779
1320.0, 0.004629932471580927
1321.0, 0.005342458527415848
1322.0, 0.0034890330947078066
1323.0, 0.003005449087317551
1324.0, 0.006061208985184514
1325.0, 0.003544055252386551
1326.0, 0.002607624475529957
1327.0, 0.007582148019545141
1328.0, 0.00680949951233524
1329.0, 0.0032096099943061925
1330.0, 0.005568000058076117
1331.0, 0.008261922335199397
1332.0, 0.00287145916628373
1333.0, 0.005287303811315281
1334.0, 0.005799266911543899
1335.0, 0.004165765707659379
1336.0, 0.00563120744073704
1337.0, 0.009021498944811248
1338.0, 0.00641447704210846
1339.0, 0.0064898408655879895
1340.0, 0.005869879044384947
1341.0, 0.003950111708092698
1342.0, 0.0028517933271578707
1343.0, 0.005947289891999033
1344.0, 0.005000263093717805
1345.0, 0.0049402101317365535
1346.0, 0.008688515306011384
1347.0, 0.010662631559614196
1348.0, 0.005376824542386648
1349.0, 0.002175562641211786
1350.0, 0.007563139261413576
1351.0, 0.005473101264977033
1352.0, 0.004878859843479846
1353.0, 0.0071409192699329
1354.0, 0.008707269322878883
1355.0, 0.006462756757193424
1356.0, 0.005651020989175531
1357.0, 0.00656995295803266
1358.0, 0.00524976714964479
1359.0, 0.005956954318716154
1360.0, 0.010179225285501487
1361.0, 0.004839002104381189
1362.0, 0.00695336667888151
1363.0, 0.00782688601796296
1364.0, 0.006807114508599957
1365.0, 0.005465788576534247
1366.0, 0.005741218056760368
1367.0, 0.008134800296012335
1368.0, 0.004500444484653448
1369.0, 0.003222736700475185
1370.0, 0.003178993745047134
1371.0, 0.002482601485458984
1372.0, 0.0019917697077363045
1373.0, 0.005725907510539755
1374.0, 0.0017100977008700688
1375.0, 0.005483698854848503
1376.0, 0.007151253147572085
1377.0, 0.005430907164258859
1378.0, 0.0031075854620131235
1379.0, 0.004167489203513328
1380.0, 0.0057712677949445955
1381.0, 0.0021242593096545
1382.0, 0.006907179078648798
1383.0, 0.009682590131628189
1384.0, 0.00737086677687763
1385.0, 0.006936650867777487
1386.0, 0.011926818608632823
1387.0, 0.007373529910284692
1388.0, 0.005135004315769141
1389.0, 0.004820282821665223
1390.0, 0.004509233016583091
1391.0, 0.0032211224769037833
1392.0, 0.0034716200238888123
1393.0, 0.005570253025900538
1394.0, 0.003927746879791358
1395.0, 0.0030632116402576817
1396.0, 0.003198101679995822
1397.0, 0.0036894815938760626
1398.0, 0.006707758612884495
1399.0, 0.005272009565310409
1400.0, 0.003833831368714123
1401.0, 0.006269123180796449
1402.0, 0.007295108024435444
1403.0, 0.0039279787244570485
1404.0, 0.0009324229747184978
1405.0, 0.005758341751239186
1406.0, 0.004724891612442972
1407.0, 0.0026600650380990513
1408.0, 0.004978141793143041
1409.0, 0.006979617878251949
1410.0, 0.0004694794732080043
1411.0, 0.0037969837352762104
1412.0, 0.0008262077690988419
1413, 0.0
1414, 0.0
1415, 0.0
1416, 0.0
1417, 0.0
1418, 0.0
1419, 0.0
1420, 0.0
1421, 0.0
1422, 0.0
1423, 0.0
1424, 0.0
1425, 0.0
1426, 0.0
1427, 0.0
1428, 0.0
1429, 0.0
1430, 0.0
1431, 0.0
1432, 0.0
1433, 0.0
1434, 0.0
1435, 0.0
1436, 0.0
1437, 0.0
1438, 0.0
1439, 0.0
1440, 0.0
1441, 0.0
1442, 0.0
1443, 0.0
1444, 0.0
1445, 0.0
1446, 0.0
1447, 0.0
1448, 0.0
1449, 0.0
1450, 0.0
1451, 0.0
1452, 0.0
1453, 0.0
1454, 0.0
1455, 0.0
1456, 0.0
1457, 0.0
1458, 0.0
1459, 0.0
1460, 0.0
1461, 0.0
1462, 0.0
1463, 0.0
1464, 0.0
1465, 0.0
1466, 0.0
1467, 0.0
1468, 0.0
1469, 0.0
1470, 0.0
1471, 0.0
1472, 0.0
1473, 0.0
1474, 0.0
1475, 0.0
1476, 0.0
1477, 0.0
1478, 0.0
1479, 0.0
1480, 0.0
1481, 0.0
1482, 0.0
1483, 0.0
1484, 0.0
1485, 0.0
1486, 0.0
1487, 0.0
1488, 0.0
1489, 0.0
1490, 0.0
1491, 0.0
1492, 0.0
1493, 0.0
1494, 0.0
1495, 0.0
1496, 0.0
1497, 0.0
1498, 0.0
1499, 0.0
1500, 0.0
1501, 0.0
1502, 0.0
1503, 0.0
1504, 0.0
1505, 0.0
1506, 0.0
1507, 0.0
1508, 0.0
1509, 0.0
1510, 0.0
1511, 0.0
1512, 0.0
1513, 0.0
1514, 0.0
1515, 0.0
1516, 0.0
1517, 0.0
1518, 0.0
1519, 0.0
1520, 0.0
1521, 0.0
1522, 0.0
1523, 0.0
1524, 0.0
1525, 0.0
1526, 0.0
1527, 0.0
1528, 0.0
1529, 0.0
1530, 0.0
1531, 0.0
1532, 0.0
1533, 0.0
1534, 0.0
1535, 0.0
1536, 0.0
1537, 0.0
1538, 0.0
1539, 0.0
1540, 0.0
1541, 0.0
1542, 0.0
1543, 0.0
1544, 0.0
1545, 0.0
1546, 0.0
1547, 0.0
1548, 0.0
1549, 0.0
1550, 0.0
1551, 0.0
1552, 0.0
1553, 0.0
1554, 0.0
1555, 0.0
1556, 0.0
1557, 0.0
1558, 0.0
1559, 0.0
1560, 0.0
1561, 0.0
1562, 0.0
1563, 0.0
1564, 0.0
1565, 0.0
1566, 0.0
1567, 0.0
1568, 0.0
1569, 0.0
1570, 0.0
1571, 0.0
1572, 0.0
1573, 0.0
1574, 0.0
1575, 0.0
1576, 0.0
1577, 0.0
1578, 0.0
1579, 0.0
1580, 0.0
1581, 0.0
1582, 0.0
1583, 0.0
1584, 0.0
1585, 0.0
1586, 0.0
1587, 0.0
1588, 0.0
1589, 0.0
1590, 0.0
1591, 0.0
1592, 0.0
1593, 0.0
1594, 0.0
1595, 0.0
1596, 0.0
1597, 0.0
1598, 0.0
1599, 0.0
