30, 0.0
31, 0.0
32, 0.0
33, 0.0
34, 0.0
35, 0.0
36, 0.0
37, 0.0
38, 0.0
39, 0.0
40, 0.0
41, 0.0
42, 0.0
43, 0.0
44, 0.0
45, 0.0
46, 0.0
47, 0.0
48, 0.0
49, 0.0
50, 0.0
51, 0.0
52, 0.0
53, 0.0
54, 0.0
55, 0.0
56, 0.0
57, 0.0
58, 0.0
59, 0.0
60, 0.0
61, 0.0
62, 0.0
63, 0.0
64, 0.0
65, 0.0
66, 0.0
67, 0.0
68, 0.0
69, 0.0
70, 0.0
71, 0.0
72, 0.0
73, 0.0
74, 0.0
75, 0.0
76, 0.0
77, 0.0
78, 0.0
79, 0.0
80, 0.0
81, 0.0
82, 0.0
83, 0.0
84, 0.0
85, 0.0
86, 0.0
87, 0.0
88, 0.0
89, 0.0
90, 0.0
91, 0.0
92, 0.0
93, 0.0
94, 0.0
95, 0.0
96, 0.0
97, 0.0
98, 0.0
99, 0.0
100.0, 0.0002516131853941098
101.0, 0.0013177707506233695
102.0, 0.0008178357760210728
103.0, 0.0007980170656555637
104.0, 0.002204320948751239
105.0, 0.011598498705803262
106.0, 0.028193120533459768
107.0, 0.05023876954595823
108.0, 0.07714646921063582
109.0, 0.10152891032464502
110.0, 0.11952151316197603
111.0, 0.13055542261690897
112.0, 0.13593174287441107
113.0, 0.13000314668687707
114.0, 0.11739597502959101
115.0, 0.10059348149496011
116.0, 0.08100714044144026
117.0, 0.06758014067381764
118.0, 0.05975670039848928
119.0, 0.05149809295179587
120.0, 0.04749752661352474
121.0, 0.04578167049146466
122.0, 0.045604073668035136
123.0, 0.050916097634193004
124.0, 0.05655706278337171
125.0, 0.06146711280236922
126.0, 0.06277880859014187
127.0, 0.06526266272667444
128.0, 0.06788949095299318
129.0, 0.07024252928598544
130.0, 0.07002205100072818
131.0, 0.06990106660095463
132.0, 0.06973858676785129
133.0, 0.06926881189069328
134.0, 0.06879733520133081
135.0, 0.06832313091396285
136.0, 0.06826927143325201
137.0, 0.07308129164328292
138.0, 0.07586654897456034
139.0, 0.0766403535463658
140.0, 0.0748766245237585
141.0, 0.06707960834493248
142.0, 0.059033950161869964
143.0, 0.05095445220560569
144.0, 0.041149724180296
145.0, 0.031912465425186824
146.0, 0.024711428881809
147.0, 0.02064203805405649
148.0, 0.018789556286972767
149.0, 0.01863399416547771
150.0, 0.01978534702355878
151.0, 0.02165886550225474
152.0, 0.024780435400452036
153.0, 0.02778215447758746
154.0, 0.03017153282740416
155.0, 0.030329961136071417
156.0, 0.029529442327355607
157.0, 0.028448752540099865
158.0, 0.027812533280920107
159.0, 0.026236112306531556
160.0, 0.024507324858969243
161.0, 0.02256713622842127
162.0, 0.01962000728044203
163.0, 0.020030013359749108
164.0, 0.020637806933883333
165.0, 0.019733942376159816
166.0, 0.01937284811008906
167.0, 0.019484265651981816
168.0, 0.020280442754308896
169.0, 0.022402621621109287
170.0, 0.025330094686404202
171.0, 0.026684821573144737
172.0, 0.026217129062089332
173.0, 0.02842782033005609
174.0, 0.029764606188412798
175.0, 0.030889437817707536
176.0, 0.032394797338262594
177.0, 0.032707789588208955
178.0, 0.02980457613539099
179.0, 0.024663695003880808
180.0, 0.02104741875728953
181.0, 0.015695020126288418
182.0, 0.011290818020101012
183.0, 0.008917267202993259
184.0, 0.006183763906093024
185.0, 0.007798027644096655
186.0, 0.010762456444474412
187.0, 0.011006025272368436
188.0, 0.013830508099119962
189.0, 0.015948661427334563
190.0, 0.01685286971589797
191.0, 0.01625987265759436
192.0, 0.014010822514748503
193.0, 0.012288590652890941
194.0, 0.01236228156623823
195.0, 0.006296928123543836
196.0, 0.0030287030437080886
197.0, 0.002506203096268695
198.0, 0.005136823854675895
199.0, 0.006268411355795335
200.0, 0.006498168882638504
201.0, 0.00601439469947
202.0, 0.0054464857344458
203.0, 0.004674829199988656
204.0, 0.003508719040233293
205.0, 0.0017584538903779219
206.0, 0.005051732800584054
207.0, 0.008133699574021483
208.0, 0.011720249303853798
209.0, 0.01784385652222036
210.0, 0.02135994661536156
211.0, 0.026146433842937234
212.0, 0.032099830963290145
213.0, 0.03073600776509998
214.0, 0.028311621016266362
215.0, 0.026050837999693936
216.0, 0.02487501850969326
217.0, 0.020121985614387453
218.0, 0.015386235317066392
219.0, 0.011249316532466358
220.0, 0.008917376200591772
221.0, 0.007024441315249113
222.0, 0.004243266189697011
223.0, 0.0007473424376627121
224.0, 0.00047574038555484504
225.0, 0.0020929472883010553
226.0, 0.0033287591943607065
227.0, 0.0025742475872830633
228.0, 0.0031927513967241377
229.0, 0.0035004720595969304
230.0, 0.0032868267189921888
231.0, 0.0020840609190254035
232.0, 0.0015039311931579794
233.0, 0.0017255007552724958
234.0, 0.0027732225280672046
235.0, 0.004542985666318232
236.0, 0.008243617590033118
237.0, 0.012815270307909925
238.0, 0.01775387299254431
239.0, 0.023983722668355377
240.0, 0.027994701925446067
241.0, 0.03149751864546055
242.0, 0.03719262227974138
243.0, 0.047323418432143965
244.0, 0.053374764460790265
245.0, 0.055544512112269476
246.0, 0.05975384253534728
247.0, 0.05775720027821299
248.0, 0.055919515508547395
249.0, 0.056617277310432514
250.0, 0.05306702164017198
251.0, 0.04839764861721817
252.0, 0.0438542314825918
253.0, 0.04085707719323152
254.0, 0.04028404850651159
255.0, 0.040194372721360026
256.0, 0.040419328166324396
257.0, 0.0409427545003077
258.0, 0.04499593422469567
259.0, 0.04926719662436524
260.0, 0.05264632778530673
261.0, 0.05317415856942043
262.0, 0.05088023231105385
263.0, 0.048453598078007074
264.0, 0.04769151527360736
265.0, 0.04318773279611495
266.0, 0.03863689930775935
267.0, 0.034461333396109795
268.0, 0.031394146333785594
269.0, 0.0275265584951724
270.0, 0.02521938337648886
271.0, 0.024264921967009242
272.0, 0.02253992693378885
273.0, 0.024352119802450403
274.0, 0.026212434225717604
275.0, 0.026770711922843374
276.0, 0.025248578860475625
277.0, 0.02489502305261157
278.0, 0.024924999355434973
279.0, 0.02471046891639016
280.0, 0.026116322412472824
281.0, 0.024999421829842643
282.0, 0.022862255076516944
283.0, 0.022843096267531615
284.0, 0.018275741763808938
285.0, 0.015342764201052192
286.0, 0.01417479539351439
287.0, 0.010634799054515752
288.0, 0.008554653582869973
289.0, 0.007266964140606439
290.0, 0.006396560303868006
291.0, 0.0036046124490779585
292.0, 0.0024937958595625774
293.0, 0.0021102741208413704
294.0, 0.0017128095155481379
295.0, 0.0014222339974432937
296.0, 0.001722170412608648
297.0, 0.0023695559985945965
298.0, 0.0029266083794411753
299.0, 0.003484055946886945
300.0, 0.005016904683537478
301.0, 0.007132694332569441
302.0, 0.007692257885533904
303.0, 0.008700743771292504
304.0, 0.010231155501347768
305.0, 0.01219027522692537
306.0, 0.013125155364115354
307.0, 0.014731735338605887
308.0, 0.016934560446232
309.0, 0.019733635824720545
310.0, 0.023463364908541732
311.0, 0.025404281674151073
312.0, 0.027919330442794342
313.0, 0.0344469770228099
314.0, 0.0356398859230869
315.0, 0.04132350175903525
316.0, 0.05013502910556234
317.0, 0.05627974515839737
318.0, 0.06858014558294052
319.0, 0.07863558244665943
320.0, 0.08540249958800625
321.0, 0.09379229206115963
322.0, 0.09757753755642792
323.0, 0.09992683484726361
324.0, 0.10210473778621336
325.0, 0.1032281338367659
326.0, 0.10500489841833412
327.0, 0.1080851924057733
328.0, 0.11312597883926345
329.0, 0.11761377718615378
330.0, 0.12397483089399795
331.0, 0.1325670215629427
332.0, 0.14414607104160387
333.0, 0.15367163033117903
334.0, 0.16437349222572648
335.0, 0.17495593576019283
336.0, 0.18094150211521803
337.0, 0.1764503481174274
338.0, 0.17001624169391535
339.0, 0.163121336875969
340.0, 0.1539692947255778
341.0, 0.14467662142234483
342.0, 0.13461927091590492
343.0, 0.12398340745418804
344.0, 0.11801704788336159
345.0, 0.11150892412879497
346.0, 0.10581972023300643
347.0, 0.10184180472234018
348.0, 0.09344298898528988
349.0, 0.08541112729301054
350.0, 0.07791322818826649
351.0, 0.07119393976488633
352.0, 0.06322588095113563
353.0, 0.0568849575442226
354.0, 0.052267183936339154
355.0, 0.04947764961367931
356.0, 0.04903782401120685
357.0, 0.04917613443949616
358.0, 0.049285345222268344
359.0, 0.04818261363255217
360.0, 0.050494549125486475
361.0, 0.05275829484069391
362.0, 0.053461564849367406
363.0, 0.048952090298915736
364.0, 0.045788565024575255
365.0, 0.04316789146105713
366.0, 0.040543745118482584
367.0, 0.035383297830335704
368.0, 0.032202293859499666
369.0, 0.029042927593154785
370.0, 0.024812590259064043
371.0, 0.022214965491641044
372.0, 0.018366621707675373
373.0, 0.014729363707219717
374.0, 0.012670526811444864
375.0, 0.009211943638335987
376.0, 0.0062513323246869605
377.0, 0.0038445883958346536
378.0, 0.0020733269684886095
379.0, 0.0016392812336474588
380.0, 0.0011658347079473393
381.0, 0.0006178773131326224
382.0, 0.00011970141728558212
383.0, 0.0034458530356860175
384.0, 0.005600994288791968
385.0, 0.006826703319489503
386.0, 0.009847066061622074
387.0, 0.011760139906011689
388.0, 0.012959762249380186
389.0, 0.013914293148394596
390.0, 0.01632607346189769
391.0, 0.014464212965343797
392.0, 0.0108908096582917
393.0, 0.007006965032849556
394.0, 0.006996714362206333
395.0, 0.004397488615575455
396.0, 0.0020673027417980284
397.0, 0.0012953209363256836
398.0, 0.0020861836871629044
399.0, 0.001639484418426793
400.0, 0.001100832801156048
401.0, 0.001240665254065852
402.0, 0.003727538740850908
403.0, 0.006214687338085951
404.0, 0.009760592445968688
405.0, 0.01527447041834336
406.0, 0.022285117430960143
407.0, 0.026798298990736134
408.0, 0.031304017053786354
409.0, 0.03850382079118825
410.0, 0.042765507013897835
411.0, 0.050998254253310976
412.0, 0.06181454555390416
413.0, 0.073167969938043
414.0, 0.08772823504951671
415.0, 0.10429104561259288
416.0, 0.12176155375092364
417.0, 0.1383942163242068
418.0, 0.15504535110411635
419.0, 0.16412308129568723
420.0, 0.16622391122964195
421.0, 0.16383934637492253
422.0, 0.15798717441317223
423.0, 0.14181725575539297
424.0, 0.11917821401408032
425.0, 0.10300436071279964
426.0, 0.08548116290535121
427.0, 0.07171367210205035
428.0, 0.06102552602868947
429.0, 0.0480863678728694
430.0, 0.04154814850161403
431.0, 0.037062958853191136
432.0, 0.034069473346273846
433.0, 0.03436777156756067
434.0, 0.0340826490628953
435.0, 0.03261723185465619
436.0, 0.030738912073665067
437.0, 0.03315260436994533
438.0, 0.03243122766890459
439.0, 0.029879717800340013
440.0, 0.02642789448489364
441.0, 0.02523738389583911
442.0, 0.02362732326140655
443.0, 0.020847758904681712
444.0, 0.017030805131466854
445.0, 0.015283750950107838
446.0, 0.013726921932889604
447.0, 0.01262201337738675
448.0, 0.012488211033832086
449.0, 0.016605817331985954
450.0, 0.015772895134358443
451.0, 0.016583235842651183
452.0, 0.021409074930660223
453.0, 0.022424814773075168
454.0, 0.02301544987225475
455.0, 0.022992338911927167
456.0, 0.022207689876050693
457.0, 0.020341917660145988
458.0, 0.019195094118218
459.0, 0.016695691476096515
460.0, 0.011930927408634934
461.0, 0.008573488308460709
462.0, 0.0059097565783775095
463.0, 0.003761501994070061
464.0, 0.002088648894228194
465.0, 0.0015945818247515755
466.0, 0.001282726365359825
467.0, 0.0016786552104966805
468.0, 0.003051384576181683
469.0, 0.004244798514018277
470.0, 0.005851263252234363
471.0, 0.007171263009159974
472.0, 0.007742804170699261
473.0, 0.007419119453137871
474.0, 0.007919090914072958
475.0, 0.0084383200375162
476.0, 0.008471109337793827
477.0, 0.008116414557340869
478.0, 0.009318917178194802
479.0, 0.009246661071908741
480.0, 0.006374413649310677
481.0, 0.005290410749924008
482.0, 0.0039303955936833695
483.0, 0.0032899192639141268
484.0, 0.0037631868635305665
485.0, 0.0019190096827701685
486.0, 0.0063219703671171775
487.0, 0.009392665031378616
488.0, 0.007403090424815953
489.0, 0.011263631827671936
490.0, 0.018488455785042022
491.0, 0.023207170508823437
492.0, 0.022959623568587034
493.0, 0.02834574050501655
494.0, 0.032171895702659194
495.0, 0.032383284056032226
496.0, 0.028559229162469606
497.0, 0.02804424160688739
498.0, 0.025230219214542434
499.0, 0.022883341287375344
500.0, 0.021812114604100184
501.0, 0.017297006225455536
502.0, 0.018041839895042766
503.0, 0.019967308800334517
504.0, 0.02177315725610916
505.0, 0.026977360792363042
506.0, 0.03083933220430647
507.0, 0.03536005924710558
508.0, 0.04156208755366453
509.0, 0.050775859960920176
510.0, 0.06013634272762186
511.0, 0.06649420163168454
512.0, 0.0691683702298259
513.0, 0.07036930314972814
514.0, 0.06737723939972777
515.0, 0.06268363894835595
516.0, 0.05702293004310723
517.0, 0.05039629338848792
518.0, 0.04345566622827223
519.0, 0.036643295440101045
520.0, 0.030050974485989267
521.0, 0.023615050404782782
522.0, 0.022402949786008285
523.0, 0.018535641393875965
524.0, 0.012579575169387706
525.0, 0.010726343005836273
526.0, 0.008873446737509791
527.0, 0.006597351719124652
528.0, 0.0039804865624225964
529.0, 0.0013635035557920097
530.0, 0.0013370565643985547
531.0, 0.001033293277006863
532.0, 0.0009809534748730173
533.0, 0.002836675263250804
534.0, 0.0013118104033548066
535.0, 0.0012784438133574413
536.0, 0.0018301249848929155
537.0, 0.0010132525104074655
538.0, 0.001810834000251112
539.0, 0.0021569301935511816
540.0, 0.002805375991191076
541.0, 0.0047602065696944924
542.0, 0.007862981917806227
543.0, 0.006494044466934284
544.0, 0.004894162156006717
545.0, 0.007026451898231507
546.0, 0.008223883913303351
547.0, 0.007807848818791746
548.0, 0.008964158774405536
549.0, 0.01341899769999407
550.0, 0.011743370369974618
551.0, 0.014304070154232764
552.0, 0.01757925206695949
553.0, 0.019862873721313033
554.0, 0.023362722809871596
555.0, 0.028493997174614143
556.0, 0.03235918162150914
557.0, 0.03330962297437592
558.0, 0.028944703204496724
559.0, 0.03082404232270153
560.0, 0.0289189818462881
561.0, 0.022343006968452872
562.0, 0.018932863987482826
563.0, 0.015688435112350307
564.0, 0.01318932763439985
565.0, 0.011189097617433301
566.0, 0.008736983109045379
567.0, 0.009039453067904199
568.0, 0.008244923973660816
569.0, 0.00729242782607063
570.0, 0.008815134318410299
571.0, 0.005865908847729372
572.0, 0.005277876072813752
573.0, 0.0056903531249834355
574.0, 0.0047688731244982996
575.0, 0.005177294561173344
576.0, 0.003923524668665479
577.0, 0.0024395503393230366
578.0, 0.0020401437661519486
579.0, 0.001749390658050016
580.0, 0.0009243571433516671
581.0, 0.0008394043385143034
582.0, 0.00208373022331715
583.0, 0.002628243040891976
584.0, 0.002135056284290592
585.0, 0.0016872175477834813
586.0, 0.0016090544777311866
587.0, 0.0012235146079360422
588.0, 0.0030188171313241937
589.0, 0.0026463801657967256
590.0, 0.0007826731579638612
591.0, 0.003264944637635625
592.0, 0.001517611642898396
593.0, 0.001256670439927535
594.0, 0.0018662912156589763
595.0, 0.00030962559991842614
596.0, 0.0012742311470267632
597.0, 0.0014582287299547407
598.0, 0.0009325672817763753
599.0, 0.0001136975109931077
600.0, 0.0005000692502609109
601.0, 0.001170140622168002
602.0, 0.0012312740379532797
603.0, 0.0001393568810548416
604.0, 0.001025255081549313
605.0, 0.000816675049093585
606.0, 0.00034752225381196836
607.0, 0.0003671853664618933
608.0, 0.0028706660414670932
609.0, 0.003050540436205193
610.0, 0.0029538831122068454
611.0, 0.0031152028522793544
612.0, 0.0031114401347758203
613.0, 0.003644667027898447
614.0, 0.004827956165711706
615.0, 0.006439166931251679
616.0, 0.007980624704909631
617.0, 0.006004415126221389
618.0, 0.005843648387791603
619.0, 0.007734441398430381
620.0, 0.01137708613411996
621.0, 0.009660847162960427
622.0, 0.008592713587566676
623.0, 0.008856322617931517
624.0, 0.01073917576878528
625.0, 0.011985570454994843
626.0, 0.013921279788115673
627.0, 0.015211686929350661
628.0, 0.015552830328937546
629.0, 0.016318644633783713
630.0, 0.01887268510280677
631.0, 0.019622167205330304
632.0, 0.019269444094116444
633.0, 0.02177996131344394
634.0, 0.022557843706422054
635.0, 0.0245868847789008
636.0, 0.027071744686054597
637.0, 0.028446839755512696
638.0, 0.032472371263185126
639.0, 0.0356023503032918
640.0, 0.03728425468823327
641.0, 0.03740642090096908
642.0, 0.03937687242932237
643.0, 0.04263761202592691
644.0, 0.046506115948714954
645.0, 0.05080924005871464
646.0, 0.056212145314602176
647.0, 0.06308594430058449
648.0, 0.07088705133549245
649.0, 0.0793724132795107
650.0, 0.0882610057078679
651.0, 0.0969829141706551
652.0, 0.11097610287837273
653.0, 0.12742913232526618
654.0, 0.1422642381277819
655.0, 0.16974132739051728
656.0, 0.1980850638939653
657.0, 0.23131599910631484
658.0, 0.27244018990725016
659.0, 0.32412940960680103
660.0, 0.38542996761809
661.0, 0.4560465373976697
662.0, 0.538445229806633
663.0, 0.6415763437227141
664.0, 0.7424907336817645
665.0, 0.8391732393943204
666.0, 0.923907441424124
667.0, 0.984616071529356
668.0, 0.9965288092389865
669.0, 0.972330108593164
670.0, 0.9148667567437581
671.0, 0.828918084169381
672.0, 0.734376505323002
673.0, 0.6376125607682057
674.0, 0.5553376345377702
675.0, 0.48988298664959484
676.0, 0.4186737550936813
677.0, 0.3740683865646005
678.0, 0.3352341426702255
679.0, 0.3008472706947478
680.0, 0.2764711036201119
681.0, 0.24361308312326801
682.0, 0.2147295073828312
683.0, 0.1889454373852993
684.0, 0.16465215203532663
685.0, 0.14220141176192805
686.0, 0.12253190132820517
687.0, 0.104923489633868
688.0, 0.08967004727099522
689.0, 0.07981778323227294
690.0, 0.07152981850267509
691.0, 0.06356944135371095
692.0, 0.056478177292607123
693.0, 0.05180179378438239
694.0, 0.04587228252381345
695.0, 0.04249517563841657
696.0, 0.040341002294718355
697.0, 0.03792550457893698
698.0, 0.03532406584775337
699.0, 0.032422912995453725
700.0, 0.030607809638194303
701.0, 0.029965588384310213
702.0, 0.02840376374183586
703.0, 0.02712928575004598
704.0, 0.027077516264929637
705.0, 0.027225786915726143
706.0, 0.025592580748318463
707.0, 0.026824844248895294
708.0, 0.02851827132325808
709.0, 0.031754942744407454
710.0, 0.03665760928361489
711.0, 0.03658207049639959
712.0, 0.041779257863873015
713.0, 0.042409853354509336
714.0, 0.03871573657723031
715.0, 0.04156969885032252
716.0, 0.03945808915563493
717.0, 0.03575995710631633
718.0, 0.032432004635240715
719.0, 0.031269954393121926
720.0, 0.025514029291003746
721.0, 0.022607033968848292
722.0, 0.020424595333238985
723.0, 0.01806891632928191
724.0, 0.017396957404327226
725.0, 0.017054659290731997
726.0, 0.015800484694392512
727.0, 0.0147163025972824
728.0, 0.016390587559309944
729.0, 0.01674138708795484
730.0, 0.01599097050037545
731.0, 0.01606185206850429
732.0, 0.017646112274756237
733.0, 0.012060254940085427
734.0, 0.016109242015937948
735.0, 0.018434905655742434
736.0, 0.016294357666765423
737.0, 0.013169690953770862
738.0, 0.015358518494439442
739.0, 0.016409277349456613
740.0, 0.016902167482938983
741.0, 0.01813550271830111
742.0, 0.017679671415590133
743.0, 0.01583939810472436
744.0, 0.014153432426020907
745.0, 0.013313002086757616
746.0, 0.013113611415699333
747.0, 0.010355057181660859
748.0, 0.009996801688343966
749.0, 0.009996952193704953
750.0, 0.006380809587401815
751.0, 0.005001520695342942
752.0, 0.006677317645312969
753.0, 0.006174256125937604
754.0, 0.002130540202923052
755.0, 0.0037069288859484266
756.0, 0.002908846679171717
757.0, 0.0038474852259323703
758.0, 0.004588080410902419
759.0, 0.0004085871883071296
760.0, 0.0018778863763086692
761.0, 0.001637029239782867
762.0, 0.0011155319970245258
763.0, 0.0014583015740431723
764.0, 0.0029051065442620705
765.0, 0.002542080314900031
766.0, 0.003218831217422029
767.0, 0.0036738359858240256
768.0, 0.0001978264462485016
769.0, 0.0008342685893739695
770.0, 0.0024113869277087568
771.0, 0.002900416398057497
772.0, 0.0013890969460851879
773.0, 0.0015142426528164776
774.0, 0.002063028116341868
775.0, 0.002995059477979214
776.0, 0.0038633515555095994
777.0, 0.003813722876623569
778.0, 0.0015909833157711044
779.0, 0.0011079538581453944
780.0, 0.0009222285023501287
781.0, 0.00013236079444971536
782.0, 0.0009942982770511075
783.0, 0.0016838067262614075
784.0, 0.001375081530962005
785.0, 0.0005656158654689669
786.0, 0.0006315881844643924
787.0, 0.0006968492209111748
788.0, 0.0005818699187912815
789.0, 0.0006006563753718087
790.0, 0.0008340836519357728
791.0, 0.00037746292999463085
792.0, 0.0009518395850801734
793.0, 0.0012171846722019842
794.0, 0.0010263202629803038
795.0, 0.0006917421026478312
796.0, 0.0007391427132206346
797.0, 0.001920635096443901
798.0, 0.002216820429131796
799.0, 0.0009279406060835895
800.0, 0.0010246047720898145
801.0, 0.0017331381007916462
802.0, 0.0015394100787444337
803.0, 0.001437090858769038
804.0, 0.0031927222226126248
805.0, 0.0012703605976659392
806.0, 0.0003657641856884389
807.0, 0.0002755550279871173
808.0, 0.0009769466442137204
809.0, 0.0028812844614280403
810.0, 0.0012980327065151233
811.0, 0.0010827825442881573
812.0, 0.0016750962599848904
813.0, 0.0016435454607836293
814.0, 0.0019140742364947782
815.0, 0.002458194174449271
816.0, 0.0028047160776399653
817.0, 0.002438376078771815
818.0, 0.0005036063361774734
819.0, 0.00282500451741386
820.0, 0.0032512755460514875
821.0, 0.0022103282731198172
822.0, 0.0008010603104939578
823.0, 0.0008426599223303124
824.0, 0.0008625158422094151
825.0, 0.0012268566436979631
826.0, 0.0018806881534433287
827.0, 0.0025153807701485073
828.0, 0.002106027574679411
829.0, 0.0013553763985340514
830.0, 0.0007825961246869996
831.0, 0.000622315109524452
832.0, 0.00046157521459252673
833.0, 0.0023844242648803646
834.0, 0.00243613270507116
835.0, 0.0023483980493440816
836.0, 0.00475012944924685
837.0, 0.001809585530378699
838.0, 0.0016186291359528223
839.0, 0.0022488212875433323
840.0, 0.0028788782910473573
841.0, 0.003509026694193117
842.0, 0.003378243633187
843.0, 0.0025558382400709145
844.0, 0.00202917777326559
845.0, 0.002554087322616362
846.0, 0.003780291464167484
847.0, 0.003502062557569719
848.0, 0.0037300146576461977
849.0, 0.004327132376842998
850.0, 0.004328100796214884
851.0, 0.002574338501580518
852.0, 0.005113643626591986
853.0, 0.006220814121581935
854.0, 0.00449967106746192
855.0, 0.004533578649175641
856.0, 0.005668900825273219
857.0, 0.0056026478298430325
858.0, 0.006415999357208282
859.0, 0.00968623416929401
860.0, 0.011707941412364475
861.0, 0.012571206248742332
862.0, 0.013645868676489691
863.0, 0.01570009958484575
864.0, 0.01932150112517921
865.0, 0.023361864826389234
866.0, 0.027661078836369975
867.0, 0.03346975392438754
868.0, 0.0409476307033344
869.0, 0.04874874685704324
870.0, 0.05673475726963164
871.0, 0.06525909933310207
872.0, 0.07020191951701019
873.0, 0.07008056034217895
874.0, 0.0778880981847439
875.0, 0.0764224572101443
876.0, 0.0755597067549968
877.0, 0.07389743748126869
878.0, 0.06658256825894077
879.0, 0.06003212113628409
880.0, 0.05928795758810415
881.0, 0.05725040188441267
882.0, 0.05282082310262428
883.0, 0.05085857770131776
884.0, 0.050425249103699145
885.0, 0.052670568857707954
886.0, 0.05508973021382726
887.0, 0.056272540542188346
888.0, 0.05830050068593738
889.0, 0.057081215045154954
890.0, 0.0545546575698301
891.0, 0.05151814923287194
892.0, 0.04825196672729207
893.0, 0.04149907389858967
894.0, 0.03539141446268265
895.0, 0.030305135532713377
896.0, 0.02711341463824816
897.0, 0.026922846194753523
898.0, 0.0241644846116396
899.0, 0.0211093361342066
900.0, 0.019763797349533468
901.0, 0.020109457031782553
902.0, 0.019351086813576657
903.0, 0.01708006616688889
904.0, 0.02082771507663303
905.0, 0.023252685326389612
906.0, 0.020846375475350835
907.0, 0.025071423856670893
908.0, 0.026838567273766503
909.0, 0.028891408976737146
910.0, 0.03245715823362432
911.0, 0.03783805140338422
912.0, 0.04040930178370446
913.0, 0.043364786130716176
914.0, 0.04449881100101235
915.0, 0.04336075929530625
916.0, 0.04035264272341535
917.0, 0.036184708022052786
918.0, 0.03309252586037671
919.0, 0.032951582485832444
920.0, 0.03462440851090684
921.0, 0.03382922722907137
922.0, 0.0321949970933404
923.0, 0.031322882359051105
924.0, 0.03143894836247203
925.0, 0.03199942808318147
926.0, 0.03092609965790102
927.0, 0.03533695661086524
928.0, 0.03565345792299122
929.0, 0.038019089725828716
930.0, 0.04655648067031881
931.0, 0.05301555913445106
932.0, 0.05921589866743058
933.0, 0.07061983186536104
934.0, 0.08334529795514745
935.0, 0.09250772893479631
936.0, 0.10138344332366013
937.0, 0.10339631192931314
938.0, 0.09782845172586602
939.0, 0.08755554807799404
940.0, 0.0771955536652047
941.0, 0.06775006918552537
942.0, 0.05653851426877073
943.0, 0.047765495304590296
944.0, 0.04253793281007835
945.0, 0.03995569936294815
946.0, 0.036582076681488225
947.0, 0.03608240545707942
948.0, 0.03570675262660351
949.0, 0.035356889355300576
950.0, 0.037820844946144856
951.0, 0.03668825755186346
952.0, 0.035504147655049466
953.0, 0.035911985765465
954.0, 0.038202944252497865
955.0, 0.040610813495002326
956.0, 0.04554439456981165
957.0, 0.04882782214132849
958.0, 0.05197654983453979
959.0, 0.0575622974957077
960.0, 0.07049725300083894
961.0, 0.07629679652873
962.0, 0.08986235336471422
963.0, 0.10530673478455457
964.0, 0.11939751100083157
965.0, 0.14796613931570546
966.0, 0.17734324869574536
967.0, 0.21182486989472496
968.0, 0.25457485791235934
969.0, 0.30397835619237856
970.0, 0.3367064671032569
971.0, 0.38039192797740007
972.0, 0.40771189535438745
973.0, 0.4135874761242809
974.0, 0.40058713116087186
975.0, 0.37885357178452395
976.0, 0.3579323322176486
977.0, 0.3341020340302806
978.0, 0.3097487194016097
979.0, 0.28978286284114646
980.0, 0.28329699542056264
981.0, 0.27887914480616666
982.0, 0.2865601635448755
983.0, 0.30020954990933324
984.0, 0.3103200926739431
985.0, 0.3546306902679366
986.0, 0.3900385250581361
987.0, 0.4345967903995811
988.0, 0.49282152856414574
989.0, 0.5608055226036177
990.0, 0.6077809733883143
991.0, 0.637248627944361
992.0, 0.6394402896247497
993.0, 0.6150009611261719
994.0, 0.5729569540398043
995.0, 0.5473951657352754
996.0, 0.530450916762749
997.0, 0.5342524883834862
998.0, 0.5538643698660626
999.0, 0.5739690770191078
1000.0, 0.5991305596268697
1001.0, 0.6279632504948767
1002.0, 0.639198676099966
1003.0, 0.6250256959789681
1004.0, 0.5867316296519937
1005.0, 0.5298906039839639
1006.0, 0.4642945112463806
1007.0, 0.40239766210733285
1008.0, 0.3497617069771945
1009.0, 0.30732443795105296
1010.0, 0.27091186587027427
1011.0, 0.24630392654138258
1012.0, 0.22611155766725624
1013.0, 0.21035565710223775
1014.0, 0.20275796100166577
1015.0, 0.19089888963626406
1016.0, 0.1817481743045347
1017.0, 0.17452320191634774
1018.0, 0.16909811546925266
1019.0, 0.1655868840553682
1020.0, 0.16303821733116408
1021.0, 0.16129627278122552
1022.0, 0.16186787382164833
1023.0, 0.1643522120517052
1024.0, 0.16730552565776685
1025.0, 0.17068648466584668
1026.0, 0.17073946741084367
1027.0, 0.17035144217492723
1028.0, 0.17081053207173305
1029.0, 0.17209277767054115
1030.0, 0.16750871268909226
1031.0, 0.165601119862423
1032.0, 0.1626283917066158
1033.0, 0.16033486636483776
1034.0, 0.1610700785431097
1035.0, 0.15346099595807622
1036.0, 0.1539014714619814
1037.0, 0.15572454667505678
1038.0, 0.15736890920101898
1039.0, 0.15973184946699873
1040.0, 0.16937739351384767
1041.0, 0.18094078971071648
1042.0, 0.1917442418574352
1043.0, 0.20659154450775793
1044.0, 0.2279339446992649
1045.0, 0.23858843833376978
1046.0, 0.24531783705130047
1047.0, 0.24541385161324641
1048.0, 0.23845587846220315
1049.0, 0.22385109925109037
1050.0, 0.19728194151281386
1051.0, 0.17921132409722093
1052.0, 0.1573907428991844
1053.0, 0.1347855027502781
1054.0, 0.11508669157064914
1055.0, 0.09898973874317843
1056.0, 0.08506735369887715
1057.0, 0.07384009402216546
1058.0, 0.06126444642159052
1059.0, 0.04851059978737821
1060.0, 0.046357121380329366
1061.0, 0.04322453856871944
1062.0, 0.036361403937251784
1063.0, 0.032748273596543774
1064.0, 0.03268869946582324
1065.0, 0.028390430698709595
1066.0, 0.028275241373534737
1067.0, 0.026292319215650863
1068.0, 0.024602553545380167
1069.0, 0.024326821047910126
1070.0, 0.02549914425560424
1071.0, 0.02395546030018579
1072.0, 0.02242531203047016
1073.0, 0.022503148347612297
1074.0, 0.02113210624098432
1075.0, 0.015015152695425565
1076.0, 0.019399619113166757
1077.0, 0.018442553041739047
1078.0, 0.01550636432140132
1079.0, 0.015062745429262713
1080.0, 0.01870051546370688
1081.0, 0.012867766689866092
1082.0, 0.01520471350676196
1083.0, 0.016578324073015745
1084.0, 0.015140935932557704
1085.0, 0.011886272991171532
1086.0, 0.011775989472794146
1087.0, 0.01147406155435549
1088.0, 0.01288668038899948
1089.0, 0.010979162770889724
1090.0, 0.006063989373696775
1091.0, 0.007190760716422033
1092.0, 0.0141672691856892
1093.0, 0.019387766763004355
1094.0, 0.015787947144852026
1095.0, 0.008053923221620797
1096.0, 0.009570756033398301
1097.0, 0.005980567885530987
1098.0, 0.007012833874929699
1099.0, 0.006830095939903124
1100.0, 0.005563528229365298
1101.0, 0.005865426847028973
1102.0, 0.00803810138294728
1103.0, 0.004349639339942508
1104.0, 0.0033406784679192785
1105.0, 0.006004561571483453
1106.0, 0.00983769147845413
1107.0, 0.007271714728686375
1108.0, 0.005280740571263242
1109.0, 0.007716701798964261
1110.0, 0.007925363075296555
1111.0, 0.004370004127333023
1112.0, 0.0052974279268434375
1113.0, 0.007836282872311017
1114.0, 0.0049828917828445025
1115.0, 0.004430603220886547
1116.0, 0.005781351953339866
1117.0, 0.002829144090118499
1118.0, 0.003927745737633281
1119.0, 0.00606220743388174
1120.0, 0.00587874647353816
1121.0, 0.00569624532834208
1122.0, 0.008630066884638198
1123.0, 0.011000336999966893
1124.0, 0.007862965157270288
1125.0, 0.007999510134503297
1126.0, 0.0061005109393602545
1127.0, 0.0013700531537437434
1128.0, 0.007040830043380756
1129.0, 0.0041659809741050454
1130.0, 0.004620420193634631
1131.0, 0.004410030466030067
1132.0, 0.003102992332284631
1133.0, 0.003976979363245764
1134.0, 0.0032719091366415322
1135.0, 0.004896117263959217
1136.0, 0.0035860778996671455
1137.0, 0.0033423958087317514
1138.0, 0.008305600975873626
1139.0, 0.0036852257245733573
1140.0, 0.004215264587957408
1141.0, 0.003466471470888936
1142.0, 0.002541732245577468
1143.0, 0.003035236450607503
1144.0, 0.005066398184782458
1145.0, 0.0030700292645784405
1146.0, 0.005553310475828388
1147.0, 0.007002043900335857
1148.0, 0.004876222616908157
1149.0, 0.00027622076094874215
1150.0, 0.0022536162066786047
1151.0, 0.0037904855441584376
1152.0, 0.0031064705155607174
1153.0, 0.0025005890083694277
1154.0, 0.003526903457605081
1155.0, 0.00045690063454135793
1156.0, 0.0039579481703105185
1157.0, 0.004384199491822125
1158.0, 0.004322194566833651
1159.0, 0.004395903974991179
1160.0, 0.001276013461379173
1161.0, 0.0006801090557545689
1162.0, 0.0036264793429290065
1163.0, 0.002908451847869157
1164.0, 0.00042457445517335066
1165.0, 0.0011076952704268362
1166.0, 0.00030509511209696953
1167.0, 0.0009184845705975795
1168.0, 0.0006132037154054832
1169.0, 0.001543972708304621
1170.0, 0.003649958345759692
1171.0, 0.0016732779217065866
1172.0, 0.0013223294335836756
1173.0, 0.00307003602109438
1174.0, 0.0035648207307845954
1175.0, 0.00224220811700595
1176.0, 0.0006934818073450079
1177.0, 0.0013878195301991803
1178.0, 0.0014290443484683336
1179.0, 0.0013218351031057832
1180.0, 0.001638445620999014
1181.0, 0.002071786096580264
1182.0, 0.0004867723708941662
1183.0, 0.00118898416684441
1184.0, 0.00290658473573816
1185.0, 0.0028094415167114607
1186.0, 0.001902267791858172
1187.0, 0.0035215180546631004
1188.0, 0.006258251180973582
1189.0, 0.0027507301385619257
1190.0, 0.0024002221676320294
1191.0, 0.003510382347651716
1192.0, 0.003078804368003125
1193.0, 0.0012275603150763916
1194.0, 0.0035125357033447225
1195.0, 0.002104031101791602
1196.0, 0.0005059118354730462
1197.0, 0.0012939457381345187
1198.0, 0.004652905806381258
1199.0, 0.0013905432468352982
1200.0, 0.005198160816556165
1201.0, 0.004069263429627281
1202.0, 0.004001158088698409
1203.0, 0.00814285315117665
1204.0, 0.007370435163249498
1205.0, 0.0014397848836803008
1206.0, 0.0037098615709930125
1207.0, 0.00444963342579207
1208.0, 0.002368325380756884
1209.0, 0.0016257427143673152
1210.0, 0.005833305154048675
1211.0, 0.0023947940764943963
1212.0, 0.0045831805725300104
1213.0, 0.007918735989188805
1214.0, 0.007301260171857912
1215.0, 0.0016152531632362098
1216.0, 0.006862911325698995
1217.0, 0.009281574456318761
1218.0, 0.00586271347127939
1219.0, 0.0018575059063596694
1220.0, 0.003454628555272909
1221.0, 0.007867804559411865
1222.0, 0.006629925696088548
1223.0, 0.008156803283009434
1224.0, 0.007974631568313902
1225.0, 0.005032837097209697
1226.0, 0.003066964395973043
1227.0, 0.00978031102478887
1228.0, 0.0077866975120475185
1229.0, 0.00655886116738562
1230.0, 0.004447172787739715
1231.0, 0.001812728174957679
1232.0, 0.008414311590413809
1233.0, 0.011190783534952935
1234.0, 0.005689391643052134
1235.0, 0.006129639128359829
1236.0, 0.008994206647774481
1237.0, 0.005228976051140568
1238.0, 0.007997381951942727
1239.0, 0.005958156171026157
1240.0, 0.005979548084077787
1241.0, 0.006848274977676205
1242.0, 0.007330721702086056
1243.0, 0.007255774696057334
1244.0, 0.005625102416358294
1245.0, 0.00646107724524611
1246.0, 0.006942496891382156
1247.0, 0.005041688298146151
1248.0, 0.002766197672581586
1249.0, 0.009047716817233027
1250.0, 0.006181861338946679
1251.0, 0.0037670244947336064
1252.0, 0.004584825058869496
1253.0, 0.006159950503787462
1254.0, 0.005163635656820674
1255.0, 0.005593073392335474
1256.0, 0.007582973891218599
1257.0, 0.006516238944643504
1258.0, 0.006686366654366033
1259.0, 0.007946403095220062
1260.0, 0.006354211737330264
1261.0, 0.005535998654323995
1262.0, 0.009293855482684948
1263.0, 0.005879432573589701
1264.0, 0.004185869480037762
1265.0, 0.008734152969032235
1266.0, 0.011446807157239973
1267.0, 0.0028920199628264002
1268.0, 0.003643760458570363
1269.0, 0.0059681336200221955
1270.0, 0.007329414561311357
1271.0, 0.0074490347419935
1272.0, 0.006809221906856329
1273.0, 0.003480352502721445
1274.0, 0.0035361663317875678
1275.0, 0.003733121179579782
1276.0, 0.004051577329838577
1277.0, 0.0051369849002612135
1278.0, 0.003024714692685647
1279.0, 0.0032795688489562114
1280.0, 0.005682201704863403
1281.0, 0.0064855958817845675
1282.0, 0.004735422177738345
1283.0, 0.002452486608904479
1284.0, 0.003891829242811884
1285.0, 0.0036243348312153625
1286.0, 0.0023002386508877474
1287.0, 0.0012122346423198984
1288.0, 0.0016326968950099658
1289.0, 0.003824179883850436
1290.0, 0.000851450647430817
1291.0, 0.003718190040980866
1292.0, 0.0059287327873349905
1293.0, 0.00563206186480826
1294.0, 0.0035981707117146563
1295.0, 0.0024658367429888717
1296.0, 0.0005907485790616495
1297.0, 0.0002104725945593458
1298.0, 0.0017834112082784023
1299.0, 0.0023048574726425
1300.0, 0.0013688554429712627
1301.0, 0.004608133285855036
1302.0, 0.003499719001494908
1303.0, 0.00632297569395623
1304.0, 0.006844207195424884
1305.0, 0.005122548267398873
1306.0, 0.0033000481733355957
1307.0, 0.002175237512734655
1308.0, 0.005849622144041276
1309.0, 0.005803521833576466
1310.0, 0.0071297248337575106
1311.0, 0.006966607071251112
1312.0, 0.0024040279953157313
1313.0, 0.000425397514450007
1314.0, 0.005444435402311248
1315.0, 0.004337912208259258
1316.0, 0.002504606785738332
1317.0, 0.004696160550568841
1318.0, 0.009650138446476891
1319.0, 0.0013450746655441067
1320.0, 0.005457263164546864
1321.0, 0.008052332112433037
1322.0, 0.004952821727102992
1323.0, 0.003524002114749309
1324.0, 0.009528287344630482
1325.0, 0.0022554013002255074
1326.0, 0.0004308227895609989
1327.0, 0.006803560658052183
1328.0, 0.00597357654770302
1329.0, 0.001356642601342317
1330.0, 0.004310384653527738
1331.0, 0.009040130074823613
1332.0, 0.0033011307017909793
1333.0, 0.006941771602032758
1334.0, 0.006135947694729664
1335.0, 0.002216085549601274
1336.0, 0.004146492611581397
1337.0, 0.008057496896010225
1338.0, 0.0026642959268950534
1339.0, 0.0029443785285575863
1340.0, 0.0035697770152220507
1341.0, 0.002226418346128694
1342.0, 0.0011052930786984647
1343.0, 0.0075263518220877665
1344.0, 0.006308950636565294
1345.0, 0.0036711108636276924
1346.0, 0.006415391561882769
1347.0, 0.00973904927056416
1348.0, 0.006112723806932912
1349.0, 0.0007943069906172916
1350.0, 0.008426128566515392
1351.0, 0.006760916913827994
1352.0, 0.005085735002623379
1353.0, 0.006846013015674286
1354.0, 0.009640591429920294
1355.0, 0.007058071229134833
1356.0, 0.005114092237876093
1357.0, 0.007782363260471484
1358.0, 0.006077753736379044
1359.0, 0.00673135240821446
1360.0, 0.012697421267884323
1361.0, 0.002132347795306766
1362.0, 0.0059001212346966505
1363.0, 0.008634618803675428
1364.0, 0.009959005913028566
1365.0, 0.009472734025858413
1366.0, 0.008623883238353627
1367.0, 0.01149910370449355
1368.0, 0.006561295523316144
1369.0, 0.0032152449646447217
1370.0, 0.00411404232274226
1371.0, 0.004685181822782032
1372.0, 0.004397775689046458
1373.0, 0.01045765737015723
1374.0, 0.005731835450743504
1375.0, 0.0062445239308031135
1376.0, 0.007633359445424124
1377.0, 0.006807543755809084
1378.0, 0.005066540869331443
1379.0, 0.007393040454535536
1380.0, 0.010878015432537472
1381.0, 0.005055290082004283
1382.0, 0.007383767736671348
1383.0, 0.012316798059952847
1384.0, 0.013130553977898658
1385.0, 0.009253859362992205
1386.0, 0.015604479039560278
1387.0, 0.007581001553136768
1388.0, 0.007964113781198512
1389.0, 0.010053997551882023
1390.0, 0.007923553783946106
1391.0, 0.0028543003305233267
1392.0, 0.009276827128446985
1393.0, 0.012623105030042032
1394.0, 0.012830676021830214
1395.0, 0.011107340901301794
1396.0, 0.009312942400444123
1397.0, 0.009305153372004714
1398.0, 0.012033158067054522
1399.0, 0.00692476838189136
1400.0, 0.004116939899121386
1401.0, 0.0071582063517939545
1402.0, 0.009276330720278676
1403.0, 0.0061898413169753416
1404.0, 0.0022896670089501475
1405.0, 0.004781900652977033
1406.0, 0.008311290525185398
1407.0, 0.005702148797239963
1408.0, 0.0077823850142746285
1409.0, 0.010427415637839003
1410.0, 0.0011338709192507115
1411.0, 0.006673886319471871
1412.0, 0.0072880476549947466
1413.0, 0.003489247724022076
1414.0, 0.00696074400885611
1415.0, 0.011179256465759952
1416.0, 0.006469609109057282
1417.0, 0.004767681402179375
1418.0, 0.0065002614276532065
1419.0, 0.006994641551486448
1420.0, 0.0055776995148473785
1421.0, 0.005253443094548295
1422.0, 0.00612682360087752
1423.0, 0.003218631702096724
1424.0, 0.004072620422566457
1425.0, 0.01179470188398149
1426.0, 0.009421933788936084
1427.0, 0.0072074069412959045
1428.0, 0.00722710981676046
1429.0, 0.002711075640155343
1430.0, 0.002201287968745768
1431.0, 0.007781927967571137
1432.0, 0.008284721173525928
1433.0, 0.0048022924135085665
1434.0, 0.004985053665111532
1435.0, 0.009833550443259464
1436.0, 0.00257669082870931
1437.0, 0.0076532676388407885
1438.0, 0.007316119664948008
1439.0, 0.0036093546567420214
1440.0, 0.003429489108432319
1441.0, 0.008538193331085402
1442.0, 0.012080719486155859
1443.0, 0.0012887549421291443
1444.0, 0.0038602436300408725
1445.0, 0.005776317586138225
1446.0, 0.004525452657826271
1447.0, 0.004219957380711751
1448.0, 0.007408785628822793
1449.0, 0.004765812546000172
1450.0, 0.0029602780778952343
1451.0, 0.009846071838019145
1452.0, 0.006311762415674752
1453.0, 0.0025988047613781768
1454.0, 0.00615679988563794
1455.0, 0.008169934383986336
1456.0, 0.0007141343303177241
1457.0, 0.006678508683598585
1458.0, 0.009542238531085335
1459.0, 0.005525215623906503
1460.0, 0.00395769811638252
1461.0, 0.009816524829481829
1462.0, 0.0005250023566125668
1463.0, 0.005079734748639689
1464.0, 0.007854480788714514
1465.0, 0.0050881425283516735
1466.0, 0.0020147765509969952
1467.0, 0.002842102885816557
1468.0, 0.005853108741515307
1469.0, 0.003509103836122051
1470.0, 0.006805635383777289
1471.0, 0.008123375279149333
1472.0, 0.005842388851801687
1473.0, 0.0037054359451307336
1474.0, 0.004962132923560583
1475.0, 0.006125980291476782
1476.0, 0.0040755933399164
1477.0, 0.004897943785471597
1478.0, 0.004419295486560373
1479.0, 0.002157781245387485
1480, 0.0
1481, 0.0
1482, 0.0
1483, 0.0
1484, 0.0
1485, 0.0
1486, 0.0
1487, 0.0
1488, 0.0
1489, 0.0
1490, 0.0
1491, 0.0
1492, 0.0
1493, 0.0
1494, 0.0
1495, 0.0
1496, 0.0
1497, 0.0
1498, 0.0
1499, 0.0
1500, 0.0
1501, 0.0
1502, 0.0
1503, 0.0
1504, 0.0
1505, 0.0
1506, 0.0
1507, 0.0
1508, 0.0
1509, 0.0
1510, 0.0
1511, 0.0
1512, 0.0
1513, 0.0
1514, 0.0
1515, 0.0
1516, 0.0
1517, 0.0
1518, 0.0
1519, 0.0
1520, 0.0
1521, 0.0
1522, 0.0
1523, 0.0
1524, 0.0
1525, 0.0
1526, 0.0
1527, 0.0
1528, 0.0
1529, 0.0
1530, 0.0
1531, 0.0
1532, 0.0
1533, 0.0
1534, 0.0
1535, 0.0
1536, 0.0
1537, 0.0
1538, 0.0
1539, 0.0
1540, 0.0
1541, 0.0
1542, 0.0
1543, 0.0
1544, 0.0
1545, 0.0
1546, 0.0
1547, 0.0
1548, 0.0
1549, 0.0
1550, 0.0
1551, 0.0
1552, 0.0
1553, 0.0
1554, 0.0
1555, 0.0
1556, 0.0
1557, 0.0
1558, 0.0
1559, 0.0
1560, 0.0
1561, 0.0
1562, 0.0
1563, 0.0
1564, 0.0
1565, 0.0
1566, 0.0
1567, 0.0
1568, 0.0
1569, 0.0
1570, 0.0
1571, 0.0
1572, 0.0
1573, 0.0
1574, 0.0
1575, 0.0
1576, 0.0
1577, 0.0
1578, 0.0
1579, 0.0
1580, 0.0
1581, 0.0
1582, 0.0
1583, 0.0
1584, 0.0
1585, 0.0
1586, 0.0
1587, 0.0
1588, 0.0
1589, 0.0
1590, 0.0
1591, 0.0
1592, 0.0
1593, 0.0
1594, 0.0
1595, 0.0
1596, 0.0
1597, 0.0
1598, 0.0
1599, 0.0
