30, 0.0
31, 0.0
32, 0.0
33, 0.0
34, 0.0
35, 0.0
36, 0.0
37, 0.0
38, 0.0
39, 0.0
40, 0.0
41, 0.0
42, 0.0
43, 0.0
44, 0.0
45, 0.0
46, 0.0
47, 0.0
48, 0.0
49, 0.0
50, 0.0
51, 0.0
52, 0.0
53, 0.0
54, 0.0
55, 0.0
56, 0.0
57, 0.0
58, 0.0
59, 0.0
60, 0.0
61, 0.0
62, 0.0
63, 0.0
64, 0.0
65, 0.0
66, 0.0
67, 0.0
68, 0.0
69, 0.0
70, 0.0
71, 0.0
72, 0.0
73, 0.0
74, 0.0
75, 0.0
76, 0.0
77, 0.0
78, 0.0
79, 0.0
80, 0.0
81, 0.0
82, 0.0
83, 0.0
84, 0.0
85, 0.0
86, 0.0
87, 0.0
88, 0.0
89, 0.0
90, 0.0
91, 0.0
92, 0.0
93, 0.0
94, 0.0
95, 0.0
96, 0.0
97, 0.0
98, 0.0
99, 0.0
100, 0.0
101, 0.0
102, 0.0
103, 0.0
104, 0.0
105, 0.0
106, 0.0
107, 0.0
108, 0.0
109, 0.0
110, 0.0
111, 0.0
112, 0.0
113, 0.0
114, 0.0
115, 0.0
116, 0.0
117, 0.0
118, 0.0
119, 0.0
120, 0.0
121, 0.0
122, 0.0
123, 0.0
124, 0.0
125, 0.0
126, 0.0
127, 0.0
128, 0.0
129, 0.0
130, 0.0
131, 0.0
132, 0.0
133, 0.0
134, 0.0
135, 0.0
136, 0.0
137, 0.0
138, 0.0
139, 0.0
140, 0.0
141, 0.0
142, 0.0
143, 0.0
144, 0.0
145, 0.0
146, 0.0
147.0, 0.00042604420352199916
148.0, 0.0008908779847267965
149.0, 5.18007844269564e-05
150.0, 0.0013761094190490597
151.0, 0.006468495159280315
152.0, 0.005577912824409578
153.0, 0.0025459861896699977
154.0, 0.0010871309111378257
155.0, 0.0024938232690748224
156.0, 0.008040286790434604
157.0, 0.010550923222993168
158.0, 0.00867787343609925
159.0, 0.008944686105537857
160.0, 0.014247559781686958
161.0, 0.02504037315769392
162.0, 0.03539299292493747
163.0, 0.02205311413601949
164.0, 0.029344976130254885
165.0, 0.04239148410412786
166.0, 0.04483309376816174
167.0, 0.03742978264982746
168.0, 0.04030112436136175
169.0, 0.04198990805991016
170.0, 0.042621659685699684
171.0, 0.049279895930278254
172.0, 0.05089881057146398
173.0, 0.053144236351364754
174.0, 0.057128143690068627
175.0, 0.06068226553788553
176.0, 0.05721879577566179
177.0, 0.0588738103224338
178.0, 0.061015519023433266
179.0, 0.06092905604157394
180.0, 0.06381571378967418
181.0, 0.06635587334727834
182.0, 0.0743487013331312
183.0, 0.07850307906667736
184.0, 0.07268916256214374
185.0, 0.08753621621267624
186.0, 0.09727019064596791
187.0, 0.10127240443749835
188.0, 0.11379215864782688
189.0, 0.1314552665684907
190.0, 0.135282865716505
191.0, 0.1283479429794266
192.0, 0.12358442750738513
193.0, 0.13406518702087544
194.0, 0.12022887747585088
195.0, 0.12359044821920402
196.0, 0.13285560584866699
197.0, 0.12183799283873857
198.0, 0.11862967851295052
199.0, 0.12050575436374053
200.0, 0.12692108152085804
201.0, 0.13385735360663334
202.0, 0.13297146130519155
203.0, 0.11946779184348959
204.0, 0.10464875411852588
205.0, 0.10330667115046421
206.0, 0.11395926804326541
207.0, 0.11015978711520734
208.0, 0.10261468190986726
209.0, 0.09478357814549253
210.0, 0.08734381643184096
211.0, 0.08204722065389831
212.0, 0.06601681854531856
213.0, 0.05255581539014046
214.0, 0.04468464141634633
215.0, 0.036346475412063435
216.0, 0.013770600021660858
217.0, 0.007904504800367711
218.0, 0.009564282830976292
219.0, 0.003589952040240223
220.0, 0.005344648164814239
221.0, 0.00616991817157761
222.0, 0.003764629609886334
223.0, 0.003213588322200625
224.0, 0.005663107131781987
225.0, 0.007200151100091286
226.0, 0.0035816593217598484
227.0, 0.006572585699864456
228.0, 0.017168849287497814
229.0, 0.007243133004525991
230.0, 0.003754293058692054
231.0, 0.0020747827831556777
232.0, 0.006219065585548875
233.0, 0.02344768569470539
234.0, 0.03919553380602513
235.0, 0.05031138027597201
236.0, 0.061930707825592284
237.0, 0.07800275088875348
238.0, 0.0930253171433493
239.0, 0.10783207894044138
240.0, 0.11388548439150123
241.0, 0.12503072798995538
242.0, 0.15374122376041746
243.0, 0.15932861600798148
244.0, 0.17135586762346844
245.0, 0.18063725849313342
246.0, 0.1871016924435228
247.0, 0.21314240503002527
248.0, 0.19817307914298798
249.0, 0.18214679689692678
250.0, 0.17030402044883014
251.0, 0.15339968640155202
252.0, 0.16153596426427771
253.0, 0.15581426186069744
254.0, 0.1399435883115424
255.0, 0.1239827673620105
256.0, 0.11127705631958269
257.0, 0.11834778679870651
258.0, 0.11506964542940662
259.0, 0.10687982276029426
260.0, 0.11005883707651593
261.0, 0.10742267448727677
262.0, 0.10092057384672017
263.0, 0.09394970124237932
264.0, 0.08492395059067791
265.0, 0.07249903885178455
266.0, 0.07669427960311898
267.0, 0.0809014738286948
268.0, 0.07708737282804637
269.0, 0.07088274080554005
270.0, 0.07018528887385132
271.0, 0.06292762476402095
272.0, 0.054498814444033
273.0, 0.04958382196221192
274.0, 0.04775944671520034
275.0, 0.04484497521829036
276.0, 0.03315170760534053
277.0, 0.02820503477074514
278.0, 0.033687328548125256
279.0, 0.03871065946519803
280.0, 0.023619474929824087
281.0, 0.021813889021473132
282.0, 0.01744050615523102
283.0, 0.002181863912363218
284.0, 0.006135045821087301
285.0, 0.0036858218206212235
286.0, 0.0071258677097279614
287.0, 0.022429976945137167
288.0, 0.013759331510088492
289.0, 0.013550983962556117
290.0, 0.010557687308732175
291.0, 0.004369001753695578
292.0, 0.014385131958888952
293.0, 0.013775353756169829
294.0, 0.014755748894630574
295.0, 0.028677770550526224
296.0, 0.038342634513188534
297.0, 0.03881426332552725
298.0, 0.04909655109707314
299.0, 0.06112784958710965
300.0, 0.0715413963920533
301.0, 0.08247082553740039
302.0, 0.09588498429324509
303.0, 0.10962760102289396
304.0, 0.11970191414382773
305.0, 0.13918448911483383
306.0, 0.1627856496772
307.0, 0.1776502681483602
308.0, 0.18981190110102247
309.0, 0.19322280585871124
310.0, 0.20560674144964564
311.0, 0.22701377646110274
312.0, 0.2396784533485526
313.0, 0.24540033504970477
314.0, 0.2555069352839425
315.0, 0.2634041233550869
316.0, 0.2617603498084685
317.0, 0.254576063530967
318.0, 0.26960096922990257
319.0, 0.2706430436365213
320.0, 0.2619327408227495
321.0, 0.2605804836480281
322.0, 0.2577861567509096
323.0, 0.246776435685089
324.0, 0.2360748491890483
325.0, 0.22557336615885687
326.0, 0.21567593694938114
327.0, 0.21883920704757495
328.0, 0.21409927133002746
329.0, 0.2064083352897611
330.0, 0.19584672950456275
331.0, 0.18211860546437234
332.0, 0.17764729804564183
333.0, 0.17988901453284947
334.0, 0.1821629600524855
335.0, 0.18141769535007263
336.0, 0.17822504523967808
337.0, 0.1746718133329473
338.0, 0.16590705418128618
339.0, 0.1676621943894093
340.0, 0.18051171749349884
341.0, 0.18657439453581295
342.0, 0.1987251793736297
343.0, 0.20140079597304555
344.0, 0.20510912915555032
345.0, 0.21444666813216057
346.0, 0.21945000836143727
347.0, 0.24085860522626498
348.0, 0.25880984847023875
349.0, 0.26983852668196573
350.0, 0.28348466836746117
351.0, 0.3065683160249395
352.0, 0.33197743979055117
353.0, 0.35285704168818477
354.0, 0.3750887849338948
355.0, 0.4040055047244179
356.0, 0.4396583383516967
357.0, 0.4808531470129652
358.0, 0.5113140682831484
359.0, 0.5394546210805377
360.0, 0.5786660721595932
361.0, 0.6324043824556594
362.0, 0.6769920136678771
363.0, 0.7043385319797506
364.0, 0.7351003968720934
365.0, 0.778823721615547
366.0, 0.8069098814892245
367.0, 0.8436830561007473
368.0, 0.8857060055625252
369.0, 0.9274602048848527
370.0, 0.959461600730878
371.0, 0.9679326076656201
372.0, 0.980420124793562
373.0, 0.9929194083390934
374.0, 0.9995560619126441
375.0, 0.9979589696558167
376.0, 0.9924630998273277
377.0, 0.99441385417874
378.0, 0.9854940203141299
379.0, 0.9637750577824405
380.0, 0.9404665817617062
381.0, 0.9219090435587466
382.0, 0.8820728014367981
383.0, 0.8492023148323491
384.0, 0.821884964174151
385.0, 0.7863364333431432
386.0, 0.7361807679311955
387.0, 0.6809175989613502
388.0, 0.6421366802243261
389.0, 0.6033223127008424
390.0, 0.556116684970612
391.0, 0.5141389051081684
392.0, 0.4726687093768735
393.0, 0.42722161527712466
394.0, 0.3866485389180409
395.0, 0.3571606525629113
396.0, 0.33326193770731094
397.0, 0.2908318428994704
398.0, 0.2638236834594062
399.0, 0.24350630939279863
400.0, 0.21778248169547926
401.0, 0.190151941935748
402.0, 0.17570507259879317
403.0, 0.150947279720288
404.0, 0.1267980432193848
405.0, 0.10942872325343789
406.0, 0.09416412331721902
407.0, 0.0775271460500301
408.0, 0.06561228694556534
409.0, 0.05395129748376266
410.0, 0.041160911511126316
411.0, 0.029745739022691946
412.0, 0.02237895425516709
413.0, 0.028583347084270364
414.0, 0.02277981666456906
415.0, 0.010694008069848954
416.0, 0.008231991647062946
417.0, 0.00306257364830415
418.0, 0.0020854718931922127
419.0, 0.005276384817972714
420.0, 0.005535912820164026
421.0, 0.003392805716988448
422.0, 0.017111351878025132
423.0, 0.02039093919325205
424.0, 0.02026782483747463
425.0, 0.022014073639845314
426.0, 0.019287438378010464
427.0, 0.004851263868827123
428.0, 0.004031258622354653
429.0, 0.0014756121521341634
430.0, 0.003067307642074305
431.0, 0.004323816441439763
432.0, 0.006646807830800928
433.0, 0.0023765156101151945
434.0, 0.015963653111309904
435.0, 0.019238081587557503
436.0, 0.020408399864649863
437.0, 0.030623859994405738
438.0, 0.024802204890226262
439.0, 0.04211538226329269
440.0, 0.05293573203488612
441.0, 0.053356928535996904
442.0, 0.05542592602225264
443.0, 0.06701163095916285
444.0, 0.07088718641346649
445.0, 0.07914227282167012
446.0, 0.09278407707336286
447.0, 0.10516864310290801
448.0, 0.1082628955134619
449.0, 0.12336888960699044
450.0, 0.12738173148834112
451.0, 0.14161006524296482
452.0, 0.16266272835660026
453.0, 0.16990346151598335
454.0, 0.17719482698023106
455.0, 0.1839231793271508
456.0, 0.19458384071597348
457.0, 0.21085620561670482
458.0, 0.22930654509784337
459.0, 0.24290719549718745
460.0, 0.25224309711498283
461.0, 0.26584883501485707
462.0, 0.2766003902921939
463.0, 0.2841610448769408
464.0, 0.29736576519709523
465.0, 0.30713706766056603
466.0, 0.32059501796120915
467.0, 0.3429749360607424
468.0, 0.3624179123654036
469.0, 0.36894348302506247
470.0, 0.37769773428920683
471.0, 0.3848888405112475
472.0, 0.3855135828865548
473.0, 0.3873203930288929
474.0, 0.3877674450697736
475.0, 0.3796850892839661
476.0, 0.38378917740008234
477.0, 0.3798785474859412
478.0, 0.36001528733066457
479.0, 0.3421878480562763
480.0, 0.33331814225593936
481.0, 0.3097753443229058
482.0, 0.30035723905459877
483.0, 0.2852512522725243
484.0, 0.2639199581067237
485.0, 0.24652175911230645
486.0, 0.23033636223860002
487.0, 0.20760794740691602
488.0, 0.19967447261927057
489.0, 0.18448653419127425
490.0, 0.16562949967406848
491.0, 0.15367690776839354
492.0, 0.14859544442211117
493.0, 0.14574654382940389
494.0, 0.12245391475228865
495.0, 0.10354045940745801
496.0, 0.0959998757396495
497.0, 0.08775823477949808
498.0, 0.0998424615284286
499.0, 0.07188813597751649
500.0, 0.05831978875452319
501.0, 0.06152758025025343
502.0, 0.06020681634662979
503.0, 0.05979649099591543
504.0, 0.0506256379328606
505.0, 0.04008591299053915
506.0, 0.034319407378827216
507.0, 0.033986359958333205
508.0, 0.033033992212943855
509.0, 0.019895098245676836
510.0, 0.020261056579206193
511.0, 0.020672915910519816
512.0, 0.010480916659794679
513.0, 0.0014564193431504066
514.0, 0.0076087360807703995
515.0, 0.01945386109852286
516.0, 0.01242044074280051
517.0, 0.008458631181267471
518.0, 0.006983623489564691
519.0, 0.0009060969424657712
520.0, 0.004587514541112065
521.0, 0.007332503175186983
522.0, 0.005659634330337553
523.0, 0.002384118578569047
524.0, 0.0011998761665287466
525.0, 0.003770503260530059
526.0, 0.0007805561101941668
527.0, 0.0006308708815281177
528.0, 0.0039162143955822175
529.0, 0.00543453547257952
530.0, 0.0035282985721454734
531.0, 0.0008480467192635108
532.0, 0.0049350505857424
533.0, 0.006002159709547053
534.0, 0.0027832402844149865
535.0, 0.0001276841049694131
536.0, 0.0005615722408238561
537.0, 0.0009599315093801516
538.0, 0.0027530461273344736
539.0, 0.00518293666171732
540.0, 0.008425551328647413
541.0, 0.00923189209007069
542.0, 0.01634369075409635
543.0, 0.017369717773633934
544.0, 0.019217380359890193
545.0, 0.019460074500405756
546.0, 0.019769607980222065
547.0, 0.02562029580591003
548.0, 0.033237018395424645
549.0, 0.024430003669408874
550.0, 0.028662978850567466
551.0, 0.03763304056380595
552.0, 0.04159115464355817
553.0, 0.04140234501334528
554.0, 0.04419768407726919
555.0, 0.059928880340341405
556.0, 0.05962359649114985
557.0, 0.053461196044923415
558.0, 0.058107394552074476
559.0, 0.07011257729578754
560.0, 0.0679411148240883
561.0, 0.07148073593979541
562.0, 0.07173675884874246
563.0, 0.07228214848628081
564.0, 0.07765268855015944
565.0, 0.08386119300316677
566.0, 0.08588364760410686
567.0, 0.09673320056988716
568.0, 0.09517431776371839
569.0, 0.08944197078162473
570.0, 0.08870049429473499
571.0, 0.09157364247636643
572.0, 0.09200453826508877
573.0, 0.10903555272995007
574.0, 0.10442712917463796
575.0, 0.10307222696078817
576.0, 0.11092122809933552
577.0, 0.11303772188015786
578.0, 0.10448005361707959
579.0, 0.09707883759185976
580.0, 0.11406224833916838
581.0, 0.1241429457462105
582.0, 0.116728321946898
583.0, 0.10701792705561594
584.0, 0.11955779960552311
585.0, 0.12182934614580722
586.0, 0.11468310885837113
587.0, 0.11817762199912889
588.0, 0.12308942205732423
589.0, 0.12240595171685725
590.0, 0.12419853528824006
591.0, 0.11542513625765345
592.0, 0.1052915917209686
593.0, 0.09760856631249358
594.0, 0.10107353987239506
595.0, 0.11011186137284028
596.0, 0.11004380385116255
597.0, 0.11267150001449948
598.0, 0.10854098503189871
599.0, 0.10568136541305734
600.0, 0.10306093119143916
601.0, 0.1057988805090364
602.0, 0.11587921430716212
603.0, 0.11108318040743491
604.0, 0.10537605630938601
605.0, 0.10997836013350631
606.0, 0.10875566110804656
607.0, 0.10804472139396375
608.0, 0.11810724006114257
609.0, 0.11779858513134951
610.0, 0.10766629529677252
611.0, 0.11786783242988479
612.0, 0.1279179843084679
613.0, 0.12294093828627256
614.0, 0.1121840650826557
615.0, 0.1157534041418666
616.0, 0.12099302956530927
617.0, 0.11582686725334027
618.0, 0.12006871213441249
619.0, 0.1247914518712861
620.0, 0.12330959272350142
621.0, 0.1240455755877268
622.0, 0.13410364049813844
623.0, 0.13625881092910297
624.0, 0.13241759341102094
625.0, 0.13143306018335235
626.0, 0.12991593928242143
627.0, 0.12217189682335697
628.0, 0.12527677705934384
629.0, 0.12448208276373665
630.0, 0.12383073495566714
631.0, 0.12754178456610757
632.0, 0.12868817358055984
633.0, 0.12515610547029646
634.0, 0.12494493540678123
635.0, 0.12382295079324675
636.0, 0.11723059438503171
637.0, 0.11358414912868693
638.0, 0.12062588490274277
639.0, 0.12271299796630392
640.0, 0.10664169054951517
641.0, 0.10448710380675588
642.0, 0.09481767921863264
643.0, 0.0859789508542535
644.0, 0.07687956598410213
645.0, 0.07154831832406165
646.0, 0.07089543194337415
647.0, 0.06611294604027758
648.0, 0.06304428018042871
649.0, 0.054107105709387704
650.0, 0.05358523665606683
651.0, 0.05440827365206772
652.0, 0.047599417520569294
653.0, 0.03942782122990683
654.0, 0.04074240332957947
655.0, 0.030160830919326476
656.0, 0.029852218634746415
657.0, 0.02885347556506349
658.0, 0.0285782842617082
659.0, 0.03234091649618087
660.0, 0.028925126554060918
661.0, 0.031785203426388645
662.0, 0.02820798109246699
663.0, 0.0172712928447231
664.0, 0.010113017520150536
665.0, 0.005566492242678292
666.0, 0.0028051473139865417
667.0, 0.015334642754328156
668.0, 0.01486150738704307
669.0, 0.013181984300744768
670.0, 0.00893490857402475
671.0, 0.006472068088734657
672.0, 0.007082157326687625
673.0, 0.0037424598887110297
674.0, 0.0032423221501093856
675.0, 0.01081886165137752
676.0, 0.0004570723025179085
677.0, 0.008017621580326185
678.0, 0.004727221196235098
679.0, 0.016869240028708887
680.0, 0.0056289440334938885
681.0, 0.0016216660394148307
682.0, 0.00020937100269385965
683.0, 0.006709681650586713
684.0, 0.014638355191767548
685.0, 0.011984274460714157
686.0, 0.0034876641796153414
687.0, 0.003849399986423321
688.0, 0.007884174840309477
689.0, 0.002996253296547846
690.0, 0.006553468039116573
691.0, 0.004759208901106127
692.0, 0.008674343626129156
693.0, 0.010251084379284391
694.0, 0.008587288620631146
695.0, 0.010003209391911788
696.0, 0.0027286295312243204
697.0, 0.0037653361288917304
698.0, 0.0048172654491447295
699.0, 0.0005328407358264635
700.0, 0.00811867404413567
701.0, 0.00471151295949949
702.0, 0.004791583657425354
703.0, 0.002582744551167244
704.0, 0.0031497514773715846
705.0, 0.00352811018503782
706.0, 0.01126088092384416
707.0, 0.013408274037604752
708.0, 0.01683198967809057
709.0, 0.021634164910786027
710.0, 0.016189751239333094
711.0, 0.014245652467118253
712.0, 0.019579925655377944
713.0, 0.021737334548153204
714.0, 0.016540631402930377
715.0, 0.027216933297426926
716.0, 0.029331898581327266
717.0, 0.03562000261963798
718.0, 0.05010621359281568
719.0, 0.059017817378968475
720.0, 0.05943323669526632
721.0, 0.06418106196767218
722.0, 0.07331647443191423
723.0, 0.07935725020650607
724.0, 0.07333729004315803
725.0, 0.07901412834464776
726.0, 0.08820413314773064
727.0, 0.09421965092344482
728.0, 0.10661731862962291
729.0, 0.11043600594384184
730.0, 0.1350376926306595
731.0, 0.14852883123044347
732.0, 0.15261243342316372
733.0, 0.16515920318154387
734.0, 0.18466606723704815
735.0, 0.19100521401379156
736.0, 0.19956152138174146
737.0, 0.2107092978498417
738.0, 0.21925712878483775
739.0, 0.22973052260078927
740.0, 0.24532549932032438
741.0, 0.2635122970290973
742.0, 0.2800531555041963
743.0, 0.2919583052076861
744.0, 0.31021063406678656
745.0, 0.3348181769216249
746.0, 0.3458491116206634
747.0, 0.365032338595552
748.0, 0.38677527729196853
749.0, 0.39536120169830286
750.0, 0.4172911093931863
751.0, 0.4339484308915814
752.0, 0.4626051175674415
753.0, 0.48042137763736587
754.0, 0.4829538379748244
755.0, 0.49182731721614464
756.0, 0.5083411586266213
757.0, 0.5166797385348546
758.0, 0.5443913001508672
759.0, 0.5516094865044758
760.0, 0.571675012938633
761.0, 0.5874528632783327
762.0, 0.5898356354410952
763.0, 0.5893572508436392
764.0, 0.5948764750638632
765.0, 0.6041595839999367
766.0, 0.6207130766286989
767.0, 0.6237035471746637
768.0, 0.6103906130018683
769.0, 0.5981683435125242
770.0, 0.5945739203951915
771.0, 0.5895507933559132
772.0, 0.5745307572991178
773.0, 0.558034508934834
774.0, 0.5425922436259755
775.0, 0.5347300882779873
776.0, 0.5162307143505043
777.0, 0.4978566901139611
778.0, 0.48800868389319585
779.0, 0.4771955827332326
780.0, 0.46530557989713595
781.0, 0.44158251911546187
782.0, 0.4373203609991028
783.0, 0.40731747800805723
784.0, 0.3941166745821109
785.0, 0.3894344040870531
786.0, 0.37020519786920747
787.0, 0.3528827507946794
788.0, 0.34529061002578676
789.0, 0.3310193567999018
790.0, 0.3339569291344865
791.0, 0.32496125293941086
792.0, 0.310120998854497
793.0, 0.30516785173047145
794.0, 0.3033705028880839
795.0, 0.28998125788421464
796.0, 0.27376653873774454
797.0, 0.24474714929724545
798.0, 0.23938777735755712
799.0, 0.24407237614712554
800.0, 0.2336046865886655
801.0, 0.2191705136066488
802.0, 0.22052334869112472
803.0, 0.22742941999729302
804.0, 0.2103342373853026
805.0, 0.20329787799910773
806.0, 0.1982860914506506
807.0, 0.19188000290853113
808.0, 0.18122965405825717
809.0, 0.17512858452801858
810.0, 0.17365196791242712
811.0, 0.16029446199531144
812.0, 0.1624075725027332
813.0, 0.16248718364960565
814.0, 0.15629663273003194
815.0, 0.14544262448390477
816.0, 0.14112260372048224
817.0, 0.13912734114748826
818.0, 0.13666040437982116
819.0, 0.1470292347184657
820.0, 0.15902192904621473
821.0, 0.14798045429267334
822.0, 0.1408648956898245
823.0, 0.13872758484896952
824.0, 0.14298353075576162
825.0, 0.1477766729412299
826.0, 0.14995572852775002
827.0, 0.15093622259807538
828.0, 0.14214336346730824
829.0, 0.1349779952535978
830.0, 0.13963194535435514
831.0, 0.14274757058028553
832.0, 0.13930411317917066
833.0, 0.13249546502203313
834.0, 0.1312860903063503
835.0, 0.1374495009929384
836.0, 0.13060260013626912
837.0, 0.12729578918447168
838.0, 0.1283790814989551
839.0, 0.1265050323154782
840.0, 0.11737943635879045
841.0, 0.11006639080912252
842.0, 0.10601831077408992
843.0, 0.09554540534540905
844.0, 0.0871194542261134
845.0, 0.0772864355970882
846.0, 0.07705100810863193
847.0, 0.07098851307632251
848.0, 0.056479054399385796
849.0, 0.053368760581761106
850.0, 0.055567507331946216
851.0, 0.04541269664816735
852.0, 0.034071748908031
853.0, 0.035983528776955265
854.0, 0.028450223452501863
855.0, 0.019408930913725076
856.0, 0.0135243763506139
857.0, 0.012023337169980506
858.0, 0.015669302816285438
859.0, 0.008978205526920661
860.0, 0.00627788384470722
861.0, 0.0040603016987541644
862.0, 0.003472483846220676
863.0, 0.0013055726311657768
864.0, 0.005996464861311958
865.0, 0.005711245686054199
866.0, 0.007392876910613073
867.0, 0.000843734398296377
868.0, 0.001770526456486463
869.0, 0.006121651683027949
870.0, 0.009613076229775353
871.0, 0.018098384675843352
872.0, 0.005344400250774949
873.0, 0.012674738675268402
874.0, 0.010464443823414195
875.0, 0.0030936511549729618
876.0, 0.006205504844062738
877.0, 0.006339546689739754
878.0, 0.0075567391073617695
879.0, 0.008037637764032365
880.0, 0.0006950358464358154
881.0, 0.006150794211060608
882.0, 0.009453784261652911
883.0, 0.006785938574135272
884.0, 0.0030013163916005705
885.0, 0.006342104155956687
886.0, 0.0012899549689058569
887.0, 0.006186249495654714
888.0, 0.013967760753124468
889.0, 0.0031734268410772743
890.0, 0.0021374240118936186
891.0, 0.0054185142491387575
892.0, 0.003777302635475761
893.0, 0.0008503449091972847
894.0, 0.001284040846726894
895.0, 0.0018262820583372546
896.0, 0.004964112888349057
897.0, 0.0037234619408916046
898.0, 0.002327756978932395
899.0, 0.012196605982165255
900.0, 0.013783226207697091
901.0, 0.0054613704478816884
902.0, 0.0034644733178377553
903.0, 0.005058899741790596
904.0, 0.0004678518215582505
905.0, 0.0042433971819942915
906.0, 0.006024706216478847
907.0, 0.00892703060875683
908.0, 0.016099601520114765
909.0, 0.004867578562806809
910.0, 0.007157014523530135
911.0, 0.009176789708433242
912.0, 0.010103057284942265
913.0, 0.015378661395533217
914.0, 0.012054933323073074
915.0, 0.01278893110093606
916.0, 0.022266122792194053
917.0, 0.02354398971824662
918.0, 0.023280399661116377
919.0, 0.026319976678618073
920.0, 0.02048792477033221
921.0, 0.012588160397421236
922.0, 0.011898530466815363
923.0, 0.016200567189343772
924.0, 0.019733458130491672
925.0, 0.023504416456453875
926.0, 0.02832918352369413
927.0, 0.03299617532170345
928.0, 0.03197920487725399
929.0, 0.027220577379184565
930.0, 0.036322542670813154
931.0, 0.04324239570056934
932.0, 0.047381418325278486
933.0, 0.059018040247624956
934.0, 0.04144958150232663
935.0, 0.04159666254862366
936.0, 0.039880754971008014
937.0, 0.03543306481152291
938.0, 0.0327077189813239
939.0, 0.041156804315536526
940.0, 0.04387039066273964
941.0, 0.04146570861946586
942.0, 0.04017114617619283
943.0, 0.033252350830959405
944.0, 0.0334259677805578
945.0, 0.03535039924697291
946.0, 0.0308184708775482
947.0, 0.02855637115628726
948.0, 0.02860289525242553
949.0, 0.03069783564485222
950.0, 0.03459307415668697
951.0, 0.03650119421138418
952.0, 0.03452285610503784
953.0, 0.032966623028195405
954.0, 0.03421154805480027
955.0, 0.030457472732891337
956.0, 0.02591847456347883
957.0, 0.02514703486337912
958.0, 0.03703066049354889
959.0, 0.03475667583639525
960.0, 0.023144908032902527
961.0, 0.021562060041905154
962.0, 0.026355201968247154
963.0, 0.019509427943838697
964.0, 0.008660754319388396
965.0, 0.02299017302672512
966.0, 0.030734337773798283
967.0, 0.0227511316173817
968.0, 0.028739751920568823
969.0, 0.029362537680823673
970.0, 0.01835151039483715
971.0, 0.01713826124983529
972.0, 0.02149628956209672
973.0, 0.017180814699537736
974.0, 0.01620603031964781
975.0, 0.018821811362601623
976.0, 0.019808242690694686
977.0, 0.02269974234814249
978.0, 0.017710488248136185
979.0, 0.01557577982458906
980.0, 0.01879358153815955
981.0, 0.02727655042687826
982.0, 0.02680517761913169
983.0, 0.014962727780248467
984.0, 0.009109373426619447
985.0, 0.010983793183739743
986.0, 0.0028411588065657004
987.0, 0.004985830879904087
988.0, 0.008849061942285106
989.0, 0.012486596514435969
990.0, 0.012676960537048471
991.0, 0.0035006093793989784
992.0, 0.006643526624059138
993.0, 0.021903569703216996
994.0, 0.02045233084926398
995.0, 0.01611726031567589
996.0, 0.02241226579408065
997.0, 0.014611720739438047
998.0, 0.018026314713764983
999.0, 0.024422853270837694
1000.0, 0.03114512521865751
1001.0, 0.025987702157931187
1002.0, 0.026377483465054686
1003.0, 0.02148183794556452
1004.0, 0.019178688749873867
1005.0, 0.014620528618132329
1006.0, 0.0008396701941441598
1007.0, 0.005240745673560816
1008.0, 0.0030645561674078783
1009.0, 0.009956746090350715
1010.0, 0.005990017497504777
1011.0, 0.0071825188434062074
1012.0, 0.00530840630202027
1013.0, 0.0005140054028275904
1014.0, 0.003557579915528921
1015.0, 0.008603957464221724
1016.0, 0.014059219536832902
1017.0, 0.012729233291004267
1018.0, 0.006239876434440841
1019.0, 0.0023241912581827193
1020.0, 0.005967605753912789
1021.0, 0.005967011781082252
1022.0, 0.005036590388795087
1023.0, 0.003490612197648726
1024.0, 0.010187841050367295
1025.0, 0.00679864953459814
1026.0, 0.005254009762230719
1027.0, 0.004431040675634082
1028.0, 0.002431403757544453
1029.0, 0.012323938337119054
1030.0, 0.014696902995414745
1031.0, 0.010333125684895814
1032.0, 0.0063681820352420645
1033.0, 0.005169764373321666
1034.0, 0.009973295985921608
1035.0, 0.009484028501201565
1036.0, 0.00910018336662849
1037.0, 0.01041000273982524
1038.0, 0.009833377263848673
1039.0, 0.008194004909039331
1040.0, 0.005882939137070077
1041.0, 0.004796149044054209
1042.0, 0.008748781420579943
1043.0, 0.020843082172650705
1044.0, 0.010840043904970346
1045.0, 0.0008486930752428275
1046.0, 0.0057381253378867856
1047.0, 0.01736170658154078
1048.0, 0.015982627830712297
1049.0, 0.004470608559602534
1050.0, 0.00577850135969972
1051.0, 0.0032765316672901893
1052.0, 0.0009298943207696845
1053.0, 0.009056926513090882
1054.0, 0.013096766280763512
1055.0, 0.009139126742137202
1056.0, 0.011816235921418155
1057.0, 0.013098602205181147
1058.0, 0.019944893498165958
1059.0, 0.02157547528597617
1060.0, 0.012601414644021073
1061.0, 0.011572660051018115
1062.0, 0.013625540889900064
1063.0, 0.018286746337545293
1064.0, 0.016765627011872827
1065.0, 0.006713436818509043
1066.0, 0.006306138023104896
1067.0, 0.019678684480659046
1068.0, 0.02833612617934555
1069.0, 0.017457558164925044
1070.0, 0.021887977148995926
1071.0, 0.019548143891126673
1072.0, 0.012862411777948854
1073.0, 0.011662103754683007
1074.0, 0.004376254688234348
1075.0, 0.009735938462686649
1076.0, 0.009750933015293197
1077.0, 0.0044277386484818885
1078.0, 0.004521416822360746
1079.0, 0.012797871509847819
1080.0, 0.02576378524123936
1081.0, 0.02146020449619904
1082.0, 0.023222970626192736
1083.0, 0.02448234205705985
1084.0, 0.020154480488411636
1085.0, 0.023895202269141262
1086.0, 0.027266740519866824
1087.0, 0.03153018333952152
1088.0, 0.03970366558100887
1089.0, 0.030465294533476323
1090.0, 0.02332828552410563
1091.0, 0.02720773291531092
1092.0, 0.030001017234752427
1093.0, 0.029237758568610613
1094.0, 0.02518020460854925
1095.0, 0.025746794039440142
1096.0, 0.02986987337893866
1097.0, 0.025220274333572983
1098.0, 0.01952340534411343
1099.0, 0.023705768459558935
1100.0, 0.02124542348263288
1101.0, 0.030920696308034828
1102.0, 0.030472615342600574
1103.0, 0.027503172646130912
1104.0, 0.026100308866333646
1105.0, 0.017840566022927096
1106.0, 0.01936378146659589
1107.0, 0.03997092570530559
1108.0, 0.04924342865980262
1109.0, 0.03053521522566884
1110.0, 0.03340948269608121
1111.0, 0.028454313103751076
1112.0, 0.03750760872846467
1113.0, 0.0387311840778766
1114.0, 0.029697354530212283
1115.0, 0.0350891550217097
1116.0, 0.03857221141162167
1117.0, 0.03999442208138333
1118.0, 0.03185458329223589
1119.0, 0.025117907864555786
1120.0, 0.03260626153158637
1121.0, 0.039824199904512726
1122.0, 0.034554904768110295
1123.0, 0.031775280727027934
1124.0, 0.044235909125394206
1125.0, 0.03673187142623742
1126.0, 0.03862868080691594
1127.0, 0.045311786555797186
1128.0, 0.05193177821787365
1129.0, 0.048457853481981845
1130.0, 0.042332905329634594
1131.0, 0.03554764109720063
1132.0, 0.04787862877166459
1133.0, 0.05548135142582504
1134.0, 0.05086441475592661
1135.0, 0.04858363783449383
1136.0, 0.04605783106963789
1137.0, 0.04344457903775086
1138.0, 0.051929884777952316
1139.0, 0.059103621159715514
1140.0, 0.061493964550288494
1141.0, 0.059826554784551296
1142.0, 0.059660741467702116
1143.0, 0.061131420736047076
1144.0, 0.0597998971222895
1145.0, 0.06614539764983665
1146.0, 0.06891700879540193
1147.0, 0.06528745451940267
1148.0, 0.0618267271786714
1149.0, 0.06667680280243823
1150.0, 0.07346454271279777
1151.0, 0.07444029310990277
1152.0, 0.0783825272676015
1153.0, 0.08465531628495632
1154.0, 0.08202779059530313
1155.0, 0.07694000473580476
1156.0, 0.07705222923510097
1157.0, 0.06919537563439858
1158.0, 0.06274986024148325
1159.0, 0.07420809614268441
1160.0, 0.08778864568650271
1161.0, 0.07480398631063724
1162.0, 0.07134844610173248
1163.0, 0.06502969016774729
1164.0, 0.059755325636373875
1165.0, 0.0649873501219523
1166.0, 0.06190290832140974
1167.0, 0.05149153133972142
1168.0, 0.054661789884583825
1169.0, 0.056943555319517024
1170.0, 0.049637554730988534
1171.0, 0.050381152769447164
1172.0, 0.05280717655313972
1173.0, 0.05415177674717601
1174.0, 0.04949948303929668
1175.0, 0.050719129140102445
1176.0, 0.04432158985051372
1177.0, 0.04078900723249509
1178.0, 0.04426064019146695
1179.0, 0.043032746099660464
1180.0, 0.04058190025487325
1181.0, 0.03612828647433789
1182.0, 0.024443368803967597
1183.0, 0.02188317049457548
1184.0, 0.02264144916320572
1185.0, 0.020861826043550975
1186.0, 0.018325557849931347
1187.0, 0.011593394863268948
1188.0, 0.007651277976241583
1189.0, 0.013504747273299578
1190.0, 0.017003476279962113
1191.0, 0.009091772318827978
1192.0, 0.0024152877911619115
1193.0, 0.0014957640575379164
1194.0, 0.0015225266660784226
1195.0, 0.007926791529076075
1196.0, 0.008008924660550967
1197.0, 0.002546415507539089
1198.0, 0.0049184171101787685
1199.0, 0.0009044017298198113
1200.0, 0.0030159298918386373
1201.0, 0.007667398156425869
1202.0, 0.007647496684016074
1203.0, 0.0022199300348259895
1204.0, 0.0025647925074075337
1205.0, 0.007186093648105262
1206.0, 0.007928653486705767
1207.0, 0.007065823131658535
1208.0, 0.012469581375661254
1209.0, 0.0157215960726244
1210.0, 0.005540492442927429
1211.0, 0.008552134714339913
1212.0, 0.0012919962630811967
1213.0, 0.0005629153408181077
1214.0, 0.004199142817709658
1215.0, 0.002394023356022652
1216.0, 0.007384427398808136
1217.0, 0.006498508390491515
1218.0, 0.001961849567252373
1219.0, 0.007428779171126151
1220.0, 0.018715039169027108
1221.0, 0.020302601646252985
1222.0, 0.017117123902221698
1223.0, 0.02999580017916153
1224.0, 0.04269178694637638
1225.0, 0.06915610173523393
1226.0, 0.07460020814378142
1227.0, 0.06749526873221876
1228.0, 0.07264592774143787
1229.0, 0.08681736907611737
1230.0, 0.09242149674448644
1231.0, 0.08790530529790194
1232.0, 0.09398120681046955
1233.0, 0.09974289935093046
1234.0, 0.1033881707598948
1235.0, 0.11075471266125117
1236.0, 0.13142725300844485
1237.0, 0.14592033345932517
1238.0, 0.14948242673715137
1239.0, 0.16528524869265587
1240.0, 0.1714456229429806
1241.0, 0.17691907195569953
1242.0, 0.16817854263602053
1243.0, 0.1624572676887194
1244.0, 0.17462844488483176
1245.0, 0.1931177904714974
1246.0, 0.19350270449163778
1247.0, 0.17799576824994323
1248.0, 0.17920027511944103
1249.0, 0.19380160466545518
1250.0, 0.2017602590906485
1251.0, 0.2109079980100508
1252.0, 0.21123182280935904
1253.0, 0.19950885893217452
1254.0, 0.19704003724141508
1255.0, 0.21094029563356526
1256.0, 0.22332595413197928
1257.0, 0.22110224903904413
1258.0, 0.21803436805532395
1259.0, 0.21356071396785706
1260.0, 0.2256759529722027
1261.0, 0.21865011838888698
1262.0, 0.22008123294804435
1263.0, 0.22901762610738188
1264.0, 0.22303793179995032
1265.0, 0.2134005642310123
1266.0, 0.20253139710366297
1267.0, 0.1914774358507141
1268.0, 0.18866842410321963
1269.0, 0.1827084642950105
1270.0, 0.1707717861072173
1271.0, 0.1598377340574474
1272.0, 0.1599822949660179
1273.0, 0.14871212744378876
1274.0, 0.1368951137123519
1275.0, 0.12512627873922905
1276.0, 0.11051795498031433
1277.0, 0.09491150298935716
1278.0, 0.08516429085307872
1279.0, 0.05589732568795481
1280.0, 0.036537217397470456
1281.0, 0.03863345159207339
1282.0, 0.015950210015633515
1283.0, 0.0003087218984298987
1284, 0.0
1285, 0.0
1286, 0.0
1287, 0.0
1288, 0.0
1289, 0.0
1290, 0.0
1291, 0.0
1292, 0.0
1293, 0.0
1294, 0.0
1295, 0.0
1296, 0.0
1297, 0.0
1298, 0.0
1299, 0.0
1300, 0.0
1301, 0.0
1302, 0.0
1303, 0.0
1304, 0.0
1305, 0.0
1306, 0.0
1307, 0.0
1308, 0.0
1309, 0.0
1310, 0.0
1311, 0.0
1312, 0.0
1313, 0.0
1314, 0.0
1315, 0.0
1316, 0.0
1317, 0.0
1318, 0.0
1319, 0.0
1320, 0.0
1321, 0.0
1322, 0.0
1323, 0.0
1324, 0.0
1325, 0.0
1326, 0.0
1327, 0.0
1328, 0.0
1329, 0.0
1330, 0.0
1331, 0.0
1332, 0.0
1333, 0.0
1334, 0.0
1335, 0.0
1336, 0.0
1337, 0.0
1338, 0.0
1339, 0.0
1340, 0.0
1341, 0.0
1342, 0.0
1343, 0.0
1344, 0.0
1345, 0.0
1346, 0.0
1347, 0.0
1348, 0.0
1349, 0.0
1350, 0.0
1351, 0.0
1352, 0.0
1353, 0.0
1354, 0.0
1355, 0.0
1356, 0.0
1357, 0.0
1358, 0.0
1359, 0.0
1360, 0.0
1361, 0.0
1362, 0.0
1363, 0.0
1364, 0.0
1365, 0.0
1366, 0.0
1367, 0.0
1368, 0.0
1369, 0.0
1370, 0.0
1371, 0.0
1372, 0.0
1373, 0.0
1374, 0.0
1375, 0.0
1376, 0.0
1377, 0.0
1378, 0.0
1379, 0.0
1380, 0.0
1381, 0.0
1382, 0.0
1383, 0.0
1384, 0.0
1385, 0.0
1386, 0.0
1387, 0.0
1388, 0.0
1389, 0.0
1390, 0.0
1391, 0.0
1392, 0.0
1393, 0.0
1394, 0.0
1395, 0.0
1396, 0.0
1397, 0.0
1398, 0.0
1399, 0.0
1400, 0.0
1401, 0.0
1402, 0.0
1403, 0.0
1404, 0.0
1405, 0.0
1406, 0.0
1407, 0.0
1408, 0.0
1409, 0.0
1410, 0.0
1411, 0.0
1412, 0.0
1413, 0.0
1414, 0.0
1415, 0.0
1416, 0.0
1417, 0.0
1418, 0.0
1419, 0.0
1420, 0.0
1421, 0.0
1422, 0.0
1423, 0.0
1424, 0.0
1425, 0.0
1426, 0.0
1427, 0.0
1428, 0.0
1429, 0.0
1430, 0.0
1431, 0.0
1432, 0.0
1433, 0.0
1434, 0.0
1435, 0.0
1436, 0.0
1437, 0.0
1438, 0.0
1439, 0.0
1440, 0.0
1441, 0.0
1442, 0.0
1443, 0.0
1444, 0.0
1445, 0.0
1446, 0.0
1447, 0.0
1448, 0.0
1449, 0.0
1450, 0.0
1451, 0.0
1452, 0.0
1453, 0.0
1454, 0.0
1455, 0.0
1456, 0.0
1457, 0.0
1458, 0.0
1459, 0.0
1460, 0.0
1461, 0.0
1462, 0.0
1463, 0.0
1464, 0.0
1465, 0.0
1466, 0.0
1467, 0.0
1468, 0.0
1469, 0.0
1470, 0.0
1471, 0.0
1472, 0.0
1473, 0.0
1474, 0.0
1475, 0.0
1476, 0.0
1477, 0.0
1478, 0.0
1479, 0.0
1480, 0.0
1481, 0.0
1482, 0.0
1483, 0.0
1484, 0.0
1485, 0.0
1486, 0.0
1487, 0.0
1488, 0.0
1489, 0.0
1490, 0.0
1491, 0.0
1492, 0.0
1493, 0.0
1494, 0.0
1495, 0.0
1496, 0.0
1497, 0.0
1498, 0.0
1499, 0.0
1500, 0.0
1501, 0.0
1502, 0.0
1503, 0.0
1504, 0.0
1505, 0.0
1506, 0.0
1507, 0.0
1508, 0.0
1509, 0.0
1510, 0.0
1511, 0.0
1512, 0.0
1513, 0.0
1514, 0.0
1515, 0.0
1516, 0.0
1517, 0.0
1518, 0.0
1519, 0.0
1520, 0.0
1521, 0.0
1522, 0.0
1523, 0.0
1524, 0.0
1525, 0.0
1526, 0.0
1527, 0.0
1528, 0.0
1529, 0.0
1530, 0.0
1531, 0.0
1532, 0.0
1533, 0.0
1534, 0.0
1535, 0.0
1536, 0.0
1537, 0.0
1538, 0.0
1539, 0.0
1540, 0.0
1541, 0.0
1542, 0.0
1543, 0.0
1544, 0.0
1545, 0.0
1546, 0.0
1547, 0.0
1548, 0.0
1549, 0.0
1550, 0.0
1551, 0.0
1552, 0.0
1553, 0.0
1554, 0.0
1555, 0.0
1556, 0.0
1557, 0.0
1558, 0.0
1559, 0.0
1560, 0.0
1561, 0.0
1562, 0.0
1563, 0.0
1564, 0.0
1565, 0.0
1566, 0.0
1567, 0.0
1568, 0.0
1569, 0.0
1570, 0.0
1571, 0.0
1572, 0.0
1573, 0.0
1574, 0.0
1575, 0.0
1576, 0.0
1577, 0.0
1578, 0.0
1579, 0.0
1580, 0.0
1581, 0.0
1582, 0.0
1583, 0.0
1584, 0.0
1585, 0.0
1586, 0.0
1587, 0.0
1588, 0.0
1589, 0.0
1590, 0.0
1591, 0.0
1592, 0.0
1593, 0.0
1594, 0.0
1595, 0.0
1596, 0.0
1597, 0.0
1598, 0.0
1599, 0.0
