30, 0.0
31, 0.0
32, 0.0
33, 0.0
34, 0.0
35, 0.0
36, 0.0
37, 0.0
38, 0.0
39, 0.0
40, 0.0
41, 0.0
42, 0.0
43, 0.0
44, 0.0
45, 0.0
46, 0.0
47, 0.0
48, 0.0
49, 0.0
50, 0.0
51, 0.0
52, 0.0
53, 0.0
54, 0.0
55, 0.0
56, 0.0
57, 0.0
58, 0.0
59, 0.0
60, 0.0
61, 0.0
62, 0.0
63, 0.0
64, 0.0
65, 0.0
66, 0.0
67, 0.0
68, 0.0
69, 0.0
70, 0.0
71, 0.0
72, 0.0
73, 0.0
74, 0.0
75, 0.0
76, 0.0
77, 0.0
78, 0.0
79, 0.0
80, 0.0
81, 0.0
82, 0.0
83, 0.0
84, 0.0
85, 0.0
86, 0.0
87, 0.0
88, 0.0
89, 0.0
90, 0.0
91, 0.0
92, 0.0
93, 0.0
94, 0.0
95, 0.0
96, 0.0
97, 0.0
98, 0.0
99, 0.0
100, 0.0
101, 0.0
102, 0.0
103, 0.0
104, 0.0
105, 0.0
106, 0.0
107, 0.0
108, 0.0
109, 0.0
110, 0.0
111, 0.0
112, 0.0
113, 0.0
114, 0.0
115, 0.0
116, 0.0
117, 0.0
118, 0.0
119, 0.0
120, 0.0
121, 0.0
122, 0.0
123, 0.0
124, 0.0
125, 0.0
126, 0.0
127, 0.0
128, 0.0
129, 0.0
130, 0.0
131, 0.0
132, 0.0
133, 0.0
134, 0.0
135, 0.0
136, 0.0
137, 0.0
138.0, 0.0001273820239221131
139.0, 0.0010181654079928298
140.0, 0.0007254709619045304
141.0, 0.00037256995561503155
142.0, 0.0005640136613590998
143.0, 0.0015646700356623463
144.0, 0.002223182263182191
145.0, 0.0024656797212621825
146.0, 0.002049912198303452
147.0, 0.0016920096483900153
148.0, 0.0023157597183693967
149.0, 0.004010670507623348
150.0, 0.003301966201100275
151.0, 0.0030528682074209322
152.0, 0.003506786246407842
153.0, 0.005140867433215467
154.0, 0.004279376149074686
155.0, 0.0034572535345032034
156.0, 0.002856270558896452
157.0, 0.0018783938838972914
158.0, 0.0014607740656045955
159.0, 0.0011184592717865057
160.0, 0.0005914503933641658
161.0, 0.0011242329637886754
162.0, 0.001300067784088139
163.0, 0.0011844710477700291
164.0, 0.000898782849546622
165.0, 0.0012535884721529577
166.0, 0.0011399475507224675
167.0, 0.00041574093145242994
168.0, 0.000879185150574414
169.0, 0.0009187268066792464
170.0, 0.0008902813668928368
171.0, 0.001129208467797454
172.0, 0.0005262156769163394
173.0, 0.00031923804318205386
174.0, 0.000657861795567625
175.0, 0.0018279502418127721
176.0, 0.0014753392000559293
177.0, 0.001544110821040772
178.0, 0.0028644511007437125
179.0, 0.005387887787728396
180.0, 0.006009304803107087
181.0, 0.006493881187537529
182.0, 0.009476934506129138
183.0, 0.011316871414719562
184.0, 0.014637071237477216
185.0, 0.01961334214303273
186.0, 0.025091435665538203
187.0, 0.03105363217392893
188.0, 0.037932905871452836
189.0, 0.04609746087406182
190.0, 0.0548086454597521
191.0, 0.06029977031160801
192.0, 0.06330223790281475
193.0, 0.06483010555355677
194.0, 0.06553875523627489
195.0, 0.06329595663747835
196.0, 0.05764944638052896
197.0, 0.04888285885868822
198.0, 0.04052021342905766
199.0, 0.03202087943265788
200.0, 0.022978384506233934
201.0, 0.01873104286655393
202.0, 0.01464196378936082
203.0, 0.011313856040700641
204.0, 0.010678724001923783
205.0, 0.010648023391048155
206.0, 0.008728352171452375
207.0, 0.005066598339341135
208.0, 0.0069238035380121
209.0, 0.006985717185098398
210.0, 0.007122404421350106
211.0, 0.00879335738191371
212.0, 0.009572887815485352
213.0, 0.01130299351962965
214.0, 0.013843912244895297
215.0, 0.016848611220028828
216.0, 0.020054016319746577
217.0, 0.02274050032482823
218.0, 0.024971207247054025
219.0, 0.02895535281362159
220.0, 0.030990714401934297
221.0, 0.033396763070904584
222.0, 0.03794307772429889
223.0, 0.0385255414944908
224.0, 0.03762619162104321
225.0, 0.03552048715495847
226.0, 0.03242109277359983
227.0, 0.030191662161619413
228.0, 0.026733901254622338
229.0, 0.022224932462319692
230.0, 0.021220311571839384
231.0, 0.0177620511615507
232.0, 0.01409759299596028
233.0, 0.011592676948635097
234.0, 0.009941339398861574
235.0, 0.008864648326049907
236.0, 0.008070364807604802
237.0, 0.00709141412625067
238.0, 0.007892191702325054
239.0, 0.007474303035282537
240.0, 0.005903161591063538
241.0, 0.0058590730992612505
242.0, 0.005169265774084248
243.0, 0.005444887331549864
244.0, 0.007432499817028184
245.0, 0.008308876469135343
246.0, 0.00816973080522486
247.0, 0.008347531373726133
248.0, 0.010572159129012682
249.0, 0.010439525691260587
250.0, 0.010967427014666145
251.0, 0.01237061909803734
252.0, 0.014550352659398176
253.0, 0.013429111875127537
254.0, 0.012850718255509883
255.0, 0.01383990616671467
256.0, 0.0144678989841158
257.0, 0.01474051090653995
258.0, 0.014740252190181853
259.0, 0.014494012958512631
260.0, 0.016230194149047437
261.0, 0.017349740114983976
262.0, 0.018294682663839063
263.0, 0.02003081645924617
264.0, 0.02010406796296579
265.0, 0.020749155284446406
266.0, 0.022174520343474523
267.0, 0.023578011953423073
268.0, 0.02448837898904058
269.0, 0.02579173186786783
270.0, 0.02783556146727985
271.0, 0.029230228781902626
272.0, 0.030235683042541962
273.0, 0.03110880895955195
274.0, 0.032095352878594656
275.0, 0.029605221004571983
276.0, 0.03305800960497915
277.0, 0.04032254899892402
278.0, 0.04559926088169851
279.0, 0.04881987720093158
280.0, 0.04696708603972476
281.0, 0.04176870421539526
282.0, 0.047453958775208284
283.0, 0.04933322945821031
284.0, 0.04994920892249378
285.0, 0.050594382945412
286.0, 0.055292114119580224
287.0, 0.05754795005585659
288.0, 0.05812692475739135
289.0, 0.05761440145264023
290.0, 0.061060222874542915
291.0, 0.06241563519060143
292.0, 0.06260077178581384
293.0, 0.06445611156120448
294.0, 0.06341591512153079
295.0, 0.06365615579573179
296.0, 0.06546493054533713
297.0, 0.06603060664770496
298.0, 0.06666846266845995
299.0, 0.06786579757399079
300.0, 0.06974237827807436
301.0, 0.07013570690829024
302.0, 0.06984705930280735
303.0, 0.07023057148799722
304.0, 0.0725772357678439
305.0, 0.07343527670340037
306.0, 0.072893629698077
307.0, 0.07230952522482363
308.0, 0.07417343915167235
309.0, 0.07573065627341846
310.0, 0.07643508059276889
311.0, 0.07627517811924078
312.0, 0.07541355855258705
313.0, 0.0775048820053935
314.0, 0.07780622559115408
315.0, 0.0755232633659582
316.0, 0.07666569076824302
317.0, 0.07886326098519937
318.0, 0.08068073232154498
319.0, 0.08123909921940563
320.0, 0.08056296540296633
321.0, 0.0806530713873427
322.0, 0.08093760140279142
323.0, 0.08078576315171633
324.0, 0.07948404049745932
325.0, 0.08013989435561188
326.0, 0.08150372005859692
327.0, 0.08064169641567628
328.0, 0.08286654603965317
329.0, 0.08286643222620664
330.0, 0.08140984349398446
331.0, 0.08482689942305502
332.0, 0.08263175739274932
333.0, 0.08170667466618818
334.0, 0.08359855770341197
335.0, 0.08278746186378658
336.0, 0.08318924418200901
337.0, 0.08275086288237016
338.0, 0.0804591362465753
339.0, 0.08208205239344964
340.0, 0.0820610693116586
341.0, 0.08189801925675196
342.0, 0.08307359297871501
343.0, 0.08200323866020072
344.0, 0.0819213390042323
345.0, 0.08168064391420499
346.0, 0.07911092628706383
347.0, 0.07966722867370869
348.0, 0.07932933203078926
349.0, 0.07875368489545394
350.0, 0.0811203111466165
351.0, 0.08021687207868103
352.0, 0.0799992502321117
353.0, 0.08095789040212749
354.0, 0.08115496535515627
355.0, 0.08032685828522666
356.0, 0.0799601703986899
357.0, 0.08039917060331676
358.0, 0.07933258433040359
359.0, 0.07893188387333216
360.0, 0.0790666798122755
361.0, 0.07962252137522824
362.0, 0.07852549440081108
363.0, 0.07841595108514567
364.0, 0.07867258080256892
365.0, 0.07872297235557033
366.0, 0.0768387339018984
367.0, 0.07699708238907116
368.0, 0.07787831299806026
369.0, 0.07740715561325133
370.0, 0.07719049291364696
371.0, 0.07607196937233406
372.0, 0.07509536478031757
373.0, 0.0769034921760831
374.0, 0.0774673709762701
375.0, 0.07633011335490775
376.0, 0.07467266717837857
377.0, 0.07687024593130261
378.0, 0.0752432960346256
379.0, 0.07437439266963292
380.0, 0.07491243535464966
381.0, 0.07387615040802534
382.0, 0.07502737757694358
383.0, 0.07538571484508977
384.0, 0.0740066327408289
385.0, 0.07319334581659336
386.0, 0.07432774868633824
387.0, 0.07493125022599739
388.0, 0.07389781833892115
389.0, 0.07709868692879054
390.0, 0.07691665148824824
391.0, 0.07677015900419631
392.0, 0.07930810311624015
393.0, 0.0801654649669401
394.0, 0.08342274037923367
395.0, 0.0887844230178054
396.0, 0.09604581556317972
397.0, 0.10142224754994018
398.0, 0.10871669339531688
399.0, 0.1162467383223883
400.0, 0.12129272992166101
401.0, 0.12217060342174733
402.0, 0.12611856595187873
403.0, 0.1316014238373163
404.0, 0.13451116132946261
405.0, 0.1417277350759309
406.0, 0.14791457064626348
407.0, 0.15066488090578173
408.0, 0.1450712994679076
409.0, 0.1373689942328668
410.0, 0.12640036262226634
411.0, 0.11261425484127943
412.0, 0.09825362635998061
413.0, 0.09366616290030949
414.0, 0.08959021328068074
415.0, 0.08394419950209334
416.0, 0.07770314636377307
417.0, 0.07567723009805265
418.0, 0.07437639987753072
419.0, 0.07268813821290446
420.0, 0.07056430644559772
421.0, 0.06787697660104994
422.0, 0.06707111943431636
423.0, 0.06880320630958815
424.0, 0.06978088867107231
425.0, 0.06754351475317809
426.0, 0.06644391276773512
427.0, 0.06814575431391064
428.0, 0.06621871919234194
429.0, 0.0661818030132033
430.0, 0.06686643429142643
431.0, 0.06780209122185575
432.0, 0.07255274535755764
433.0, 0.07256097260395557
434.0, 0.07320981752234801
435.0, 0.07800975308777593
436.0, 0.07645800777520226
437.0, 0.07984574283862911
438.0, 0.08394620315751515
439.0, 0.08527462490579968
440.0, 0.08524771923872183
441.0, 0.08425828107354559
442.0, 0.0830185382173567
443.0, 0.08220608777759011
444.0, 0.07759500340047211
445.0, 0.0739608438168851
446.0, 0.07093473876316689
447.0, 0.0681091280261229
448.0, 0.06436353029752022
449.0, 0.061502826627056695
450.0, 0.05940878890673406
451.0, 0.05792501981225463
452.0, 0.05717246079134386
453.0, 0.055654408031217184
454.0, 0.05366785386249947
455.0, 0.05165377521264667
456.0, 0.05092718761426924
457.0, 0.049947409817182035
458.0, 0.04888692749040006
459.0, 0.048089333916108354
460.0, 0.04795668694068953
461.0, 0.04887580827916062
462.0, 0.0492529099956834
463.0, 0.046583216548951416
464.0, 0.046084108548100196
465.0, 0.04653195871419621
466.0, 0.04642761014661787
467.0, 0.04346825534695903
468.0, 0.04011086631260663
469.0, 0.03943262354086345
470.0, 0.03940842624962432
471.0, 0.03637762585773745
472.0, 0.036447662649758523
473.0, 0.03515689085184081
474.0, 0.03326261873548155
475.0, 0.032554102501444075
476.0, 0.031536564231674384
477.0, 0.03098605674225561
478.0, 0.030724229246565624
479.0, 0.03036921748840149
480.0, 0.0285680169594826
481.0, 0.027323390745191103
482.0, 0.026625605021995333
483.0, 0.026237988076686626
484.0, 0.025989633969079124
485.0, 0.02558832536242172
486.0, 0.0247587180498579
487.0, 0.023077912575108387
488.0, 0.023820448369985914
489.0, 0.023223588385477487
490.0, 0.02188768170037851
491.0, 0.021083938962195556
492.0, 0.02089383080287031
493.0, 0.02099978355460068
494.0, 0.0207535976544874
495.0, 0.019234818707299556
496.0, 0.01939368833361918
497.0, 0.018575889836585847
498.0, 0.01749641372761919
499.0, 0.01727895787461558
500.0, 0.018388335647621733
501.0, 0.017839233636986224
502.0, 0.016803895150194034
503.0, 0.016841214976868652
504.0, 0.017241590793395465
505.0, 0.017770323010983014
506.0, 0.01812047501983524
507.0, 0.01795808483884732
508.0, 0.016989249371485163
509.0, 0.015794261636375023
510.0, 0.014306865988410446
511.0, 0.01249278946580159
512.0, 0.01399202884242661
513.0, 0.014939776995100304
514.0, 0.015357504162467991
515.0, 0.015196545682787723
516.0, 0.012048263391303906
517.0, 0.011676664586652763
518.0, 0.011902655011680486
519.0, 0.011169067961161908
520.0, 0.011187409189427905
521.0, 0.010452265453783447
522.0, 0.009660033170764635
523.0, 0.009187646693342624
524.0, 0.00809474268694985
525.0, 0.008142004921316745
526.0, 0.00846424346141811
527.0, 0.00857733000316291
528.0, 0.008329286504831097
529.0, 0.00868684670864111
530.0, 0.008185421738842732
531.0, 0.006567299188238361
532.0, 0.0065908766696815176
533.0, 0.0063342304551639314
534.0, 0.0064800871965254945
535.0, 0.007127723836829381
536.0, 0.007507669760274183
537.0, 0.006577642918505251
538.0, 0.005733147094347968
539.0, 0.005338954822929306
540.0, 0.005255777671068766
541.0, 0.005205033533973821
542.0, 0.004394726162628943
543.0, 0.003246395996348398
544.0, 0.0035181514329608904
545.0, 0.003620412656278391
546.0, 0.0032344960264537566
547.0, 0.002981262916159201
548.0, 0.004377520407065136
549.0, 0.004892731141755555
550.0, 0.0038511565426309555
551.0, 0.0025290984517567375
552.0, 0.003234443708500025
553.0, 0.0019215663561448334
554.0, 0.0019374232420452822
555.0, 0.002484492344895107
556.0, 0.0022673358483040595
557.0, 0.0030862772921182737
558.0, 0.002967303021632034
559.0, 0.0019484550634776261
560.0, 0.00019686368209610456
561.0, 0.0012830597051926183
562.0, 0.0014094069680942794
563.0, 0.0009242888036580792
564.0, 0.0002272503593265953
565.0, 0.0013173212693873048
566.0, 0.0013549640951319064
567.0, 0.0010309439731846432
568.0, 0.0007537401334021114
569.0, 0.0008481842923361357
570.0, 0.00038238491902067373
571.0, 0.00010576049830805724
572.0, 0.0002629668107616937
573.0, 0.0006704944729232604
574.0, 0.0013572363569112696
575.0, 0.0014120318429527566
576.0, 0.0010522602961568865
577.0, 0.0016926068123209693
578.0, 0.0015719938672236838
579.0, 0.0010111315786431251
580.0, 0.0005925786051256849
581.0, 0.001440587211605799
582.0, 0.0005111167227319178
583.0, 0.00032689898827697973
584.0, 0.0004926410839142404
585.0, 0.00012241369952302832
586.0, 0.00014213647639013644
587.0, 0.0003675635300140031
588.0, 0.0006217477387167703
589.0, 0.0007371273657832925
590.0, 0.0008696058495749195
591.0, 0.0005812788252102265
592.0, 0.00027582430908653516
593.0, 0.0002344417111995336
594.0, 0.0005462753709325573
595.0, 0.0017370884467429381
596.0, 0.00168704732791315
597.0, 0.0003171169670805776
598.0, 0.002148715296167044
599.0, 0.0014363018207027567
600.0, 0.0008817769286190028
601.0, 0.0011514980298296027
602.0, 0.0020163281541141958
603.0, 0.0027465460562357694
604.0, 0.003045860128158415
605.0, 0.0030717053822786914
606.0, 0.003216299298517965
607.0, 0.0031039461434643765
608.0, 0.0029340710201927085
609.0, 0.002616313430080496
610.0, 0.002032704129619901
611.0, 0.0022433818131857306
612.0, 0.002306077101278827
613.0, 0.0032332818760277557
614.0, 0.0053715280429979945
615.0, 0.0031385279090441935
616.0, 0.002614038866791739
617.0, 0.003717044554577738
618.0, 0.005601944196238317
619.0, 0.0037562519203610547
620.0, 0.0030711928231830243
621.0, 0.0038847575501053874
622.0, 0.005225208306197793
623.0, 0.0038694584676090393
624.0, 0.0059854496226624775
625.0, 0.00553932160019582
626.0, 0.0038582167350973166
627.0, 0.0047401500926293715
628.0, 0.004126936960210293
629.0, 0.0040925824513208175
630.0, 0.004368158200871091
631.0, 0.004550776351131575
632.0, 0.004094371156971456
633.0, 0.004853858159730528
634.0, 0.004631503066632944
635.0, 0.0026933491907116355
636.0, 0.00383061254421765
637.0, 0.002820562353205549
638.0, 0.002481077220972977
639.0, 0.003196074136130236
640.0, 0.002832513310699755
641.0, 0.0025993953776147576
642.0, 0.0019518778297793785
643.0, 0.001241608542227009
644.0, 0.001327362408480673
645.0, 0.001096290382212184
646.0, 0.0015774672866139207
647.0, 0.002045249275625842
648.0, 0.0016980974463889032
649.0, 0.002007795636939041
650.0, 0.00315836577432061
651.0, 0.003606533650693092
652.0, 0.002731445813316628
653.0, 0.00280568994600661
654.0, 0.002428850179921899
655.0, 0.001841342212300133
656.0, 0.001284752379568706
657.0, 0.0012818961132642574
658.0, 0.0010660267781927547
659.0, 0.0009644172902321484
660.0, 0.0010336627299356626
661.0, 0.001282893679304056
662.0, 0.0015500914563174961
663.0, 0.0020940794892729277
664.0, 0.002076001698748585
665.0, 0.0009792484279437575
666.0, 0.002111010749406825
667.0, 0.0010074707625084766
668.0, 0.0005383966658188471
669.0, 0.0015270326811333533
670.0, 0.0014901170803160281
671.0, 0.0006241087647541156
672.0, 0.001120455610928947
673.0, 0.0021034480415240402
674.0, 0.0005944006219851056
675.0, 0.00035784499274486267
676.0, 0.0003246082009725989
677.0, 0.00032800779868167045
678.0, 0.00027866867714003153
679.0, 0.0005771795937430818
680.0, 0.0004347249893215265
681.0, 0.00023301467729339352
682.0, 0.00019723615243185758
683.0, 0.00034212626640654304
684.0, 0.0002026768412904878
685.0, 0.00011580321138051504
686.0, 0.0002374964087051282
687.0, 0.0007285875150157604
688.0, 0.0004710942565467051
689.0, 0.00026805517293612935
690.0, 0.00037218766853884587
691.0, 0.000974555405767408
692.0, 0.0016235228449016869
693.0, 0.0012409020056776924
694.0, 0.0011725798995734507
695.0, 0.0018171598349314049
696.0, 0.0006247794038817012
697.0, 0.0006320702413647375
698.0, 0.0006309447214455585
699.0, 0.0004914462474645649
700.0, 0.0006981191255155837
701.0, 0.0007833038071437409
702.0, 0.00171756163668243
703.0, 0.002564396503645773
704.0, 0.002230634212759527
705.0, 0.002469297806176232
706.0, 0.0026343457567272266
707.0, 0.002317193847141929
708.0, 0.0013755227731552361
709.0, 0.00018898584517513953
710.0, 1.8028386796277717e-05
711.0, 0.0002372056440469263
712.0, 0.0004800412933508328
713.0, 0.00029016781829332413
714.0, 0.0005309731371280663
715.0, 0.0005525216247311678
716.0, 0.0003881567525240019
717.0, 0.0001525383698030141
718.0, 0.0004296131366367342
719.0, 0.0012197584365887767
720.0, 0.0013713855539858031
721.0, 0.0007471037169544332
722.0, 0.0006258751789147889
723.0, 0.0012336892196967118
724.0, 0.00118549002646876
725.0, 0.0006483259329805218
726.0, 0.0002110955855374022
727.0, 0.000556271198844483
728.0, 0.0010468367205757661
729.0, 0.0012241032058221048
730.0, 0.0008391123452582541
731.0, 0.00028678045454141665
732.0, 0.00025616530480456146
733.0, 0.0004911233972413173
734.0, 0.0007221103319609884
735.0, 0.0004958099408305338
736.0, 0.000642254555343128
737.0, 0.0005856059284390397
738.0, 0.0005116435513614347
739.0, 0.0006150126611652424
740.0, 0.0004994235156494771
741.0, 0.0004149920585854925
742.0, 0.00038442980760217176
743.0, 0.00036518411588904977
744.0, 0.0001824916891794261
745.0, 0.00019708139445723683
746.0, 0.0002718232142166115
747.0, 0.00046261005199513163
748.0, 0.0008434570629978434
749.0, 0.0005671531220497422
750.0, 0.0014536020327333783
751.0, 0.0015394200027690071
752.0, 0.0003392881450810759
753.0, 0.0008565206817021995
754.0, 0.0016169736191982479
755.0, 0.0011874984058829361
756.0, 0.0003500145373200346
757.0, 0.000900311298917159
758.0, 0.001505192739386122
759.0, 0.0020968551055670073
760.0, 0.0023400866374403825
761.0, 0.0022698865415720477
762.0, 0.003557040833714153
763.0, 0.003442141665286219
764.0, 0.0032369309721575414
765.0, 0.0033309807079346535
766.0, 0.0038175585174589723
767.0, 0.002574803713925388
768.0, 0.0033037103624744936
769.0, 0.004110457894972732
770.0, 0.0034725581842624314
771.0, 0.002698218817462234
772.0, 0.003974013985213808
773.0, 0.004065837431238136
774.0, 0.0034030915452310305
775.0, 0.005161754151644912
776.0, 0.0045953297101279525
777.0, 0.004314202607106945
778.0, 0.004592553609674337
779.0, 0.005429195777618753
780.0, 0.005999791491730964
781.0, 0.0059302113328399434
782.0, 0.006083291590694601
783.0, 0.0067067814893380815
784.0, 0.007720915182961954
785.0, 0.008956484000269514
786.0, 0.009484223530590854
787.0, 0.010066929402313735
788.0, 0.011202067251010365
789.0, 0.01076987227738045
790.0, 0.011117898097895991
791.0, 0.012304572832234028
792.0, 0.013719491360575348
793.0, 0.013939732691909231
794.0, 0.014712743029332814
795.0, 0.016419281962617556
796.0, 0.01821582003219234
797.0, 0.019587663791507236
798.0, 0.022336466108038997
799.0, 0.02423926849428388
800.0, 0.025779304618301926
801.0, 0.02709547508555426
802.0, 0.02819549334253285
803.0, 0.03217983858309362
804.0, 0.03406418033131551
805.0, 0.03599551056869079
806.0, 0.03951484318351726
807.0, 0.04308741586686824
808.0, 0.04673820454349663
809.0, 0.0507525554149522
810.0, 0.055328174184277004
811.0, 0.06065092681883696
812.0, 0.06542543000323323
813.0, 0.07225143005453002
814.0, 0.08094231156938753
815.0, 0.0909887522213298
816.0, 0.10098523919449715
817.0, 0.11267676411951284
818.0, 0.12972914412442266
819.0, 0.1528613659124342
820.0, 0.1821249824682817
821.0, 0.22983741354085532
822.0, 0.3067505499024213
823.0, 0.41523088142510634
824.0, 0.5590778663590983
825.0, 0.7491214807597713
826.0, 0.9322991696705254
827.0, 0.9984577376246743
828.0, 0.9413726285947764
829.0, 0.7800152805746685
830.0, 0.5818824066168065
831.0, 0.4294041057946481
832.0, 0.3195766435678765
833.0, 0.24598849930631972
834.0, 0.1958668242414323
835.0, 0.1682610048538471
836.0, 0.1471379748431002
837.0, 0.12822460583050896
838.0, 0.10918933684725161
839.0, 0.09322159132268942
840.0, 0.08085945512217155
841.0, 0.06827907448878616
842.0, 0.05579402583700325
843.0, 0.04517113266587721
844.0, 0.038796000115038115
845.0, 0.031524580736901966
846.0, 0.025327647536014665
847.0, 0.021042545112194534
848.0, 0.01809087189654533
849.0, 0.016239390615989006
850.0, 0.014442968902529373
851.0, 0.012616382835715069
852.0, 0.010777553221301892
853.0, 0.008828258585871007
854.0, 0.00895793272060726
855.0, 0.009266357512179227
856.0, 0.008837624229639426
857.0, 0.007071090749856368
858.0, 0.007091402996546787
859.0, 0.006532057171234647
860.0, 0.005588301343049081
861.0, 0.0046059255736053675
862.0, 0.004345140117530965
863.0, 0.0038397089666421746
864.0, 0.0031583657956359952
865.0, 0.002619727098911637
866.0, 0.002586545673849493
867.0, 0.0033622101239461685
868.0, 0.0027178095003367172
869.0, 0.002371568425603047
870.0, 0.0026793147674262583
871.0, 0.0031561730833961164
872.0, 0.0024666760118240193
873.0, 0.0015935560755119585
874.0, 0.0013123966617584247
875.0, 0.0016234582329061966
876.0, 0.0006153146180667012
877.0, 0.0021977162605668205
878.0, 0.002484092583386185
879.0, 0.0016415946310016612
880.0, 0.000588180381304771
881.0, 0.0002571621395696652
882.0, 0.008275344405872733
883.0, 0.012814296820470843
884.0, 0.012495588035091688
885.0, 0.011772477719598827
886.0, 0.01989588253095168
887.0, 0.018197644050998562
888.0, 0.015105141099855546
889.0, 0.016101645394673833
890.0, 0.022811789023952794
891.0, 0.02057903540209129
892.0, 0.014218267520341029
893.0, 0.009650553077801672
894.0, 0.010941912626196343
895.0, 0.011969380626645926
896.0, 0.01244297185621726
897.0, 0.014102119099948731
898.0, 0.01603793620797489
899.0, 0.016398258190649835
900.0, 0.01635815593668399
901.0, 0.01607421357536518
902.0, 0.015893132522220448
903.0, 0.015556436629934266
904.0, 0.014128719435654198
905.0, 0.014342394090796582
906.0, 0.013195766033602837
907.0, 0.011978000299961817
908.0, 0.011315555036901919
909.0, 0.0098736205228834
910.0, 0.00871594028909736
911.0, 0.007814084243741208
912.0, 0.006844406051500576
913.0, 0.005590535450265032
914.0, 0.004865519111169615
915.0, 0.00380789816807234
916.0, 0.002435547142270934
917.0, 0.0013201246198419005
918.0, 0.0012396741084163177
919.0, 0.0013906082040803921
920.0, 0.0011055367271683946
921.0, 0.0005604250096938729
922.0, 4.8859654294582125e-05
923.0, 4.0064379485572314e-05
924.0, 0.0005671965550121068
925.0, 0.0012088050788112885
926.0, 0.0011491762611246879
927.0, 0.00037985492995291014
928.0, 0.0004693803430750829
929.0, 0.002370787468376258
930.0, 0.0022899756863147087
931.0, 0.001932526064563751
932.0, 0.0026066123977489045
933.0, 0.001779610019639962
934.0, 0.001115554566007774
935.0, 0.0017027264092047856
936.0, 0.003017237994549112
937.0, 0.0044669163663430995
938.0, 0.008853826872852077
939.0, 0.004214434974947856
940.0, 0.0008806510271290502
941.0, 0.00039938634326900556
942.0, 0.0005159819032947259
943.0, 0.0008763951382683808
944.0, 0.0004398209246446472
945.0, 0.0007426034748513551
946.0, 0.001542932420887853
947.0, 0.001063227118293722
948.0, 0.0017985721768938282
949.0, 0.002630438871900653
950.0, 0.00262445860855981
951.0, 0.0020082224515629585
952.0, 0.002793097378626002
953.0, 0.0039077623096043885
954.0, 0.005353203553903491
955.0, 0.006695220945125861
956.0, 0.007616818151809024
957.0, 0.008069653645775408
958.0, 0.008682025865878048
959.0, 0.008801423094768428
960.0, 0.008894413100291052
961.0, 0.009669113538871576
962.0, 0.012403619751311552
963.0, 0.014435900627361262
964.0, 0.01617698612221086
965.0, 0.017981022265475575
966.0, 0.019966231216654976
967.0, 0.020671467740504552
968.0, 0.022824948052643755
969.0, 0.02671156421199559
970.0, 0.030920440874335136
971.0, 0.033812772634271696
972.0, 0.03848050831119869
973.0, 0.04462790262871211
974.0, 0.05245107557354608
975.0, 0.06206697347443273
976.0, 0.07332237561557087
977.0, 0.08332740738762712
978.0, 0.10064309166005196
979.0, 0.11890018237609014
980.0, 0.13813438408407264
981.0, 0.1625096454533313
982.0, 0.1991558900840344
983.0, 0.24239520971379816
984.0, 0.30199810707652275
985.0, 0.38119207044015546
986.0, 0.47734365509403387
987.0, 0.569677142250689
988.0, 0.6580753428879694
989.0, 0.7156486593850906
990.0, 0.7343676066899243
991.0, 0.7264025912565268
992.0, 0.6912162371394036
993.0, 0.6708389913404207
994.0, 0.6631138993148065
995.0, 0.6657610767320408
996.0, 0.6778069969979557
997.0, 0.6843926164698163
998.0, 0.6486039581048787
999.0, 0.5874457678699886
1000.0, 0.5112254506561451
1001.0, 0.4156864616058903
1002.0, 0.3474340472264849
1003.0, 0.2909529915471378
1004.0, 0.24863928070330693
1005.0, 0.2193843520683925
1006.0, 0.19510047977999737
1007.0, 0.16323535139268974
1008.0, 0.13418659414266038
1009.0, 0.10925509904825872
1010.0, 0.08856173390557272
1011.0, 0.07148050954564697
1012.0, 0.06232059013857025
1013.0, 0.05303240455320374
1014.0, 0.04470597649074066
1015.0, 0.038241336305453025
1016.0, 0.033028048740084096
1017.0, 0.03064564252543146
1018.0, 0.02674736775714453
1019.0, 0.023450205251503254
1020.0, 0.02195720824579226
1021.0, 0.020758412832961506
1022.0, 0.018647689155828658
1023.0, 0.01631853139709481
1024.0, 0.013505762272323871
1025.0, 0.010943769869542107
1026.0, 0.011604991005517049
1027.0, 0.01028302942160572
1028.0, 0.00996900067622719
1029.0, 0.00939621303939585
1030.0, 0.007779070672504282
1031.0, 0.005706526916033195
1032.0, 0.0057720280691207215
1033.0, 0.006457872314021788
1034.0, 0.006196339591538845
1035.0, 0.004928745015176221
1036.0, 0.005143260343281303
1037.0, 0.00475399020153692
1038.0, 0.004150143584978825
1039.0, 0.0037804536938928334
1040.0, 0.003542219737507509
1041.0, 0.002504294349572087
1042.0, 0.0028991363417859004
1043.0, 0.0023049499824016944
1044.0, 0.0015591823624294433
1045.0, 0.0013327190849774877
1046.0, 0.0019668153321869886
1047.0, 0.00110257027444219
1048.0, 0.0023139438913832174
1049.0, 0.0021150446744110755
1050.0, 0.0003770318112339415
1051.0, 0.00048764050130717927
1052.0, 0.0012840612163421685
1053.0, 0.0008193921984514673
1054.0, 0.0005319571551086589
1055.0, 0.0008052461324963528
1056.0, 0.0011954797692802107
1057.0, 0.0030791508711478315
1058.0, 0.0020711647939143526
1059.0, 0.001089583645161915
1060.0, 0.001140924800749623
1061.0, 0.0018655625349905279
1062.0, 0.000469549196109816
1063.0, 0.00010980788955342361
1064.0, 0.00020921052704085796
1065.0, 0.00030603671862252713
1066.0, 0.00015018903690319101
1067.0, 0.001094527192936917
1068.0, 0.0004272852132896922
1069.0, 0.0003063102350783635
1070.0, 0.0005581980118172985
1071.0, 0.0004061637340627754
1072.0, 6.985647196833348e-05
1073.0, 0.0010850894532876978
1074.0, 0.0013790567022392152
1075.0, 0.0013941530212988446
1076.0, 0.0017521870438507467
1077.0, 0.0016292034837312413
1078.0, 0.0032102388414757175
1079.0, 0.0034215264962047663
1080.0, 0.003344425240889304
1081.0, 0.003726131659791809
1082.0, 0.0030930204397844182
1083.0, 0.004614043143376245
1084.0, 0.004114920880261136
1085.0, 0.0030734907983865703
1086.0, 0.0033164794913166213
1087.0, 0.006533336252227622
1088.0, 0.0036068544661366107
1089.0, 0.005485218016307163
1090.0, 0.006384917869035092
1091.0, 0.005330173906875043
1092.0, 0.0062060832335636175
1093.0, 0.006051778066860844
1094.0, 0.006783912096119913
1095.0, 0.008588457040325279
1096.0, 0.009881583499269729
1097.0, 0.008779261167379171
1098.0, 0.011172914118843271
1099.0, 0.012178465345142813
1100.0, 0.011431358740373947
1101.0, 0.010627903497406678
1102.0, 0.011518156226790277
1103.0, 0.012409123948396203
1104.0, 0.014177764928713796
1105.0, 0.014149549747272597
1106.0, 0.014233526168072346
1107.0, 0.015458397363101098
1108.0, 0.014189216908475917
1109.0, 0.017664980670203542
1110.0, 0.01661841201900255
1111.0, 0.015948301664652314
1112.0, 0.017780005795298648
1113.0, 0.018539397476711558
1114.0, 0.019102551176969247
1115.0, 0.018822918765462587
1116.0, 0.019093100963227826
1117.0, 0.020456650225879357
1118.0, 0.02244915218257205
1119.0, 0.02039258782793675
1120.0, 0.023710552555649664
1121.0, 0.029381257205864403
1122.0, 0.03680483395235557
1123.0, 0.045005399610054196
1124.0, 0.045735971856696915
1125.0, 0.03818937274993616
1126.0, 0.033754305323304507
1127.0, 0.030346884262159604
1128.0, 0.02636172222186306
1129.0, 0.028209880078961073
1130.0, 0.02693807262617136
1131.0, 0.026987678697038713
1132.0, 0.027302434824660993
1133.0, 0.0274953184999097
1134.0, 0.028448507648877693
1135.0, 0.029059511337794997
1136.0, 0.029640466266478534
1137.0, 0.030481925495364298
1138.0, 0.031011594161224926
1139.0, 0.030507073557018014
1140.0, 0.031132339908252826
1141.0, 0.032576060896138986
1142.0, 0.03341490572879005
1143.0, 0.0334527671007323
1144.0, 0.03329289312454829
1145.0, 0.03495917241050398
1146.0, 0.035144799886126586
1147.0, 0.03534329849978026
1148.0, 0.03511107198330188
1149.0, 0.034465468359287314
1150.0, 0.034267908571039535
1151.0, 0.034863046060319626
1152.0, 0.03724407730705101
1153.0, 0.03688788572400901
1154.0, 0.03538990258691791
1155.0, 0.03690591811223187
1156.0, 0.03554855632434994
1157.0, 0.037077159959983605
1158.0, 0.03766497237636569
1159.0, 0.03733997828999512
1160.0, 0.03688087790041946
1161.0, 0.036405819096749045
1162.0, 0.03836637220184158
1163.0, 0.038782202746633444
1164.0, 0.03782748447726418
1165.0, 0.03627699585209282
1166.0, 0.035296170803651127
1167.0, 0.039303244148851495
1168.0, 0.038918372336301146
1169.0, 0.038660728905527096
1170.0, 0.03848223996943054
1171.0, 0.03686030904023227
1172.0, 0.035413771154610287
1173.0, 0.0374141430569464
1174.0, 0.039502887769665256
1175.0, 0.03956157073309969
1176.0, 0.0376753962266822
1177.0, 0.037294705183994845
1178.0, 0.03862116821449227
1179.0, 0.039320940625104175
1180.0, 0.03900373052920699
1181.0, 0.03872140345741562
1182.0, 0.03983382192722021
1183.0, 0.03873739495761488
1184.0, 0.03861000610663684
1185.0, 0.03830475714407571
1186.0, 0.03839948296543918
1187.0, 0.038860724069820864
1188.0, 0.03730748758860516
1189.0, 0.037976730641755524
1190.0, 0.03893744673857384
1191.0, 0.03908975767769469
1192.0, 0.03877273921435699
1193.0, 0.039194345941735584
1194.0, 0.03785408372598574
1195.0, 0.03898188124069937
1196.0, 0.0383174217545586
1197.0, 0.03736654753761412
1198.0, 0.038099050467530836
1199.0, 0.03908136683412605
1200.0, 0.037424866151030904
1201.0, 0.03770502616784324
1202.0, 0.03711874059692271
1203.0, 0.03664119561745814
1204.0, 0.03990951224885734
1205.0, 0.03589628005116376
1206.0, 0.038270647114315194
1207.0, 0.037680238369376236
1208.0, 0.03670458470837957
1209.0, 0.03861718646288621
1210.0, 0.038683393814583224
1211.0, 0.03758052179970357
1212.0, 0.037485655247156094
1213.0, 0.03804381811448237
1214.0, 0.03796813049018722
1215.0, 0.036044649099199993
1216.0, 0.037907055239987344
1217.0, 0.03932455026776078
1218.0, 0.03889849489043449
1219.0, 0.037495254801013435
1220.0, 0.036540569207914576
1221.0, 0.037180856811185777
1222.0, 0.035335094753471546
1223.0, 0.03566800389922568
1224.0, 0.036325492086602115
1225.0, 0.035981510346920244
1226.0, 0.03436143781764266
1227.0, 0.033883284650748274
1228.0, 0.03464335295451512
1229.0, 0.03550897376429248
1230.0, 0.03529975355541297
1231.0, 0.034186739840256566
1232.0, 0.0344863024870081
1233.0, 0.03296484010508731
1234.0, 0.03154111943515777
1235.0, 0.032203609762660554
1236.0, 0.0328941402097886
1237.0, 0.031261409796387654
1238.0, 0.03248621830445497
1239.0, 0.0334337989155582
1240.0, 0.03288288398771278
1241.0, 0.03283004950065934
1242.0, 0.03320978912525474
1243.0, 0.03159150660136869
1244.0, 0.03064186166096594
1245.0, 0.03009803965678878
1246.0, 0.030311950439459855
1247.0, 0.0301766637960187
1248.0, 0.029349173510410914
1249.0, 0.03032133378215902
1250.0, 0.02946273124271471
1251.0, 0.02908372406758308
1252.0, 0.02878076838657119
1253.0, 0.028316569431299333
1254.0, 0.027693941878137857
1255.0, 0.027194543787672713
1256.0, 0.026770077930590917
1257.0, 0.026590578480879118
1258.0, 0.026471556718079454
1259.0, 0.02570011174020138
1260.0, 0.02338018893907251
1261.0, 0.02460610275598053
1262.0, 0.025428341983958505
1263.0, 0.024099757397193233
1264.0, 0.02295488898085081
1265.0, 0.023723503541122556
1266.0, 0.023500729672227234
1267.0, 0.02256770131995418
1268.0, 0.023694811072040103
1269.0, 0.022368954831055353
1270.0, 0.020636483584320485
1271.0, 0.022595805913538318
1272.0, 0.022535242258277948
1273.0, 0.02088153603969895
1274.0, 0.020434874029309078
1275.0, 0.020181180097857777
1276.0, 0.019462373237019583
1277.0, 0.01862052002174102
1278.0, 0.019075537960471227
1279.0, 0.01831799479592546
1280.0, 0.018728440618341363
1281.0, 0.018101534532109293
1282.0, 0.016151029127029707
1283.0, 0.01727057380049983
1284.0, 0.016638847238301183
1285.0, 0.0160815155398295
1286.0, 0.016371188244055212
1287.0, 0.016519585104417756
1288.0, 0.015753217370837683
1289.0, 0.015782711637261193
1290.0, 0.014442155073134174
1291.0, 0.01461770106421518
1292.0, 0.014755983978093062
1293.0, 0.014306947666577152
1294.0, 0.013508557826371975
1295.0, 0.012429267041149961
1296.0, 0.01278172814435018
1297.0, 0.012620644398171527
1298.0, 0.012369460321956034
1299.0, 0.011520484534415327
1300.0, 0.009283583367836004
1301.0, 0.010322534013662328
1302.0, 0.009396488073019476
1303.0, 0.009215897548334203
1304.0, 0.009120560426041029
1305.0, 0.009006127529332648
1306.0, 0.009938930558477879
1307.0, 0.00942282982544594
1308.0, 0.009035077934420018
1309.0, 0.009173032247857758
1310.0, 0.008587939680824243
1311.0, 0.0073698220116796284
1312.0, 0.008219574848083834
1313.0, 0.00707040520074631
1314.0, 0.00692446360752717
1315.0, 0.007060317692230519
1316.0, 0.007761955821519556
1317.0, 0.008269463008998687
1318.0, 0.005086094704543118
1319.0, 0.0074840179075333964
1320.0, 0.007275777197607157
1321.0, 0.004892357574310825
1322.0, 0.003988536028954443
1323.0, 0.00635857700132283
1324.0, 0.0053745589233134715
1325.0, 0.006660678358027068
1326.0, 0.00697657602486614
1327.0, 0.0061330774243105075
1328.0, 0.005154285673454141
1329.0, 0.0051109932717392954
1330.0, 0.005290289900026261
1331.0, 0.004628601231964927
1332.0, 0.00345320018370349
1333.0, 0.002677500973778669
1334.0, 0.002806446867457978
1335.0, 0.0035182470991553007
1336.0, 0.002700426808861051
1337.0, 0.0035611719258215515
1338.0, 0.003397494045802196
1339.0, 0.002746624041817848
1340.0, 0.002642068658376325
1341.0, 0.003479179530972481
1342.0, 0.002520842216493985
1343.0, 0.0019256933945919553
1344.0, 0.0019680953550676563
1345.0, 0.0012521510462175272
1346.0, 0.0002645193623155192
1347.0, 0.0006773952409923957
1348.0, 0.0026225214575168083
1349.0, 0.002244681210340763
1350.0, 0.0024896573587087343
1351.0, 0.005339503190005829
1352.0, 0.007357639118112004
1353.0, 0.004340690520522827
1354.0, 0.006468404312208156
1355.0, 0.001572347327149016
1356.0, 0.0009820507087906659
1357.0, 0.0021958438114513313
1358.0, 0.0026825323914283668
1359.0, 0.0018285978345511426
1360.0, 0.0021450562743310308
1361.0, 0.0013897089758469823
1362.0, 0.0008319372668934103
1363.0, 0.0015660236777895002
1364.0, 0.002049588468285134
1365.0, 0.00047952452375685684
1366.0, 0.0014731825156558864
1367.0, 0.001016928918800269
1368.0, 0.0023730337595938523
1369.0, 0.0023706417909222944
1370.0, 0.0009814458588471302
1371.0, 0.0006342481324761154
1372.0, 0.0033685471373066105
1373.0, 0.0007292466783954551
1374.0, 0.001682685400310444
1375.0, 0.004366897797444448
1376.0, 0.0046670936225220215
1377.0, 0.0008362429849244194
1378.0, 0.00027392617736366945
1379.0, 7.188692212331934e-05
1380.0, 0.000687895525309508
1381.0, 0.0005686387882622432
1382.0, 0.0002060416831715189
1383.0, 0.0004849307116266028
1384.0, 0.0004857932524729563
1385.0, 0.00034643623613896384
1386.0, 0.0006520423353715785
1387.0, 0.0004159415115487991
1388.0, 0.0002571702499439243
1389.0, 0.0013649860015351662
1390.0, 0.00434384703321658
1391.0, 0.001975299342788081
1392.0, 0.001867304535658363
1393.0, 0.0013309176670908125
1394.0, 0.0005424575412267523
1395.0, 0.0003613813429237361
1396.0, 0.0010001295597806732
1397.0, 0.001312281437445038
1398.0, 0.0009885196305344686
1399.0, 0.0010804508552697204
1400.0, 0.000948071901037491
1401.0, 0.0006483382457822611
1402.0, 0.0011607178255441284
1403.0, 0.000315676973436889
1404.0, 0.0002984454330527315
1405.0, 0.0002411402494585842
1406.0, 0.001307027007908422
1407.0, 0.0025891679433503534
1408.0, 0.0018060401665875136
1409.0, 0.00011033860980439272
1410.0, 0.0028024849418571167
1411.0, 0.001510265826121958
1412.0, 0.0010616600491869625
1413.0, 0.001430415597733318
1414.0, 0.00027146632982803944
1415.0, 0.0005522068941934434
1416.0, 0.0004913353832367061
1417.0, 0.00021814350271827477
1418.0, 0.00012748737753776155
1419.0, 0.0004284308066889709
1420.0, 0.0007953024648376091
1421.0, 0.00022496071596438022
1422.0, 8.610622247490215e-05
1423.0, 0.000808205010603146
1424.0, 0.0008053663886432522
1425.0, 0.00039080784800119857
1426.0, 0.00016599620463355464
1427.0, 0.000229426798329582
1428.0, 3.759566215914042e-05
1429.0, 0.00047543894021306833
1430.0, 0.0008804513999363824
1431.0, 0.0011764256708740423
1432.0, 0.0012277370696842289
1433.0, 0.0009746154914995683
1434.0, 0.0011292796482134046
1435.0, 0.0016075240681824722
1436.0, 0.0015668157460217026
1437.0, 0.0023019075259490904
1438.0, 0.003017132734435533
1439.0, 0.0028476252597159153
1440.0, 0.003437436998519805
1441.0, 0.0032045733752356074
1442.0, 0.001699905525480915
1443.0, 0.0024318367057047686
1444.0, 0.003732846522083203
1445.0, 0.0035163107819727374
1446.0, 0.0019641272219942593
1447.0, 0.002310106325954762
1448.0, 0.0028287604554372956
1449.0, 0.0024515588893675366
1450.0, 0.00427380260678326
1451.0, 0.006609337494090856
1452.0, 0.005642819927666887
1453.0, 0.005254383314115047
1454.0, 0.006185684512186319
1455.0, 0.00574474724002823
1456.0, 0.005348638859140979
1457.0, 0.0053262948478129835
1458.0, 0.005249378152273085
1459.0, 0.004630901128715264
1460.0, 0.005284666693339333
1461.0, 0.003947077106086942
1462.0, 0.004621260820566824
1463.0, 0.005611698381894564
1464.0, 0.005001167724913587
1465.0, 0.0031543959448108823
1466.0, 0.005082001051244541
1467.0, 0.00282576224925652
1468.0, 0.0029416296568122364
1469.0, 0.0032439029236327518
1470.0, 0.002932784813521973
1471.0, 0.0024731533648828007
1472.0, 0.0024755734273932267
1473.0, 0.003308297245800503
1474.0, 0.003207715245911402
1475.0, 0.0017975240404235658
1476.0, 0.0015319312822178242
1477.0, 0.002550969093419499
1478.0, 0.0024490933830143514
1479.0, 0.002255005013042246
1480.0, 0.003943912652973524
1481.0, 0.002293717146813902
1482.0, 0.002388502861714814
1483.0, 0.0034741617793738106
1484.0, 0.002950751315052972
1485.0, 0.0020104891104602497
1486.0, 0.00046879376560754883
1487.0, 0.002921237066760325
1488.0, 0.0017253702677905586
1489.0, 0.0017968784521006909
1490.0, 0.0035460874388534543
1491.0, 0.0022206969871382113
1492.0, 0.0021913513669732706
1493.0, 0.0026654174087620366
1494.0, 0.0015803119737823374
1495.0, 0.002418218186828927
1496.0, 0.002626056916536698
1497.0, 0.0008574348340348323
1498.0, 0.0017926005476845202
1499.0, 0.000472388913978307
1500.0, 0.004766070975424879
1501.0, 0.004608582212774558
1502.0, 0.0044869049745324486
1503.0, 0.004496136135728733
1504.0, 0.0017113317728009282
1505.0, 0.00013215662117942037
1506.0, 0.0003783206558984111
1507.0, 0.001675209580010911
1508.0, 0.001775078032815751
1509.0, 0.0010384521130934236
1510.0, 0.0006495295302272366
1511.0, 0.001195537398678545
1512.0, 0.0011745823880998066
1513.0, 0.0009442382899477361
1514.0, 0.0012809116780535886
1515.0, 0.0011666451504218122
1516.0, 0.0005616585129976423
1517.0, 7.26923277703635e-05
1518.0, 0.0002107667780569832
1519.0, 0.0006561660048136577
1520.0, 0.00017316670793355356
1521, 0.0
1522, 0.0
1523, 0.0
1524, 0.0
1525, 0.0
1526, 0.0
1527, 0.0
1528, 0.0
1529, 0.0
1530, 0.0
1531, 0.0
1532, 0.0
1533, 0.0
1534, 0.0
1535, 0.0
1536, 0.0
1537, 0.0
1538, 0.0
1539, 0.0
1540, 0.0
1541, 0.0
1542, 0.0
1543, 0.0
1544, 0.0
1545, 0.0
1546, 0.0
1547, 0.0
1548, 0.0
1549, 0.0
1550, 0.0
1551, 0.0
1552, 0.0
1553, 0.0
1554, 0.0
1555, 0.0
1556, 0.0
1557, 0.0
1558, 0.0
1559, 0.0
1560, 0.0
1561, 0.0
1562, 0.0
1563, 0.0
1564, 0.0
1565, 0.0
1566, 0.0
1567, 0.0
1568, 0.0
1569, 0.0
1570, 0.0
1571, 0.0
1572, 0.0
1573, 0.0
1574, 0.0
1575, 0.0
1576, 0.0
1577, 0.0
1578, 0.0
1579, 0.0
1580, 0.0
1581, 0.0
1582, 0.0
1583, 0.0
1584, 0.0
1585, 0.0
1586, 0.0
1587, 0.0
1588, 0.0
1589, 0.0
1590, 0.0
1591, 0.0
1592, 0.0
1593, 0.0
1594, 0.0
1595, 0.0
1596, 0.0
1597, 0.0
1598, 0.0
1599, 0.0
