30, 0.0
31, 0.0
32, 0.0
33, 0.0
34, 0.0
35, 0.0
36, 0.0
37, 0.0
38, 0.0
39, 0.0
40, 0.0
41, 0.0
42, 0.0
43, 0.0
44, 0.0
45, 0.0
46, 0.0
47, 0.0
48, 0.0
49, 0.0
50, 0.0
51, 0.0
52, 0.0
53, 0.0
54, 0.0
55, 0.0
56, 0.0
57, 0.0
58, 0.0
59, 0.0
60, 0.0
61, 0.0
62, 0.0
63, 0.0
64, 0.0
65, 0.0
66, 0.0
67, 0.0
68, 0.0
69, 0.0
70, 0.0
71, 0.0
72, 0.0
73, 0.0
74, 0.0
75, 0.0
76, 0.0
77, 0.0
78, 0.0
79, 0.0
80, 0.0
81, 0.0
82, 0.0
83, 0.0
84, 0.0
85, 0.0
86, 0.0
87, 0.0
88, 0.0
89, 0.0
90, 0.0
91.0, 0.0018994082748975954
92.0, 0.007831580800529226
93.0, 0.01391713676148239
94.0, 0.014376745943005375
95.0, 0.010627945043962894
96.0, 0.006045872515239676
97.0, 0.0026188099110194944
98.0, 0.0002719167807603297
99.0, 0.0003267993873028401
100.0, 0.001793511224455343
101.0, 0.004385919004607833
102.0, 0.006920803464482593
103.0, 0.009160089791216072
104.0, 0.010868698522967419
105.0, 0.012349210645553447
106.0, 0.014252765305783347
107.0, 0.017876037775631314
108.0, 0.023617950771002358
109.0, 0.02972377300120497
110.0, 0.034846570192052034
111.0, 0.039288820786657186
112.0, 0.0426971989281952
113.0, 0.04456087216273424
114.0, 0.0443622397106003
115.0, 0.04301450825713297
116.0, 0.041086586675322466
117.0, 0.03793237203702884
118.0, 0.03379011971407919
119.0, 0.03037257986691703
120.0, 0.02654372272088723
121.0, 0.023103737772950973
122.0, 0.02020086805421007
123.0, 0.017211909470021894
124.0, 0.01467486590073087
125.0, 0.012041558874251118
126.0, 0.009125530159077534
127.0, 0.006189783535787256
128.0, 0.004059348712487203
129.0, 0.00293494298516511
130.0, 0.0021718518964390617
131.0, 0.001284640896318202
132.0, 0.0005485480642125552
133.0, 9.437165589566075e-05
134.0, 0.0007315885248153403
135.0, 0.0013753829732022944
136.0, 0.0013890710591213632
137.0, 0.0011479625909943387
138.0, 0.0007673322843649273
139.0, 0.0003263190205751618
140.0, 9.447486216529535e-05
141.0, 0.0004912326608347015
142.0, 0.000838353357736261
143.0, 0.001187126519182456
144.0, 0.001623446751798169
145.0, 0.0022160383459871066
146.0, 0.003115200583871116
147.0, 0.0041187161451227295
148.0, 0.0050397930125591316
149.0, 0.0067556180663173575
150.0, 0.008137229797646705
151.0, 0.009199115050457991
152.0, 0.01019150508395772
153.0, 0.011537265149540357
154.0, 0.012739682597878171
155.0, 0.014014687994590685
156.0, 0.015293086330303213
157.0, 0.01609235870217598
158.0, 0.0161547343304132
159.0, 0.016227502698082676
160.0, 0.01650941946031942
161.0, 0.01692715250515818
162.0, 0.017889481371397953
163.0, 0.018976965622139685
164.0, 0.01993620885214075
165.0, 0.020765817146983584
166.0, 0.021752518962734637
167.0, 0.022947874144335363
168.0, 0.023701041810317316
169.0, 0.02370716212146029
170.0, 0.023264660110405448
171.0, 0.02259703000670321
172.0, 0.021557343092921427
173.0, 0.020064646095238548
174.0, 0.018283980506584648
175.0, 0.01657922928155252
176.0, 0.015600100539856054
177.0, 0.014811423047488203
178.0, 0.013925980627036962
179.0, 0.013364772234080604
180.0, 0.012851152601840466
181.0, 0.012194738088258964
182.0, 0.01159496147365361
183.0, 0.01134636743728907
184.0, 0.010590733348595314
185.0, 0.0100650491968943
186.0, 0.009681573745599905
187.0, 0.00907270794910059
188.0, 0.008530835625950377
189.0, 0.008007733130598663
190.0, 0.007483148744259244
191.0, 0.006870685057119865
192.0, 0.006012836085658799
193.0, 0.0054027757446084256
194.0, 0.004648134367474961
195.0, 0.0038078070344535722
196.0, 0.0032692285288916075
197.0, 0.002923269987424954
198.0, 0.0024663534358063456
199.0, 0.0019386360315885197
200.0, 0.001496012774224308
201.0, 0.0014357184054317232
202.0, 0.0013296354738229316
203.0, 0.0012167004741217595
204.0, 0.0011313910022225512
205.0, 0.001041314974485474
206.0, 0.0010985740483099868
207.0, 0.0010968264665928713
208.0, 0.0009445343269432252
209.0, 0.000769942522340978
210.0, 0.0008156136224119103
211.0, 0.0009369722036848766
212.0, 0.0011828417178450653
213.0, 0.0014261558498526253
214.0, 0.0014301513941605063
215.0, 0.001594142727498568
216.0, 0.0018169176950578521
217.0, 0.0019179887882686776
218.0, 0.0018430644008400265
219.0, 0.0017701279821430774
220.0, 0.0018726562826766402
221.0, 0.0019346852263916472
222.0, 0.001828648204415452
223.0, 0.001633759675993599
224.0, 0.0015538007274121597
225.0, 0.0015037143776197037
226.0, 0.0015346501880985405
227.0, 0.0017223610858379036
228.0, 0.0018560879667848132
229.0, 0.002111544755091567
230.0, 0.002327610228965098
231.0, 0.0023863489193604475
232.0, 0.0023482317537216906
233.0, 0.0023779616006463253
234.0, 0.0024046088538413795
235.0, 0.002393724115269215
236.0, 0.002311982979738371
237.0, 0.0019851783779588857
238.0, 0.0020686256144552976
239.0, 0.002118899268840115
240.0, 0.00205613910035628
241.0, 0.0024408740091244707
242.0, 0.00244833187312442
243.0, 0.002293064210628936
244.0, 0.0022934288271196463
245.0, 0.002596390888743151
246.0, 0.0026211387053004494
247.0, 0.0027571428305360308
248.0, 0.0028265894341090335
249.0, 0.0028339446948239216
250.0, 0.0030217013642430735
251.0, 0.0029545147329375506
252.0, 0.002615492699613732
253.0, 0.0023575711836633833
254.0, 0.0022101153864082733
255.0, 0.0017089099194366152
256.0, 0.0013773906646828403
257.0, 0.0011072004826765364
258.0, 0.0008316811066055335
259.0, 0.0005610392314659667
260.0, 0.0001370578479559757
261.0, 9.905327058935229e-05
262.0, 5.520879033589632e-05
263.0, 0.0001676199677238524
264.0, 0.00023947255332767612
265.0, 0.00012450812726805935
266.0, 0.0002063491236368347
267.0, 0.0003778154806537267
268.0, 0.0003690636609025411
269.0, 0.000186919599225398
270.0, 0.00019336271859772224
271.0, 0.000187536687500902
272.0, 6.811635524808588e-05
273.0, 5.329151480282732e-05
274.0, 0.00030064451686102276
275.0, 0.0006790309499505409
276.0, 0.0011211142366252384
277.0, 0.0015259232489964205
278.0, 0.0018477354720320012
279.0, 0.002288691574341605
280.0, 0.0027985572102478457
281.0, 0.003385382434208394
282.0, 0.004061843297779359
283.0, 0.004668354867488621
284.0, 0.005292118559644126
285.0, 0.006048759971432055
286.0, 0.006827923543700838
287.0, 0.007463203756941607
288.0, 0.008304170046004394
289.0, 0.009051064361074446
290.0, 0.010081408809077153
291.0, 0.011621773548822127
292.0, 0.01334379165288665
293.0, 0.01479907377317703
294.0, 0.015811454845443527
295.0, 0.016892400224246963
296.0, 0.018537058494909272
297.0, 0.020127246948737066
298.0, 0.02173317085098963
299.0, 0.022949992149514604
300.0, 0.023594206030371444
301.0, 0.023840244983066583
302.0, 0.023841903933762787
303.0, 0.02395941448914531
304.0, 0.024145046723652277
305.0, 0.024375535248573405
306.0, 0.02487434172871476
307.0, 0.025872329189249477
308.0, 0.027600550223394006
309.0, 0.02980270822862434
310.0, 0.032251267985171306
311.0, 0.03482046585219581
312.0, 0.03729812680336112
313.0, 0.0397052485546324
314.0, 0.04170274865729107
315.0, 0.042801032655218535
316.0, 0.04269044939735339
317.0, 0.04120298068738578
318.0, 0.038480391533894084
319.0, 0.03496202017058992
320.0, 0.031349407049315256
321.0, 0.028519600835072823
322.0, 0.025423262139948468
323.0, 0.022608948431344287
324.0, 0.020433680381459523
325.0, 0.018613923096465684
326.0, 0.016787948700048627
327.0, 0.015122796662774622
328.0, 0.013364892899580863
329.0, 0.011640098578821381
330.0, 0.010447960834532642
331.0, 0.009296754475194204
332.0, 0.00860316443580581
333.0, 0.008119216469661773
334.0, 0.007789197314627
335.0, 0.008100196842776795
336.0, 0.008656853405648425
337.0, 0.009192212615005893
338.0, 0.009951569822055474
339.0, 0.011033068374206027
340.0, 0.01206568511236977
341.0, 0.012962844260336441
342.0, 0.013471038952075123
343.0, 0.013420328456519491
344.0, 0.012847282115240131
345.0, 0.01199890372117369
346.0, 0.011144566753780082
347.0, 0.010287723364239025
348.0, 0.009307937553068869
349.0, 0.008171844341945095
350.0, 0.007301376187266966
351.0, 0.00630319319014713
352.0, 0.005291038794230498
353.0, 0.004485530587419806
354.0, 0.004002464430707709
355.0, 0.00344690203053217
356.0, 0.003061743928666829
357.0, 0.002619310674588557
358.0, 0.00212597307949303
359.0, 0.0017765013151442208
360.0, 0.0014177951502538512
361.0, 0.001055478696976002
362.0, 0.0007692167363125481
363.0, 0.0005660214443554576
364.0, 0.0003718703090892778
365.0, 8.155108735810872e-05
366.0, 4.370428111847062e-06
367.0, 9.080679667141442e-05
368.0, 0.00023140753407930722
369.0, 0.00032635458894255976
370.0, 0.0004032993997032057
371.0, 0.0005171754557143956
372.0, 0.0005672424338367024
373.0, 0.0006438407734188182
374.0, 0.0008570701222735381
375.0, 0.0008463388941649227
376.0, 0.0005808802466736918
377.0, 0.0005651969669381189
378.0, 0.0007575047583712922
379.0, 0.0007382951285115438
380.0, 0.000622857252855188
381.0, 0.0007634069944621187
382.0, 0.0008527756833015459
383.0, 0.0007121572113208316
384.0, 0.0004430505651259299
385.0, 0.00018137425865807523
386.0, 0.0002570607950408593
387.0, 0.00035483692786357317
388.0, 0.0003073670147995654
389.0, 0.00018276630372556985
390.0, 3.653387552040095e-05
391.0, 0.0001716794129936753
392.0, 0.00033931225218835725
393.0, 0.0004728529780685428
394.0, 0.0006252825868133631
395.0, 0.0008146952173682245
396.0, 0.0013322325416437525
397.0, 0.0018135464066509446
398.0, 0.002134973796129919
399.0, 0.002434051744200699
400.0, 0.002827866842727987
401.0, 0.0033870607220095146
402.0, 0.0041370057850582806
403.0, 0.004875397210576024
404.0, 0.005544651465998025
405.0, 0.0063449352084813775
406.0, 0.007290598807693857
407.0, 0.008152485691471313
408.0, 0.009082991087849284
409.0, 0.010097492357953666
410.0, 0.01097309713297091
411.0, 0.011682179585734014
412.0, 0.012491782189487313
413.0, 0.01327559803762408
414.0, 0.013798568426624962
415.0, 0.013906011766237271
416.0, 0.014178962356569735
417.0, 0.014318127123383262
418.0, 0.014329466844790185
419.0, 0.014089986197951413
420.0, 0.013516252525664685
421.0, 0.013574151286499777
422.0, 0.013658509544442005
423.0, 0.013768255038341377
424.0, 0.013929066476905942
425.0, 0.014185409762799204
426.0, 0.014736098090792885
427.0, 0.01487414771093369
428.0, 0.015265105010337026
429.0, 0.01591297187166213
430.0, 0.016645823778233065
431.0, 0.017751138600846275
432.0, 0.018599913339073314
433.0, 0.019836916868392743
434.0, 0.021555293447398025
435.0, 0.02344282500681808
436.0, 0.025276304664316032
437.0, 0.02770958420976524
438.0, 0.030304145242668407
439.0, 0.03319831421127131
440.0, 0.036385466081417996
441.0, 0.03960190064625899
442.0, 0.04296116183750369
443.0, 0.04599117698978733
444.0, 0.049178394093360084
445.0, 0.05273158540859866
446.0, 0.05631885402110707
447.0, 0.05954598302109019
448.0, 0.0637024169661331
449.0, 0.0682459529601288
450.0, 0.0733933144214789
451.0, 0.07914914784394025
452.0, 0.08502868286470663
453.0, 0.09183825394683492
454.0, 0.09883745519922028
455.0, 0.10588606331639286
456.0, 0.11242273005010396
457.0, 0.11755884024842884
458.0, 0.12112898660875929
459.0, 0.12286222770259132
460.0, 0.12210533495196316
461.0, 0.11925039331307104
462.0, 0.11478801989858058
463.0, 0.10844941912596985
464.0, 0.10119881045870824
465.0, 0.09353212227178297
466.0, 0.08574189042939652
467.0, 0.07821105296985921
468.0, 0.07124746238505239
469.0, 0.06445668687731214
470.0, 0.059003209133106985
471.0, 0.05480985354112828
472.0, 0.05128780956623203
473.0, 0.04795289677897472
474.0, 0.045343664576334645
475.0, 0.04327272636911792
476.0, 0.041840181877271926
477.0, 0.040921181585402415
478.0, 0.040145683369875465
479.0, 0.039300558830167136
480.0, 0.038874199797077014
481.0, 0.03817033856146193
482.0, 0.0373393845027204
483.0, 0.036268362753595906
484.0, 0.03456928104581741
485.0, 0.03222110673517068
486.0, 0.030105659445785384
487.0, 0.02759458755999318
488.0, 0.024920561304555205
489.0, 0.022404564964870553
490.0, 0.019752089745907867
491.0, 0.017340235909673457
492.0, 0.015385010470988683
493.0, 0.013570479347753139
494.0, 0.011829235314429608
495.0, 0.01043381334773235
496.0, 0.009427996529490617
497.0, 0.008337916126775759
498.0, 0.007417823443252969
499.0, 0.006816347964854446
500.0, 0.006421091938626132
501.0, 0.006108420504519654
502.0, 0.00625389362914502
503.0, 0.005857496241621467
504.0, 0.0056988329102056964
505.0, 0.005899560104465875
506.0, 0.005939910499216374
507.0, 0.005943019178543477
508.0, 0.006175125289961725
509.0, 0.006505564299269465
510.0, 0.006916449452973605
511.0, 0.007471953267759037
512.0, 0.008074439639956838
513.0, 0.008401078994135771
514.0, 0.009121499586572525
515.0, 0.00980414323719087
516.0, 0.010573815508400466
517.0, 0.011409330444537314
518.0, 0.011956774934306648
519.0, 0.012802386987367007
520.0, 0.01359047334524147
521.0, 0.014170142844311584
522.0, 0.014729378684528505
523.0, 0.015301461283721117
524.0, 0.01554420813465891
525.0, 0.015333401491954756
526.0, 0.015143195262853055
527.0, 0.01497865927250532
528.0, 0.014595870658307562
529.0, 0.013825230959669269
530.0, 0.012740984805160036
531.0, 0.011633405865823374
532.0, 0.010694866975716038
533.0, 0.00970224901176545
534.0, 0.008521857235594057
535.0, 0.007264823710479007
536.0, 0.006072903685320102
537.0, 0.0050448341768762365
538.0, 0.0040488033151579745
539.0, 0.0031946770718695606
540.0, 0.0024174437733821405
541.0, 0.001553998925772545
542.0, 0.0012079326646845766
543.0, 0.0007354295188287534
544.0, 0.00022454335752165975
545.0, 0.00019121830231757226
546.0, 0.00044226005214976306
547.0, 0.0004981676207853514
548.0, 0.0010114797823490831
549.0, 0.0011660784345262649
550.0, 0.0012840438353603995
551.0, 0.001300637038427136
552.0, 0.0011003986881165156
553.0, 0.0012676131076126962
554.0, 0.0011913005513817293
555.0, 0.0011821080093670983
556.0, 0.0011514641835332258
557.0, 0.0009799984716390654
558.0, 0.0007439217600214322
559.0, 0.0006360977645414312
560.0, 0.0005484630822907782
561.0, 0.00045176964588760043
562.0, 0.00022836156307377576
563.0, 9.965248768600364e-05
564.0, 0.0003519755599164724
565.0, 0.0005233731187051237
566.0, 0.0007829253938765769
567.0, 0.001064163078983877
568.0, 0.0013815529077854628
569.0, 0.0017113087918082391
570.0, 0.002047581004286522
571.0, 0.002508400169243673
572.0, 0.002824175423526704
573.0, 0.0033276509860248487
574.0, 0.003827873104531682
575.0, 0.004345438970254627
576.0, 0.005106932951389974
577.0, 0.005943149937820052
578.0, 0.006894118324948475
579.0, 0.0077727099253880015
580.0, 0.008674189454058552
581.0, 0.009699904540543175
582.0, 0.010868230971701356
583.0, 0.012183103069353446
584.0, 0.013525737977760043
585.0, 0.014856160651694912
586.0, 0.016275883886164327
587.0, 0.017856173709381373
588.0, 0.019510775198685607
589.0, 0.021004751322167198
590.0, 0.022914373002559815
591.0, 0.024686366662110434
592.0, 0.026656060270894358
593.0, 0.028879344132667534
594.0, 0.031118845025412286
595.0, 0.03353899395010171
596.0, 0.0359067794594541
597.0, 0.03896160123015229
598.0, 0.041933634485758306
599.0, 0.04486262485054672
600.0, 0.047906788500013266
601.0, 0.05028948507789881
602.0, 0.05168779980449655
603.0, 0.0523101542860088
604.0, 0.052314650916497236
605.0, 0.05162472041941581
606.0, 0.05025631916444507
607.0, 0.04872465910142902
608.0, 0.04730997678974495
609.0, 0.04578117094148884
610.0, 0.044248872909521654
611.0, 0.042615558186487934
612.0, 0.04115230989970573
613.0, 0.04022624473240421
614.0, 0.03931133166934931
615.0, 0.03847025448209377
616.0, 0.038126950676681405
617.0, 0.03822431371843705
618.0, 0.038608377840746826
619.0, 0.03910948257681298
620.0, 0.03947069855166557
621.0, 0.040105400989904685
622.0, 0.040861789465733656
623.0, 0.04160577401592081
624.0, 0.04192710083347615
625.0, 0.04184206214396497
626.0, 0.0420330518986787
627.0, 0.041438026984146774
628.0, 0.04057042246263668
629.0, 0.03972017876759397
630.0, 0.0391138481114769
631.0, 0.03866389562924331
632.0, 0.03811254667088013
633.0, 0.03788432994439507
634.0, 0.03735076022943303
635.0, 0.03642416124468315
636.0, 0.034914143807196894
637.0, 0.03274740268945193
638.0, 0.03012188999986079
639.0, 0.027404185906723447
640.0, 0.024310971019666235
641.0, 0.021653330972527595
642.0, 0.019219296168401588
643.0, 0.016951967151802493
644.0, 0.01517397872661839
645.0, 0.013828514467812835
646.0, 0.012508358244053587
647.0, 0.011959783255477746
648.0, 0.011645920232887111
649.0, 0.011350958369053225
650.0, 0.011121492629196629
651.0, 0.01103273199834943
652.0, 0.011290442013747612
653.0, 0.011321400119752611
654.0, 0.011483762769825361
655.0, 0.011683851493086676
656.0, 0.011835373246888162
657.0, 0.011865959540041621
658.0, 0.011558619780669206
659.0, 0.011204869265023242
660.0, 0.010552319032159661
661.0, 0.010072841979783349
662.0, 0.009602560430164804
663.0, 0.00883327725803231
664.0, 0.007960294995965966
665.0, 0.0076893144838396585
666.0, 0.007006376737428293
667.0, 0.0063166987301304135
668.0, 0.005771536899842468
669.0, 0.005158862848262041
670.0, 0.004605470625205918
671.0, 0.004439199231217589
672.0, 0.003804524236897618
673.0, 0.003414793549097286
674.0, 0.002997919933082613
675.0, 0.002636784120512675
676.0, 0.0023720390837757357
677.0, 0.0021229208132600994
678.0, 0.0019686585478105264
679.0, 0.001788863309607147
680.0, 0.0015304368344046335
681.0, 0.0012999703947022558
682.0, 0.0011469206041926558
683.0, 0.0009902322967424912
684.0, 0.0008095031364183699
685.0, 0.0008529679239774078
686.0, 0.00044060145909088336
687.0, 0.00039409644699724594
688.0, 0.00034218699485094416
689.0, 0.00030360170352865907
690.0, 0.0002889787706641664
691.0, 9.72075277492663e-05
692.0, 6.680636883651455e-05
693.0, 0.0001024294157514933
694.0, 8.82268792640585e-05
695.0, 3.398367038506681e-05
696.0, 0.0001082814197143304
697.0, 0.00025208410376927287
698.0, 0.00019768979951963577
699.0, 0.00012241274892213345
700.0, 0.00020072677542163906
701.0, 0.00018865954274094942
702.0, 0.00013566731030132252
703.0, 0.00026026763856887975
704.0, 0.00041998715599157174
705.0, 0.00027068958288830095
706.0, 0.0001830797808076491
707.0, 0.0002352201248554371
708.0, 0.00016592002290223622
709.0, 0.00011082815947605906
710.0, 0.0001771818625106471
711.0, 0.0002282034859815908
712.0, 0.00016584304520199782
713.0, 0.00013362214782745185
714.0, 7.222188945491868e-05
715.0, 5.471463615448948e-06
716.0, 9.923119019556746e-06
717.0, 2.3242987311420478e-05
718.0, 0.00012843542919089855
719.0, 0.00013005131500984973
720.0, 8.250327077645836e-05
721.0, 0.00011881732815769283
722.0, 0.0002071106644169372
723.0, 0.00017577509841065303
724.0, 0.00019860198223677165
725.0, 0.0003353502449285703
726.0, 0.00029364564764198565
727.0, 0.0003972617547379213
728.0, 0.00036426309121145796
729.0, 0.00041020511444434427
730.0, 0.0005112373565245361
731.0, 0.0006246124721455879
732.0, 0.0007584278747945063
733.0, 0.0008631555231147421
734.0, 0.0008480234202957471
735.0, 0.000937864969671381
736.0, 0.0010468180297563943
737.0, 0.001140528847185933
738.0, 0.001205939333419998
739.0, 0.0011850092239713132
740.0, 0.0011005647104689045
741.0, 0.0012696930095045897
742.0, 0.001201128877388058
743.0, 0.0014285440239036877
744.0, 0.0015712211104344143
745.0, 0.0015583460731510136
746.0, 0.0015743675514221349
747.0, 0.0016608289006168966
748.0, 0.0017065971724311857
749.0, 0.001878681784113985
750.0, 0.0019209987397266427
751.0, 0.0020781085120510456
752.0, 0.0022488142217730782
753.0, 0.0022464997817213867
754.0, 0.002198386920797748
755.0, 0.0023088573350258344
756.0, 0.0023628187780680835
757.0, 0.0023565808275381943
758.0, 0.0024445665113716534
759.0, 0.002552787232871484
760.0, 0.0025699311941155562
761.0, 0.0025189350537679015
762.0, 0.0024599825379014806
763.0, 0.0023321828908244146
764.0, 0.002482433776418628
765.0, 0.0023107846397357936
766.0, 0.002353055479922019
767.0, 0.0024036822857671073
768.0, 0.0022492606961195386
769.0, 0.002084216250907696
770.0, 0.0020636811490044545
771.0, 0.00211821401511407
772.0, 0.001997290426445675
773.0, 0.0019084029194054162
774.0, 0.0017244321091192344
775.0, 0.001717510582165702
776.0, 0.001815191486274655
777.0, 0.0016775298420489537
778.0, 0.0016688867157391453
779.0, 0.0014874409545599684
780.0, 0.001480906711418356
781.0, 0.0013552976189301542
782.0, 0.0013169404905947857
783.0, 0.0012586011621223364
784.0, 0.0011295313663347733
785.0, 0.0011408419101015213
786.0, 0.001016068429767104
787.0, 0.001087583532892292
788.0, 0.0010256972897813052
789.0, 0.0009104810853221284
790.0, 0.0008215400995319173
791.0, 0.0007380435327078485
792.0, 0.0007203534215098637
793.0, 0.0008178512724180746
794.0, 0.0008269545577408804
795.0, 0.0006296198017874191
796.0, 0.0006602600720688869
797.0, 0.0006388388933146853
798.0, 0.0005003687065091389
799.0, 0.00044474587788889713
800.0, 0.000511852728509448
801.0, 0.0004865902790462518
802.0, 0.000502526430840335
803.0, 0.00040674402690137355
804.0, 0.00030854979549700006
805.0, 0.0003249918041716547
806.0, 0.00038262151838162146
807.0, 0.0003820649610226576
808.0, 0.00029980597830905426
809.0, 0.0001717050032568114
810.0, 0.00023057997029434356
811.0, 0.00019686730364516566
812.0, 0.00015971497595661967
813.0, 7.927861772101752e-05
814.0, 0.00010429936066944112
815.0, 0.0001452689517966924
816.0, 3.268570383005109e-05
817.0, 4.0286421700403404e-05
818.0, 5.2764924205989034e-05
819.0, 0.00011104970202699407
820.0, 7.353896732979499e-05
821.0, 1.5459433518674523e-05
822.0, 3.886925660085465e-05
823.0, 0.00017728446207757495
824.0, 0.00066294594884392
825.0, 0.0001837887330449519
826.0, 0.00010742476032395712
827.0, 5.534295886929364e-05
828.0, 1.2247690271916139e-05
829.0, 9.472830567899471e-05
830.0, 0.0002024820311575086
831.0, 0.00017594659576466063
832.0, 0.00013461326204793043
833.0, 0.00036130390192227465
834.0, 0.0002895471448316003
835.0, 0.0003832882147459557
836.0, 0.00041485558038377576
837.0, 0.0005096461200036012
838.0, 0.0006058491629104569
839.0, 0.0006611013343762939
840.0, 0.0006875386534742951
841.0, 0.0007190394902851249
842.0, 0.0009371591747026942
843.0, 0.0009326910945427642
844.0, 0.0010581310266185235
845.0, 0.0011625449941728638
846.0, 0.0010981796442241457
847.0, 0.0010712098182550527
848.0, 0.00126948707745208
849.0, 0.0014852819575552117
850.0, 0.0012903076624731506
851.0, 0.0012712894291760375
852.0, 0.001416667741356655
853.0, 0.001376559945398096
854.0, 0.0012859552200356898
855.0, 0.0013833025773776065
856.0, 0.0014473078076319265
857.0, 0.0013010780100970068
858.0, 0.0012474548457408632
859.0, 0.001255464932156084
860.0, 0.001303235973958604
861.0, 0.0012411313220913281
862.0, 0.001297323521730824
863.0, 0.0012928697644938147
864.0, 0.0012899653476968944
865.0, 0.0013023441398190563
866.0, 0.0012169625772396602
867.0, 0.0012137409244950322
868.0, 0.0012255520268874343
869.0, 0.0010714412014743424
870.0, 0.0009985195186259963
871.0, 0.0010363329911029478
872.0, 0.0010533854546456228
873.0, 0.0009709743705705483
874.0, 0.0008605996366131438
875.0, 0.0008005010860025143
876.0, 0.0007121059007400862
877.0, 0.0007348060428866433
878.0, 0.0006860599234975938
879.0, 0.0007018200060393597
880.0, 0.0005790600849801092
881.0, 0.0004430226655717551
882.0, 0.0003882378241413413
883.0, 0.00025500049608827486
884.0, 0.00012304458683526083
885.0, 0.00025446428038786205
886.0, 7.865522353135677e-05
887.0, 0.00016723898927162867
888.0, 0.00011080100999505995
889.0, 1.4082378177828739e-05
890.0, 4.800389707941098e-05
891.0, 0.0001347369577941365
892.0, 0.00020831559698863416
893.0, 0.00018351968925735127
894.0, 0.0002212663670730898
895.0, 0.00033986470154891835
896.0, 0.00040886230381864577
897.0, 0.0003770977644781586
898.0, 0.0003493631045892776
899.0, 0.00035211465654610307
900.0, 0.0003228142171321564
901.0, 0.0002580027050058259
902.0, 0.00022571388896529628
903.0, 0.000267927159494024
904.0, 0.00014029433513254916
905.0, 1.5368408201625346e-05
906.0, 0.00017249417535281298
907.0, 7.707466671282313e-05
908.0, 0.0001502587436653524
909.0, 0.00018991771268356652
910.0, 0.0003168808426609985
911.0, 0.0005015855824058533
912.0, 0.0005147913464120124
913.0, 0.0006704462853094438
914.0, 0.0008716988348591773
915.0, 0.0008263157327449307
916.0, 0.0011198855473840488
917.0, 0.0012467220585705146
918.0, 0.0014343743767852774
919.0, 0.0017272507410855576
920.0, 0.0017319308853574148
921.0, 0.0020387965270726727
922.0, 0.002352642646330388
923.0, 0.0024742372532489325
924.0, 0.0029410746043952124
925.0, 0.003527869884915144
926.0, 0.003887794895637087
927.0, 0.004102081057679569
928.0, 0.004452837388683554
929.0, 0.0050694856343146
930.0, 0.005710596297137443
931.0, 0.006175148534238861
932.0, 0.0069429612926321695
933.0, 0.007714083794012495
934.0, 0.008616812496564017
935.0, 0.009276913795354813
936.0, 0.009883355222455896
937.0, 0.010777718623559154
938.0, 0.011817577286102183
939.0, 0.012714769121255918
940.0, 0.01360303622863349
941.0, 0.014738116403957903
942.0, 0.015733496914215023
943.0, 0.016386395077310652
944.0, 0.01735177371940425
945.0, 0.018356773758146067
946.0, 0.019344653717561666
947.0, 0.020115639158173347
948.0, 0.02063320427361338
949.0, 0.021115560649800143
950.0, 0.02172892457030467
951.0, 0.02237221706984165
952.0, 0.022574713685341866
953.0, 0.022992936523020174
954.0, 0.02317862166794986
955.0, 0.02347321436863754
956.0, 0.02352522864547761
957.0, 0.023637730506463932
958.0, 0.02396229102076832
959.0, 0.024213485574191427
960.0, 0.02449460230403755
961.0, 0.02497879597950599
962.0, 0.025490543940735286
963.0, 0.026102364039599313
964.0, 0.02669244241061358
965.0, 0.02766498948744908
966.0, 0.02884543959375781
967.0, 0.030516603212578205
968.0, 0.03231203896057225
969.0, 0.03454633132183488
970.0, 0.03760344189812878
971.0, 0.04073538677977067
972.0, 0.0451376297098999
973.0, 0.04979997971425892
974.0, 0.05550654651309306
975.0, 0.062321418439996966
976.0, 0.0709023945524853
977.0, 0.08166372484808544
978.0, 0.0951559852652844
979.0, 0.11218219700950274
980.0, 0.13214581172862033
981.0, 0.1541861621053043
982.0, 0.17979271573341904
983.0, 0.20931645052984188
984.0, 0.24569320887829968
985.0, 0.2914524675419898
986.0, 0.3495551147081204
987.0, 0.4253361737583646
988.0, 0.5226079214502833
989.0, 0.6434375872434503
990.0, 0.7799318014257235
991.0, 0.9065729829784152
992.0, 0.9874309696874615
993.0, 0.9867618279361445
994.0, 0.889311894538146
995.0, 0.7261903628125895
996.0, 0.5455386235091993
997.0, 0.3903975325581094
998.0, 0.27596168412724126
999.0, 0.19783031270993423
1000.0, 0.14516521478803163
1001.0, 0.1090205462466409
1002.0, 0.08370382587672051
1003.0, 0.0658509623228769
1004.0, 0.05262046334662067
1005.0, 0.042568169182073956
1006.0, 0.03489491497714151
1007.0, 0.02867997680985597
1008.0, 0.023950478795916885
1009.0, 0.01992709980215366
1010.0, 0.01654935317476791
1011.0, 0.013729763798198534
1012.0, 0.011418042092979707
1013.0, 0.009554598599595978
1014.0, 0.00796536793730132
1015.0, 0.006765734146459692
1016.0, 0.005461340730444228
1017.0, 0.004386745117888589
1018.0, 0.003432397935265422
1019.0, 0.002705395470597671
1020.0, 0.00207072171889839
1021.0, 0.0014197850779752706
1022.0, 0.0010157315020483503
1023.0, 0.0006574457464407145
1024.0, 0.00023155195104492638
1025.0, 6.365298782104651e-05
1026.0, 0.0003952321235433265
1027.0, 0.00052643893247837
1028.0, 0.000726152659771378
1029.0, 0.0008770871898095666
1030.0, 0.0010392842142326153
1031.0, 0.0010783101401139051
1032.0, 0.0009696058611175153
1033.0, 0.0009000641150980171
1034.0, 0.0009749898520690764
1035.0, 0.0008608645063455782
1036.0, 0.0006121544325004225
1037.0, 0.0005375696666571846
1038.0, 0.00033320887356280124
1039.0, 0.00010733632162344447
1040.0, 0.0003460317232485236
1041.0, 0.0004972739356818968
1042.0, 0.0009949028052195633
1043.0, 0.0013785354864970746
1044.0, 0.0018118151152861257
1045.0, 0.0024653525367242567
1046.0, 0.003192777812785529
1047.0, 0.004017218024011997
1048.0, 0.004962223006994918
1049.0, 0.006073064024926835
1050.0, 0.007375549026997082
1051.0, 0.008533295243489268
1052.0, 0.01016658445543307
1053.0, 0.011954735724331807
1054.0, 0.014503255719145205
1055.0, 0.016413351478313586
1056.0, 0.01852354735111897
1057.0, 0.020950552978022955
1058.0, 0.02384282676080499
1059.0, 0.02683988749563519
1060.0, 0.029786222747917913
1061.0, 0.03268192444269376
1062.0, 0.035534242531634556
1063.0, 0.038552839526613154
1064.0, 0.04115843029383637
1065.0, 0.04304794553445402
1066.0, 0.044041239851994485
1067.0, 0.04431945278974608
1068.0, 0.04390051492743329
1069.0, 0.04241683793614882
1070.0, 0.040293791924586056
1071.0, 0.03800891007512794
1072.0, 0.03525982494802461
1073.0, 0.03221357834605249
1074.0, 0.02958310534307952
1075.0, 0.027312703382813518
1076.0, 0.02494403565157479
1077.0, 0.02277562559620584
1078.0, 0.020883339151062955
1079.0, 0.019545405808161716
1080.0, 0.018291841664475894
1081.0, 0.017323260863011024
1082.0, 0.016572444169668268
1083.0, 0.016205958218807555
1084.0, 0.01608525913090293
1085.0, 0.016020402587781417
1086.0, 0.016186224876273986
1087.0, 0.016409098173661995
1088.0, 0.016709684869855822
1089.0, 0.01717484461021199
1090.0, 0.017213350685989365
1091.0, 0.017620593003681653
1092.0, 0.01790823143517049
1093.0, 0.018198078492892195
1094.0, 0.018357106525795613
1095.0, 0.018493823828250967
1096.0, 0.01827003818037585
1097.0, 0.017906027926267724
1098.0, 0.016928192144374157
1099.0, 0.01600022643120186
1100.0, 0.014905387811848542
1101.0, 0.013531721954447684
1102.0, 0.012558844201401381
1103.0, 0.011813970542943253
1104.0, 0.011192246036384464
1105.0, 0.010702504456858743
1106.0, 0.010710333075548346
1107.0, 0.010598056624905742
1108.0, 0.010562138039951183
1109.0, 0.01049135515514888
1110.0, 0.010205688202457713
1111.0, 0.00981549890471832
1112.0, 0.009106410211867312
1113.0, 0.008164723864623424
1114.0, 0.0069658922800847215
1115.0, 0.0058758409022663105
1116.0, 0.004945134234320177
1117.0, 0.0038816384670660536
1118.0, 0.0031080749780163443
1119.0, 0.002649793972876504
1120.0, 0.002200888400291613
1121.0, 0.001896232867434835
1122.0, 0.0017566616533512239
1123.0, 0.001537731612480772
1124.0, 0.0017927758499242845
1125.0, 0.0021439220221430993
1126.0, 0.002733373076682799
1127.0, 0.00311469484141161
1128.0, 0.0036072288338297944
1129.0, 0.004307800513290647
1130.0, 0.005141583991496567
1131.0, 0.006148044047061425
1132.0, 0.007143353841362305
1133.0, 0.008175187433109615
1134.0, 0.009317570091959835
1135.0, 0.010661796636326045
1136.0, 0.011882308243813063
1137.0, 0.013024350757902455
1138.0, 0.013950613579992364
1139.0, 0.01500536830066679
1140.0, 0.01587317024397797
1141.0, 0.01629696868882114
1142.0, 0.016743530213446156
1143.0, 0.017062262363222454
1144.0, 0.017393781790937837
1145.0, 0.017409494942625257
1146.0, 0.017430594842662114
1147.0, 0.01759478165420984
1148.0, 0.01746758165995563
1149.0, 0.017319528968107283
1150.0, 0.017076208526937614
1151.0, 0.0169870497677895
1152.0, 0.01666148903612521
1153.0, 0.01610434035853411
1154.0, 0.015398818460414729
1155.0, 0.014567578127637487
1156.0, 0.013690050378806523
1157.0, 0.012699435226490587
1158.0, 0.01184657509385178
1159.0, 0.011013789716438951
1160.0, 0.010298427821532072
1161.0, 0.009484139192151565
1162.0, 0.008772225208647455
1163.0, 0.008194507827623626
1164.0, 0.007574873624614643
1165.0, 0.006985251840812341
1166.0, 0.006322713604575587
1167.0, 0.005781560591519509
1168.0, 0.0052869518797121285
1169.0, 0.004269091129844957
1170.0, 0.003460297686435439
1171.0, 0.003285280535062297
1172.0, 0.0025029959656694746
1173.0, 0.0020307024368141384
1174.0, 0.0014969401305789999
1175.0, 0.0012459320695027264
1176.0, 0.0009137517947432891
1177.0, 0.0005675098635512157
1178.0, 0.0004802813968024033
1179.0, 0.00032151248414607824
1180.0, 0.00010594006689269582
1181.0, 5.451365576241173e-05
1182.0, 0.0001453529168382989
1183.0, 0.0001861081727554512
1184.0, 0.00029682561927166
1185.0, 0.00039814155671273995
1186.0, 0.0004215347697390463
1187.0, 0.0003040230885858057
1188.0, 0.0004809392294526657
1189.0, 0.00037175187821597425
1190.0, 0.00019810031863879516
1191.0, 5.2088891583848546e-05
1192.0, 0.0002797461555126222
1193.0, 0.00046228784216008426
1194.0, 0.0004126004004524602
1195.0, 0.00039596069596991294
1196.0, 0.0002645343131472155
1197.0, 0.00014349406869754335
1198.0, 0.00012938344577931662
1199.0, 0.00013756123144749514
1200.0, 0.00010463717136459764
1201.0, 1.9816345913967898e-05
1202.0, 3.2490835138076474e-05
1203.0, 3.1318663355641936e-05
1204.0, 0.00011782117219379539
1205.0, 0.00020661815544723814
1206.0, 0.0002759816151749419
1207.0, 0.0002611871370461542
1208.0, 0.0002969851697201216
1209.0, 0.0003841099049224773
1210.0, 0.0002496015095615868
1211.0, 0.00035496776406701374
1212.0, 0.0003552781374995116
1213.0, 0.0002901532565631677
1214.0, 0.0003474061795079595
1215.0, 0.0003314121666012539
1216.0, 0.0003629402609238203
1217.0, 0.00040990934818164234
1218.0, 0.0004935148480688682
1219.0, 0.00047538431627184874
1220.0, 0.00044151950256019016
1221.0, 0.00047904053154382623
1222.0, 0.00043463220032828164
1223.0, 0.00042555053756808446
1224.0, 0.0005148827438586656
1225.0, 0.0005098822106316766
1226.0, 0.0004882204619156259
1227.0, 0.0005253600826715549
1228.0, 0.0005349300726925795
1229.0, 0.0006577922879900162
1230.0, 0.000865831969445018
1231.0, 0.0010064805055516215
1232.0, 0.0008561490026660018
1233.0, 0.000906572187841079
1234.0, 0.0010636045049187371
1235.0, 0.00106196164302487
1236.0, 0.0010364176531439105
1237.0, 0.0009978982382840423
1238.0, 0.000983370103189367
1239.0, 0.0009242831478100207
1240.0, 0.0008788155482560072
1241.0, 0.0007564845811776109
1242.0, 0.0006609266952015036
1243.0, 0.0006323068367408074
1244.0, 0.000554396273100301
1245.0, 0.000484068510126295
1246.0, 0.0005875307658116255
1247.0, 0.0006208851067361412
1248.0, 0.0005691801916442944
1249.0, 0.0007508500207767927
1250.0, 0.0005715055191841636
1251.0, 0.0004668383947789531
1252.0, 0.000532363385530859
1253.0, 0.0005829213897968814
1254.0, 0.0004556132945177479
1255.0, 0.0003641347670998546
1256.0, 0.0005214698846674711
1257.0, 0.00048599593051315874
1258.0, 0.0002991948740634203
1259.0, 0.0003625931421707645
1260.0, 0.00034928626292255306
1261.0, 0.0004055102184791562
1262.0, 0.00047473864201949556
1263.0, 0.0002621033368569735
1264.0, 0.00023504489613394475
1265.0, 0.0005253934451212143
1266.0, 0.00045561441160427905
1267.0, 0.0004559778627166866
1268.0, 0.0006851210869164786
1269.0, 0.000514809409497408
1270.0, 0.00012919846967412464
1271.0, 9.149248784044631e-05
1272.0, 0.00020985110858616387
1273.0, 0.00021468039311012507
1274.0, 0.000148005831824752
1275.0, 9.688084371925994e-05
1276.0, 3.573916236019342e-05
1277.0, 0.00014116549613741794
1278.0, 0.00011120319668963245
1279.0, 0.0001489849024195114
1280.0, 9.507438975575452e-05
1281.0, 8.181825172866132e-05
1282.0, 3.4364712340898546e-06
1283.0, 2.2084135790233564e-05
1284.0, 3.2736542585761395e-05
1285, 0.0
1286, 0.0
1287, 0.0
1288, 0.0
1289, 0.0
1290, 0.0
1291, 0.0
1292, 0.0
1293, 0.0
1294, 0.0
1295, 0.0
1296, 0.0
1297, 0.0
1298, 0.0
1299, 0.0
1300, 0.0
1301, 0.0
1302, 0.0
1303, 0.0
1304, 0.0
1305, 0.0
1306, 0.0
1307, 0.0
1308, 0.0
1309, 0.0
1310, 0.0
1311, 0.0
1312, 0.0
1313, 0.0
1314, 0.0
1315, 0.0
1316, 0.0
1317, 0.0
1318, 0.0
1319, 0.0
1320, 0.0
1321, 0.0
1322, 0.0
1323, 0.0
1324, 0.0
1325, 0.0
1326, 0.0
1327, 0.0
1328, 0.0
1329, 0.0
1330, 0.0
1331, 0.0
1332, 0.0
1333, 0.0
1334, 0.0
1335, 0.0
1336, 0.0
1337, 0.0
1338, 0.0
1339, 0.0
1340, 0.0
1341, 0.0
1342, 0.0
1343, 0.0
1344, 0.0
1345, 0.0
1346, 0.0
1347, 0.0
1348, 0.0
1349, 0.0
1350, 0.0
1351, 0.0
1352, 0.0
1353, 0.0
1354, 0.0
1355, 0.0
1356, 0.0
1357, 0.0
1358, 0.0
1359, 0.0
1360, 0.0
1361, 0.0
1362, 0.0
1363, 0.0
1364, 0.0
1365, 0.0
1366, 0.0
1367, 0.0
1368, 0.0
1369, 0.0
1370, 0.0
1371, 0.0
1372, 0.0
1373, 0.0
1374, 0.0
1375, 0.0
1376, 0.0
1377, 0.0
1378, 0.0
1379, 0.0
1380, 0.0
1381, 0.0
1382, 0.0
1383, 0.0
1384, 0.0
1385, 0.0
1386, 0.0
1387, 0.0
1388, 0.0
1389, 0.0
1390, 0.0
1391, 0.0
1392, 0.0
1393, 0.0
1394, 0.0
1395, 0.0
1396, 0.0
1397, 0.0
1398, 0.0
1399, 0.0
1400, 0.0
1401, 0.0
1402, 0.0
1403, 0.0
1404, 0.0
1405, 0.0
1406, 0.0
1407, 0.0
1408, 0.0
1409, 0.0
1410, 0.0
1411, 0.0
1412, 0.0
1413, 0.0
1414, 0.0
1415, 0.0
1416, 0.0
1417, 0.0
1418, 0.0
1419, 0.0
1420, 0.0
1421, 0.0
1422, 0.0
1423, 0.0
1424, 0.0
1425, 0.0
1426, 0.0
1427, 0.0
1428, 0.0
1429, 0.0
1430, 0.0
1431, 0.0
1432, 0.0
1433, 0.0
1434, 0.0
1435, 0.0
1436, 0.0
1437, 0.0
1438, 0.0
1439, 0.0
1440, 0.0
1441, 0.0
1442, 0.0
1443, 0.0
1444, 0.0
1445, 0.0
1446, 0.0
1447, 0.0
1448, 0.0
1449, 0.0
1450, 0.0
1451, 0.0
1452, 0.0
1453, 0.0
1454, 0.0
1455, 0.0
1456, 0.0
1457, 0.0
1458, 0.0
1459, 0.0
1460, 0.0
1461, 0.0
1462, 0.0
1463, 0.0
1464, 0.0
1465, 0.0
1466, 0.0
1467, 0.0
1468, 0.0
1469, 0.0
1470, 0.0
1471, 0.0
1472, 0.0
1473, 0.0
1474, 0.0
1475, 0.0
1476, 0.0
1477, 0.0
1478, 0.0
1479, 0.0
1480, 0.0
1481, 0.0
1482, 0.0
1483, 0.0
1484, 0.0
1485, 0.0
1486, 0.0
1487, 0.0
1488, 0.0
1489, 0.0
1490, 0.0
1491, 0.0
1492, 0.0
1493, 0.0
1494, 0.0
1495, 0.0
1496, 0.0
1497, 0.0
1498, 0.0
1499, 0.0
1500, 0.0
1501, 0.0
1502, 0.0
1503, 0.0
1504, 0.0
1505, 0.0
1506, 0.0
1507, 0.0
1508, 0.0
1509, 0.0
1510, 0.0
1511, 0.0
1512, 0.0
1513, 0.0
1514, 0.0
1515, 0.0
1516, 0.0
1517, 0.0
1518, 0.0
1519, 0.0
1520, 0.0
1521, 0.0
1522, 0.0
1523, 0.0
1524, 0.0
1525, 0.0
1526, 0.0
1527, 0.0
1528, 0.0
1529, 0.0
1530, 0.0
1531, 0.0
1532, 0.0
1533, 0.0
1534, 0.0
1535, 0.0
1536, 0.0
1537, 0.0
1538, 0.0
1539, 0.0
1540, 0.0
1541, 0.0
1542, 0.0
1543, 0.0
1544, 0.0
1545, 0.0
1546, 0.0
1547, 0.0
1548, 0.0
1549, 0.0
1550, 0.0
1551, 0.0
1552, 0.0
1553, 0.0
1554, 0.0
1555, 0.0
1556, 0.0
1557, 0.0
1558, 0.0
1559, 0.0
1560, 0.0
1561, 0.0
1562, 0.0
1563, 0.0
1564, 0.0
1565, 0.0
1566, 0.0
1567, 0.0
1568, 0.0
1569, 0.0
1570, 0.0
1571, 0.0
1572, 0.0
1573, 0.0
1574, 0.0
1575, 0.0
1576, 0.0
1577, 0.0
1578, 0.0
1579, 0.0
1580, 0.0
1581, 0.0
1582, 0.0
1583, 0.0
1584, 0.0
1585, 0.0
1586, 0.0
1587, 0.0
1588, 0.0
1589, 0.0
1590, 0.0
1591, 0.0
1592, 0.0
1593, 0.0
1594, 0.0
1595, 0.0
1596, 0.0
1597, 0.0
1598, 0.0
1599, 0.0
