30, 0.0
31, 0.0
32, 0.0
33, 0.0
34, 0.0
35, 0.0
36, 0.0
37, 0.0
38, 0.0
39, 0.0
40, 0.0
41, 0.0
42, 0.0
43, 0.0
44, 0.0
45, 0.0
46, 0.0
47, 0.0
48, 0.0
49, 0.0
50, 0.0
51, 0.0
52, 0.0
53, 0.0
54, 0.0
55, 0.0
56, 0.0
57, 0.0
58, 0.0
59, 0.0
60, 0.0
61, 0.0
62, 0.0
63, 0.0
64, 0.0
65, 0.0
66, 0.0
67, 0.0
68, 0.0
69, 0.0
70, 0.0
71, 0.0
72, 0.0
73, 0.0
74, 0.0
75, 0.0
76, 0.0
77, 0.0
78, 0.0
79, 0.0
80, 0.0
81, 0.0
82, 0.0
83, 0.0
84, 0.0
85, 0.0
86, 0.0
87, 0.0
88, 0.0
89, 0.0
90, 0.0
91, 0.0
92, 0.0
93, 0.0
94, 0.0
95, 0.0
96, 0.0
97, 0.0
98, 0.0
99, 0.0
100, 0.0
101, 0.0
102, 0.0
103, 0.0
104, 0.0
105, 0.0
106, 0.0
107, 0.0
108, 0.0
109, 0.0
110, 0.0
111, 0.0
112, 0.0
113, 0.0
114, 0.0
115, 0.0
116, 0.0
117, 0.0
118, 0.0
119, 0.0
120, 0.0
121, 0.0
122, 0.0
123, 0.0
124, 0.0
125, 0.0
126, 0.0
127, 0.0
128, 0.0
129, 0.0
130, 0.0
131, 0.0
132, 0.0
133, 0.0
134, 0.0
135, 0.0
136, 0.0
137, 0.0
138, 0.0
139, 0.0
140, 0.0
141, 0.0
142, 0.0
143, 0.0
144, 0.0
145, 0.0
146, 0.0
147, 0.0
148, 0.0
149, 0.0
150, 0.0
151, 0.0
152, 0.0
153, 0.0
154, 0.0
155, 0.0
156, 0.0
157, 0.0
158, 0.0
159, 0.0
160, 0.0
161, 0.0
162, 0.0
163, 0.0
164, 0.0
165, 0.0
166, 0.0
167, 0.0
168, 0.0
169, 0.0
170, 0.0
171, 0.0
172, 0.0
173, 0.0
174, 0.0
175, 0.0
176, 0.0
177, 0.0
178, 0.0
179, 0.0
180, 0.0
181, 0.0
182, 0.0
183, 0.0
184, 0.0
185, 0.0
186, 0.0
187, 0.0
188, 0.0
189, 0.0
190, 0.0
191, 0.0
192, 0.0
193, 0.0
194, 0.0
195, 0.0
196, 0.0
197, 0.0
198, 0.0
199, 0.0
200, 0.0
201, 0.0
202, 0.0
203, 0.0
204, 0.0
205, 0.0
206, 0.0
207, 0.0
208, 0.0
209, 0.0
210, 0.0
211, 0.0
212, 0.0
213, 0.0
214, 0.0
215, 0.0
216, 0.0
217, 0.0
218, 0.0
219, 0.0
220, 0.0
221, 0.0
222, 0.0
223, 0.0
224, 0.0
225, 0.0
226, 0.0
227, 0.0
228, 0.0
229, 0.0
230, 0.0
231, 0.0
232, 0.0
233, 0.0
234, 0.0
235, 0.0
236, 0.0
237, 0.0
238, 0.0
239, 0.0
240, 0.0
241, 0.0
242, 0.0
243, 0.0
244, 0.0
245, 0.0
246, 0.0
247, 0.0
248, 0.0
249, 0.0
250, 0.0
251, 0.0
252, 0.0
253, 0.0
254, 0.0
255, 0.0
256, 0.0
257, 0.0
258, 0.0
259, 0.0
260, 0.0
261, 0.0
262.0, 0.004989626238786484
263.0, 0.006569602258843104
264.0, 0.007210412712479241
265.0, 0.008506125261497782
266.0, 0.004622342893363246
267.0, 0.0010753402835988978
268.0, 0.0034200587971001703
269.0, 0.00513880648059039
270.0, 0.0043295220737265576
271.0, 0.0028975731021410236
272.0, 0.0066743321877787976
273.0, 0.0038686568940274517
274.0, 0.002127937460034936
275.0, 0.00850045221767987
276.0, 0.02096173259450304
277.0, 0.030567125520139276
278.0, 0.03702226561163548
279.0, 0.031172352797737345
280.0, 0.035737286933485046
281.0, 0.04309236896069462
282.0, 0.046431928567209575
283.0, 0.050181703075117226
284.0, 0.07182525658716502
285.0, 0.06885891474983663
286.0, 0.07269970791693331
287.0, 0.08041553309390309
288.0, 0.08099737784224882
289.0, 0.07542632459316972
290.0, 0.08572266784751323
291.0, 0.10120856078355275
292.0, 0.10331549129693886
293.0, 0.09814644659281344
294.0, 0.09976706001119857
295.0, 0.09484547748424119
296.0, 0.0871930199766858
297.0, 0.08815916125967338
298.0, 0.08968197207524509
299.0, 0.08360865112805672
300.0, 0.07002810700287028
301.0, 0.09031569907446717
302.0, 0.08906803156566306
303.0, 0.09656946442727038
304.0, 0.08753684491979978
305.0, 0.06824247641839937
306.0, 0.0863905661924457
307.0, 0.07563928667740892
308.0, 0.05141549138321194
309.0, 0.04638384890480361
310.0, 0.046335855552745185
311.0, 0.041895382579517006
312.0, 0.05322586002041252
313.0, 0.035093096516414804
314.0, 0.02984741692501767
315.0, 0.03502900287586838
316.0, 0.03840431443663711
317.0, 0.03241904118482723
318.0, 0.02923064938495604
319.0, 0.032872873648561785
320.0, 0.014126524965608355
321.0, 0.023625017366371123
322.0, 0.036934388136628055
323.0, 0.015132051164256699
324.0, 0.00495440117706934
325.0, 0.012426240898645578
326.0, 0.0233830166003094
327.0, 0.03137630137484647
328.0, 0.03426105404064524
329.0, 0.03354597513122284
330.0, 0.033364683347086435
331.0, 0.02522823352823981
332.0, 0.024328783481106783
333.0, 0.021871860231589456
334.0, 0.01954415402829319
335.0, 0.02562632409896938
336.0, 0.026337854336092613
337.0, 0.029341821816226837
338.0, 0.03844068237305941
339.0, 0.04077891859356592
340.0, 0.044061541588309536
341.0, 0.06681218397083935
342.0, 0.049995608498534565
343.0, 0.07500856345341558
344.0, 0.08809085266885583
345.0, 0.09483113326401443
346.0, 0.10166365682136554
347.0, 0.10652647364239079
348.0, 0.12701129103821115
349.0, 0.12554356851815107
350.0, 0.1359153112362713
351.0, 0.16026352767890195
352.0, 0.18788661927527958
353.0, 0.20253047319816048
354.0, 0.19978889083138907
355.0, 0.2158811104764315
356.0, 0.22407716357356133
357.0, 0.21987197965814678
358.0, 0.21344781152790096
359.0, 0.22267048447526105
360.0, 0.22100389376196802
361.0, 0.22676184211277894
362.0, 0.23192948348399137
363.0, 0.23979478080176295
364.0, 0.24914173699186215
365.0, 0.25047283865373055
366.0, 0.2502174698980777
367.0, 0.24670153406361403
368.0, 0.24528347178609491
369.0, 0.2382489688786523
370.0, 0.23003758690712503
371.0, 0.2404557232417179
372.0, 0.2267909062605006
373.0, 0.22591672248733485
374.0, 0.21996049651004176
375.0, 0.21190481489301957
376.0, 0.2084054900534267
377.0, 0.2114216024530514
378.0, 0.19814837663393156
379.0, 0.20454843073810428
380.0, 0.19223623912967325
381.0, 0.16751824259058173
382.0, 0.14860324076137013
383.0, 0.14834133911012437
384.0, 0.12587853058088444
385.0, 0.12385272292343001
386.0, 0.11631409686332507
387.0, 0.10041915217705767
388.0, 0.09251187772816123
389.0, 0.11303762891506686
390.0, 0.0913710881179703
391.0, 0.08144245834349442
392.0, 0.0791440911860392
393.0, 0.07724396978709634
394.0, 0.06676082891938734
395.0, 0.0443685231164131
396.0, 0.046184959598671506
397.0, 0.04119153148214714
398.0, 0.052357564113314284
399.0, 0.054809296594426224
400.0, 0.046210250583711754
401.0, 0.044619168632120065
402.0, 0.03264767651546957
403.0, 0.03329681640305348
404.0, 0.03287742489165446
405.0, 0.03151824154745272
406.0, 0.031083307652961127
407.0, 0.03044706072901238
408.0, 0.016260999064341808
409.0, 0.026912989348780565
410.0, 0.03640619503089096
411.0, 0.03521666495952199
412.0, 0.03603175521219926
413.0, 0.051329201012464395
414.0, 0.05493600601368402
415.0, 0.04695582012525239
416.0, 0.05433442902209469
417.0, 0.05580269270336243
418.0, 0.057721643662990894
419.0, 0.07067667871141066
420.0, 0.08185712354628699
421.0, 0.08409523665188937
422.0, 0.08294735500344
423.0, 0.08999372583235038
424.0, 0.09537933695658712
425.0, 0.09112110102293604
426.0, 0.08624890212098113
427.0, 0.09040292999737436
428.0, 0.08769650547144235
429.0, 0.09107211417325226
430.0, 0.08972694537407545
431.0, 0.0808030001764039
432.0, 0.07656986385453195
433.0, 0.06914784021540853
434.0, 0.05967965643391783
435.0, 0.05993791941741732
436.0, 0.0620071641126104
437.0, 0.06336056465734155
438.0, 0.06528343337814697
439.0, 0.04877417409001771
440.0, 0.040553487684483386
441.0, 0.034628749123440446
442.0, 0.03743398723037917
443.0, 0.03897154648141667
444.0, 0.02969250104364042
445.0, 0.03165959594164613
446.0, 0.03037973060771267
447.0, 0.03073372910763163
448.0, 0.023678722779194278
449.0, 0.015291394449403119
450.0, 0.012058568736876737
451.0, 0.009388362404822777
452.0, 0.017903358584263313
453.0, 0.009366815353367105
454.0, 0.014027026189363564
455.0, 0.023140819858167908
456.0, 0.022856534634133
457.0, 0.010493306164461907
458.0, 0.00742096975906684
459.0, 0.009990289821603462
460.0, 0.007325332054577281
461.0, 0.005342534439619101
462.0, 0.0058714115230975895
463.0, 0.005943319778902528
464.0, 0.004193118642705284
465.0, 0.0032147887627471503
466.0, 0.009101109468006815
467.0, 0.018314536335129583
468.0, 0.019658241751346825
469.0, 0.012351674625019408
470.0, 0.018924526030073496
471.0, 0.0028019014215048734
472.0, 0.007837152108961706
473.0, 0.006766839590206131
474.0, 0.004774950450280536
475.0, 0.008417701150808974
476.0, 0.01333190573341262
477.0, 0.00644539880903111
478.0, 0.0051609744723890814
479.0, 0.005310941003658048
480.0, 0.0054930257716618745
481.0, 0.0077716073477958865
482.0, 0.01468712351872368
483.0, 0.02380281299112779
484.0, 0.023689367181124153
485.0, 0.026077690900867753
486.0, 0.027686504722900452
487.0, 0.035273864499339974
488.0, 0.050411439710532586
489.0, 0.06164015174895583
490.0, 0.0698660988211756
491.0, 0.08464650528670284
492.0, 0.0936060180127948
493.0, 0.10130308291505195
494.0, 0.11142480139107842
495.0, 0.12083539029840568
496.0, 0.11567062581985547
497.0, 0.12613089375090353
498.0, 0.12261993124977377
499.0, 0.13226136852745876
500.0, 0.1494905641310922
501.0, 0.16199427646072023
502.0, 0.17595154776667177
503.0, 0.17761038893032888
504.0, 0.1981101388655742
505.0, 0.20899344380642249
506.0, 0.2187225913168659
507.0, 0.22818819020949702
508.0, 0.2301340317205281
509.0, 0.24514763476362736
510.0, 0.2428239126040293
511.0, 0.25434054141725937
512.0, 0.2660616908356443
513.0, 0.28060523745240473
514.0, 0.29844644784892277
515.0, 0.3019264166306435
516.0, 0.29971872317858483
517.0, 0.31826840799428135
518.0, 0.33748165899058996
519.0, 0.35120466623125074
520.0, 0.37404478728054114
521.0, 0.41627081785783765
522.0, 0.41877065704874616
523.0, 0.4281735796446326
524.0, 0.4196627269494689
525.0, 0.4335535624757458
526.0, 0.45772800617902576
527.0, 0.4692062840185535
528.0, 0.46862766765574465
529.0, 0.4635791207444439
530.0, 0.4621002235199274
531.0, 0.45529694492829553
532.0, 0.4613244960648351
533.0, 0.4715319410497749
534.0, 0.46924459378494826
535.0, 0.47869499441970537
536.0, 0.4689917519658025
537.0, 0.44850240091389443
538.0, 0.4516642270752967
539.0, 0.44844693620921994
540.0, 0.42884152284864224
541.0, 0.4261613430233584
542.0, 0.43829932771999636
543.0, 0.42945153357243804
544.0, 0.42776192429297205
545.0, 0.4126917105294183
546.0, 0.3998366536524143
547.0, 0.40376936538635194
548.0, 0.3994261604471983
549.0, 0.39884063626392574
550.0, 0.3764791772606
551.0, 0.36905520606535963
552.0, 0.37133568616205287
553.0, 0.3693127825748161
554.0, 0.3598832670784741
555.0, 0.3693824091912159
556.0, 0.3556307885486035
557.0, 0.3487493567921523
558.0, 0.33493232822615315
559.0, 0.32169224393850776
560.0, 0.31714536213971845
561.0, 0.319863172285368
562.0, 0.3223017028116758
563.0, 0.29481101725216596
564.0, 0.2874171106242779
565.0, 0.27665380579259385
566.0, 0.2696277891736935
567.0, 0.26792064371819924
568.0, 0.24497353570058988
569.0, 0.24145343372959774
570.0, 0.2191624474628792
571.0, 0.20543724857914655
572.0, 0.19491118841287797
573.0, 0.18227939016928463
574.0, 0.16865700228553585
575.0, 0.16047170215907777
576.0, 0.14026659472116343
577.0, 0.12496804150871692
578.0, 0.11144163747284676
579.0, 0.09773991142512067
580.0, 0.08454253670274592
581.0, 0.0734939560843582
582.0, 0.06330908743663315
583.0, 0.05129915703621959
584.0, 0.044267078791620826
585.0, 0.034727907185270405
586.0, 0.022063760054608465
587.0, 0.013380751810297523
588.0, 0.01516101564740126
589.0, 0.012534369301434964
590.0, 0.006824294871255729
591.0, 0.018578846842184558
592.0, 0.014637551145691746
593.0, 0.006456807338060904
594.0, 0.011239986543355781
595.0, 0.024002401022754152
596.0, 0.007394394859023117
597.0, 0.006969018886994415
598.0, 0.004908436106179246
599.0, 0.0026054536291707773
600.0, 0.004321534393826912
601.0, 0.009280420217129885
602.0, 0.010994066345140574
603.0, 0.014740811072921415
604.0, 0.009649286485490963
605.0, 0.008838830254063757
606.0, 0.006670929548719923
607.0, 0.01665961629138091
608.0, 0.03327531749858486
609.0, 0.02042697636985099
610.0, 0.016477300641378437
611.0, 0.01711793751698403
612.0, 0.006556021125236821
613.0, 0.006790805567784132
614.0, 0.020403980165350125
615.0, 0.03098821117503478
616.0, 0.02065784233244952
617.0, 0.024257280632774148
618.0, 0.03265779809869444
619.0, 0.03020407411496074
620.0, 0.03281469328725916
621.0, 0.040593375625362735
622.0, 0.04978527658966224
623.0, 0.06470768612771392
624.0, 0.07074710733433354
625.0, 0.06132557803349603
626.0, 0.06749169301382742
627.0, 0.07394286371674433
628.0, 0.07964260423079683
629.0, 0.08923100098489861
630.0, 0.10027249675152411
631.0, 0.1121549857313676
632.0, 0.1326832456618613
633.0, 0.14140761264205348
634.0, 0.14695130261044742
635.0, 0.1506336520226568
636.0, 0.15304171059333824
637.0, 0.16202846690104653
638.0, 0.19154571365060394
639.0, 0.17876804453943904
640.0, 0.20686107040904006
641.0, 0.22131396799001324
642.0, 0.22991423013853535
643.0, 0.2525515795707718
644.0, 0.2780344831375364
645.0, 0.2872797450880409
646.0, 0.30315593258971135
647.0, 0.3238061085176893
648.0, 0.3363126903119106
649.0, 0.3502789323471421
650.0, 0.37557908967032205
651.0, 0.4109464012254827
652.0, 0.4539682769783732
653.0, 0.4758950227760228
654.0, 0.5150474993217732
655.0, 0.5590397741146139
656.0, 0.6003299891464564
657.0, 0.6438267739411939
658.0, 0.6964057558123451
659.0, 0.7423331261001879
660.0, 0.8099804467698482
661.0, 0.8622013075615689
662.0, 0.9024732818530715
663.0, 0.9388435293835623
664.0, 0.9660511776517815
665.0, 0.9796744748040739
666.0, 0.9992287855564054
667.0, 0.9843977385642096
668.0, 0.9661521487374075
669.0, 0.9608523096768865
670.0, 0.9303705063604242
671.0, 0.8796820984592474
672.0, 0.8383787967449314
673.0, 0.8117537723506303
674.0, 0.7514389024016623
675.0, 0.7157729125700315
676.0, 0.6651949579665168
677.0, 0.6217869185191572
678.0, 0.5813996583632759
679.0, 0.5395445966276551
680.0, 0.5077515408905859
681.0, 0.48079725310775073
682.0, 0.4528982535784509
683.0, 0.443967872741043
684.0, 0.431109816746261
685.0, 0.4167619132383503
686.0, 0.40322843410465414
687.0, 0.38115177144144596
688.0, 0.33833651212706634
689.0, 0.35221451730845055
690.0, 0.33230040732641514
691.0, 0.3299479324169879
692.0, 0.3210285202415184
693.0, 0.3039605134688076
694.0, 0.3002343533474478
695.0, 0.31918118072224677
696.0, 0.32861377521869894
697.0, 0.2989183938361453
698.0, 0.29200199552172945
699.0, 0.2959020199016837
700.0, 0.3143626981636171
701.0, 0.3318632668558691
702.0, 0.32221326102816544
703.0, 0.345854995496118
704.0, 0.3530323508518567
705.0, 0.3667651840738487
706.0, 0.37644730666602444
707.0, 0.38045480882897975
708.0, 0.38957316515031815
709.0, 0.4064406943978081
710.0, 0.4071936833802655
711.0, 0.4316695933938208
712.0, 0.4348780305684817
713.0, 0.4293644380203184
714.0, 0.43737952453802487
715.0, 0.45424131485509756
716.0, 0.4689372544161161
717.0, 0.4793484943946833
718.0, 0.4748708374409865
719.0, 0.49260114114730275
720.0, 0.4967380605026551
721.0, 0.49322533785274547
722.0, 0.49908925100840096
723.0, 0.5035889934112263
724.0, 0.49092023882335356
725.0, 0.48317499070550707
726.0, 0.4821067720363724
727.0, 0.47914541191061283
728.0, 0.493954230554815
729.0, 0.49019152241096625
730.0, 0.47722567293680035
731.0, 0.4711331778013995
732.0, 0.46511660686513184
733.0, 0.4495145406621775
734.0, 0.43555372685319715
735.0, 0.42722239366016107
736.0, 0.41522245799446406
737.0, 0.4018102192400768
738.0, 0.38982928857539983
739.0, 0.3766714866594823
740.0, 0.3562558520190893
741.0, 0.3400783156513909
742.0, 0.31826728825987766
743.0, 0.29562073405873046
744.0, 0.28682909488450814
745.0, 0.2801823268695345
746.0, 0.2650584534320589
747.0, 0.2499997317790958
748.0, 0.25552542733655537
749.0, 0.20522767682567872
750.0, 0.2048293460248249
751.0, 0.19299530159525555
752.0, 0.18352465708247492
753.0, 0.17810228512289483
754.0, 0.16994357667803864
755.0, 0.1566200205805628
756.0, 0.1413774384088913
757.0, 0.14051334775129853
758.0, 0.13362079874235294
759.0, 0.132747378100074
760.0, 0.13071322722310952
761.0, 0.12426551642416832
762.0, 0.11830973550180955
763.0, 0.12109474880427276
764.0, 0.13549077588051692
765.0, 0.11413991737418497
766.0, 0.11833816487195534
767.0, 0.12328485379159271
768.0, 0.12141670576580839
769.0, 0.12328004075764248
770.0, 0.13227940603861063
771.0, 0.12844125530029718
772.0, 0.12293451437996605
773.0, 0.11388950862140887
774.0, 0.10964114192917546
775.0, 0.11573752890716048
776.0, 0.12751649491945088
777.0, 0.13263990221469252
778.0, 0.12689505748840843
779.0, 0.12518294032112606
780.0, 0.11834252556121164
781.0, 0.11834712109427781
782.0, 0.11548897410363132
783.0, 0.11537868154157448
784.0, 0.10139412249494195
785.0, 0.08961343278893505
786.0, 0.10001720060191986
787.0, 0.09243392193084857
788.0, 0.10409718725630465
789.0, 0.09717115387587119
790.0, 0.11000446868760762
791.0, 0.10325906872809439
792.0, 0.09018992774314202
793.0, 0.07946386821774978
794.0, 0.06457796504450496
795.0, 0.061024290137877385
796.0, 0.07525226516714888
797.0, 0.06600852710485791
798.0, 0.07361846058668348
799.0, 0.070244831457506
800.0, 0.05981695625994279
801.0, 0.05438819292873208
802.0, 0.052126350325032336
803.0, 0.04130790826375266
804.0, 0.06232573641328511
805.0, 0.04680840684833583
806.0, 0.050181746655955664
807.0, 0.04908008313444224
808.0, 0.0367531473715098
809.0, 0.035943880589772784
810.0, 0.048931459745956786
811.0, 0.020637192793745103
812.0, 0.012670904321070951
813.0, 0.03779999965700906
814.0, 0.025483938700475134
815.0, 0.007956395207816522
816.0, 0.01676987386492048
817.0, 0.026665941457881343
818.0, 0.0143273561028881
819.0, 0.01953719807722057
820.0, 0.00945645767650923
821.0, 0.009820694545273978
822.0, 0.006718544941669976
823.0, 0.014124234126253018
824.0, 0.018135519856193896
825.0, 0.014699080722592408
826.0, 0.009723612785316655
827.0, 0.0066800319363256805
828.0, 0.010508672907317123
829.0, 0.025522463526472458
830.0, 0.025968941982818336
831.0, 0.026628389992392282
832.0, 0.019604182124720926
833.0, 0.0132958392187451
834.0, 0.021056495365717354
835.0, 0.03525715171849747
836.0, 0.01914307009023424
837.0, 0.028430484963854242
838.0, 0.008041234318262024
839.0, 0.011222044728434206
840.0, 0.010078172685351699
841.0, 0.006076040858178859
842.0, 0.003918206829163315
843.0, 0.0017796187373925881
844.0, 0.007952302537079566
845.0, 0.010563965439564987
846.0, 0.010808331184607951
847.0, 0.009934624662536608
848.0, 0.006161467275133952
849.0, 0.0021918272904578964
850.0, 0.004003595066911237
851.0, 0.011623196527810551
852.0, 0.016845229645244358
853.0, 0.022125766620204247
854.0, 0.025552619406031755
855.0, 0.0278939859598751
856.0, 0.02727597824279777
857.0, 0.03407975411409597
858.0, 0.04412117319072126
859.0, 0.05079412909042004
860.0, 0.051759003733977495
861.0, 0.042561924987926644
862.0, 0.05118097683291334
863.0, 0.05240239337855312
864.0, 0.05297660590484024
865.0, 0.060918654854024264
866.0, 0.06125959398889754
867.0, 0.0609555249732445
868.0, 0.06990271422820332
869.0, 0.07377111576737239
870.0, 0.08053604660608414
871.0, 0.07964112791409654
872.0, 0.0809043870531868
873.0, 0.08839781829597464
874.0, 0.09506401735487532
875.0, 0.0967318441995808
876.0, 0.09822565155771577
877.0, 0.10170082163189942
878.0, 0.09501007244744833
879.0, 0.10718716308265669
880.0, 0.11154524701911618
881.0, 0.12179843172683961
882.0, 0.13449648468747782
883.0, 0.14232036296797207
884.0, 0.13750101904495096
885.0, 0.1305181857057484
886.0, 0.1403416651569093
887.0, 0.14498516091084193
888.0, 0.15385930408368015
889.0, 0.16032703859472072
890.0, 0.14449520830592988
891.0, 0.14879495448637878
892.0, 0.1632558562579167
893.0, 0.17408989598124847
894.0, 0.18150518221633688
895.0, 0.18384721019951536
896.0, 0.17401265044337683
897.0, 0.18313564964707904
898.0, 0.18522291470236124
899.0, 0.18628425457735012
900.0, 0.1942952536875394
901.0, 0.19580859468323278
902.0, 0.1953700296590939
903.0, 0.2050143082080392
904.0, 0.20928250387470632
905.0, 0.2166492965355798
906.0, 0.21619975076154047
907.0, 0.21789548334476383
908.0, 0.22583114499649828
909.0, 0.23297333543124796
910.0, 0.23505936965138627
911.0, 0.2370929528983163
912.0, 0.24078111390595375
913.0, 0.23602982808555034
914.0, 0.25779653749929843
915.0, 0.2513565992125472
916.0, 0.24942144023998492
917.0, 0.2649642421053301
918.0, 0.2640391663755159
919.0, 0.2622198380761344
920.0, 0.2653332950720429
921.0, 0.2588887859102319
922.0, 0.26399310850630736
923.0, 0.2601730505778418
924.0, 0.27084008954325256
925.0, 0.2566221379857206
926.0, 0.2502565009964882
927.0, 0.25363659227502316
928.0, 0.2521653997126715
929.0, 0.24845949563588535
930.0, 0.25295155288021365
931.0, 0.24843896754393044
932.0, 0.22541886473626924
933.0, 0.2603683065186257
934.0, 0.24893475157172007
935.0, 0.23461173993630746
936.0, 0.23917250538916204
937.0, 0.23089561800316208
938.0, 0.21747981814586437
939.0, 0.2301788398597958
940.0, 0.2400227621696412
941.0, 0.23052100695140473
942.0, 0.2257606443817337
943.0, 0.2174255643214491
944.0, 0.21385070799261002
945.0, 0.21167745505255248
946.0, 0.21330738623902804
947.0, 0.21625760070755182
948.0, 0.22069716839588752
949.0, 0.2353381463398194
950.0, 0.25002676096718346
951.0, 0.24462294739080054
952.0, 0.24102064239358928
953.0, 0.2418489888493071
954.0, 0.23802460166956943
955.0, 0.22926839418928252
956.0, 0.22571136382256993
957.0, 0.22681520364896765
958.0, 0.22236189231555206
959.0, 0.22514770044897553
960.0, 0.22948290842234026
961.0, 0.22879788539853657
962.0, 0.227222117858811
963.0, 0.23627048265708503
964.0, 0.235800797736573
965.0, 0.2168795193349519
966.0, 0.2068785932346844
967.0, 0.2168348798944559
968.0, 0.20193611014162807
969.0, 0.2181674013847414
970.0, 0.21871786716267486
971.0, 0.20600199190634635
972.0, 0.2037099025847458
973.0, 0.22075799411347374
974.0, 0.224694556542651
975.0, 0.21801213945166464
976.0, 0.2182447928946388
977.0, 0.21714778100353185
978.0, 0.2152573024990613
979.0, 0.21578830537026542
980.0, 0.20571641127602977
981.0, 0.21612867946903797
982.0, 0.22700394465787072
983.0, 0.2346120150013717
984.0, 0.2331340423208236
985.0, 0.23205340362560295
986.0, 0.24072021915737715
987.0, 0.243641418389904
988.0, 0.2468346542532626
989.0, 0.2605114287563217
990.0, 0.2552270259199958
991.0, 0.26510141251307984
992.0, 0.27295428229400553
993.0, 0.28061226006860324
994.0, 0.28599345050018415
995.0, 0.2880923006845354
996.0, 0.29373739392031484
997.0, 0.3048034131640789
998.0, 0.31190673102771543
999.0, 0.3122167542803038
1000.0, 0.31968994642778503
1001.0, 0.3217895631179064
1002.0, 0.3260140555658897
1003.0, 0.33063666191974733
1004.0, 0.33412662011282335
1005.0, 0.3384669796402288
1006.0, 0.34395697001129727
1007.0, 0.3468449755798761
1008.0, 0.3486197157271647
1009.0, 0.35580697157829444
1010.0, 0.34730475746110817
1011.0, 0.34428817142130563
1012.0, 0.34099682668191167
1013.0, 0.34332312946208027
1014.0, 0.34437022574181303
1015.0, 0.3410255125506627
1016.0, 0.3438588776173008
1017.0, 0.3411524585114125
1018.0, 0.3423221839691061
1019.0, 0.3649296320235658
1020.0, 0.35342472097277683
1021.0, 0.35557096562169865
1022.0, 0.34589338376924694
1023.0, 0.3472853329531291
1024.0, 0.3608659182512012
1025.0, 0.36202647919515624
1026.0, 0.3521714394589946
1027.0, 0.3586851634625525
1028.0, 0.3448509983487106
1029.0, 0.3365729613784026
1030.0, 0.3428705699207789
1031.0, 0.34752711239541706
1032.0, 0.34875502990137147
1033.0, 0.3399490016218791
1034.0, 0.33385450836454406
1035.0, 0.3354630184869831
1036.0, 0.33191923818909747
1037.0, 0.3297961685039454
1038.0, 0.3364019960645817
1039.0, 0.324044396886821
1040.0, 0.33047566919505783
1041.0, 0.331107036886356
1042.0, 0.33277046086492085
1043.0, 0.3353320193807375
1044.0, 0.33434676870672425
1045.0, 0.3370379534453488
1046.0, 0.3423931200776695
1047.0, 0.33201782274980546
1048.0, 0.3450287209808405
1049.0, 0.3135670479358774
1050.0, 0.32704603477940797
1051.0, 0.3487030178292184
1052.0, 0.3408375254647657
1053.0, 0.3337810418859568
1054.0, 0.3336662355498094
1055.0, 0.3293144584922477
1056.0, 0.3217837739866149
1057.0, 0.32222846118585174
1058.0, 0.3246627124067164
1059.0, 0.31451443116487765
1060.0, 0.31997118064988567
1061.0, 0.32803357493282853
1062.0, 0.30726972680709197
1063.0, 0.3054945593211386
1064.0, 0.2997661616725761
1065.0, 0.2987117093474673
1066.0, 0.31121426639274113
1067.0, 0.30603217265870325
1068.0, 0.27261312736829585
1069.0, 0.2806170378019607
1070.0, 0.26806220467921893
1071.0, 0.2612478523558924
1072.0, 0.2549948054333414
1073.0, 0.257020766036641
1074.0, 0.24989495021584524
1075.0, 0.23849787772732434
1076.0, 0.23486949979759725
1077.0, 0.24049085091856937
1078.0, 0.24231575194585747
1079.0, 0.23066572487342457
1080.0, 0.2454586877802471
1081.0, 0.22208647826756392
1082.0, 0.22101245421743823
1083.0, 0.2258066006651025
1084.0, 0.21709879357499476
1085.0, 0.20786360288711483
1086.0, 0.2074880499582315
1087.0, 0.21080608152123292
1088.0, 0.21064561697369913
1089.0, 0.20403306539149807
1090.0, 0.18866058667920563
1091.0, 0.19031268189152756
1092.0, 0.18387285952006815
1093.0, 0.1771682358439471
1094.0, 0.18009638733134162
1095.0, 0.16917340319979043
1096.0, 0.1561270485022296
1097.0, 0.16263234504991658
1098.0, 0.16777318374967073
1099.0, 0.1572423106879506
1100.0, 0.15755837812684895
1101.0, 0.16410618096827206
1102.0, 0.14801689137171556
1103.0, 0.15816372201089784
1104.0, 0.13118639579089394
1105.0, 0.13414596765812925
1106.0, 0.14663871577286605
1107.0, 0.12465162413245034
1108.0, 0.12493216628250431
1109.0, 0.11068648638514753
1110.0, 0.0817654059304829
1111.0, 0.11145265862259691
1112.0, 0.1269931838717995
1113.0, 0.12542633163109995
1114.0, 0.06885344879386941
1115.0, 0.08821804967520568
1116.0, 0.08140273468998653
1117.0, 0.07061803482353315
1118.0, 0.08918924680454803
1119.0, 0.07322897550613587
1120.0, 0.06488965921625035
1121.0, 0.08298498870749062
1122.0, 0.08688369659743865
1123.0, 0.09397605459249031
1124.0, 0.07781889526836806
1125.0, 0.07140564392191838
1126.0, 0.0952712501620291
1127.0, 0.1026883992594261
1128.0, 0.0861667515072591
1129.0, 0.0916794896859156
1130.0, 0.06525107170768259
1131.0, 0.04738140772001089
1132.0, 0.06561503665254724
1133.0, 0.07834919784176832
1134.0, 0.06838132217696931
1135.0, 0.08146391911916755
1136.0, 0.07851500723669191
1137.0, 0.020402949493059912
1138.0, 0.06610051080206833
1139.0, 0.0721611261242759
1140.0, 0.03582516373702597
1141.0, 0.03698758014932742
1142.0, 0.03810064790621087
1143.0, 0.026520037449090157
1144.0, 0.021918637291508832
1145.0, 0.025110864142219205
1146.0, 0.021622106199870334
1147.0, 0.014635764417743773
1148.0, 0.017095519705276414
1149.0, 0.014333946723169733
1150.0, 0.005160455997971691
1151.0, 0.01174383707040844
1152.0, 0.01966433340723664
1153.0, 0.021195299716578506
1154.0, 0.014625344865599962
1155.0, 0.011234446453880763
1156.0, 0.008918966286384397
1157.0, 0.003110895688454893
1158.0, 0.0026172882792293546
1159.0, 0.001813452627842777
1160.0, 0.010493846934378194
1161.0, 0.0005876442942614911
1162.0, 0.0005193271408294912
1163.0, 0.0028339926847532116
1164.0, 0.00368023039735515
1165.0, 0.012045943930998997
1166.0, 0.013061966597492973
1167.0, 0.007990223633866218
1168.0, 0.009458550468463231
1169.0, 0.016267494091329104
1170.0, 0.017943433938094822
1171.0, 0.01874663843816762
1172.0, 0.021793178652510438
1173.0, 0.00027035136691437155
1174.0, 0.007441592498182877
1175.0, 0.02211921915450655
1176.0, 0.04923763422655865
1177.0, 0.025825807858047327
1178.0, 0.009222480454076728
1179.0, 0.003906866694650031
1180.0, 0.0005040341122380767
1181.0, 0.003990144047904223
1182.0, 0.009931942368320425
1183.0, 0.009251667555341866
1184.0, 0.006084207425051689
1185.0, 0.0053272901884070314
1186.0, 0.005677186542503081
1187.0, 0.01134178619097339
1188.0, 0.017799338723398016
1189.0, 0.00599037575219305
1190.0, 0.002552422415733411
1191.0, 0.013029942300329023
1192.0, 0.019917835507839935
1193.0, 0.021537888611900088
1194.0, 0.02060128213828565
1195.0, 0.010120803366592743
1196.0, 0.005570594257810195
1197.0, 0.024747213121973408
1198.0, 0.0099471951097099
1199.0, 0.0024247634433116044
1200.0, 0.0024318008356063346
1201.0, 0.002933250545211422
1202.0, 0.004705057893255154
1203.0, 0.004704777965003119
1204.0, 0.007671175563460577
1205.0, 0.01391508998793229
1206.0, 0.011569877600408363
1207.0, 0.001840093727825815
1208.0, 0.0002299771262714168
1209.0, 0.003695017752295438
1210.0, 0.017710482315605874
1211.0, 0.0179272111893096
1212.0, 0.007922129816717891
1213.0, 0.01768658735007149
1214.0, 0.033458446609038774
1215.0, 0.011075575925274424
1216.0, 0.003947769289833818
1217.0, 0.0032813456724338622
1218.0, 0.0011350107321557341
1219.0, 0.0015273624236266288
1220.0, 0.003609265285463469
1221.0, 0.006746889470499474
1222.0, 0.01020949300584721
1223.0, 0.003571359469217666
1224.0, 0.0007863653768254383
1225.0, 0.00678862959715351
1226.0, 0.014471903816018995
1227.0, 0.009699380435839568
1228.0, 0.004993147446574008
1229.0, 0.016305420893733217
1230.0, 0.013521685963330747
1231.0, 0.008408550682101619
1232.0, 0.01759913532989095
1233.0, 0.024449611162626433
1234.0, 0.014413201259346059
1235.0, 0.004175932018553385
1236.0, 0.0048330337218018896
1237.0, 0.009386599657720244
1238.0, 0.0037999829853730223
1239.0, 0.018781114314148806
1240.0, 0.012164008699175643
1241.0, 0.021598464917009116
1242.0, 0.015019796981046515
1243.0, 0.008375987437063488
1244.0, 0.01052696007371133
1245.0, 0.014072234446468657
1246.0, 0.010890558474486086
1247.0, 0.00990613254781787
1248.0, 0.013494248367208113
1249.0, 0.012370880337142811
1250.0, 0.026484827859799366
1251.0, 0.029049641818240827
1252.0, 0.014978388993339635
1253.0, 0.023099994679076266
1254.0, 0.004948050034983194
1255.0, 0.0005217327231666187
1256.0, 0.02270255860932188
1257.0, 0.024075247850794932
1258.0, 0.018615014050532237
1259.0, 0.009609669511702215
1260.0, 0.002871644432221428
1261.0, 0.004949010085676693
1262.0, 0.013487844426099871
1263.0, 0.01884576377121257
1264.0, 0.009833165714869184
1265.0, 0.017313185762187846
1266.0, 0.016412229372878073
1267.0, 0.015291322611513697
1268.0, 0.007974462674190087
1269.0, 0.011606521359324402
1270.0, 0.015065086872038813
1271.0, 0.014796371007814413
1272.0, 0.013353174065583793
1273.0, 0.016313080104881767
1274.0, 0.013476179541704813
1275.0, 0.010302334209355498
1276.0, 0.0159816231260375
1277.0, 0.02077012453191508
1278.0, 0.020320077323979356
1279.0, 0.024427478732264123
1280.0, 0.02888652653915613
1281.0, 0.008696452824615437
1282.0, 0.015797671154177847
1283.0, 0.017477253565888782
1284.0, 0.033248015062061195
1285.0, 0.03129789044628978
1286.0, 0.012717219123054926
1287.0, 0.01738884578929916
1288.0, 0.011307245022641785
1289.0, 0.010782237817416798
1290.0, 0.01114352574325862
1291.0, 0.012433941009167395
1292.0, 0.030926310436234835
1293.0, 0.026812247917872352
1294.0, 0.012276543096042761
1295.0, 0.039066356666369664
1296.0, 0.022706274460106625
1297.0, 0.019540245999759318
1298.0, 0.027717558107664648
1299.0, 0.027282713982431768
1300.0, 0.014356900620210262
1301.0, 0.00684427255025858
1302.0, 0.008747763972096008
1303.0, 0.013490225757880118
1304.0, 0.018941834738787747
1305.0, 0.019709470941349224
1306.0, 0.015324589153277297
1307.0, 0.01214262489008248
1308.0, 0.01521120580871942
1309.0, 0.024616938076439426
1310.0, 0.024487337774108518
1311.0, 0.012286955190046458
1312.0, 0.03804255116249252
1313.0, 0.025517526836832928
1314.0, 0.015311254654967113
1315.0, 0.023632783724289747
1316.0, 0.021369824007219276
1317.0, 0.027892906772075864
1318.0, 0.02181685806705663
1319.0, 0.016920670183781933
1320.0, 0.02718135321624852
1321.0, 0.031247654587972348
1322.0, 0.02806527768194637
1323.0, 0.028332839530425587
1324.0, 0.023745047255819687
1325.0, 0.019835329614100776
1326.0, 0.016084698149100584
1327.0, 0.03217769199083529
1328.0, 0.04122412005109171
1329.0, 0.04385506702114427
1330.0, 0.018183866287668497
1331.0, 0.026277354633347218
1332.0, 0.02435927113579057
1333.0, 0.02015232419736434
1334.0, 0.03089691735099231
1335.0, 0.021188870843718198
1336.0, 0.022503487276787026
1337.0, 0.029728631210230876
1338.0, 0.03321604748618751
1339.0, 0.03381605804796069
1340.0, 0.028205167104262286
1341.0, 0.02933662977447988
1342.0, 0.03847714282003178
1343.0, 0.04009602470730587
1344.0, 0.033122466846681235
1345.0, 0.039334793517157414
1346.0, 0.017104223120910176
1347.0, 0.02112732977484512
1348.0, 0.03602845081743406
1349.0, 0.030518390758672256
1350.0, 0.03564929259877486
1351.0, 0.03919218381238236
1352.0, 0.02151119861237487
1353.0, 0.026253634488004877
1354.0, 0.03700968445934228
1355.0, 0.02753832183743151
1356.0, 0.02584510161660657
1357.0, 0.03174784831853397
1358.0, 0.019156777384615513
1359.0, 0.018301694065303024
1360.0, 0.02225204976474953
1361.0, 0.0209692825277744
1362.0, 0.03241756565884234
1363.0, 0.02855774551777339
1364.0, 0.023698079054389566
1365.0, 0.02517586924785364
1366.0, 0.010077677735999725
1367.0, 0.022465370551874746
1368.0, 0.02115123923275609
1369.0, 0.023803772554783623
1370.0, 0.031122473701111365
1371.0, 0.026782712090594338
1372.0, 0.027087647657391647
1373.0, 0.019701832625638075
1374.0, 0.00863404586886292
1375.0, 0.01103033612048635
1376.0, 0.018034461182982083
1377.0, 0.02453555952368269
1378.0, 0.007574696832998307
1379.0, 0.012752810140718905
1380.0, 0.02531414575951809
1381.0, 0.024453892326404644
1382.0, 0.029103287872103464
1383.0, 0.01465987809358091
1384.0, 0.017860846372335055
1385.0, 0.01750696230637114
1386.0, 0.031166736249016724
1387.0, 0.036703964889129116
1388.0, 0.02716258073943637
1389.0, 0.013317832209362654
1390.0, 0.019038896155346825
1391.0, 0.019880920953413293
1392.0, 0.015968425088741106
1393.0, 0.012400184105364004
1394.0, 0.005561156792876877
1395.0, 0.007162180526944601
1396.0, 0.010730651055687258
1397.0, 0.014172420341005564
1398.0, 0.006158816782095983
1399.0, 0.019350485865740095
1400.0, 0.018476570636343375
1401.0, 0.0221382223454003
1402.0, 0.025158966396576984
1403.0, 0.006369253365416326
1404.0, 0.0040432695979798865
1405.0, 0.026053280328145828
1406.0, 0.01858974219388235
1407.0, 0.01007822344977195
1408.0, 0.007475136233587441
1409.0, 0.024563535780475033
1410.0, 0.03541678793673497
1411.0, 0.019530861811459858
1412.0, 0.01799527788605565
1413.0, 0.027724497799454424
1414.0, 0.02335696083685427
1415.0, 0.023584740944129774
1416.0, 0.021681329654139495
1417.0, 0.017132149441426537
1418.0, 0.00578755023296147
1419.0, 0.011486346047397528
1420.0, 0.026902869136117235
1421.0, 0.020740668586586353
1422.0, 0.030652764258064066
1423.0, 0.009815410341852182
1424.0, 0.006510014578596955
1425.0, 0.008438653861575421
1426.0, 0.012349006133364619
1427.0, 0.004979823470463055
1428.0, 0.016362545008433968
1429.0, 0.021170068226528803
1430.0, 0.009718300158216469
1431.0, 0.003713685845054999
1432.0, 0.0028828070446425304
1433.0, 0.01670144970716668
1434.0, 0.025377276698468856
1435.0, 0.010445342011502913
1436.0, 0.006418351301102991
1437.0, 0.01977045746031444
1438.0, 0.021807808455059172
1439.0, 0.015247100062530859
1440.0, 0.01231580528837722
1441.0, 0.0019757707578520836
1442.0, 0.00614304489338154
1443.0, 0.00620567292215951
1444.0, 0.018343112292999193
1445.0, 0.003153550160106467
1446.0, 0.018110660879302517
1447.0, 0.006393834575229319
1448.0, 0.019604808541739738
1449.0, 0.010303418245678223
1450.0, 0.017680497701508934
1451.0, 0.006748081372008422
1452.0, 0.0028645130552262033
1453.0, 0.0082500965554244
1454.0, 0.018456761449297695
1455.0, 0.017591664668215413
1456.0, 0.0189054719210651
1457.0, 0.022571633968995614
1458.0, 0.020080989616897124
1459.0, 0.023249638082046956
1460.0, 0.01772156216503752
1461.0, 0.013650715064795467
1462.0, 0.024100942434586724
1463.0, 0.017792138401651544
1464.0, 0.02141941359883378
1465.0, 0.004273386058256143
1466.0, 0.018349012773809903
1467.0, 0.025204590885883685
1468.0, 0.030524116076358104
1469.0, 0.029240793801657998
1470.0, 0.025042743211328246
1471.0, 0.02491496268924618
1472.0, 0.01851505925680442
1473.0, 0.005648918513576995
1474.0, 0.0024600089606838273
1475.0, 0.011235999894781218
1476.0, 0.02070620923132729
1477.0, 0.01335915937351968
1478.0, 0.013594437768813115
1479.0, 0.017152410327799423
1480.0, 0.021606830616251817
1481.0, 0.02081812468986752
1482.0, 0.020669965136008592
1483.0, 0.020368955861403665
1484.0, 0.013701102166056684
1485.0, 0.026633373812996516
1486.0, 0.03156936690797954
1487.0, 0.02888498463557434
1488.0, 0.017606779272828645
1489.0, 0.017205779409304067
1490.0, 0.0012977682412259333
1491.0, 0.003449219316559446
1492.0, 0.00866661088777488
1493.0, 0.026831808264927842
1494.0, 0.005419246109983376
1495.0, 0.013788803370090318
1496.0, 0.02071993676168595
1497.0, 0.013952766788872424
1498.0, 0.017253999811199305
1499.0, 0.012633775108399794
1500.0, 0.012433418574050633
1501.0, 0.013055929738419113
1502.0, 0.007955612877415533
1503.0, 0.004575101317552248
1504.0, 0.009136411664231446
1505.0, 0.01909720362013209
1506.0, 0.022907905159922658
1507.0, 0.02182499479014744
1508.0, 0.01566929615823992
1509.0, 0.01712857434237251
1510.0, 0.023833565414364738
1511.0, 0.013676347849271492
1512.0, 0.015813264147011834
1513.0, 0.03422774065569549
1514.0, 0.02417102825194675
1515.0, 0.023797623464643362
1516.0, 0.01879580249782334
1517.0, 0.011921894497008197
1518.0, 0.01841018075083111
1519.0, 0.02678167011909993
1520.0, 0.027084043043375958
1521.0, 0.0002770821104467946
1522.0, 0.0008024247353895474
1523.0, 0.018002492424158655
1524.0, 0.027796528498624733
1525.0, 0.030611406519520133
1526.0, 0.006638740408411158
1527.0, 0.013054183175354991
1528.0, 0.011234225415842371
1529.0, 0.006641879222266323
1530.0, 0.018242941028600516
1531.0, 0.0065906727460179
1532.0, 0.011082711480890814
1533.0, 0.016054221326394048
1534.0, 0.021235078522930283
1535.0, 0.01944279307325703
1536.0, 0.014722269162089524
1537.0, 0.020345430515258507
1538.0, 0.028200853969682874
1539.0, 0.025605501743264703
1540.0, 0.024460288922533883
1541.0, 0.019096533058201724
1542.0, 0.007306937346358388
1543.0, 0.0159946290452117
1544.0, 0.02358816729284917
1545.0, 0.02045720641995567
1546.0, 0.027033189979159898
1547.0, 0.0216342940966281
1548.0, 0.005974964473226804
1549.0, 0.02521325247155338
1550.0, 0.023150612965910377
1551.0, 0.008201934395754826
1552.0, 0.025733415529868086
1553.0, 0.009184834212208576
1554.0, 0.00617983805855157
1555.0, 0.01300977170921092
1556.0, 0.009044685786622113
1557.0, 0.02244374971889496
1558.0, 0.019723925586542235
1559.0, 0.015041159053397467
1560.0, 0.016265236194932232
1561.0, 0.0029406278599876145
1562.0, 0.014715344894433088
1563.0, 0.01276159083641951
1564.0, 0.016426477748453117
1565.0, 0.024529999207541155
1566.0, 0.01807325990876161
1567.0, 0.021364902363342875
1568.0, 0.007850052456491535
1569.0, 0.0028052885611998014
1570.0, 0.0017151646842518509
1571.0, 7.519456612933438e-05
1572, 0.0
1573, 0.0
1574, 0.0
1575, 0.0
1576, 0.0
1577, 0.0
1578, 0.0
1579, 0.0
1580, 0.0
1581, 0.0
1582, 0.0
1583, 0.0
1584, 0.0
1585, 0.0
1586, 0.0
1587, 0.0
1588, 0.0
1589, 0.0
1590, 0.0
1591, 0.0
1592, 0.0
1593, 0.0
1594, 0.0
1595, 0.0
1596, 0.0
1597, 0.0
1598, 0.0
1599, 0.0
