30, 0.0
31, 0.0
32, 0.0
33, 0.0
34, 0.0
35, 0.0
36, 0.0
37, 0.0
38, 0.0
39, 0.0
40, 0.0
41, 0.0
42, 0.0
43, 0.0
44, 0.0
45, 0.0
46, 0.0
47, 0.0
48, 0.0
49, 0.0
50, 0.0
51, 0.0
52, 0.0
53, 0.0
54, 0.0
55, 0.0
56, 0.0
57, 0.0
58, 0.0
59, 0.0
60, 0.0
61, 0.0
62, 0.0
63, 0.0
64, 0.0
65, 0.0
66, 0.0
67, 0.0
68, 0.0
69, 0.0
70, 0.0
71, 0.0
72, 0.0
73, 0.0
74, 0.0
75, 0.0
76, 0.0
77, 0.0
78, 0.0
79, 0.0
80, 0.0
81, 0.0
82, 0.0
83, 0.0
84, 0.0
85, 0.0
86, 0.0
87, 0.0
88, 0.0
89, 0.0
90, 0.0
91, 0.0
92, 0.0
93, 0.0
94, 0.0
95, 0.0
96, 0.0
97, 0.0
98, 0.0
99, 0.0
100, 0.0
101, 0.0
102, 0.0
103, 0.0
104, 0.0
105, 0.0
106, 0.0
107, 0.0
108, 0.0
109, 0.0
110, 0.0
111, 0.0
112, 0.0
113, 0.0
114, 0.0
115, 0.0
116, 0.0
117, 0.0
118, 0.0
119, 0.0
120, 0.0
121, 0.0
122, 0.0
123, 0.0
124, 0.0
125, 0.0
126, 0.0
127, 0.0
128, 0.0
129, 0.0
130, 0.0
131, 0.0
132, 0.0
133, 0.0
134, 0.0
135, 0.0
136, 0.0
137, 0.0
138, 0.0
139, 0.0
140, 0.0
141, 0.0
142, 0.0
143, 0.0
144, 0.0
145, 0.0
146, 0.0
147, 0.0
148, 0.0
149, 0.0
150, 0.0
151, 0.0
152, 0.0
153, 0.0
154, 0.0
155, 0.0
156, 0.0
157, 0.0
158, 0.0
159, 0.0
160, 0.0
161, 0.0
162, 0.0
163, 0.0
164, 0.0
165, 0.0
166, 0.0
167.0, 0.029677078612028826
168.0, 0.013906219489917656
169.0, 0.00813936661906209
170.0, 0.034686080902797775
171.0, 0.0732057871664649
172.0, 0.09764296588912164
173.0, 0.08717225798100829
174.0, 0.0713674736299696
175.0, 0.08823987650711915
176.0, 0.10253261272665874
177.0, 0.10173380044864327
178.0, 0.10895838792668175
179.0, 0.09484967622572643
180.0, 0.09875671459708972
181.0, 0.11972918251698766
182.0, 0.13098997992825925
183.0, 0.11870136569705524
184.0, 0.12205550165818992
185.0, 0.1189179497528148
186.0, 0.0938043326319273
187.0, 0.07928651030146049
188.0, 0.07948105395537337
189.0, 0.06606866264036229
190.0, 0.03871364592963898
191.0, 0.02193204586712836
192.0, 0.016421610051172573
193.0, 0.0038995565959854604
194.0, 0.00684247914417371
195.0, 0.0026158330491642436
196.0, 0.00420122007167697
197.0, 0.02274814106142779
198.0, 0.04057824200602098
199.0, 0.02695609576242542
200.0, 0.009803159069564499
201.0, 0.0022684485529474133
202.0, 0.00790034568078288
203.0, 0.013393937061105095
204.0, 0.021154277046184125
205.0, 0.028219699598945967
206.0, 0.0227926806946434
207.0, 0.03817854904821383
208.0, 0.08493852586825151
209.0, 0.10477911269617769
210.0, 0.12409022189992641
211.0, 0.14652035570452301
212.0, 0.16791476481405598
213.0, 0.18797311246450998
214.0, 0.23390305063684488
215.0, 0.2632449108782907
216.0, 0.28006784994241796
217.0, 0.3019843208777361
218.0, 0.3245742125663267
219.0, 0.36283349382797264
220.0, 0.4040547669292859
221.0, 0.43019045081190876
222.0, 0.4263468043482068
223.0, 0.45001495726840685
224.0, 0.4629516857425083
225.0, 0.4749658677730933
226.0, 0.49818117361688696
227.0, 0.4965405494129553
228.0, 0.5078627501475467
229.0, 0.5012817360633666
230.0, 0.4858045496154631
231.0, 0.5062597196826586
232.0, 0.4760368807558547
233.0, 0.46922102639654795
234.0, 0.4752715778364643
235.0, 0.4610740777051956
236.0, 0.4388089795918699
237.0, 0.41022753491488007
238.0, 0.3759842748136924
239.0, 0.3474083105972325
240.0, 0.3442504067904944
241.0, 0.34899711626810836
242.0, 0.32784339557991543
243.0, 0.3015459711895918
244.0, 0.29318830023764847
245.0, 0.2786626543945245
246.0, 0.253073605443494
247.0, 0.23072138838984846
248.0, 0.22035304354684776
249.0, 0.22310442655101234
250.0, 0.20255702772929327
251.0, 0.19457799941735282
252.0, 0.1754914570499626
253.0, 0.13270519461915062
254.0, 0.11923424121251502
255.0, 0.1021355923039761
256.0, 0.08561250169067242
257.0, 0.07408857164198841
258.0, 0.06099343293427015
259.0, 0.03881637966615796
260.0, 0.03839356090269492
261.0, 0.025613202265969044
262.0, 0.021549402422015272
263.0, 0.018457865212760213
264.0, 0.011719492303370925
265.0, 0.007864072234981517
266.0, 0.0012453402606340733
267.0, 0.002331009439840362
268.0, 0.009904870019932085
269.0, 0.014790243303948477
270.0, 0.00969060300037486
271.0, 0.007116800259149116
272.0, 0.010106532762929096
273.0, 0.0046367755077252664
274.0, 0.0011277158748526407
275.0, 0.007025722317561837
276.0, 0.01510839097336997
277.0, 0.017825337356982364
278.0, 0.04026370579990148
279.0, 0.052872736178010055
280.0, 0.05435657380061278
281.0, 0.07012543328269193
282.0, 0.07914751446362121
283.0, 0.08911387445179103
284.0, 0.0999016612292555
285.0, 0.11141028766919017
286.0, 0.12886664683311552
287.0, 0.1534710641162588
288.0, 0.16911678112370856
289.0, 0.16915392255138986
290.0, 0.159017971048806
291.0, 0.15847893829493995
292.0, 0.18004820569747904
293.0, 0.18178073328123381
294.0, 0.16522183836817975
295.0, 0.17103292946855572
296.0, 0.18171917812019742
297.0, 0.19103627503117945
298.0, 0.1820306469656108
299.0, 0.16120651487441617
300.0, 0.1636344419396438
301.0, 0.16956661311034646
302.0, 0.1656319120318359
303.0, 0.1613450870317907
304.0, 0.16532905645567073
305.0, 0.16150899979695693
306.0, 0.17679831755310035
307.0, 0.15410326916061498
308.0, 0.12009408271166107
309.0, 0.1426646527708657
310.0, 0.14055838696581718
311.0, 0.12876860838155507
312.0, 0.12883449011941547
313.0, 0.12982926610371992
314.0, 0.0992769003320565
315.0, 0.08402471129243125
316.0, 0.09998612660941657
317.0, 0.10813153826094621
318.0, 0.08721613806527873
319.0, 0.0813644994745719
320.0, 0.09044303886373803
321.0, 0.08583506857860998
322.0, 0.06781825581090152
323.0, 0.053772203104373445
324.0, 0.050147761423808536
325.0, 0.0675144704044398
326.0, 0.07592029807740992
327.0, 0.06877649913407298
328.0, 0.0627406427114466
329.0, 0.06309150821244086
330.0, 0.05979725725950651
331.0, 0.07352453887955675
332.0, 0.09896797676472145
333.0, 0.08619862832120845
334.0, 0.0731669270594988
335.0, 0.07840098510926996
336.0, 0.08728163980651675
337.0, 0.09075652967365425
338.0, 0.11428072677232952
339.0, 0.14465356463381232
340.0, 0.14231096976510052
341.0, 0.13596976507799305
342.0, 0.164916842693133
343.0, 0.16734909282454116
344.0, 0.16840045702224293
345.0, 0.17414108397974293
346.0, 0.18933721472369883
347.0, 0.2120655587555615
348.0, 0.21017739649995174
349.0, 0.22809084013094058
350.0, 0.2444460564415742
351.0, 0.24042527367061645
352.0, 0.2305177303078845
353.0, 0.24806322277159987
354.0, 0.2729959663937311
355.0, 0.28734188117415604
356.0, 0.28840418088286085
357.0, 0.2842293007149047
358.0, 0.2695861076742457
359.0, 0.2593187138867783
360.0, 0.27247605144808856
361.0, 0.28986878296558505
362.0, 0.25750423768811737
363.0, 0.2526351433309168
364.0, 0.25215656067692804
365.0, 0.2546367336567738
366.0, 0.2556074217986725
367.0, 0.21439193037052107
368.0, 0.229463092054228
369.0, 0.22907385172032693
370.0, 0.22419909127492374
371.0, 0.2442032629672635
372.0, 0.22871967460964127
373.0, 0.20432206683178117
374.0, 0.18565929389934177
375.0, 0.18649963193771715
376.0, 0.20316350544171632
377.0, 0.18969098093530343
378.0, 0.18883768666698852
379.0, 0.18522719961292844
380.0, 0.1708842950796951
381.0, 0.1547269016805734
382.0, 0.14770674878779003
383.0, 0.14516333183335256
384.0, 0.13751406858854276
385.0, 0.13366111711135428
386.0, 0.140449969175208
387.0, 0.11318805225023933
388.0, 0.07536138329831713
389.0, 0.06754867410859523
390.0, 0.07055692259607814
391.0, 0.044438706758490876
392.0, 0.03362626397174629
393.0, 0.03425951361684848
394.0, 0.02254207531492365
395.0, 0.007494807891077435
396.0, 0.012701018626737866
397.0, 0.0024143550633761
398.0, 0.010986694742690463
399.0, 0.00670369765446563
400.0, 0.0041035907713280854
401.0, 0.008003149501083464
402.0, 0.012268371769395128
403.0, 0.0193669534370929
404.0, 0.01433629713074262
405.0, 0.006082732909737783
406.0, 0.0017618410431399381
407.0, 0.011215740629496106
408.0, 0.018659823987229006
409.0, 0.0025739931722128006
410.0, 0.021366264554305937
411.0, 0.01836550129999094
412.0, 0.04119383493973967
413.0, 0.0429754870347819
414.0, 0.04082406971313921
415.0, 0.04471091441552781
416.0, 0.048292956600940046
417.0, 0.07671605267615984
418.0, 0.06258248479874487
419.0, 0.056589110239408304
420.0, 0.07044939010945975
421.0, 0.07361990467425361
422.0, 0.10338074401357039
423.0, 0.09433737826874768
424.0, 0.10191293712710148
425.0, 0.13528789052843052
426.0, 0.16361692877346454
427.0, 0.17503389699250252
428.0, 0.17952376177471685
429.0, 0.1716661692946125
430.0, 0.1828678058974307
431.0, 0.2304452990398312
432.0, 0.22037641603881916
433.0, 0.19380223574102573
434.0, 0.19560280859026935
435.0, 0.2011101542560656
436.0, 0.17327514570369085
437.0, 0.14678577006080112
438.0, 0.13633217572781609
439.0, 0.13933322533947454
440.0, 0.13728923800696372
441.0, 0.1209064299114343
442.0, 0.11230197415500907
443.0, 0.11361437695096192
444.0, 0.1108308486323956
445.0, 0.09950607250613086
446.0, 0.09245957035019223
447.0, 0.11163629086160674
448.0, 0.10281893534581377
449.0, 0.10942321467546409
450.0, 0.10956940384754656
451.0, 0.0916608427363518
452.0, 0.0902258306575472
453.0, 0.05854819138238285
454.0, 0.0550690322746505
455.0, 0.051509377699606486
456.0, 0.034545993528760206
457.0, 0.04206666389280804
458.0, 0.057970477556768193
459.0, 0.03734735574946566
460.0, 0.018036106111394164
461.0, 0.012279777206196007
462.0, 0.0004697657114097419
463.0, 0.00522200471023838
464.0, 0.003037791764124031
465.0, 0.00030783249817200854
466.0, 0.009017002978985476
467.0, 0.023522715934435293
468.0, 0.003305236832864974
469.0, 0.002051283865902403
470.0, 0.003124078061135145
471.0, 0.0034077960389501598
472.0, 0.008617360808615923
473.0, 0.003713365610425399
474.0, 0.01116909740740908
475.0, 0.010579425476074867
476.0, 0.0008737317519770225
477.0, 0.004515536697385287
478.0, 0.0060002054791686195
479.0, 0.019872148189004128
480.0, 0.027282197401499054
481.0, 0.027756282449882427
482.0, 0.028898372242560366
483.0, 0.03770468918301849
484.0, 0.05749854391107241
485.0, 0.05140862018382385
486.0, 0.05417493954052228
487.0, 0.06958051438579076
488.0, 0.07618398940577806
489.0, 0.07086389782678121
490.0, 0.0881197017285549
491.0, 0.10749527744062075
492.0, 0.1254268809319013
493.0, 0.14023178428613323
494.0, 0.1399493126202097
495.0, 0.16026583308989947
496.0, 0.17529762340690005
497.0, 0.18828394435429222
498.0, 0.20585922201254053
499.0, 0.21937913222389605
500.0, 0.22184845334417663
501.0, 0.26262942339435563
502.0, 0.2810581329803465
503.0, 0.2788962726886104
504.0, 0.2974068949624255
505.0, 0.33218992491688126
506.0, 0.32319325473582633
507.0, 0.32481405450731377
508.0, 0.34848091767510275
509.0, 0.37108816309860865
510.0, 0.36760098724229073
511.0, 0.3736173431218271
512.0, 0.38110302396928974
513.0, 0.38609000143121947
514.0, 0.40088354788261277
515.0, 0.43195882396401397
516.0, 0.4505594096906107
517.0, 0.4403109186548694
518.0, 0.44512680460830084
519.0, 0.4625663997641004
520.0, 0.47098760758251007
521.0, 0.4725763727888905
522.0, 0.4824898608183082
523.0, 0.5045268175704046
524.0, 0.5177141261212619
525.0, 0.5158277591923082
526.0, 0.5254202879744284
527.0, 0.5537489084667783
528.0, 0.559258263298526
529.0, 0.5605116451636886
530.0, 0.5659468316880449
531.0, 0.5753329653167026
532.0, 0.6123809373552352
533.0, 0.5826673941693017
534.0, 0.5549603401209289
535.0, 0.5621698379909094
536.0, 0.5821982028924769
537.0, 0.570239554255717
538.0, 0.5789231146098793
539.0, 0.5623810409016079
540.0, 0.5464931096455475
541.0, 0.5464733890835027
542.0, 0.5465910124871123
543.0, 0.5339962066031955
544.0, 0.5530053866792778
545.0, 0.5266485379294513
546.0, 0.5118009581058252
547.0, 0.5319508110370748
548.0, 0.5212882096263688
549.0, 0.5013828037493047
550.0, 0.48194034426704757
551.0, 0.4791840340338509
552.0, 0.47508643506729076
553.0, 0.45397935397551925
554.0, 0.45409676828004225
555.0, 0.4565294817532418
556.0, 0.43139041556588203
557.0, 0.4066365398445793
558.0, 0.38958269133990536
559.0, 0.3599747620117715
560.0, 0.3649256361464937
561.0, 0.36265346815262084
562.0, 0.3713762467422037
563.0, 0.3644917471790105
564.0, 0.33083290650438274
565.0, 0.33932188900743315
566.0, 0.32359565604294904
567.0, 0.300062977349708
568.0, 0.27956030774880264
569.0, 0.2681140015907746
570.0, 0.2659908655265967
571.0, 0.2575188471190785
572.0, 0.2604554602983062
573.0, 0.24261031037731237
574.0, 0.21898202418030338
575.0, 0.20857238400898168
576.0, 0.20328535834400507
577.0, 0.18541862750867208
578.0, 0.16745397879098856
579.0, 0.1639195902872129
580.0, 0.13923496199293334
581.0, 0.08876358267047599
582.0, 0.09433127444470284
583.0, 0.09226783752392598
584.0, 0.08850001854011685
585.0, 0.0694304178906559
586.0, 0.050695462089036004
587.0, 0.056632067808845755
588.0, 0.04696797021154877
589.0, 0.032597947728086225
590.0, 0.035413920821003336
591.0, 0.022330644606878187
592.0, 0.0064348433683730335
593.0, 0.03494270911333793
594.0, 0.005810950826564276
595.0, 0.014502392384781744
596.0, 0.007202561029134288
597.0, 0.013135439206615196
598.0, 0.01126144318514304
599.0, 0.02108970992599687
600.0, 0.014836005294806876
601.0, 0.007008655454015299
602.0, 0.004502609807086683
603.0, 0.014470921037032455
604.0, 0.026101640508943275
605.0, 0.003249048598807797
606.0, 0.009788071104295847
607.0, 0.003979637572836803
608.0, 0.003646194290898512
609.0, 0.015042702300724062
610.0, 0.012320594837885952
611.0, 0.010737481466667833
612.0, 0.027565643686733136
613.0, 0.01889596383579127
614.0, 0.003505724039569276
615.0, 0.0023833172820250147
616.0, 0.017089378490669722
617.0, 0.024907377894072488
618.0, 0.027488365129510698
619.0, 0.03244884576140376
620.0, 0.045532092509572665
621.0, 0.054262686164709945
622.0, 0.04557556233520854
623.0, 0.04645622508211069
624.0, 0.04952358660610667
625.0, 0.05558576243006513
626.0, 0.0638126728128791
627.0, 0.07261268469325484
628.0, 0.08257237510656223
629.0, 0.09762365674493427
630.0, 0.10978017237139057
631.0, 0.11184555417605979
632.0, 0.11097057089210424
633.0, 0.1174796163286309
634.0, 0.13195841853513277
635.0, 0.15129496169346565
636.0, 0.15309244207535275
637.0, 0.15118540990554807
638.0, 0.16284559617636124
639.0, 0.18379578463479976
640.0, 0.18822362390796174
641.0, 0.20208258594776296
642.0, 0.20370373042214904
643.0, 0.24075332675321096
644.0, 0.26850361243981224
645.0, 0.25672362670077636
646.0, 0.2796785351724655
647.0, 0.31208857127723055
648.0, 0.3371248568431374
649.0, 0.3524370058454206
650.0, 0.3685909712389027
651.0, 0.3956127334033298
652.0, 0.4249300290597278
653.0, 0.43818110175839825
654.0, 0.4761380754841685
655.0, 0.5102605614019557
656.0, 0.5362295328893427
657.0, 0.5846804114869095
658.0, 0.6726430955599616
659.0, 0.6996099542441001
660.0, 0.7234912261494065
661.0, 0.7759959996375594
662.0, 0.819957209723008
663.0, 0.8432355085965609
664.0, 0.8870009799859788
665.0, 0.9543573844739192
666.0, 0.9650735880834181
667.0, 0.9737713650789095
668.0, 0.9924702425440095
669.0, 0.9956138424915263
670.0, 0.9654175022855881
671.0, 0.953003551252001
672.0, 0.9161241026304711
673.0, 0.88522169871264
674.0, 0.8403064458066057
675.0, 0.7808762236775232
676.0, 0.7369126661325696
677.0, 0.6658586569241359
678.0, 0.5865275576561143
679.0, 0.5176664715115895
680.0, 0.4781124395482753
681.0, 0.4483610536776989
682.0, 0.3950311558194886
683.0, 0.3474708202304058
684.0, 0.2960225778294652
685.0, 0.2780664950827181
686.0, 0.25239430599792834
687.0, 0.2115973797135542
688.0, 0.18336157855169075
689.0, 0.1567784958136766
690.0, 0.14187087027573986
691.0, 0.11845915552042598
692.0, 0.09444860533011122
693.0, 0.08515852308690414
694.0, 0.08286314566720833
695.0, 0.061975892235171345
696.0, 0.07353726492877119
697.0, 0.04317138164016402
698.0, 0.026915460826202723
699.0, 0.0256021944879449
700.0, 0.026710514146042474
701.0, 0.044143989392764926
702.0, 0.03825017450215644
703.0, 0.0187413584986263
704.0, 0.006548889914395068
705.0, 0.025322989008639874
706.0, 0.04146600949393337
707.0, 0.012386036469600294
708.0, 0.03319319479036246
709.0, 0.05117821797555201
710.0, 0.03568504818454635
711.0, 0.049298706846256
712.0, 0.07164882692664731
713.0, 0.053038164321236377
714.0, 0.044530338836480124
715.0, 0.06103016697785378
716.0, 0.06760665504997637
717.0, 0.06784571565439974
718.0, 0.07807917626320247
719.0, 0.09873048448515721
720.0, 0.10752213710401408
721.0, 0.08455114251475042
722.0, 0.08739828519340122
723.0, 0.10109395495245327
724.0, 0.09536304667906155
725.0, 0.08505006128106901
726.0, 0.09633829226139337
727.0, 0.09512562338512155
728.0, 0.08826281162170754
729.0, 0.08691645848582999
730.0, 0.08960374974347639
731.0, 0.09240212170137879
732.0, 0.08732192981461898
733.0, 0.06685451186365657
734.0, 0.05899730561611395
735.0, 0.07761544093754616
736.0, 0.07950352693314522
737.0, 0.0647313958727288
738.0, 0.04923075081716235
739.0, 0.0458687343369461
740.0, 0.061482635951662486
741.0, 0.060942332357798626
742.0, 0.04953400774693895
743.0, 0.039081438085664805
744.0, 0.031462697017310644
745.0, 0.02568411511824394
746.0, 0.022451536104981292
747.0, 0.017222779812593195
748.0, 0.030871883710525943
749.0, 0.0333383766793227
750.0, 0.033044611809424765
751.0, 0.024814831771475487
752.0, 0.0026340520741508487
753.0, 0.0018713724546422224
754.0, 0.010542713578443946
755.0, 0.01176626783628787
756.0, 0.0164206609454809
757.0, 0.026380120837977063
758.0, 0.009483887750849794
759.0, 0.009457633665720886
760.0, 0.0031310242567392037
761.0, 0.0019939043166244987
762.0, 0.007601314126243337
763.0, 0.02221815029424894
764.0, 0.030639574523564254
765.0, 0.03347285889070831
766.0, 0.04438885942147766
767.0, 0.01890787342481949
768.0, 0.024712650101436973
769.0, 0.03790511993103821
770.0, 0.05247971311140322
771.0, 0.05934577526899024
772.0, 0.053765938297556645
773.0, 0.06467044286940368
774.0, 0.06516495187035125
775.0, 0.05332988099020234
776.0, 0.06838459933235072
777.0, 0.08318618955653881
778.0, 0.07756835641612832
779.0, 0.08246975832215166
780.0, 0.10077909234426574
781.0, 0.09794059881316428
782.0, 0.08820065271541314
783.0, 0.09786478303592239
784.0, 0.09231091921906784
785.0, 0.07242474620638015
786.0, 0.09132755526001216
787.0, 0.09707668147350385
788.0, 0.09280520723434176
789.0, 0.08374187984848862
790.0, 0.08800441786242007
791.0, 0.08808293038523883
792.0, 0.0712290219899273
793.0, 0.0696573861192015
794.0, 0.08014470568784793
795.0, 0.07978076748652865
796.0, 0.08614734520490248
797.0, 0.08055194661945103
798.0, 0.06500949982191367
799.0, 0.059756839159948824
800.0, 0.06694481470116492
801.0, 0.05628778770272923
802.0, 0.055868643455533676
803.0, 0.039421075563147244
804.0, 0.03928249156039703
805.0, 0.048064747700894306
806.0, 0.0468043809317778
807.0, 0.06487414591191847
808.0, 0.05434087536329671
809.0, 0.0357195383565781
810.0, 0.01530696717584743
811.0, 0.03268274310139515
812.0, 0.05024598128685526
813.0, 0.028435710747773093
814.0, 0.013564925719223502
815.0, 0.023669381350577678
816.0, 0.01404071358352282
817.0, 0.009313647532023217
818.0, 0.012534388872452602
819.0, 0.020523191905735105
820.0, 0.01932148775664953
821.0, 0.004410215570451405
822.0, 0.011703173364345325
823.0, 0.012989411122217019
824.0, 0.011920056753615186
825.0, 0.006869692013040553
826.0, 0.002859711208920117
827.0, 0.005073675027900013
828.0, 0.004818174629901639
829.0, 0.007895880195605241
830.0, 0.011540348592621916
831.0, 0.005848609301835113
832.0, 0.008681105438938914
833.0, 0.006722952535349447
834.0, 0.016551477673058486
835.0, 0.002335392988137909
836.0, 0.004312390814081468
837.0, 0.01032643257985135
838.0, 0.0018212596596309315
839.0, 0.009587179254782224
840.0, 0.004151663958578651
841.0, 0.01040677803455879
842.0, 0.011958762000305847
843.0, 0.014156729857023188
844.0, 0.0012163039194813697
845.0, 0.0007878878231022526
846.0, 0.006544204125829533
847.0, 0.015430894356186812
848.0, 0.01922424451711506
849.0, 0.019454867089725825
850.0, 0.0019560218369049933
851.0, 0.017210067977829622
852.0, 0.014832391221659203
853.0, 0.014910903323460192
854.0, 0.01811181773002813
855.0, 0.026623218533816866
856.0, 0.036288422477684185
857.0, 0.02346900984007441
858.0, 0.018790072753534892
859.0, 0.02543783998537034
860.0, 0.045491708554040174
861.0, 0.05026673832216358
862.0, 0.04377894793397508
863.0, 0.03718233820658773
864.0, 0.032461120772118796
865.0, 0.0552136933471428
866.0, 0.04373610818655378
867.0, 0.05578159692475733
868.0, 0.068338625843776
869.0, 0.08002980285134799
870.0, 0.08648673091126297
871.0, 0.07795339454662015
872.0, 0.07223335644891259
873.0, 0.07052519594157187
874.0, 0.07311115511642283
875.0, 0.07661253712327505
876.0, 0.08673344747027845
877.0, 0.08336503204312745
878.0, 0.07527426262591044
879.0, 0.0874395564539881
880.0, 0.07582397688830943
881.0, 0.08094219512321164
882.0, 0.08891657655846054
883.0, 0.09303010598843572
884.0, 0.10165840287945391
885.0, 0.10430437124105062
886.0, 0.09800219597598331
887.0, 0.11265230979591671
888.0, 0.11450746810813152
889.0, 0.09483624926129768
890.0, 0.1033805859311231
891.0, 0.10593705929106423
892.0, 0.10624859176452166
893.0, 0.10685997626289577
894.0, 0.09105916147308972
895.0, 0.09789772340625053
896.0, 0.1078944821851834
897.0, 0.10928485547546583
898.0, 0.10697489267452023
899.0, 0.10748488036521142
900.0, 0.10673197546646926
901.0, 0.10077179090650842
902.0, 0.09826177209573811
903.0, 0.09547411299770607
904.0, 0.09453804575081116
905.0, 0.0922958631296757
906.0, 0.09521162559759498
907.0, 0.10906492468314512
908.0, 0.1157209414266412
909.0, 0.1121002108752399
910.0, 0.12354914451492499
911.0, 0.12477950865336976
912.0, 0.12567795738154747
913.0, 0.11549807985778353
914.0, 0.11733565759181364
915.0, 0.13837979196105818
916.0, 0.14742124488296543
917.0, 0.13686367405604657
918.0, 0.15044066713034415
919.0, 0.17538898097478303
920.0, 0.17879177050657397
921.0, 0.1732664416219707
922.0, 0.17863705329222057
923.0, 0.16988395472002701
924.0, 0.161462934185368
925.0, 0.17418993151386206
926.0, 0.16273969100611282
927.0, 0.15153183247411897
928.0, 0.16599848568854253
929.0, 0.15894519827655046
930.0, 0.15990103295398198
931.0, 0.14979555822105703
932.0, 0.13511488810607636
933.0, 0.14364776509494154
934.0, 0.1476416327338671
935.0, 0.12580322557682458
936.0, 0.11942122486791204
937.0, 0.13565801893917975
938.0, 0.13961519593824173
939.0, 0.1267602818958168
940.0, 0.1174100133385872
941.0, 0.12105190210183156
942.0, 0.1210173027406584
943.0, 0.10703933989990604
944.0, 0.11232795454634723
945.0, 0.1197398982920043
946.0, 0.103644192941166
947.0, 0.09063256149071655
948.0, 0.09213827060742379
949.0, 0.09803398717944696
950.0, 0.1059908505143842
951.0, 0.11164654558566312
952.0, 0.09151388161467534
953.0, 0.07938762867532576
954.0, 0.0967480579741001
955.0, 0.0943502565585274
956.0, 0.08649651049962573
957.0, 0.10132436033678426
958.0, 0.10446246996722276
959.0, 0.09108682905451862
960.0, 0.09497720492484478
961.0, 0.0809697139543888
962.0, 0.08378332505452815
963.0, 0.0811406302936653
964.0, 0.07155059781917662
965.0, 0.07129121854780024
966.0, 0.07535038786431622
967.0, 0.06172486264281435
968.0, 0.04938176618153972
969.0, 0.05190324639923152
970.0, 0.056778942469739545
971.0, 0.03269883236117894
972.0, 0.025589008757451216
973.0, 0.03852109281019586
974.0, 0.03902979905252738
975.0, 0.033918644736863714
976.0, 0.015488859941810948
977.0, 0.00636097697684254
978.0, 0.0023332404351869415
979.0, 0.0007229602524185573
980.0, 0.0025122263664645126
981.0, 0.0034846281373708075
982.0, 0.00020108435690903664
983.0, 0.00163514655505073
984.0, 0.0067114452283171325
985.0, 0.003781528147335553
986.0, 0.006571297301641323
987.0, 0.03009841261671856
988.0, 0.005528070093179764
989.0, 0.0033682333080997913
990.0, 0.0032114331636720096
991.0, 0.01072206180205593
992.0, 0.013482186935936523
993.0, 0.019132743502512525
994.0, 0.020607957386041664
995.0, 0.023133801035767884
996.0, 0.02969261487433437
997.0, 0.04069636103258734
998.0, 0.03628023947029528
999.0, 0.036917336669135624
1000.0, 0.059255317460603654
1001.0, 0.06283163405769335
1002.0, 0.0507936420193087
1003.0, 0.05883058378503152
1004.0, 0.05435073581605994
1005.0, 0.05625881219358408
1006.0, 0.06790029282263108
1007.0, 0.0699303035839466
1008.0, 0.061611113853889225
1009.0, 0.06734274693100782
1010.0, 0.08290181875437995
1011.0, 0.06563463419107173
1012.0, 0.09532752816943085
1013.0, 0.09337610757466445
1014.0, 0.0971669637930302
1015.0, 0.08411657800880337
1016.0, 0.07709081707058787
1017.0, 0.0943460300180909
1018.0, 0.10134925489800643
1019.0, 0.0844916913324374
1020.0, 0.09709098372434474
1021.0, 0.08471114179794137
1022.0, 0.08814713459499372
1023.0, 0.09557763301773538
1024.0, 0.10296614687391029
1025.0, 0.1096590297804556
1026.0, 0.11378016813513413
1027.0, 0.10851576604575638
1028.0, 0.08981851582299093
1029.0, 0.09202335707576885
1030.0, 0.08896030276609573
1031.0, 0.11172582492035373
1032.0, 0.09092785711186865
1033.0, 0.08184996799574587
1034.0, 0.10792730572119766
1035.0, 0.12141779150630581
1036.0, 0.11024426852673933
1037.0, 0.11334634020186195
1038.0, 0.09463424877154201
1039.0, 0.0647968567152761
1040.0, 0.08691950759376411
1041.0, 0.08580319332167057
1042.0, 0.0805059015839332
1043.0, 0.07372993878737011
1044.0, 0.08101910429282036
1045.0, 0.08578406255888593
1046.0, 0.06259496260383389
1047.0, 0.08210398427402892
1048.0, 0.07249599447184553
1049.0, 0.05817232871566017
1050.0, 0.06170955153389906
1051.0, 0.060621564134098783
1052.0, 0.06228175464463417
1053.0, 0.062448401446279035
1054.0, 0.05992604218062064
1055.0, 0.061747931307187115
1056.0, 0.05621346999033334
1057.0, 0.04337794903352929
1058.0, 0.05011946916965099
1059.0, 0.06436114275683735
1060.0, 0.05072677772788793
1061.0, 0.04816731101122706
1062.0, 0.057700666931891735
1063.0, 0.05409718733981773
1064.0, 0.046283068899840636
1065.0, 0.04474324007484686
1066.0, 0.029884188518822092
1067.0, 0.037681210852395224
1068.0, 0.039122712692465124
1069.0, 0.023777303715314266
1070.0, 0.023280108322889615
1071.0, 0.025386284336543063
1072.0, 0.031182937977072618
1073.0, 0.027692091210683837
1074.0, 0.013727469433697405
1075.0, 0.019956251549673502
1076.0, 0.014247738640085796
1077.0, 0.003847187251133835
1078.0, 0.019326223727018792
1079.0, 0.018791713540270396
1080.0, 0.023189656313161576
1081.0, 0.00794484546558792
1082.0, 0.018211371840777712
1083.0, 0.008813537952644983
1084.0, 0.004415019622964753
1085.0, 0.023749472128326357
1086.0, 0.0119982252902713
1087.0, 0.02392605519421149
1088.0, 0.02531357997757255
1089.0, 0.023928734929614923
1090.0, 0.005559791193370532
1091.0, 0.012142114487555387
1092.0, 0.02169028440860602
1093.0, 0.021158070741298655
1094.0, 0.024596645904788595
1095.0, 0.01512091127293526
1096.0, 0.01546099205747101
1097.0, 0.0043582324100299346
1098.0, 0.007579426121994762
1099.0, 0.015476963743955468
1100.0, 0.01617070091214698
1101.0, 0.009010671024658285
1102.0, 0.016823435755990615
1103.0, 0.029218174761747606
1104.0, 0.021506157028985364
1105.0, 0.009004363076761005
1106.0, 0.004933842005341732
1107.0, 0.005886443944557399
1108.0, 0.0326301488008542
1109.0, 0.0182785356224648
1110.0, 0.013924635598928523
1111.0, 0.011495306500715504
1112.0, 0.003737448610325328
1113.0, 0.011020400024914983
1114.0, 0.024158660500773158
1115.0, 0.01697441226375326
1116.0, 0.008226755413499138
1117.0, 0.003006174291538041
1118.0, 0.01030609935963343
1119.0, 0.01186739453850905
1120.0, 0.009946583902165492
1121.0, 0.01279959100149311
1122.0, 0.0021537989995131543
1123.0, 0.011384956645853851
1124.0, 0.005387535444681683
1125.0, 0.009509455929320882
1126.0, 0.008546135179343507
1127.0, 0.006726990944966991
1128.0, 0.005399874487455178
1129.0, 0.012220324889244854
1130.0, 0.007206658577807716
1131.0, 0.007252793983153509
1132.0, 0.003810341263076817
1133.0, 0.007064358431535145
1134.0, 0.01939466113637564
1135.0, 0.015374080455934726
1136.0, 0.0003236814200359842
1137.0, 0.0081500784846601
1138.0, 0.0005428699407489573
1139.0, 0.007543802630185156
1140.0, 0.01808931863273055
1141.0, 0.004720742951834736
1142.0, 0.0027128603157307845
1143.0, 0.0010477834369923484
1144.0, 0.008881974727811924
1145.0, 0.02422908241329325
1146.0, 0.02850436459651275
1147.0, 0.024899074899155122
1148.0, 0.017118244383882722
1149.0, 0.0210309669546852
1150.0, 0.02712677648430908
1151.0, 0.023966248229652203
1152.0, 0.017878829564502405
1153.0, 0.01848540934309171
1154.0, 0.030029018047791706
1155.0, 0.024527615354265345
1156.0, 0.02247217925792397
1157.0, 0.03587516726604013
1158.0, 0.03217526395266318
1159.0, 0.02107064745287773
1160.0, 0.03311857085828032
1161.0, 0.01178432243174071
1162.0, 0.028810738266387092
1163.0, 0.02967681672796815
1164.0, 0.025052339320083074
1165.0, 0.01804822296705859
1166.0, 0.03512753773440933
1167.0, 0.034632500665529885
1168.0, 0.02280933474483009
1169.0, 0.019630428349760705
1170.0, 0.013356542598877575
1171.0, 0.02627343620200074
1172.0, 0.03601315259509889
1173.0, 0.02875897147919914
1174.0, 0.04047887311886828
1175.0, 0.03990210606347383
1176.0, 0.04364475404262735
1177.0, 0.04188601382081615
1178.0, 0.04142551200420424
1179.0, 0.04321805661319328
1180.0, 0.041632256135208316
1181.0, 0.03821710155675379
1182.0, 0.03837054443172944
1183.0, 0.04247317975700138
1184.0, 0.04743892668495661
1185.0, 0.03235356652230825
1186.0, 0.0377338751922321
1187.0, 0.03655270835958299
1188.0, 0.040099759575348955
1189.0, 0.0325440148795605
1190.0, 0.02324133045087025
1191.0, 0.026744022167908922
1192.0, 0.03155931971579042
1193.0, 0.025665777319291344
1194.0, 0.021449920927733696
1195.0, 0.02698226474247941
1196.0, 0.014787932212303841
1197.0, 0.0216929671367483
1198.0, 0.029251908108836683
1199.0, 0.024358718119366473
1200.0, 0.020772976492229023
1201.0, 0.028031590622330828
1202.0, 0.026220068890718016
1203.0, 0.024083372339513825
1204.0, 0.029762313575985647
1205.0, 0.031228851069789575
1206.0, 0.031350799002196436
1207.0, 0.04361504602927662
1208.0, 0.03279402584067865
1209.0, 0.026903348907783366
1210.0, 0.040352199025206245
1211.0, 0.017402520489729165
1212.0, 0.020346085566268705
1213.0, 0.028764531428119276
1214.0, 0.02553444555696084
1215.0, 0.021881170587980014
1216.0, 0.030438098538125485
1217.0, 0.031101312343737763
1218.0, 0.013344926706339017
1219.0, 0.012359036612190621
1220.0, 0.03820164050900409
1221.0, 0.02212785729497727
1222.0, 0.024972748599645715
1223.0, 0.03435551515707701
1224.0, 0.02017544915015139
1225.0, 0.01736610221028849
1226.0, 0.01284134913277446
1227.0, 0.03008361090356377
1228.0, 0.029783656972092554
1229.0, 0.025810001945743417
1230.0, 0.03506733668885442
1231.0, 0.02901583215994268
1232.0, 0.013243593773316634
1233.0, 0.013008874761674267
1234.0, 0.01088980709462645
1235.0, 0.018994299786569566
1236.0, 0.007265885983121544
1237.0, 0.021332902962371555
1238.0, 0.029180028150486315
1239.0, 0.012473805161170217
1240.0, 0.015592412260561406
1241.0, 0.01520735698538678
1242.0, 0.02118021898292134
1243.0, 0.027026007519682524
1244.0, 0.011615530818403311
1245.0, 0.001001382998161574
1246.0, 0.011625961845602504
1247.0, 0.019578479088643522
1248.0, 0.007371870992405723
1249.0, 0.005371233171937207
1250.0, 0.009416763921537905
1251.0, 0.007426649204793926
1252.0, 0.004424243636856766
1253.0, 0.011904154070143266
1254.0, 0.028391925198958057
1255.0, 0.019562204721478224
1256.0, 0.008175903936296108
1257.0, 0.00995105114069578
1258.0, 0.014321945165952855
1259.0, 0.021908242339436515
1260.0, 0.019229259617675583
1261.0, 0.02351164271764511
1262.0, 0.03262818038856395
1263.0, 0.010180175784164667
1264.0, 0.035230553002112405
1265.0, 0.026488229925352384
1266.0, 0.027662123975598883
1267.0, 0.006786719905153778
1268.0, 0.005537229961506317
1269.0, 0.01276819343600836
1270.0, 0.012440549417251687
1271.0, 0.01444639838181541
1272.0, 0.017686749550165092
1273.0, 0.023535835532084007
1274.0, 0.028966119227811064
1275.0, 0.007283300614945252
1276.0, 0.0021915300036099558
1277.0, 0.007440763462342189
1278.0, 0.010201534862075059
1279.0, 0.0208613446669785
1280.0, 0.0048065694389758
1281.0, 0.026686893356920826
1282.0, 0.02088226874779879
1283.0, 0.020278058651181926
1284.0, 0.007343513852520627
1285.0, 0.010162223289843793
1286, 0.0
1287, 0.0
1288, 0.0
1289, 0.0
1290, 0.0
1291, 0.0
1292, 0.0
1293, 0.0
1294, 0.0
1295, 0.0
1296, 0.0
1297, 0.0
1298, 0.0
1299, 0.0
1300, 0.0
1301, 0.0
1302, 0.0
1303, 0.0
1304, 0.0
1305, 0.0
1306, 0.0
1307, 0.0
1308, 0.0
1309, 0.0
1310, 0.0
1311, 0.0
1312, 0.0
1313, 0.0
1314, 0.0
1315, 0.0
1316, 0.0
1317, 0.0
1318, 0.0
1319, 0.0
1320, 0.0
1321, 0.0
1322, 0.0
1323, 0.0
1324, 0.0
1325, 0.0
1326, 0.0
1327, 0.0
1328, 0.0
1329, 0.0
1330, 0.0
1331, 0.0
1332, 0.0
1333, 0.0
1334, 0.0
1335, 0.0
1336, 0.0
1337, 0.0
1338, 0.0
1339, 0.0
1340, 0.0
1341, 0.0
1342, 0.0
1343, 0.0
1344, 0.0
1345, 0.0
1346, 0.0
1347, 0.0
1348, 0.0
1349, 0.0
1350, 0.0
1351, 0.0
1352, 0.0
1353, 0.0
1354, 0.0
1355, 0.0
1356, 0.0
1357, 0.0
1358, 0.0
1359, 0.0
1360, 0.0
1361, 0.0
1362, 0.0
1363, 0.0
1364, 0.0
1365, 0.0
1366, 0.0
1367, 0.0
1368, 0.0
1369, 0.0
1370, 0.0
1371, 0.0
1372, 0.0
1373, 0.0
1374, 0.0
1375, 0.0
1376, 0.0
1377, 0.0
1378, 0.0
1379, 0.0
1380, 0.0
1381, 0.0
1382, 0.0
1383, 0.0
1384, 0.0
1385, 0.0
1386, 0.0
1387, 0.0
1388, 0.0
1389, 0.0
1390, 0.0
1391, 0.0
1392, 0.0
1393, 0.0
1394, 0.0
1395, 0.0
1396, 0.0
1397, 0.0
1398, 0.0
1399, 0.0
1400, 0.0
1401, 0.0
1402, 0.0
1403, 0.0
1404, 0.0
1405, 0.0
1406, 0.0
1407, 0.0
1408, 0.0
1409, 0.0
1410, 0.0
1411, 0.0
1412, 0.0
1413, 0.0
1414, 0.0
1415, 0.0
1416, 0.0
1417, 0.0
1418, 0.0
1419, 0.0
1420, 0.0
1421, 0.0
1422, 0.0
1423, 0.0
1424, 0.0
1425, 0.0
1426, 0.0
1427, 0.0
1428, 0.0
1429, 0.0
1430, 0.0
1431, 0.0
1432, 0.0
1433, 0.0
1434, 0.0
1435, 0.0
1436, 0.0
1437, 0.0
1438, 0.0
1439, 0.0
1440, 0.0
1441, 0.0
1442, 0.0
1443, 0.0
1444, 0.0
1445, 0.0
1446, 0.0
1447, 0.0
1448, 0.0
1449, 0.0
1450, 0.0
1451, 0.0
1452, 0.0
1453, 0.0
1454, 0.0
1455, 0.0
1456, 0.0
1457, 0.0
1458, 0.0
1459, 0.0
1460, 0.0
1461, 0.0
1462, 0.0
1463, 0.0
1464, 0.0
1465, 0.0
1466, 0.0
1467, 0.0
1468, 0.0
1469, 0.0
1470, 0.0
1471, 0.0
1472, 0.0
1473, 0.0
1474, 0.0
1475, 0.0
1476, 0.0
1477, 0.0
1478, 0.0
1479, 0.0
1480, 0.0
1481, 0.0
1482, 0.0
1483, 0.0
1484, 0.0
1485, 0.0
1486, 0.0
1487, 0.0
1488, 0.0
1489, 0.0
1490, 0.0
1491, 0.0
1492, 0.0
1493, 0.0
1494, 0.0
1495, 0.0
1496, 0.0
1497, 0.0
1498, 0.0
1499, 0.0
1500, 0.0
1501, 0.0
1502, 0.0
1503, 0.0
1504, 0.0
1505, 0.0
1506, 0.0
1507, 0.0
1508, 0.0
1509, 0.0
1510, 0.0
1511, 0.0
1512, 0.0
1513, 0.0
1514, 0.0
1515, 0.0
1516, 0.0
1517, 0.0
1518, 0.0
1519, 0.0
1520, 0.0
1521, 0.0
1522, 0.0
1523, 0.0
1524, 0.0
1525, 0.0
1526, 0.0
1527, 0.0
1528, 0.0
1529, 0.0
1530, 0.0
1531, 0.0
1532, 0.0
1533, 0.0
1534, 0.0
1535, 0.0
1536, 0.0
1537, 0.0
1538, 0.0
1539, 0.0
1540, 0.0
1541, 0.0
1542, 0.0
1543, 0.0
1544, 0.0
1545, 0.0
1546, 0.0
1547, 0.0
1548, 0.0
1549, 0.0
1550, 0.0
1551, 0.0
1552, 0.0
1553, 0.0
1554, 0.0
1555, 0.0
1556, 0.0
1557, 0.0
1558, 0.0
1559, 0.0
1560, 0.0
1561, 0.0
1562, 0.0
1563, 0.0
1564, 0.0
1565, 0.0
1566, 0.0
1567, 0.0
1568, 0.0
1569, 0.0
1570, 0.0
1571, 0.0
1572, 0.0
1573, 0.0
1574, 0.0
1575, 0.0
1576, 0.0
1577, 0.0
1578, 0.0
1579, 0.0
1580, 0.0
1581, 0.0
1582, 0.0
1583, 0.0
1584, 0.0
1585, 0.0
1586, 0.0
1587, 0.0
1588, 0.0
1589, 0.0
1590, 0.0
1591, 0.0
1592, 0.0
1593, 0.0
1594, 0.0
1595, 0.0
1596, 0.0
1597, 0.0
1598, 0.0
1599, 0.0
