30, 0.0
31, 0.0
32, 0.0
33, 0.0
34, 0.0
35, 0.0
36, 0.0
37, 0.0
38, 0.0
39, 0.0
40, 0.0
41, 0.0
42, 0.0
43, 0.0
44, 0.0
45, 0.0
46, 0.0
47, 0.0
48, 0.0
49, 0.0
50, 0.0
51, 0.0
52, 0.0
53, 0.0
54, 0.0
55, 0.0
56, 0.0
57, 0.0
58, 0.0
59, 0.0
60, 0.0
61, 0.0
62, 0.0
63, 0.0
64, 0.0
65, 0.0
66, 0.0
67, 0.0
68, 0.0
69, 0.0
70, 0.0
71, 0.0
72, 0.0
73, 0.0
74, 0.0
75, 0.0
76, 0.0
77, 0.0
78, 0.0
79, 0.0
80, 0.0
81, 0.0
82, 0.0
83, 0.0
84, 0.0
85, 0.0
86, 0.0
87, 0.0
88, 0.0
89, 0.0
90, 0.0
91, 0.0
92, 0.0
93, 0.0
94, 0.0
95, 0.0
96, 0.0
97, 0.0
98, 0.0
99, 0.0
100, 0.0
101, 0.0
102, 0.0
103, 0.0
104, 0.0
105, 0.0
106, 0.0
107, 0.0
108, 0.0
109.0, 6.775355871675671e-05
110.0, 0.006970456404273443
111.0, 0.016922793290009577
112.0, 0.02836002266761426
113.0, 0.04022503064661123
114.0, 0.053338743145858555
115.0, 0.06814759126767586
116.0, 0.08445375858311541
117.0, 0.10206188501316737
118.0, 0.12044002359063996
119.0, 0.13821005880684392
120.0, 0.15408151726789615
121.0, 0.16881713150527838
122.0, 0.18152434214789978
123.0, 0.19236191893292534
124.0, 0.20174247741262952
125.0, 0.20953390822421364
126.0, 0.21785032205485988
127.0, 0.22593039846073174
128.0, 0.23330133494168825
129.0, 0.2414593215315579
130.0, 0.25151304834702704
131.0, 0.26355361489161944
132.0, 0.27745645299382365
133.0, 0.293132480716755
134.0, 0.31040464606949664
135.0, 0.32919040332724064
136.0, 0.3493215670224676
137.0, 0.37027045421744426
138.0, 0.3935077502949541
139.0, 0.4159307687687192
140.0, 0.4382113190697518
141.0, 0.4628512835536808
142.0, 0.49050319638113715
143.0, 0.5168862505193936
144.0, 0.5448205600660375
145.0, 0.5765160550292865
146.0, 0.6075756140681481
147.0, 0.642000803574825
148.0, 0.6772307460804968
149.0, 0.7120586424716967
150.0, 0.7501645847272942
151.0, 0.7863357923758098
152.0, 0.8202603820517333
153.0, 0.8515365836355612
154.0, 0.8798704803054076
155.0, 0.9070097220650305
156.0, 0.9313412258141864
157.0, 0.9520889316189657
158.0, 0.9697240942116283
159.0, 0.9856952079934018
160.0, 0.9962411790830102
161.0, 0.999931753313177
162.0, 0.9968789432579489
163.0, 0.9886797266445763
164.0, 0.9723991459667068
165.0, 0.9481224525055458
166.0, 0.9178077160061595
167.0, 0.8840464142017938
168.0, 0.8445817050305815
169.0, 0.8032722443667184
170.0, 0.7620635853897169
171.0, 0.7215192139250876
172.0, 0.682149411176966
173.0, 0.6444713550498421
174.0, 0.6100829115067782
175.0, 0.5794585071442658
176.0, 0.5512567848542701
177.0, 0.5255871097933402
178.0, 0.5026110960607741
179.0, 0.4823206302382714
180.0, 0.4642912532141236
181.0, 0.4459936870341364
182.0, 0.42979773550624684
183.0, 0.415778829551216
184.0, 0.4022629088226441
185.0, 0.39017985538112426
186.0, 0.3780684038381866
187.0, 0.3664871296291913
188.0, 0.3562751473280807
189.0, 0.3462180778462389
190.0, 0.33604129280633765
191.0, 0.3264427940998424
192.0, 0.31735406876509215
193.0, 0.307567953788028
194.0, 0.29944535016063883
195.0, 0.2917917993486278
196.0, 0.2838522147375614
197.0, 0.2756559394219833
198.0, 0.2675706437310442
199.0, 0.2617620267039635
200.0, 0.2555220369738581
201.0, 0.24668091215096394
202.0, 0.23818527340350504
203.0, 0.23250467531508232
204.0, 0.2275040333458052
205.0, 0.2221803004655817
206.0, 0.2172169697820961
207.0, 0.20985730958686308
208.0, 0.2032649145319518
209.0, 0.19734132285871384
210.0, 0.19048490667843254
211.0, 0.18424686091796957
212.0, 0.17914370154571096
213.0, 0.17403222161534015
214.0, 0.16853685704526178
215.0, 0.1638682287118993
216.0, 0.15877198875020548
217.0, 0.1543943248634887
218.0, 0.1503858508658212
219.0, 0.14543961858648852
220.0, 0.1411196016472718
221.0, 0.13702814697771187
222.0, 0.13304691732775353
223.0, 0.12920019424201867
224.0, 0.12551944767542486
225.0, 0.12188778028613106
226.0, 0.1183396523188551
227.0, 0.1143959026626723
228.0, 0.10926329013704887
229.0, 0.10729226295779976
230.0, 0.10421822444873964
231.0, 0.10000842050757858
232.0, 0.09620048328313371
233.0, 0.09297672579763487
234.0, 0.09006029211591059
235.0, 0.08729003607844246
236.0, 0.08441398188392386
237.0, 0.08110261706779204
238.0, 0.07837350692255235
239.0, 0.07537102927762568
240.0, 0.07213092387783453
241.0, 0.06922745761707126
242.0, 0.06704376368873548
243.0, 0.06443464043602914
244.0, 0.06203492167192647
245.0, 0.06039006101544478
246.0, 0.05944901639873464
247.0, 0.05766858574772842
248.0, 0.05518781329203044
249.0, 0.05290989493473774
250.0, 0.051495340553232474
251.0, 0.0495218621430051
252.0, 0.047113446655850655
253.0, 0.04493614649056647
254.0, 0.04321299328187318
255.0, 0.04156943915029049
256.0, 0.040683262238130506
257.0, 0.03915544322690037
258.0, 0.03732483676742676
259.0, 0.03627531895673356
260.0, 0.03632378661996401
261.0, 0.035397647587281075
262.0, 0.03524546430407261
263.0, 0.03593461482883034
264.0, 0.03432461357147136
265.0, 0.0331310864717404
266.0, 0.03137170249124683
267.0, 0.02987393984669695
268.0, 0.0295698099033267
269.0, 0.02811883571344955
270.0, 0.027722737135876585
271.0, 0.027335429187881618
272.0, 0.026401656599415988
273.0, 0.025605463476110372
274.0, 0.02423673274154228
275.0, 0.02389588150705154
276.0, 0.024153326909740275
277.0, 0.023945356825323276
278.0, 0.02347351185493915
279.0, 0.021804650103341944
280.0, 0.020963432923253266
281.0, 0.021290812504973614
282.0, 0.021312435332341832
283.0, 0.020880339305475157
284.0, 0.020406143132436688
285.0, 0.019821833829970794
286.0, 0.01896982240455749
287.0, 0.017952271442246214
288.0, 0.01748284997863627
289.0, 0.01700136737982121
290.0, 0.016616659752003004
291.0, 0.016689060519380437
292.0, 0.016313306079505388
293.0, 0.01590964355782402
294.0, 0.015722342760087087
295.0, 0.01529513553552871
296.0, 0.013996731253735585
297.0, 0.014011765109546031
298.0, 0.013613228219436165
299.0, 0.012978398796529131
300.0, 0.01294113546586147
301.0, 0.013319604226044453
302.0, 0.014219917437702463
303.0, 0.014594268645320825
304.0, 0.014438386046053936
305.0, 0.01458283820069659
306.0, 0.014939952755602056
307.0, 0.015154280104693952
308.0, 0.015183555212504094
309.0, 0.015205823710180576
310.0, 0.015386956968733899
311.0, 0.014545037645394126
312.0, 0.01460924739713408
313.0, 0.01520248933615701
314.0, 0.015248771364915276
315.0, 0.015171020012985302
316.0, 0.0153650901228654
317.0, 0.015245266842942681
318.0, 0.015030418151800515
319.0, 0.015394153799376328
320.0, 0.015580111442777664
321.0, 0.016454598329890453
322.0, 0.0175973760839329
323.0, 0.01845483966773926
324.0, 0.018829746297186846
325.0, 0.019411767114393713
326.0, 0.019402240700118
327.0, 0.0199068808245478
328.0, 0.02182496692506639
329.0, 0.0226424439594082
330.0, 0.022964652136419492
331.0, 0.024121287192537384
332.0, 0.025547247881165004
333.0, 0.02583253833121899
334.0, 0.02658245964309654
335.0, 0.027287786621252884
336.0, 0.028264023983225056
337.0, 0.029572316568737274
338.0, 0.03074192026089763
339.0, 0.031516103611102145
340.0, 0.033340277967467406
341.0, 0.034565282529180744
342.0, 0.03444721159413178
343.0, 0.03580662906377118
344.0, 0.036574920852656866
345.0, 0.03736056255181154
346.0, 0.03834437051380037
347.0, 0.039256519079037204
348.0, 0.04027437090205933
349.0, 0.04127338326424508
350.0, 0.04210197149563876
351.0, 0.04272531565315453
352.0, 0.04319004086208461
353.0, 0.04342635920029448
354.0, 0.044691245366496005
355.0, 0.04540861203304191
356.0, 0.04529033559879166
357.0, 0.0456642156530728
358.0, 0.04518667270682466
359.0, 0.044759960821971916
360.0, 0.04471365930890864
361.0, 0.044690952821231825
362.0, 0.044178321909138285
363.0, 0.0446133164817837
364.0, 0.04457797041460608
365.0, 0.04403648168710811
366.0, 0.04330417942987526
367.0, 0.04193857395107764
368.0, 0.04176098657652213
369.0, 0.04214757664625823
370.0, 0.04198358969977658
371.0, 0.04082975226509765
372.0, 0.04039876885082353
373.0, 0.04007440988114296
374.0, 0.03951984315929863
375.0, 0.03902710265021938
376.0, 0.03888990508943262
377.0, 0.03815047424467692
378.0, 0.037214126794886164
379.0, 0.036546609057756564
380.0, 0.03596818586125302
381.0, 0.035055763302326126
382.0, 0.03473123751602245
383.0, 0.034214222264307814
384.0, 0.033881136885545
385.0, 0.03386382774761306
386.0, 0.03373001486566967
387.0, 0.033896461225333595
388.0, 0.033715361561021825
389.0, 0.033245652610838665
390.0, 0.032699130466896154
391.0, 0.03214082822274053
392.0, 0.03194733461207461
393.0, 0.031614790102474095
394.0, 0.031096426193503952
395.0, 0.03038404761882677
396.0, 0.029372196726015164
397.0, 0.029311649092775328
398.0, 0.029050503445662682
399.0, 0.028738316706271118
400.0, 0.028713318782679263
401.0, 0.028530709127047773
402.0, 0.02738959577195617
403.0, 0.027093767146627756
404.0, 0.02712751194074108
405.0, 0.02653646440589981
406.0, 0.025680438459286654
407.0, 0.025259569014283743
408.0, 0.02502683153899392
409.0, 0.024575018666248512
410.0, 0.023722477380412037
411.0, 0.0228098676990789
412.0, 0.02217530676260921
413.0, 0.02176473436962187
414.0, 0.021246996969304103
415.0, 0.02076693782838786
416.0, 0.020326511247834935
417.0, 0.01983615600858142
418.0, 0.01910703861022076
419.0, 0.018816333210115315
420.0, 0.01817072876859712
421.0, 0.01762050009398108
422.0, 0.01690332962542255
423.0, 0.015812855762795848
424.0, 0.015051244567486176
425.0, 0.014906608030022627
426.0, 0.013763801512386027
427.0, 0.013339986379521121
428.0, 0.012989160991108976
429.0, 0.012153061512147888
430.0, 0.010923649024036884
431.0, 0.010108331462159502
432.0, 0.010251060633452899
433.0, 0.009846846096229446
434.0, 0.00940889374498117
435.0, 0.009507959298781992
436.0, 0.008774937227884331
437.0, 0.008001920984252928
438.0, 0.007783805233450368
439.0, 0.007840604713956605
440.0, 0.0075168996766035905
441.0, 0.006576346354040624
442.0, 0.00634516925652993
443.0, 0.005848714460819187
444.0, 0.00529450370290099
445.0, 0.0050660511849232835
446.0, 0.004838227311975446
447.0, 0.004830880353624018
448.0, 0.0040490909620082005
449.0, 0.003046242680799109
450.0, 0.00245276023218263
451.0, 0.00214615381888169
452.0, 0.0018122647431277155
453.0, 0.0014334750989315678
454.0, 0.0008920600584749023
455.0, 0.00039531495845172425
456.0, 0.0003443693934048858
457.0, 5.5594740583495215e-05
458.0, 0.00025279256089527283
459.0, 0.000646876176315046
460.0, 0.0012059608909363723
461.0, 0.001752098809706013
462.0, 0.0017289248567432202
463.0, 0.001477474743769655
464.0, 0.0011772692372138225
465.0, 0.0013297104014643683
466.0, 0.0023151784225064697
467.0, 0.0030433279594323966
468.0, 0.0030428745013330477
469.0, 0.002549786774483488
470.0, 0.002178640677799954
471.0, 0.002293752424350274
472.0, 0.0020524986498625442
473.0, 0.0027340482627237596
474.0, 0.0027910951242330105
475.0, 0.0023863417888739732
476.0, 0.0023931037826422164
477.0, 0.002275504315565506
478.0, 0.0022914915554958577
479.0, 0.002196334945781726
480.0, 0.0018705810893277198
481.0, 0.001670264307248547
482.0, 0.0020780891161215655
483.0, 0.0016632462105592271
484.0, 0.0007464197061915752
485.0, 0.0005257936735654511
486.0, 0.0008212236813035776
487.0, 0.000230404854800052
488.0, 0.001084468801048229
489.0, 0.0010809002451520886
490.0, 0.0006002628522786451
491.0, 0.00032486855771262697
492.0, 0.0007592971735990663
493.0, 0.0014121392781048158
494.0, 0.0016553097558772237
495.0, 0.001978801657761276
496.0, 0.002453546290230088
497.0, 0.0027338829297522634
498.0, 0.0028400078364228336
499.0, 0.003087999142931504
500.0, 0.0034963814431293217
501.0, 0.0038284628552930455
502.0, 0.003977278668185831
503.0, 0.004188810199402924
504.0, 0.004505475295086942
505.0, 0.0049591105090573675
506.0, 0.005380523182431285
507.0, 0.00570613827185189
508.0, 0.006033555019660558
509.0, 0.006168560038860551
510.0, 0.0064819422396024074
511.0, 0.006443784483888862
512.0, 0.006256250601820579
513.0, 0.006526465907403798
514.0, 0.006641152556984574
515.0, 0.0072391783632105655
516.0, 0.007470137499393797
517.0, 0.007314556535404089
518.0, 0.007199224346216604
519.0, 0.007251334459187465
520.0, 0.007519028040957698
521.0, 0.007919940948708716
522.0, 0.008520204398917656
523.0, 0.008683518327647558
524.0, 0.007548101284353339
525.0, 0.007764813755694194
526.0, 0.007985348395616248
527.0, 0.00788447575178738
528.0, 0.007851502209079233
529.0, 0.00819850430530683
530.0, 0.008453852192629105
531.0, 0.008011735396375608
532.0, 0.00759508120260043
533.0, 0.007482514530614622
534.0, 0.0074292431898063775
535.0, 0.0070971917269331795
536.0, 0.007068112630114656
537.0, 0.007020410695301649
538.0, 0.006518153763676634
539.0, 0.00595603518220984
540.0, 0.006085060011438147
541.0, 0.00606363610603798
542.0, 0.0060564124194511645
543.0, 0.005690034168018946
544.0, 0.005338443240009445
545.0, 0.005335417901538213
546.0, 0.004977951870637046
547.0, 0.004717824637597141
548.0, 0.004218016403614129
549.0, 0.0037001527517512662
550.0, 0.0034130897530735855
551.0, 0.0032540124384343987
552.0, 0.0026959464449627926
553.0, 0.00232889387348704
554.0, 0.0021247303068567145
555.0, 0.002039321390356467
556.0, 0.0019160405337753609
557.0, 0.0012924780687620066
558.0, 0.0006170941180250239
559.0, 0.00012194697097951015
560.0, 3.4363998138534434e-05
561.0, 0.00013716547710594128
562.0, 0.00019289862281764934
563.0, 0.00010932137384115789
564.0, 0.0003105451375023966
565.0, 8.620779610314528e-05
566.0, 0.000528292028253136
567.0, 0.0006457048256552493
568.0, 0.0007993281977209696
569.0, 0.0010577749920382955
570.0, 0.0010668221022427534
571.0, 0.001012325006610747
572.0, 0.001095556083136164
573.0, 0.0012955250586039095
574.0, 0.001650510232341456
575.0, 0.001778281642321928
576.0, 0.0017956031322349515
577.0, 0.0017089934168287172
578.0, 0.0016197445472465946
579.0, 0.0018715856122228564
580.0, 0.002031575255968596
581.0, 0.0020775895296253153
582.0, 0.0016653874304146394
583.0, 0.0013921048053595149
584.0, 0.0019049249977380904
585.0, 0.0016813602570779048
586.0, 0.0015682287297836706
587.0, 0.0013197231088114784
588.0, 0.0013408157136233377
589.0, 0.001587568848106707
590.0, 0.0013262614451143323
591.0, 0.001680496782792281
592.0, 0.0016611145261184797
593.0, 0.0014068062906011105
594.0, 0.0011633736046594433
595.0, 0.0009678199982481225
596.0, 0.0008406818751248255
597.0, 0.0012233154401006946
598.0, 0.0010558709144847624
599.0, 0.0010342715008080832
600.0, 0.0012964592544845689
601.0, 0.001185339266376659
602.0, 0.0009961061608207966
603.0, 0.0005978666151525048
604.0, 0.0006633660710681777
605.0, 0.0008942207110649159
606.0, 0.0008305590725851263
607.0, 0.0005590082424836234
608.0, 0.0004135615094707212
609.0, 0.0003577819454861366
610.0, 0.0007424293082246194
611.0, 0.0011184629815473258
612.0, 0.0009068375910089887
613.0, 0.0003827331667931052
614.0, 0.0011754732434285501
615.0, 0.0013843700734769548
616.0, 0.001513014052577523
617.0, 0.0018387580117116423
618.0, 0.0018557964131001223
619.0, 0.0015022691350361896
620.0, 0.001777244705310827
621.0, 0.0023799265475368024
622.0, 0.0023622709089990927
623.0, 0.0018547577137681317
624.0, 0.0017245018719430562
625.0, 0.002102518754173314
626.0, 0.0021721670595840088
627.0, 0.0023253141277525193
628.0, 0.0026316077920393007
629.0, 0.0027357049230153476
630.0, 0.0024915162171560384
631.0, 0.0027722643795810523
632.0, 0.0033280130522680127
633.0, 0.0033300145767245696
634.0, 0.003083061906607866
635.0, 0.0029922647279975495
636.0, 0.002884418039083278
637.0, 0.0035184274635311394
638.0, 0.003376788523720153
639.0, 0.003082603262601785
640.0, 0.0028982046437689164
641.0, 0.002728930671741217
642.0, 0.0026954238156390265
643.0, 0.002360047725488236
644.0, 0.0022883329415089304
645.0, 0.0020833484008489496
646.0, 0.0013013520624111695
647.0, 0.0002979825276000776
648.0, 0.0002165214798167089
649.0, 0.0010839572739289648
650.0, 0.001889970426755001
651.0, 0.0033894446467736357
652.0, 0.005382897736716752
653.0, 0.006800082051683267
654.0, 0.008355743277977314
655.0, 0.010277724202025735
656.0, 0.012548683791036052
657.0, 0.015149961096825029
658.0, 0.018129505345587386
659.0, 0.021224399883617903
660.0, 0.02377724466244857
661.0, 0.027246589161006158
662.0, 0.031086318018299086
663.0, 0.03454091403736898
664.0, 0.03727464816639807
665.0, 0.03933889906700845
666.0, 0.040785946680110215
667.0, 0.03958366560955772
668.0, 0.03560972021394492
669.0, 0.029398363933768427
670.0, 0.022510435269189253
671.0, 0.016655160452210577
672.0, 0.012258327455235186
673.0, 0.009063317986256474
674.0, 0.006448885647523362
675.0, 0.0052199784577163484
676.0, 0.004825115676182515
677.0, 0.004336292869334374
678.0, 0.0042226581994321164
679.0, 0.004405879682334744
680.0, 0.00481667192485047
681.0, 0.005005254230485541
682.0, 0.005467843821222941
683.0, 0.006481677088986706
684.0, 0.007105282759399387
685.0, 0.007666170834721613
686.0, 0.008477874930742806
687.0, 0.009699721806834694
688.0, 0.01050433855639741
689.0, 0.010495161962814116
690.0, 0.010647179760946
691.0, 0.01075999979802671
692.0, 0.010241769850918308
693.0, 0.009703841688180392
694.0, 0.008930194108832785
695.0, 0.007846010817252443
696.0, 0.007122631024008119
697.0, 0.006368224378714123
698.0, 0.0054251581124725385
699.0, 0.005002531224453326
700.0, 0.004432280602158183
701.0, 0.0035021623590988458
702.0, 0.002985286189117725
703.0, 0.002681936529047094
704.0, 0.002689286520834361
705.0, 0.0017711030800235143
706.0, 0.0010069772416543168
707.0, 0.0008117944464357653
708.0, 0.0004850556886412867
709.0, 0.0003811466224779314
710.0, 7.687135057605907e-05
711.0, 0.0003667175416906386
712.0, 0.00015337066262873064
713.0, 7.028093664254365e-05
714.0, 0.00034702942793606105
715.0, 0.00044409101209917586
716.0, 0.0005340083841699443
717.0, 0.0006523022993296722
718.0, 0.0006737708606818488
719.0, 0.00039775171322283795
720.0, 7.675801131518715e-05
721.0, 0.00031043678623899837
722.0, 0.0006162798628436631
723.0, 0.0006906855534393601
724.0, 0.0008127986861007668
725.0, 0.0009055230569910153
726.0, 0.0008981342435189575
727.0, 0.0008814880529337999
728.0, 0.0007657161126630555
729.0, 0.0009771538002938912
730.0, 0.0010762838771066078
731.0, 0.0011096982360570505
732.0, 0.0011605570854761483
733.0, 0.0011793063857279604
734.0, 0.0011275583510205723
735.0, 0.0011088080122582463
736.0, 0.001156688382059203
737.0, 0.0011967470053847065
738.0, 0.001173864776924653
739.0, 0.0011073768188927897
740.0, 0.0011176844448335754
741.0, 0.0015937159177066814
742.0, 0.0010534198992356956
743.0, 0.001080948048105648
744.0, 0.00038166336013267636
745.0, 0.0008096021507451442
746.0, 0.00027742253706574636
747.0, 0.0007948671971420708
748.0, 0.0006671828646945306
749.0, 0.000877932806606358
750.0, 0.0011554814754943042
751.0, 0.0012909903080436556
752.0, 0.0013582704161120395
753.0, 0.0013839363851931817
754.0, 0.0014846565379018496
755.0, 0.001557254852144478
756.0, 0.0015080851558079975
757.0, 0.0013540379193157763
758.0, 0.0012003841086431466
759.0, 0.001191455259336326
760.0, 0.001432984103749544
761.0, 0.0013956361659451827
762.0, 0.0011954593939650247
763.0, 0.0012360011921736796
764.0, 0.0014210586043112896
765.0, 0.0014509595248499057
766.0, 0.0013370698219419433
767.0, 0.0013904445796063879
768.0, 0.0012542656653665328
769.0, 0.0011831236356695408
770.0, 0.0011080138192117832
771.0, 0.0009009823271278153
772.0, 0.0006950778549743902
773.0, 0.0008054887679576025
774.0, 0.0009748358133613202
775.0, 0.0010682895018610582
776.0, 0.0009425567509554786
777.0, 0.001006535969096796
778.0, 0.0011712842696637346
779.0, 0.0009021112824643009
780.0, 0.0007626408942172385
781.0, 0.0008204535470839671
782.0, 0.0005477826047203529
783.0, 0.0003728580497923722
784.0, 0.00018654676209172748
785.0, 9.348322310929365e-05
786.0, 0.00023393050357788494
787.0, 8.083461842503825e-05
788.0, 0.00020555830198279966
789.0, 0.00010421777128050974
790.0, 0.0001372984851264925
791.0, 3.5258690679541405e-05
792.0, 8.408772409810881e-05
793.0, 0.00034600264000493754
794.0, 0.0008372236823252052
795.0, 0.0008270686072846285
796.0, 0.0009427165893469673
797.0, 0.0010150969147666238
798.0, 0.0009673056365795825
799.0, 0.0011872868984316876
800.0, 0.0016356917436346
801.0, 0.0015832223511792459
802.0, 0.0018127334260687388
803.0, 0.0020134721581158877
804.0, 0.002213595824444872
805.0, 0.0024146730165088646
806.0, 0.0025521070429921737
807.0, 0.002495677717597306
808.0, 0.0024436073515492346
809.0, 0.002686159049848451
810.0, 0.0029909008962003014
811.0, 0.003185435141604182
812.0, 0.003398797236418591
813.0, 0.003805960797325656
814.0, 0.003840408379825393
815.0, 0.003652589725586739
816.0, 0.004083996696982327
817.0, 0.004260475905893036
818.0, 0.00416171782039868
819.0, 0.004348551856527006
820.0, 0.004698557986025313
821.0, 0.005269029354744306
822.0, 0.005034011058610221
823.0, 0.004886764523940169
824.0, 0.005005268801102722
825.0, 0.005219783831405419
826.0, 0.005328976839053306
827.0, 0.005240012537086453
828.0, 0.005685859591786239
829.0, 0.00634544150734797
830.0, 0.006729523287253848
831.0, 0.00650781746855169
832.0, 0.006347738909176549
833.0, 0.0065468147469696335
834.0, 0.006559176297842236
835.0, 0.007169258959351238
836.0, 0.007176057521212327
837.0, 0.007518053839422471
838.0, 0.007812341629851395
839.0, 0.008314817891749513
840.0, 0.009201831528682007
841.0, 0.009708832077360226
842.0, 0.009678217086434635
843.0, 0.009901257894664825
844.0, 0.010150786700251348
845.0, 0.010848362991520482
846.0, 0.011160312336556812
847.0, 0.010703877777333287
848.0, 0.010462447276718561
849.0, 0.010778326739200329
850.0, 0.009596599034743827
851.0, 0.008561002772162818
852.0, 0.007923190463835444
853.0, 0.007554408677947342
854.0, 0.00724041629921073
855.0, 0.0067975659295330905
856.0, 0.006337998750555472
857.0, 0.006078597203172528
858.0, 0.0057993511552787425
859.0, 0.005808881027770356
860.0, 0.005844340607293911
861.0, 0.005670426617504083
862.0, 0.005336589564226787
863.0, 0.004784982626270341
864.0, 0.0053285147333455305
865.0, 0.004921975191376056
866.0, 0.004414504417726005
867.0, 0.004227652490893877
868.0, 0.004075913737389566
869.0, 0.0038635062225556736
870.0, 0.003916511751096038
871.0, 0.0036724151115489797
872.0, 0.0031638025113261306
873.0, 0.0031473534174481137
874.0, 0.0029734467129668737
875.0, 0.002650609765045664
876.0, 0.0025221089273106474
877.0, 0.0024831739408890047
878.0, 0.002520073729937471
879.0, 0.0024936311280785092
880.0, 0.001955139825148028
881.0, 0.001608739703112139
882.0, 0.0017217791491409805
883.0, 0.0016813252352509073
884.0, 0.0012780074003491842
885.0, 0.0013118503022358657
886.0, 0.0008961549368933278
887.0, 0.0010624177999463398
888.0, 0.0009082659678080272
889.0, 0.0008225119693285915
890.0, 0.001004433740590596
891.0, 0.0010434873060306787
892.0, 0.0007473866224181768
893.0, 0.0007825568351491076
894.0, 0.0010456535445484464
895.0, 0.0010773748166643467
896.0, 0.0005830932838655076
897.0, 0.0005554163178531038
898.0, 0.0007019109079725074
899.0, 0.00022691445126677093
900.0, 0.00021771801701150648
901.0, 0.00025620523231743684
902.0, 0.0002471576343277573
903.0, 0.0002407591350388254
904.0, 0.0002579056201955759
905.0, 0.00024160959647302207
906.0, 0.0001613433392985602
907.0, 0.00034723272423625685
908.0, 4.282766999040622e-05
909.0, 6.208074225053744e-05
910.0, 0.0001280779751365717
911.0, 5.541651015063636e-05
912.0, 5.565104532788677e-05
913.0, 1.0374594133794093e-05
914.0, 6.111263016334568e-05
915.0, 0.0003042101604397861
916.0, 0.0005509981465970593
917.0, 5.811427723039869e-05
918.0, 1.868654904087824e-05
919.0, 7.965864984995216e-05
920.0, 0.00011661763018600002
921.0, 0.00047085817996312816
922.0, 0.0007309831285926436
923.0, 0.0009530376980067077
924.0, 0.001656779275030396
925.0, 0.0013144146993899067
926.0, 0.0011500080530463734
927.0, 0.0016445826188946412
928.0, 0.002268638674584449
929.0, 0.002522465687141503
930.0, 0.00247615113943236
931.0, 0.0025734915164629013
932.0, 0.0023376732308377965
933.0, 0.002436416389771504
934.0, 0.0023252096315660078
935.0, 0.0028925271225354065
936.0, 0.003210420870565019
937.0, 0.002961828990280314
938.0, 0.0034049117030825115
939.0, 0.003811660898295322
940.0, 0.0039565186384979065
941.0, 0.004230638990870256
942.0, 0.004511186331886992
943.0, 0.00475370566356845
944.0, 0.004849997113511958
945.0, 0.004817328070178178
946.0, 0.004940223174280747
947.0, 0.005497459119900789
948.0, 0.005729129006384371
949.0, 0.006083766586568376
950.0, 0.006542825768052831
951.0, 0.006992644779290403
952.0, 0.007294516874927741
953.0, 0.007486288831608201
954.0, 0.007737088514677989
955.0, 0.007933719528540396
956.0, 0.007758713450537251
957.0, 0.008766347745784381
958.0, 0.009727032965386717
959.0, 0.009826255013319761
960.0, 0.010001163581479849
961.0, 0.010813971576222294
962.0, 0.011418725347812487
963.0, 0.011256449646364344
964.0, 0.011298466774635238
965.0, 0.012143231097522326
966.0, 0.012305097578623773
967.0, 0.012533700948120842
968.0, 0.01294271290038901
969.0, 0.013177657100371568
970.0, 0.013562386209993744
971.0, 0.014357886863559703
972.0, 0.014246311308242391
973.0, 0.013806645924424661
974.0, 0.014435917138602546
975.0, 0.015118501010102882
976.0, 0.015770785906513988
977.0, 0.016031960222810764
978.0, 0.015888702516939694
979.0, 0.016166971199714712
980.0, 0.01597289514200169
981.0, 0.0164483597454854
982.0, 0.016832888790934322
983.0, 0.016950923320941575
984.0, 0.01713668518937641
985.0, 0.017261144506104293
986.0, 0.01739935540142311
987.0, 0.01780218196931484
988.0, 0.01793917151329907
989.0, 0.018697885830740824
990.0, 0.018650490634169015
991.0, 0.018787409339148322
992.0, 0.019032465814950356
993.0, 0.01889678098633925
994.0, 0.019058326740777582
995.0, 0.019600389320229443
996.0, 0.019344548797700787
997.0, 0.019105700726558972
998.0, 0.01866514530776252
999.0, 0.01714163856079403
1000.0, 0.01689225929401019
1001.0, 0.016340344975218288
1002.0, 0.015438270103561908
1003.0, 0.014641907583580575
1004.0, 0.013411801584319956
1005.0, 0.012628073765628604
1006.0, 0.011954532919290157
1007.0, 0.012456813437105406
1008.0, 0.011360344472345673
1009.0, 0.010567377623560322
1010.0, 0.010466038509008735
1011.0, 0.010213459582313776
1012.0, 0.009746263269090621
1013.0, 0.009547517281365724
1014.0, 0.009382119439678616
1015.0, 0.009034542331243976
1016.0, 0.008680969209186077
1017.0, 0.008557539056375475
1018.0, 0.008263525007876516
1019.0, 0.008215164940629106
1020.0, 0.00810216744413092
1021.0, 0.007893375849814376
1022.0, 0.008395091355557549
1023.0, 0.007944016737906057
1024.0, 0.007746573608823342
1025.0, 0.008039966628036192
1026.0, 0.008085472522226746
1027.0, 0.008361744358175334
1028.0, 0.008317856162051588
1029.0, 0.008233941714204468
1030.0, 0.008569408523451089
1031.0, 0.008367831776360874
1032.0, 0.008689644515230795
1033.0, 0.008737227888421828
1034.0, 0.00931296151578462
1035.0, 0.009375085151666327
1036.0, 0.009715817494946944
1037.0, 0.01038704836096336
1038.0, 0.010771978167091006
1039.0, 0.010927527310073541
1040.0, 0.011448011207877981
1041.0, 0.012315497002599733
1042.0, 0.013088007365731832
1043.0, 0.013768056541713408
1044.0, 0.01491351440815702
1045.0, 0.0162869554802367
1046.0, 0.01800298571841406
1047.0, 0.019671269082596244
1048.0, 0.02137699065632206
1049.0, 0.024043647784762735
1050.0, 0.02690298876890035
1051.0, 0.030770043046885208
1052.0, 0.03538730798780421
1053.0, 0.04202882309510297
1054.0, 0.04972331118477308
1055.0, 0.05811413227951429
1056.0, 0.06855149480686867
1057.0, 0.08088541413766079
1058.0, 0.0936400472914264
1059.0, 0.10871976496911133
1060.0, 0.12568463443198316
1061.0, 0.14438209713810493
1062.0, 0.1637945628813669
1063.0, 0.18331779622424518
1064.0, 0.2029072848698717
1065.0, 0.22007257333346944
1066.0, 0.23144377283290218
1067.0, 0.2345380081527827
1068.0, 0.22730822917512902
1069.0, 0.20829455231744226
1070.0, 0.1776199064637491
1071.0, 0.1419697364384488
1072.0, 0.10793544121847143
1073.0, 0.07945208538863603
1074.0, 0.057485392383283825
1075.0, 0.0422118475599721
1076.0, 0.03247701651356336
1077.0, 0.025158947463290882
1078.0, 0.01967611812078031
1079.0, 0.016878147572594517
1080.0, 0.013502962823804737
1081.0, 0.011814003753841161
1082.0, 0.010857823334205331
1083.0, 0.009700591291893284
1084.0, 0.008496901308746203
1085.0, 0.007933615378524068
1086.0, 0.0076600202984030245
1087.0, 0.006762080088281593
1088.0, 0.00667117790996455
1089.0, 0.007463157984943454
1090.0, 0.007018354900803365
1091.0, 0.005982143965879241
1092.0, 0.00527156319451321
1093.0, 0.004859958773837238
1094.0, 0.004551694739497036
1095.0, 0.004138375046537631
1096.0, 0.003788862917607822
1097.0, 0.00410483225845392
1098.0, 0.004078658059177414
1099.0, 0.003639382121981514
1100.0, 0.003455853727752596
1101.0, 0.003320313063282546
1102.0, 0.0033373202464156496
1103.0, 0.00327699751364167
1104.0, 0.0034138826086443784
1105.0, 0.003404219079511076
1106.0, 0.002918312850760535
1107.0, 0.003139566256519715
1108.0, 0.0029645577081203463
1109.0, 0.002702943928791928
1110.0, 0.0022608921736979753
1111.0, 0.002460254312856571
1112.0, 0.0024810745289491633
1113.0, 0.002172937571443808
1114.0, 0.0023500297653051856
1115.0, 0.0027678410835991346
1116.0, 0.002566353503279436
1117.0, 0.0021818889813311044
1118.0, 0.0022822939556772196
1119.0, 0.0021735234644575966
1120.0, 0.0022913242451584005
1121.0, 0.0020358166716148538
1122.0, 0.0017403230446015573
1123.0, 0.0017611914534068009
1124.0, 0.0017840584514544138
1125.0, 0.0016880561794834314
1126.0, 0.001859716585727467
1127.0, 0.0021364618832704738
1128.0, 0.0018878415116756536
1129.0, 0.001961756144149316
1130.0, 0.004450689270962263
1131.0, 0.0030907468843960895
1132.0, 0.0022002563614746482
1133.0, 0.0022386011749603997
1134.0, 0.0018375494844410116
1135.0, 0.0012330727498802282
1136.0, 0.0009644723281429999
1137.0, 0.0010773386576165506
1138.0, 0.0013901879981847247
1139.0, 0.000985351991094905
1140.0, 0.0013631728188423639
1141.0, 0.0009280508833303727
1142.0, 0.0005737073045340151
1143.0, 0.0003758519339830984
1144.0, 0.0005318464735937214
1145.0, 0.0004670110964468491
1146.0, 0.000229765415554848
1147.0, 0.00030969006571093355
1148.0, 0.00045254238673299774
1149.0, 0.0003596798706516531
1150.0, 2.127019010940322e-05
1151.0, 0.0008373848874798106
1152.0, 0.005835882694454733
1153.0, 0.004035027547066009
1154.0, 0.0028219276201708744
1155.0, 0.002200242593342973
1156.0, 0.0008447717183407786
1157.0, 6.354998286471603e-05
1158.0, 0.00033163313195696615
1159.0, 0.0006277175455714666
1160.0, 0.0007669495956560621
1161.0, 0.0007619353679394774
1162.0, 0.0007951160620247501
1163.0, 0.0005135993074108694
1164.0, 0.0007700100389296218
1165.0, 0.0009486010866898296
1166.0, 0.000802381292745884
1167.0, 0.0008763638060429936
1168.0, 0.001103731285090857
1169.0, 0.001415371512185946
1170.0, 0.0016936096144457987
1171.0, 0.0009943082316295252
1172.0, 0.0008676774208913163
1173.0, 0.0016897753880923089
1174.0, 0.0011576709231484951
1175.0, 0.0010325866276475757
1176.0, 0.0010516505021744506
1177.0, 0.000726931784998776
1178.0, 0.0009201434440026921
1179.0, 0.00130401765140004
1180.0, 0.0011010563809773538
1181.0, 0.0009754545453363114
1182.0, 0.0011158466746027092
1183.0, 0.0009648841919710234
1184.0, 0.0008405019138411085
1185.0, 0.0008622751678834824
1186.0, 0.0010644522841946227
1187.0, 0.001092946935620081
1188.0, 0.0010665502642487475
1189.0, 0.0006024318175462647
1190.0, 0.0004511292495984229
1191.0, 0.0007886309415181298
1192.0, 0.0009809134758420972
1193.0, 0.001147287800640513
1194.0, 0.0010880885316852976
1195.0, 0.0009506800903245982
1196.0, 0.0010465805882653983
1197.0, 0.001027452609316937
1198.0, 0.001082430248762896
1199.0, 0.0007988938800369153
1200.0, 0.0008621965243146962
1201.0, 0.0008938338816342436
1202.0, 0.0009372476684795282
1203.0, 0.0009467663218454675
1204.0, 0.0007422218264123673
1205.0, 0.0006610829371777647
1206.0, 0.0004090528107080103
1207.0, 0.0005954677188100429
1208.0, 0.0005998256236181228
1209.0, 0.0003426083785418466
1210.0, 0.0008107605462810967
1211.0, 0.0003745158744745418
1212.0, 0.0002774015780354504
1213.0, 0.0004776860089386509
1214.0, 0.000446909151988288
1215.0, 0.00035605948139210444
1216.0, 0.00033946121964057287
1217.0, 0.00046267098793250283
1218.0, 0.0008243864493325507
1219.0, 0.0009485909848148214
1220.0, 0.000430699481988326
1221.0, 0.00028570059876614805
1222.0, 0.0003287290789255367
1223.0, 0.00020821630669797428
1224.0, 0.0002564521303241282
1225.0, 0.00015375067880103597
1226.0, 0.00031448523064952225
1227.0, 2.0493618382136697e-05
1228.0, 0.00031049255110647637
1229.0, 0.00015521612727837587
1230.0, 0.00025476179711592085
1231.0, 3.599483754302301e-05
1232.0, 6.955100012274556e-05
1233.0, 0.0004833175524795536
1234.0, 0.00041793636088217483
1235.0, 0.0001749938950675124
1236.0, 0.0004680010801948395
1237.0, 0.00020432691174585203
1238.0, 0.0001841455684381162
1239.0, 0.00024835532017809266
1240.0, 2.6800305790257808e-05
1241.0, 9.597770962387921e-05
1242.0, 4.6716844652440186e-05
1243.0, 3.985600363063473e-05
1244.0, 0.00017637341870711557
1245.0, 0.00021996643947479462
1246.0, 2.5284174852950556e-05
1247.0, 0.0004000293083905112
1248.0, 0.00011698451143844108
1249.0, 9.648108825698942e-05
1250.0, 6.854175672525575e-05
1251.0, 2.1552413208510204e-05
1252.0, 0.0003662005522757812
1253.0, 0.00035275782044964365
1254.0, 7.028667467537974e-05
1255, 0.0
1256, 0.0
1257, 0.0
1258, 0.0
1259, 0.0
1260, 0.0
1261, 0.0
1262, 0.0
1263, 0.0
1264, 0.0
1265, 0.0
1266, 0.0
1267, 0.0
1268, 0.0
1269, 0.0
1270, 0.0
1271, 0.0
1272, 0.0
1273, 0.0
1274, 0.0
1275, 0.0
1276, 0.0
1277, 0.0
1278, 0.0
1279, 0.0
1280, 0.0
1281, 0.0
1282, 0.0
1283, 0.0
1284, 0.0
1285, 0.0
1286, 0.0
1287, 0.0
1288, 0.0
1289, 0.0
1290, 0.0
1291, 0.0
1292, 0.0
1293, 0.0
1294, 0.0
1295, 0.0
1296, 0.0
1297, 0.0
1298, 0.0
1299, 0.0
1300, 0.0
1301, 0.0
1302, 0.0
1303, 0.0
1304, 0.0
1305, 0.0
1306, 0.0
1307, 0.0
1308, 0.0
1309, 0.0
1310, 0.0
1311, 0.0
1312, 0.0
1313, 0.0
1314, 0.0
1315, 0.0
1316, 0.0
1317, 0.0
1318, 0.0
1319, 0.0
1320, 0.0
1321, 0.0
1322, 0.0
1323, 0.0
1324, 0.0
1325, 0.0
1326, 0.0
1327, 0.0
1328, 0.0
1329, 0.0
1330, 0.0
1331, 0.0
1332, 0.0
1333, 0.0
1334, 0.0
1335, 0.0
1336, 0.0
1337, 0.0
1338, 0.0
1339, 0.0
1340, 0.0
1341, 0.0
1342, 0.0
1343, 0.0
1344, 0.0
1345, 0.0
1346, 0.0
1347, 0.0
1348, 0.0
1349, 0.0
1350, 0.0
1351, 0.0
1352, 0.0
1353, 0.0
1354, 0.0
1355, 0.0
1356, 0.0
1357, 0.0
1358, 0.0
1359, 0.0
1360, 0.0
1361, 0.0
1362, 0.0
1363, 0.0
1364, 0.0
1365, 0.0
1366, 0.0
1367, 0.0
1368, 0.0
1369, 0.0
1370, 0.0
1371, 0.0
1372, 0.0
1373, 0.0
1374, 0.0
1375, 0.0
1376, 0.0
1377, 0.0
1378, 0.0
1379, 0.0
1380, 0.0
1381, 0.0
1382, 0.0
1383, 0.0
1384, 0.0
1385, 0.0
1386, 0.0
1387, 0.0
1388, 0.0
1389, 0.0
1390, 0.0
1391, 0.0
1392, 0.0
1393, 0.0
1394, 0.0
1395, 0.0
1396, 0.0
1397, 0.0
1398, 0.0
1399, 0.0
1400, 0.0
1401, 0.0
1402, 0.0
1403, 0.0
1404, 0.0
1405, 0.0
1406, 0.0
1407, 0.0
1408, 0.0
1409, 0.0
1410, 0.0
1411, 0.0
1412, 0.0
1413, 0.0
1414, 0.0
1415, 0.0
1416, 0.0
1417, 0.0
1418, 0.0
1419, 0.0
1420, 0.0
1421, 0.0
1422, 0.0
1423, 0.0
1424, 0.0
1425, 0.0
1426, 0.0
1427, 0.0
1428, 0.0
1429, 0.0
1430, 0.0
1431, 0.0
1432, 0.0
1433, 0.0
1434, 0.0
1435, 0.0
1436, 0.0
1437, 0.0
1438, 0.0
1439, 0.0
1440, 0.0
1441, 0.0
1442, 0.0
1443, 0.0
1444, 0.0
1445, 0.0
1446, 0.0
1447, 0.0
1448, 0.0
1449, 0.0
1450, 0.0
1451, 0.0
1452, 0.0
1453, 0.0
1454, 0.0
1455, 0.0
1456, 0.0
1457, 0.0
1458, 0.0
1459, 0.0
1460, 0.0
1461, 0.0
1462, 0.0
1463, 0.0
1464, 0.0
1465, 0.0
1466, 0.0
1467, 0.0
1468, 0.0
1469, 0.0
1470, 0.0
1471, 0.0
1472, 0.0
1473, 0.0
1474, 0.0
1475, 0.0
1476, 0.0
1477, 0.0
1478, 0.0
1479, 0.0
1480, 0.0
1481, 0.0
1482, 0.0
1483, 0.0
1484, 0.0
1485, 0.0
1486, 0.0
1487, 0.0
1488, 0.0
1489, 0.0
1490, 0.0
1491, 0.0
1492, 0.0
1493, 0.0
1494, 0.0
1495, 0.0
1496, 0.0
1497, 0.0
1498, 0.0
1499, 0.0
1500, 0.0
1501, 0.0
1502, 0.0
1503, 0.0
1504, 0.0
1505, 0.0
1506, 0.0
1507, 0.0
1508, 0.0
1509, 0.0
1510, 0.0
1511, 0.0
1512, 0.0
1513, 0.0
1514, 0.0
1515, 0.0
1516, 0.0
1517, 0.0
1518, 0.0
1519, 0.0
1520, 0.0
1521, 0.0
1522, 0.0
1523, 0.0
1524, 0.0
1525, 0.0
1526, 0.0
1527, 0.0
1528, 0.0
1529, 0.0
1530, 0.0
1531, 0.0
1532, 0.0
1533, 0.0
1534, 0.0
1535, 0.0
1536, 0.0
1537, 0.0
1538, 0.0
1539, 0.0
1540, 0.0
1541, 0.0
1542, 0.0
1543, 0.0
1544, 0.0
1545, 0.0
1546, 0.0
1547, 0.0
1548, 0.0
1549, 0.0
1550, 0.0
1551, 0.0
1552, 0.0
1553, 0.0
1554, 0.0
1555, 0.0
1556, 0.0
1557, 0.0
1558, 0.0
1559, 0.0
1560, 0.0
1561, 0.0
1562, 0.0
1563, 0.0
1564, 0.0
1565, 0.0
1566, 0.0
1567, 0.0
1568, 0.0
1569, 0.0
1570, 0.0
1571, 0.0
1572, 0.0
1573, 0.0
1574, 0.0
1575, 0.0
1576, 0.0
1577, 0.0
1578, 0.0
1579, 0.0
1580, 0.0
1581, 0.0
1582, 0.0
1583, 0.0
1584, 0.0
1585, 0.0
1586, 0.0
1587, 0.0
1588, 0.0
1589, 0.0
1590, 0.0
1591, 0.0
1592, 0.0
1593, 0.0
1594, 0.0
1595, 0.0
1596, 0.0
1597, 0.0
1598, 0.0
1599, 0.0
