30, 0.0
31, 0.0
32, 0.0
33, 0.0
34, 0.0
35, 0.0
36, 0.0
37, 0.0
38, 0.0
39, 0.0
40, 0.0
41, 0.0
42, 0.0
43, 0.0
44, 0.0
45, 0.0
46, 0.0
47, 0.0
48, 0.0
49, 0.0
50, 0.0
51, 0.0
52, 0.0
53, 0.0
54, 0.0
55, 0.0
56, 0.0
57, 0.0
58, 0.0
59, 0.0
60, 0.0
61, 0.0
62, 0.0
63, 0.0
64, 0.0
65, 0.0
66, 0.0
67, 0.0
68, 0.0
69, 0.0
70, 0.0
71, 0.0
72, 0.0
73, 0.0
74, 0.0
75, 0.0
76, 0.0
77, 0.0
78, 0.0
79, 0.0
80.0, 2.8150421974232127e-05
81.0, 0.00019960505070894615
82.0, 0.0009398433147784699
83.0, 0.0017741342490763072
84.0, 0.001991489562276922
85.0, 0.001185795359111917
86.0, 0.0006467654422640865
87.0, 0.0010827900392673367
88.0, 0.0019504180752666952
89.0, 0.0019185264947184121
90.0, 0.004881814874378913
91.0, 0.007317431431961166
92.0, 0.00800277595567521
93.0, 0.009608297765994457
94.0, 0.010681214809521273
95.0, 0.01161639010924752
96.0, 0.013153456000780312
97.0, 0.01529272826230093
98.0, 0.018191884802853622
99.0, 0.02185809917769103
100.0, 0.024929479852647478
101.0, 0.02898916509657604
102.0, 0.033928902843479276
103.0, 0.03988176657472974
104.0, 0.045732156849030786
105.0, 0.052196661759440204
106.0, 0.059223749125179595
107.0, 0.06518887907440986
108.0, 0.07004084183982104
109.0, 0.07455061575880222
110.0, 0.07936202080208993
111.0, 0.08035113127565195
112.0, 0.08116506860758167
113.0, 0.0817098355247764
114.0, 0.0795966145504178
115.0, 0.07688917432938434
116.0, 0.07374024547846304
117.0, 0.07015866561227248
118.0, 0.06401574989629032
119.0, 0.056046885642050195
120.0, 0.04719881335123882
121.0, 0.040083396916097296
122.0, 0.033460315524835985
123.0, 0.027444928915710445
124.0, 0.022161343643638597
125.0, 0.018530043989060278
126.0, 0.014404568436873
127.0, 0.010827782413328177
128.0, 0.009874793662141512
129.0, 0.007900164639053952
130.0, 0.006810667801055314
131.0, 0.006786645871172072
132.0, 0.005001783039314251
133.0, 0.004137060118002553
134.0, 0.0034315551299510996
135.0, 0.0021485340812170024
136.0, 0.0018730519401991728
137.0, 0.0013213031003669923
138.0, 0.0007436792179554893
139.0, 0.0019638803381792826
140.0, 0.0010845902170239993
141.0, 0.00012000508216127799
142.0, 0.00015771588487395932
143.0, 0.0011994253650196912
144.0, 0.0011941088584133774
145.0, 0.0006480056294934084
146.0, 0.0007339880682906637
147.0, 0.0008162957132658674
148.0, 0.0006645897338039373
149.0, 0.0002570609452511394
150.0, 0.00045779165389141
151.0, 0.0007442503661676954
152.0, 0.0010891982482381694
153.0, 0.0014755644532270784
154.0, 0.0033400225104556957
155.0, 0.00460070831231778
156.0, 0.005253461762780217
157.0, 0.006500155253017072
158.0, 0.008008110365219532
159.0, 0.009196813581384992
160.0, 0.009696005193677436
161.0, 0.011497817811501436
162.0, 0.012472761829331923
163.0, 0.012970087401173343
164.0, 0.013734421064682974
165.0, 0.01559157812465702
166.0, 0.017515273184863525
167.0, 0.019399254299708953
168.0, 0.022923565824892404
169.0, 0.026269543036641918
170.0, 0.029455247711097653
171.0, 0.03246172752267964
172.0, 0.03863332269370388
173.0, 0.043314807151246505
174.0, 0.046894616213449716
175.0, 0.05209001633349764
176.0, 0.05626343352756882
177.0, 0.05933731803167515
178.0, 0.06124127471014378
179.0, 0.06442157248150628
180.0, 0.06555126999934538
181.0, 0.06533822089838008
182.0, 0.06452074466756864
183.0, 0.0633992797319021
184.0, 0.06225340465851221
185.0, 0.060701144344212775
186.0, 0.05628298273222789
187.0, 0.054503853438093455
188.0, 0.05269757623704178
189.0, 0.049339245980533346
190.0, 0.04849595538454004
191.0, 0.047369635605662916
192.0, 0.046133056221295266
193.0, 0.045160898569212404
194.0, 0.04570060481408562
195.0, 0.045825467946752435
196.0, 0.0453865177717595
197.0, 0.04634645803510319
198.0, 0.04687848991536998
199.0, 0.04754176132507386
200.0, 0.048755016478933905
201.0, 0.051112429846862234
202.0, 0.05301253117916723
203.0, 0.054825704290377565
204.0, 0.05752709680411173
205.0, 0.06125323049588339
206.0, 0.06490487127099015
207.0, 0.06820667339599953
208.0, 0.0710677126384799
209.0, 0.07365392214665206
210.0, 0.07669790929360847
211.0, 0.08084317468312205
212.0, 0.08451175980251678
213.0, 0.08898016489108482
214.0, 0.09434068726845965
215.0, 0.10087828349410509
216.0, 0.10783843347992095
217.0, 0.11567185654815657
218.0, 0.12427472558545351
219.0, 0.1315505852002775
220.0, 0.14204951708766272
221.0, 0.15275168191564234
222.0, 0.16145704856095913
223.0, 0.17180313384786164
224.0, 0.18302407722690148
225.0, 0.1944498574627702
226.0, 0.20469042976345544
227.0, 0.21430007106109197
228.0, 0.22388531433343195
229.0, 0.23275922013221792
230.0, 0.23508519545836223
231.0, 0.2374841269858933
232.0, 0.23887615868115178
233.0, 0.2384788996291049
234.0, 0.22780682599712762
235.0, 0.2139004249354098
236.0, 0.1980500332711925
237.0, 0.18212747622320644
238.0, 0.1637913209162303
239.0, 0.14825812770877414
240.0, 0.13480649942766898
241.0, 0.11567453383408571
242.0, 0.10251682947529829
243.0, 0.09127219045530723
244.0, 0.08027186490181366
245.0, 0.07140187915490347
246.0, 0.06330489240483936
247.0, 0.05597039924627935
248.0, 0.0495234522349062
249.0, 0.04496739308830864
250.0, 0.03991654003447596
251.0, 0.034747220655327135
252.0, 0.03141718648404114
253.0, 0.02767053199784649
254.0, 0.02442616306099112
255.0, 0.021836102893649914
256.0, 0.01826578032574462
257.0, 0.015782390156802394
258.0, 0.01392695319596515
259.0, 0.01242807388133781
260.0, 0.009902433549571698
261.0, 0.00843492256018593
262.0, 0.007455315433319833
263.0, 0.005825257636253835
264.0, 0.004197106382144353
265.0, 0.003776157464123638
266.0, 0.004218718181741709
267.0, 0.002815933618587501
268.0, 0.0014361482613185679
269.0, 0.0006815056371845372
270.0, 0.0007942046332521791
271.0, 0.00041368552371665816
272.0, 0.000315180704462064
273.0, 0.0005844100685512773
274.0, 0.0013681448946013357
275.0, 0.0009235882645718507
276.0, 0.0014233331190894546
277.0, 0.002050459244379136
278.0, 0.0005618787173328443
279.0, 0.0004871082057080326
280.0, 0.0010092256613230604
281.0, 0.0019048060896724622
282.0, 0.0028266271599112717
283.0, 0.0037542257886337923
284.0, 0.004762343019282969
285.0, 0.005903365615352296
286.0, 0.007428009533235912
287.0, 0.009496890113546761
288.0, 0.011731330131104716
289.0, 0.013745690187635894
290.0, 0.015181149535070744
291.0, 0.01769174499685322
292.0, 0.020459611427244357
293.0, 0.021364279766544644
294.0, 0.023671344079787448
295.0, 0.025819330761284544
296.0, 0.027861108524273925
297.0, 0.031693624989623685
298.0, 0.0338652631017064
299.0, 0.03503564563842108
300.0, 0.035662701928492635
301.0, 0.039709483639563996
302.0, 0.041094542367190325
303.0, 0.042368767299627026
304.0, 0.045803657784490484
305.0, 0.04899784950521221
306.0, 0.05245802546799695
307.0, 0.056010405681317654
308.0, 0.05931894494745017
309.0, 0.06271030150527454
310.0, 0.06579731993706306
311.0, 0.06856453708819374
312.0, 0.07112498351806672
313.0, 0.0729870174951366
314.0, 0.07375741234921265
315.0, 0.07329686127604457
316.0, 0.07177008906541539
317.0, 0.07034531002821566
318.0, 0.06866499298548963
319.0, 0.06649925121178994
320.0, 0.06391490203878068
321.0, 0.0608333357113381
322.0, 0.05778041813748159
323.0, 0.055360122915748336
324.0, 0.05420760968542637
325.0, 0.05163546052356273
326.0, 0.048759194602274444
327.0, 0.0482307837822482
328.0, 0.046612595201785775
329.0, 0.04558271577712597
330.0, 0.04517755714463598
331.0, 0.044514315381149853
332.0, 0.04365637812705472
333.0, 0.04243327740471924
334.0, 0.04093390126350681
335.0, 0.04042821660526278
336.0, 0.04008838633598361
337.0, 0.03939077252892261
338.0, 0.03807394737479718
339.0, 0.037800768169243035
340.0, 0.03719176898642921
341.0, 0.036619845002724936
342.0, 0.036459916228776326
343.0, 0.03498005938562722
344.0, 0.03418431565380502
345.0, 0.03394436762332904
346.0, 0.033990662057280865
347.0, 0.033573291301871956
348.0, 0.03379019932132412
349.0, 0.03457902149325959
350.0, 0.03545931631997196
351.0, 0.0381919853891531
352.0, 0.0401115204099695
353.0, 0.04098775296373736
354.0, 0.042635137974139446
355.0, 0.04711748990730719
356.0, 0.05186462918640894
357.0, 0.05607625626782831
358.0, 0.061302328035254344
359.0, 0.0679312212154389
360.0, 0.07496922184659349
361.0, 0.08184616201938605
362.0, 0.08884063386829376
363.0, 0.09600080231119884
364.0, 0.10248052060939786
365.0, 0.10740565729855897
366.0, 0.11073416207496689
367.0, 0.11211623150013757
368.0, 0.11163380875071473
369.0, 0.1092514065917542
370.0, 0.10658237846774113
371.0, 0.10320152604994585
372.0, 0.0990433575814848
373.0, 0.09395887219980897
374.0, 0.09049190065608266
375.0, 0.08868568889183556
376.0, 0.0876817375818768
377.0, 0.08449320276810944
378.0, 0.08508141762459082
379.0, 0.08383320353410535
380.0, 0.0804025820347013
381.0, 0.0809570099954073
382.0, 0.08126861447884749
383.0, 0.08118752740780887
384.0, 0.08072422872631667
385.0, 0.08064538618465251
386.0, 0.08050370219708475
387.0, 0.0808630731368095
388.0, 0.08187122975989944
389.0, 0.07986233687659591
390.0, 0.08067709950349139
391.0, 0.08193331343689467
392.0, 0.08181012803328157
393.0, 0.08327967109275014
394.0, 0.08387405080897795
395.0, 0.08417938675607037
396.0, 0.08483220666321706
397.0, 0.08660611900772532
398.0, 0.08661193146557118
399.0, 0.08603631208796718
400.0, 0.08677372780774736
401.0, 0.08472098258671173
402.0, 0.08345476327410466
403.0, 0.08306167539845548
404.0, 0.08323442560851364
405.0, 0.07984364385438956
406.0, 0.07616812496143492
407.0, 0.07276359902662782
408.0, 0.07002837795678314
409.0, 0.06717114557895126
410.0, 0.06462584824928526
411.0, 0.061787495541672656
412.0, 0.056215602530951425
413.0, 0.05104139979427176
414.0, 0.047919677389614855
415.0, 0.04639991294071236
416.0, 0.042389239652055835
417.0, 0.03917899928827324
418.0, 0.036572421365417086
419.0, 0.03438513011168827
420.0, 0.031788248067290525
421.0, 0.030867439596935536
422.0, 0.029410072164456368
423.0, 0.026873416980136844
424.0, 0.026368380776951562
425.0, 0.025211751032259807
426.0, 0.024464500948681172
427.0, 0.024540228197408833
428.0, 0.023907709187710482
429.0, 0.021473183372790278
430.0, 0.01938548354986515
431.0, 0.01880168267805814
432.0, 0.01702902744053968
433.0, 0.017415021323979943
434.0, 0.017382791194000855
435.0, 0.015229940774416941
436.0, 0.015454175538618178
437.0, 0.014631422248913891
438.0, 0.013550860144537815
439.0, 0.01284829880517022
440.0, 0.01144026620845954
441.0, 0.0101829077357569
442.0, 0.009000985455420066
443.0, 0.007824141400144452
444.0, 0.007899561587968852
445.0, 0.008117617790351908
446.0, 0.00775699288860191
447.0, 0.006013293347148214
448.0, 0.006239358262262014
449.0, 0.005881369068999291
450.0, 0.005173757905416186
451.0, 0.0044474250770054
452.0, 0.004211892426679065
453.0, 0.0036225529482457482
454.0, 0.0028686057650173114
455.0, 0.0022319666050845486
456.0, 0.0029378560064526114
457.0, 0.0027662330785222077
458.0, 0.002578605064995701
459.0, 0.0037567138484479027
460.0, 0.0031383878065893104
461.0, 0.0032307681610543788
462.0, 0.003425586887066795
463.0, 0.002585628622197833
464.0, 0.0026844413431728947
465.0, 0.002708918226671662
466.0, 0.0025451154793586454
467.0, 0.0021036350297186906
468.0, 0.001872319025196455
469.0, 0.0015695514622503211
470.0, 0.0013761729782028743
471.0, 0.0016287788492256412
472.0, 0.0013219816946919707
473.0, 0.0011222188200977696
474.0, 0.0009169309821822481
475.0, 0.00043561169950605635
476.0, 0.0007663235259152268
477.0, 0.001035524040344615
478.0, 0.001292157485084736
479.0, 0.0017265721435702327
480.0, 0.002228979734016163
481.0, 0.0015349321614017317
482.0, 0.0004556617950340718
483.0, 0.0004673465715834475
484.0, 0.0010144143134482354
485.0, 0.0015374825461611358
486.0, 0.0019165271303392304
487.0, 0.002017667070373722
488.0, 0.0014219828336893866
489.0, 0.0013246828922840227
490.0, 0.0016158295612102897
491.0, 0.0020209640944655995
492.0, 0.002197793038619936
493.0, 0.0024869825487456023
494.0, 0.0027182487326276043
495.0, 0.0026158639965908467
496.0, 0.0026381766588857284
497.0, 0.0022738518355560114
498.0, 0.001854624537495816
499.0, 0.0018577650830974653
500.0, 0.001540170866406057
501.0, 0.0010460309737285527
502.0, 0.0006198013922241945
503.0, 0.0005559912156815931
504.0, 0.0006513279019984266
505.0, 0.001060619992890422
506.0, 0.00125938461011134
507.0, 0.0006641370169405587
508.0, 0.0022951995010387794
509.0, 0.002450174202007206
510.0, 0.0023493659486817035
511.0, 0.0032268937096001883
512.0, 0.004444042933060396
513.0, 0.005379207940172537
514.0, 0.006141628092674216
515.0, 0.006846058909597663
516.0, 0.008134322258195574
517.0, 0.009802538157648673
518.0, 0.011745395779256495
519.0, 0.013756462683268845
520.0, 0.013284415199531706
521.0, 0.01587978888188559
522.0, 0.01813958769114817
523.0, 0.018184330060831238
524.0, 0.0202579452492952
525.0, 0.02198230818618755
526.0, 0.023494750822981487
527.0, 0.02491978478115513
528.0, 0.026736347787054134
529.0, 0.02818021791401478
530.0, 0.02896138267509204
531.0, 0.028901400534220027
532.0, 0.027737747298299892
533.0, 0.026880505442025665
534.0, 0.026043741314093174
535.0, 0.025098953384874036
536.0, 0.023920240247330388
537.0, 0.022940600266766222
538.0, 0.022358951533254897
539.0, 0.02198502327866625
540.0, 0.02086174651506812
541.0, 0.020322101326094993
542.0, 0.019586113832599027
543.0, 0.018683205936560796
544.0, 0.018203516275901707
545.0, 0.017976039919755757
546.0, 0.018173863142892765
547.0, 0.01827377828294453
548.0, 0.01703217623481125
549.0, 0.016575339238715785
550.0, 0.016752723383565617
551.0, 0.016964076169088464
552.0, 0.01620815029000171
553.0, 0.016987928774207024
554.0, 0.017494681863501064
555.0, 0.017475890150772805
556.0, 0.016746992912408793
557.0, 0.01653970307015532
558.0, 0.016845797329311667
559.0, 0.01677411386536603
560.0, 0.015504789554371718
561.0, 0.015232861130890741
562.0, 0.01568695452024193
563.0, 0.015718814413207043
564.0, 0.014673226758704614
565.0, 0.0152047522075815
566.0, 0.015361798272418941
567.0, 0.01499874265816866
568.0, 0.01425908301081037
569.0, 0.014831946451246232
570.0, 0.015302575342716498
571.0, 0.01567128673531255
572.0, 0.01585030998766769
573.0, 0.015428860965165615
574.0, 0.015807090541238633
575.0, 0.015397548760119647
576.0, 0.014420761974643223
577.0, 0.01484637405207654
578.0, 0.014753730480166555
579.0, 0.014112519365637819
580.0, 0.013365496162946012
581.0, 0.013458208528974705
582.0, 0.012523577113350056
583.0, 0.012663726157444877
584.0, 0.013096998069642422
585.0, 0.012438191059782165
586.0, 0.01123091711466331
587.0, 0.010883134770693938
588.0, 0.010511821769237793
589.0, 0.00922494424013824
590.0, 0.0077562193629076
591.0, 0.006902586964068316
592.0, 0.005381077650390164
593.0, 0.0026966710720362505
594.0, 0.00258084961742282
595.0, 0.00209926409570331
596.0, 0.0019886704764528317
597.0, 0.002235026189047526
598.0, 0.0010479923493698093
599.0, 0.0006323181922476263
600.0, 0.0005729291487276121
601.0, 0.0006997661292804827
602.0, 0.000837203033980248
603.0, 0.000604475746273381
604.0, 0.000558933988715751
605.0, 0.000623750582383194
606.0, 0.0004828712471696939
607.0, 0.001496443691832054
608.0, 0.001855838290800086
609.0, 0.0020805812061835812
610.0, 0.002945991196684851
611.0, 0.0030031956516244486
612.0, 0.003189726321643855
613.0, 0.003554339911376456
614.0, 0.004231227226978804
615.0, 0.0065128694251611234
616.0, 0.007311880602626582
617.0, 0.007662165030626329
618.0, 0.007989538720473865
619.0, 0.007898442481539647
620.0, 0.009488666110997591
621.0, 0.01069577014494616
622.0, 0.01121544072063028
623.0, 0.011867373788875656
624.0, 0.012610511389675965
625.0, 0.01348959085127412
626.0, 0.014256463038783371
627.0, 0.014472306526634985
628.0, 0.016411015949578257
629.0, 0.01750029098639712
630.0, 0.018267201646800558
631.0, 0.019404857146753732
632.0, 0.021428529855219515
633.0, 0.02201723150467515
634.0, 0.0223229215817298
635.0, 0.0229614555258367
636.0, 0.023119823988361432
637.0, 0.02413470724612904
638.0, 0.025539789476262318
639.0, 0.027099129428532022
640.0, 0.02854784304415528
641.0, 0.02988020369735021
642.0, 0.03166622610408195
643.0, 0.03333276679215641
644.0, 0.033589807157434676
645.0, 0.03600150978049608
646.0, 0.03794648757175948
647.0, 0.040090915114492094
648.0, 0.04324166300094174
649.0, 0.04519768533881724
650.0, 0.04797153643418248
651.0, 0.05066498426322346
652.0, 0.053160145544630465
653.0, 0.05854097558835195
654.0, 0.062210517596989555
655.0, 0.06742656870529619
656.0, 0.07381594271328129
657.0, 0.07683457192368841
658.0, 0.08383281114538721
659.0, 0.09209560680337718
660.0, 0.10046991805484357
661.0, 0.10772076117140979
662.0, 0.11757274210283646
663.0, 0.13059685733437493
664.0, 0.14613275595271283
665.0, 0.16333701958984237
666.0, 0.1799069377257396
667.0, 0.20399733669546447
668.0, 0.23161533705008103
669.0, 0.2626140954072026
670.0, 0.30533307569777735
671.0, 0.351240926496307
672.0, 0.40089195401230365
673.0, 0.4595714484241856
674.0, 0.5384120837641189
675.0, 0.6163073083315536
676.0, 0.7032461648388776
677.0, 0.7899309734217445
678.0, 0.8655417721361575
679.0, 0.9386213629621061
680.0, 0.9817214705207037
681.0, 0.996208675942831
682.0, 0.9850393732029531
683.0, 0.9578393222701859
684.0, 0.8919494142858382
685.0, 0.8068692479535623
686.0, 0.711953891285309
687.0, 0.6175333863441986
688.0, 0.5357945858600185
689.0, 0.46495444628051724
690.0, 0.4017530562618037
691.0, 0.34229542799040785
692.0, 0.2940352204739304
693.0, 0.25080238372595093
694.0, 0.21751163191951858
695.0, 0.1948102600264268
696.0, 0.16974315923467845
697.0, 0.15071505491975734
698.0, 0.13333714763662766
699.0, 0.11822968653040329
700.0, 0.10978152804173422
701.0, 0.09954395370148687
702.0, 0.08958691901226049
703.0, 0.08087710385112296
704.0, 0.07429247563291917
705.0, 0.07076465086134813
706.0, 0.06667503621894727
707.0, 0.062184306233525194
708.0, 0.057462837506958145
709.0, 0.052889051254717295
710.0, 0.051484283295366265
711.0, 0.049229925975313116
712.0, 0.04637457703246454
713.0, 0.045317385020439735
714.0, 0.04282461423125306
715.0, 0.04095081523823995
716.0, 0.039296242620998255
717.0, 0.03746515683733333
718.0, 0.036757127010755716
719.0, 0.03558696178098259
720.0, 0.034900591209375845
721.0, 0.034610498485563114
722.0, 0.032933439693537375
723.0, 0.03168230572408485
724.0, 0.030376059757101267
725.0, 0.02917029022445775
726.0, 0.028399368598879357
727.0, 0.02862273698936432
728.0, 0.027363664702897257
729.0, 0.02682645459063201
730.0, 0.02795184431412516
731.0, 0.02687099700593482
732.0, 0.02547585121458048
733.0, 0.024368600407839662
734.0, 0.023572848508948734
735.0, 0.02275379123513685
736.0, 0.022969773756530483
737.0, 0.02260380261537806
738.0, 0.022078961668098977
739.0, 0.021814197524249537
740.0, 0.020215523088983015
741.0, 0.01922607289909208
742.0, 0.019050087623094132
743.0, 0.019503542737900503
744.0, 0.019693642027106974
745.0, 0.01749239478538607
746.0, 0.016150711824715055
747.0, 0.015592828533123933
748.0, 0.015104856006887208
749.0, 0.014654456951642351
750.0, 0.014930320267044647
751.0, 0.014697082066343157
752.0, 0.013591124673106632
753.0, 0.013221690276252007
754.0, 0.012567474977376269
755.0, 0.011533675262780454
756.0, 0.010516611323445361
757.0, 0.010205121652848984
758.0, 0.010276408225862106
759.0, 0.009194337775817856
760.0, 0.008710015155127215
761.0, 0.009505811015092274
762.0, 0.00794818467466288
763.0, 0.007328156225011817
764.0, 0.007161512460493357
765.0, 0.006991292140576995
766.0, 0.0061522929891174565
767.0, 0.00640689152485542
768.0, 0.0056009657306332426
769.0, 0.0050191167553350685
770.0, 0.005406932832474378
771.0, 0.0037449219926516293
772.0, 0.0031850261364774085
773.0, 0.0035288330176833933
774.0, 0.0037699424737534376
775.0, 0.0017837903587137674
776.0, 0.0034522511514663784
777.0, 0.003084507103606051
778.0, 0.001971691864186339
779.0, 0.0016230632303080748
780.0, 0.0024956752370117407
781.0, 0.0018023344702786715
782.0, 0.0011931574930291022
783.0, 0.0012604217015669322
784.0, 0.0021317944959534625
785.0, 0.001760404745562881
786.0, 0.0014545395164868064
787.0, 0.0013464857374938693
788.0, 0.001451112505304455
789.0, 0.0015520983210646495
790.0, 0.0014286428614757654
791.0, 0.001181678687382224
792.0, 0.0010838367782979822
793.0, 0.001674531981184477
794.0, 0.0014918911166637088
795.0, 0.0014774701040172842
796.0, 0.0011915413561137905
797.0, 0.00048224428574077864
798.0, 0.001369376942032442
799.0, 0.0015680818438790676
800.0, 0.0019595234060971784
801.0, 0.0024590475259317077
802.0, 0.002370887294961763
803.0, 0.0019540633717992136
804.0, 0.0022750412619893827
805.0, 0.002234283874559647
806.0, 0.0013342384949786654
807.0, 0.0018536918250261676
808.0, 0.002819766019673469
809.0, 0.0022460610957518723
810.0, 0.000759921604499387
811.0, 0.0003121764544336892
812.0, 0.0005537683943715564
813.0, 0.0003815311435690886
814.0, 0.0006230510055912996
815.0, 0.0014124802789325782
816.0, 0.0009081071843261336
817.0, 0.00035057794032756476
818.0, 0.0009246658953796392
819.0, 0.0015410338941657612
820.0, 0.0004691896643885908
821.0, 0.00034971210143364324
822.0, 0.0010831391948178237
823.0, 0.0011991666115537367
824.0, 0.00039767718567014043
825.0, 0.00010412680106613726
826.0, 2.2949424936509472e-05
827.0, 0.00022929190874882284
828.0, 0.0005069395461403923
829.0, 0.0005939730966935422
830.0, 0.00026672152594399597
831.0, 0.000348980005840251
832.0, 0.00039333845239080404
833.0, 0.0005648496678131456
834.0, 0.001593198705906729
835.0, 0.0008875051674339109
836.0, 0.0012468829691939176
837.0, 0.0015049209138905165
838.0, 0.0008896389671877733
839.0, 0.0008079579302936122
840.0, 0.0011425503179640709
841.0, 0.0010080019950499035
842.0, 0.0009730519302801914
843.0, 0.0021299903775144555
844.0, 0.0016497642265697152
845.0, 0.001093427597907704
846.0, 0.0010486462604828522
847.0, 0.0014663709013112034
848.0, 0.0011966627871857394
849.0, 0.000533899207529135
850.0, 0.0004589106756147599
851.0, 0.0006440515864378811
852.0, 0.0006274514089305155
853.0, 0.00028087100730428806
854.0, 0.0011484159894613588
855.0, 0.0015034077658976199
856.0, 0.0015246442511665727
857.0, 0.002550712165615328
858.0, 0.0014609580352546482
859.0, 0.001211966081197883
860.0, 0.00158817604204025
861.0, 0.0021789614745152297
862.0, 0.002072412907284763
863.0, 0.0019390632269828726
864.0, 0.0024091596865427915
865.0, 0.003675667738299142
866.0, 0.005601935514508154
867.0, 0.00565850799275221
868.0, 0.00539406712658087
869.0, 0.00622162303431213
870.0, 0.007352272803912293
871.0, 0.006230374163376913
872.0, 0.00855786162277509
873.0, 0.009023236931808945
874.0, 0.009205428557924077
875.0, 0.010167285210343496
876.0, 0.011715227917176314
877.0, 0.012119311634894606
878.0, 0.013450803281863663
879.0, 0.01493118234781243
880.0, 0.015477715840674113
881.0, 0.015997885386583192
882.0, 0.015239384477483119
883.0, 0.015323701437461928
884.0, 0.01581857988414502
885.0, 0.014726428004691601
886.0, 0.015225284510875547
887.0, 0.015925702058772376
888.0, 0.01679547886709902
889.0, 0.0174189227376004
890.0, 0.01647505574386905
891.0, 0.016174747590201148
892.0, 0.016717538789902408
893.0, 0.016621410843863635
894.0, 0.015324213443315148
895.0, 0.01843152902847134
896.0, 0.01799241186872297
897.0, 0.017800084431626936
898.0, 0.018596776488399247
899.0, 0.020064787949743826
900.0, 0.020870533752861135
901.0, 0.02034270537625637
902.0, 0.020544452946344112
903.0, 0.02166851010142339
904.0, 0.022115776231416095
905.0, 0.02084185031944002
906.0, 0.020700532505319925
907.0, 0.021085633584583534
908.0, 0.021528515548181807
909.0, 0.022179873989918754
910.0, 0.02295116619005052
911.0, 0.023911794571341145
912.0, 0.024952918861081048
913.0, 0.025798922563462147
914.0, 0.025228990798785177
915.0, 0.02662146651251915
916.0, 0.026931668432561333
917.0, 0.02663975297250543
918.0, 0.027601751049286322
919.0, 0.03013642190509579
920.0, 0.030619117632873345
921.0, 0.03182492681913282
922.0, 0.03380087361433587
923.0, 0.03417619607666838
924.0, 0.037472000509040516
925.0, 0.03813606256844372
926.0, 0.039363396146056245
927.0, 0.0422108473592079
928.0, 0.04340197010127965
929.0, 0.04468347360220723
930.0, 0.04565217628289586
931.0, 0.04709675908804612
932.0, 0.04905899565838872
933.0, 0.048016000017643994
934.0, 0.048158166925286156
935.0, 0.04907933412894498
936.0, 0.04905924184050949
937.0, 0.04687187939462287
938.0, 0.04871060581629435
939.0, 0.04828021617268414
940.0, 0.04830856131791533
941.0, 0.04927778592996303
942.0, 0.050603725295580326
943.0, 0.04982467992574081
944.0, 0.05146518976396186
945.0, 0.052936184815949076
946.0, 0.05402939153331792
947.0, 0.05648676021295331
948.0, 0.055736827659959805
949.0, 0.05630646511841448
950.0, 0.05741164013106576
951.0, 0.05850804777454275
952.0, 0.05941462642226094
953.0, 0.05832338285347778
954.0, 0.05581557395158873
955.0, 0.05325575795404944
956.0, 0.0510252148225138
957.0, 0.046914312255438934
958.0, 0.04433938261835846
959.0, 0.04054032674557384
960.0, 0.03657800095260786
961.0, 0.03353331000971663
962.0, 0.030727481615875348
963.0, 0.02841248082803227
964.0, 0.027067297131161166
965.0, 0.025254536902440537
966.0, 0.021998587538144595
967.0, 0.02221017462638238
968.0, 0.019956256650338754
969.0, 0.01800647324466549
970.0, 0.017256434749063163
971.0, 0.017620000259074408
972.0, 0.014910284910343493
973.0, 0.01504693864031839
974.0, 0.014194569254462983
975.0, 0.013132104493613168
976.0, 0.014463178442634707
977.0, 0.013112136046517422
978.0, 0.013487582807361637
979.0, 0.01349822781277197
980.0, 0.01266997530937724
981.0, 0.011586571756586232
982.0, 0.012214090747809396
983.0, 0.013015164119067432
984.0, 0.012383238702774848
985.0, 0.011110424870395007
986.0, 0.012136456440130497
987.0, 0.012271467525650932
988.0, 0.012003237322267829
989.0, 0.012445919322124011
990.0, 0.01317053865964913
991.0, 0.011971990002421435
992.0, 0.012236617751378508
993.0, 0.012514373618826902
994.0, 0.012820401267504495
995.0, 0.013394820489549625
996.0, 0.01478751049791303
997.0, 0.014075036568461244
998.0, 0.015713849079221427
999.0, 0.01609292512443591
1000.0, 0.014939929102141678
1001.0, 0.01779339847392697
1002.0, 0.016339801350341816
1003.0, 0.018220908113194868
1004.0, 0.020323415931447715
1005.0, 0.02064660545899545
1006.0, 0.01998254873288987
1007.0, 0.022290305312760477
1008.0, 0.02368545467410092
1009.0, 0.02444196026889018
1010.0, 0.025119359062402542
1011.0, 0.026346441570770235
1012.0, 0.02960121958342893
1013.0, 0.0314301209739361
1014.0, 0.03235807539098783
1015.0, 0.03260332594895881
1016.0, 0.031059389717868927
1017.0, 0.03331741565524959
1018.0, 0.03563869629242112
1019.0, 0.03598166972235155
1020.0, 0.03476932857590143
1021.0, 0.037223028540589315
1022.0, 0.0390074579221118
1023.0, 0.03877529382181427
1024.0, 0.03924917245324298
1025.0, 0.041315851220584225
1026.0, 0.041656203512740096
1027.0, 0.041673542568647796
1028.0, 0.044371898048564964
1029.0, 0.047063704317507886
1030.0, 0.04856118541436118
1031.0, 0.05118468359168249
1032.0, 0.05335188056900135
1033.0, 0.05441063098229546
1034.0, 0.05601007640575278
1035.0, 0.05860588769006383
1036.0, 0.060434356703004885
1037.0, 0.06162803307498639
1038.0, 0.06346493143292313
1039.0, 0.06548216540747717
1040.0, 0.06768581190277659
1041.0, 0.07091886616356953
1042.0, 0.06892067772973225
1043.0, 0.07150184399840362
1044.0, 0.07440719857373744
1045.0, 0.07504493399642097
1046.0, 0.07343327922569685
1047.0, 0.07633857437898471
1048.0, 0.07888059076917164
1049.0, 0.08139994024268898
1050.0, 0.08371919477188236
1051.0, 0.08509820454743298
1052.0, 0.08932625342989034
1053.0, 0.09174973957906703
1054.0, 0.09324935052489162
1055.0, 0.09499984427883483
1056.0, 0.09832924471043565
1057.0, 0.10214614756913691
1058.0, 0.10615959800647842
1059.0, 0.1103194621774417
1060.0, 0.11413300707832442
1061.0, 0.11705881560086182
1062.0, 0.12208031590509519
1063.0, 0.12526798620349766
1064.0, 0.12992288171302463
1065.0, 0.13526390164407723
1066.0, 0.138913583213005
1067.0, 0.1414318808555567
1068.0, 0.14580381511306595
1069.0, 0.1475287330207581
1070.0, 0.1472689471896885
1071.0, 0.1472515839748106
1072.0, 0.14839691557758566
1073.0, 0.145315769184461
1074.0, 0.1418605020689744
1075.0, 0.1387653088997007
1076.0, 0.13520796156071932
1077.0, 0.12698661999269212
1078.0, 0.12148055179803562
1079.0, 0.11821758163018019
1080.0, 0.11372188239012966
1081.0, 0.10672733586401575
1082.0, 0.10220689208595032
1083.0, 0.0967686717745117
1084.0, 0.09137646969186139
1085.0, 0.08668651867270455
1086.0, 0.08339992768015575
1087.0, 0.08234789128938574
1088.0, 0.07315642175403049
1089.0, 0.07420157409829146
1090.0, 0.07065253859787914
1091.0, 0.060943931395921344
1092.0, 0.05666095068083812
1093.0, 0.052178928266825915
1094.0, 0.04739701610897654
1095.0, 0.04507848048018865
1096.0, 0.043452278576899206
1097.0, 0.03893153515730565
1098.0, 0.03745179991828577
1099.0, 0.03515444840503453
1100.0, 0.0334327120301711
1101.0, 0.03201403726694746
1102.0, 0.030134751521857357
1103.0, 0.027481405750435388
1104.0, 0.02687148154874297
1105.0, 0.025597087645007868
1106.0, 0.02400044721013867
1107.0, 0.022986622687624404
1108.0, 0.023475360152743926
1109.0, 0.02057053499185943
1110.0, 0.020094435833256607
1111.0, 0.018871637838545396
1112.0, 0.016716351480070394
1113.0, 0.018733159070658454
1114.0, 0.017962716836427087
1115.0, 0.016553336660866252
1116.0, 0.015417912112447767
1117.0, 0.014697158490779927
1118.0, 0.014017084127204905
1119.0, 0.014904301494579681
1120.0, 0.013031742393130893
1121.0, 0.012805977970212549
1122.0, 0.01460854443419702
1123.0, 0.016806998412641577
1124.0, 0.016234355957246174
1125.0, 0.01531539080782381
1126.0, 0.01347112594296489
1127.0, 0.011195269853150587
1128.0, 0.0090804728369146
1129.0, 0.007379826060302736
1130.0, 0.009706364367814444
1131.0, 0.009628584314489866
1132.0, 0.009047502991631312
1133.0, 0.008752388005255645
1134.0, 0.007486422189825646
1135.0, 0.008167957687018066
1136.0, 0.008859126891270082
1137.0, 0.00830008391774393
1138.0, 0.007143278167885877
1139.0, 0.006896898943279974
1140.0, 0.006586113336060094
1141.0, 0.005971711943915886
1142.0, 0.005775543264310334
1143.0, 0.0053690973613155675
1144.0, 0.004405400248457778
1145.0, 0.004561967277767096
1146.0, 0.004652294636220013
1147.0, 0.005165867932368748
1148.0, 0.00543809864887222
1149.0, 0.004931499019067802
1150.0, 0.0034859116020815343
1151.0, 0.0026540543283902988
1152.0, 0.002341449824074162
1153.0, 0.0019829864651767096
1154.0, 0.0015218162012096258
1155.0, 0.0013146507063456375
1156.0, 0.00244894218310207
1157.0, 0.0015276671878513186
1158.0, 0.0014089487501040198
1159.0, 0.00210398693305817
1160.0, 0.002862894602717765
1161.0, 0.0028693678628555503
1162.0, 0.0025618647124874957
1163.0, 0.0019277519475572118
1164.0, 0.001150793878494359
1165.0, 0.0006160067696436706
1166.0, 0.0008167002557214154
1167.0, 0.0005742233634480259
1168.0, 0.000626664363074359
1169.0, 0.0006644580606329068
1170.0, 0.0006772900230919763
1171.0, 0.0008409559862254657
1172.0, 0.0015783473839860915
1173.0, 0.0010255745161145287
1174.0, 0.0008702165986659838
1175.0, 0.0009400987331744012
1176.0, 0.0009594525957497312
1177.0, 0.0009936976885736265
1178.0, 0.0020858290046301222
1179.0, 0.0015098981129453648
1180.0, 0.0006336003094975297
1181.0, 0.0002811088525044289
1182.0, 0.0006828346502827381
1183.0, 0.0012045965062148804
1184.0, 0.00042645247414804685
1185.0, 0.00013365548651073157
1186.0, 0.00023484950115884866
1187.0, 0.00037663326139816464
1188.0, 0.0006833251590835994
1189.0, 0.0011732807525093763
1190.0, 0.0005515749394502718
1191.0, 0.0009553954062307235
1192.0, 0.0018828804535504719
1193.0, 0.0009065698898209904
1194.0, 0.0006513587378818364
1195.0, 0.0011520225348670176
1196.0, 0.0009319437806765323
1197.0, 0.0005205757272257294
1198.0, 0.0007106226529844018
1199.0, 0.0013758138320922302
1200.0, 0.0008758369260733228
1201.0, 0.0004521710862140357
1202.0, 0.001208927625625668
1203.0, 0.0023552091653857195
1204.0, 0.0017608640450367209
1205.0, 0.0016136233891375126
1206.0, 0.0009046594066625985
1207.0, 0.00038561734718745564
1208.0, 0.00016187606471558834
1209.0, 0.00021955139811537694
1210.0, 0.0007853321925964479
1211.0, 0.00041716923076459494
1212.0, 0.0005565732181972728
1213.0, 0.0004696591698981459
1214.0, 0.00010273481238450268
1215.0, 7.615032046795277e-05
1216.0, 0.0006434523115283648
1217.0, 0.0003616426798878843
1218.0, 0.0011191574627948714
1219.0, 0.0014028803332682414
1220.0, 0.0005358310915496312
1221.0, 0.0017580472393905386
1222.0, 0.0019132523843449873
1223.0, 0.0014177971677963557
1224.0, 0.0008040058677628052
1225.0, 0.00045311837800431553
1226.0, 0.0004993368307644453
1227.0, 0.00042091091644283366
1228.0, 0.00071149665540403
1229.0, 0.0012807616598794378
1230.0, 0.0018996480728479983
1231.0, 0.0021635713521973867
1232.0, 0.001493967780489376
1233.0, 0.0007855800630251107
1234.0, 0.0014202201897703728
1235.0, 0.002224902714813332
1236.0, 0.0030483327360872306
1237.0, 0.0040410909606227036
1238.0, 0.004226162958686947
1239.0, 0.0043498503598438315
1240.0, 0.0045335502125607476
1241.0, 0.004058321689446376
1242.0, 0.0031714521238521897
1243.0, 0.0030448154878491293
1244.0, 0.0013094619830139615
1245.0, 0.0005102001184296486
1246.0, 0.001951483929932352
1247.0, 0.0030677676551107615
1248.0, 0.002072740797537004
1249.0, 0.001905695705696678
1250.0, 0.0017816286552573921
1251.0, 0.00163254411178481
1252.0, 0.0018256089984387252
1253.0, 0.0025851883891624453
1254.0, 0.003698670244095698
1255.0, 0.0032548500517547655
1256.0, 0.0030838789180811835
1257.0, 0.0017426808010188389
1258.0, 0.002188060646276317
1259.0, 0.004245858675255715
1260.0, 0.0034325650383784604
1261.0, 0.0016383973681087624
1262.0, 0.0031687459027111542
1263.0, 0.004166233644086727
1264.0, 0.0035520867222859484
1265.0, 0.0019712707595984807
1266.0, 0.0016846768966870492
1267.0, 0.0031265057365317513
1268.0, 0.0031019688356392007
1269.0, 0.003647352839939657
1270.0, 0.003528459697296488
1271.0, 0.001245403314932679
1272.0, 0.0036741004409750915
1273.0, 0.003780209848369085
1274.0, 0.002508535899729263
1275.0, 0.002639363978708357
1276.0, 0.0038746804312178268
1277.0, 0.003009637779004641
1278.0, 0.0018341412264259835
1279.0, 0.004236236500956728
1280.0, 0.004301470578119571
1281.0, 0.0036594281798161803
1282.0, 0.0038839196769567185
1283.0, 0.00336069882435977
1284.0, 0.002576130706971832
1285.0, 0.0035019295522211507
1286.0, 0.0039734028397975405
1287.0, 0.0038155399724513254
1288.0, 0.003643581405750215
1289.0, 0.003798305524598528
1290.0, 0.002392979136907622
1291.0, 0.002916758455082807
1292.0, 0.002547003611473395
1293.0, 0.0021541991602814807
1294.0, 0.003910001069316944
1295.0, 0.004700344091605736
1296.0, 0.004014665361402861
1297.0, 0.003080850514765865
1298.0, 0.0024456662575903835
1299.0, 0.0023504433669628267
1300.0, 0.002829472675029216
1301.0, 0.004315194936990907
1302.0, 0.003542292204172289
1303.0, 0.0015081202297757643
1304.0, 0.0014456516301147556
1305.0, 0.0028977868991789816
1306.0, 0.0011959070384411667
1307.0, 0.0024831072728119697
1308.0, 0.002193141050870227
1309.0, 0.0021365794724042706
1310.0, 0.00244576669912512
1311.0, 0.0027995347550520393
1312.0, 0.002934210995732488
1313.0, 0.0029975288196657786
1314.0, 0.0030880343439543606
1315.0, 0.002965454432656168
1316.0, 0.002804699280141544
1317.0, 0.002672988729036032
1318.0, 0.002105048517500937
1319.0, 0.0013736993448169846
1320.0, 0.0012971953280596438
1321.0, 0.00122402951333897
1322.0, 0.0012980918810312789
1323.0, 0.0017050403621441852
1324.0, 0.001730677436914539
1325.0, 0.0011896916376863574
1326.0, 0.0020417241864692367
1327.0, 0.002340030600282608
1328.0, 0.00224589507666126
1329.0, 0.002427532082592677
1330.0, 0.0009907255636280846
1331.0, 0.0019197170038983138
1332.0, 0.0018335829227255989
1333.0, 0.0012765712879231992
1334.0, 0.0012045346202603513
1335.0, 0.0020386409722979604
1336.0, 0.001948481789032818
1337.0, 0.0007267997269188348
1338.0, 0.0010127260876805183
1339.0, 0.0009242690699770568
1340.0, 0.0008144130489438795
1341.0, 0.0017964405136036727
1342.0, 0.00036672497840003137
1343.0, 0.00038790457707716416
1344.0, 0.0012565539746598531
1345.0, 0.0023198175316046735
1346.0, 0.00245783489956494
1347.0, 0.0013635833720879974
1348.0, 0.003488909528888663
1349.0, 0.002074338182029237
1350.0, 0.001842422101375956
1351.0, 0.0021608924816071957
1352.0, 0.002390061994431702
1353.0, 0.002363314039632229
1354.0, 0.002074706285524946
1355.0, 0.003084119688541341
1356.0, 0.0017395448438018166
1357.0, 0.0013950466105822523
1358.0, 0.0019740856537052856
1359.0, 0.0011257021374062874
1360.0, 0.000701060880101234
1361.0, 0.00205246403528825
1362.0, 0.002044702686240989
1363.0, 0.0014578806179779051
1364.0, 0.0012911027783895112
1365.0, 0.001831526044681702
1366.0, 0.0012148966456735526
1367.0, 0.0023037051056728573
1368.0, 0.002054787722462183
1369.0, 0.00170229778092479
1370.0, 0.0018092725085758835
1371.0, 0.0020474395213043698
1372.0, 0.0015630972299273042
1373.0, 0.001062070258746256
1374.0, 0.002278456217758693
1375.0, 0.0032085023928544246
1376.0, 0.0027270225252433054
1377.0, 0.0011166510595814999
1378.0, 0.00047811523714221866
1379.0, 0.0008192486459781189
1380.0, 0.0014046905653466385
1381.0, 0.001783746409510805
1382.0, 0.002097828202664753
1383.0, 0.002682828844097686
1384.0, 0.0035605461635822098
1385.0, 0.0030010639406523884
1386.0, 0.0034921012710426983
1387.0, 0.0031841868479104856
1388.0, 0.0028019012812964175
1389.0, 0.003008192597415661
1390.0, 0.002183933214870179
1391.0, 0.0013722791463732552
1392.0, 0.0017387447240490126
1393.0, 0.0020374422238938774
1394.0, 0.0021879123568060944
1395.0, 0.0021345379329158875
1396.0, 0.0014994372562671513
1397.0, 0.003618743854601184
1398.0, 0.0024015599298907926
1399.0, 0.002934386726226197
1400.0, 0.0031676791454086656
1401.0, 0.002361059637027718
1402.0, 0.0028646726993798487
1403.0, 0.0020358314296574755
1404.0, 0.0035738337996766363
1405.0, 0.0023761115405520937
1406.0, 0.0019237260759956362
1407.0, 0.0026208901582732407
1408.0, 0.0016807465606006895
1409.0, 0.0006939288091715503
1410.0, 0.0031843616518855093
1411.0, 0.001951683690207652
1412.0, 0.0032764815993598564
1413.0, 0.005149205421612556
1414.0, 0.0028133725002921707
1415.0, 0.002192789005329077
1416.0, 0.0039045498572860106
1417.0, 0.0031860222552716057
1418.0, 0.0024123421704146885
1419.0, 0.002483839507822595
1420.0, 0.003159827433282902
1421.0, 0.0036521591369542508
1422.0, 0.002536572381057358
1423.0, 0.00307120850946828
1424.0, 0.0032440223600654758
1425.0, 0.0038632598169013356
1426.0, 0.004479872662101126
1427.0, 0.0027446886798622528
1428.0, 0.0024336413259785092
1429.0, 0.0027747345713805683
1430.0, 0.0019969951522104397
1431.0, 0.002079549622509629
1432.0, 0.0028525795141078948
1433.0, 0.002656369694288869
1434.0, 0.0035028163796415293
1435.0, 0.0018740637345722208
1436.0, 0.003659479233687296
1437.0, 0.004453624748021171
1438.0, 0.0035764380917671147
1439.0, 0.0028475455961985033
1440.0, 0.003772239902428876
1441.0, 0.005514028801594729
1442.0, 0.0037156041335667236
1443.0, 0.002921797655158881
1444.0, 0.004850845416347017
1445.0, 0.006485382204816681
1446.0, 0.0023042206404941877
1447.0, 0.004397367791808744
1448.0, 0.0042142408108283205
1449.0, 0.003621560830535224
1450.0, 0.002095147425091329
1451.0, 0.0022390760257113727
1452.0, 0.005970508527716661
1453.0, 0.00382204183843456
1454.0, 0.0027780148346029415
1455.0, 0.006577101367279703
1456.0, 0.005545588509296002
1457.0, 0.003182898342070166
1458.0, 0.004429454951561263
1459.0, 0.005109589802589433
1460.0, 0.003539949849192892
1461.0, 0.00536855958045397
1462.0, 0.004141679754916027
1463.0, 0.0028719771560711694
1464.0, 0.0042121866217674515
1465.0, 0.006527381210038406
1466.0, 0.0012926053702789347
1467.0, 0.006810075575367381
1468.0, 0.005628401510142357
1469.0, 0.0034415143617756777
1470.0, 0.0030510143443830354
1471.0, 0.003966153263850412
1472.0, 0.004539718696133505
1473.0, 0.0038439112893147004
1474.0, 0.004902032118152235
1475.0, 0.0038957097804097063
1476.0, 0.0028083800691965414
1477.0, 0.002601165141792067
1478.0, 0.0021912409517899894
1479.0, 0.004146406637629279
1480.0, 0.0021924286572460763
1481.0, 0.00555210116958235
1482.0, 0.006138990439717307
1483.0, 0.004250227733001164
1484.0, 0.0029517362934942397
1485.0, 0.00012099902700289609
1486.0, 0.0002686410478637318
1487.0, 0.0010545465830401593
1488.0, 0.0032390288551163056
1489.0, 0.00353406378810776
1490.0, 0.0021478930218084523
1491.0, 0.002211172550610511
1492.0, 0.0009562234121709689
1493.0, 0.004120734007716969
1494.0, 0.0044815762512001684
1495.0, 0.0032161703906955865
1496.0, 0.002721708130929737
1497.0, 0.0032986615731865395
1498.0, 0.0020243422239319725
1499.0, 0.0034829606185060712
1500.0, 0.0009248531230938058
1501.0, 0.00020556390896707473
1502.0, 0.00017336032883811747
1503.0, 8.670589648034643e-06
1504, 0.0
1505, 0.0
1506, 0.0
1507, 0.0
1508, 0.0
1509, 0.0
1510, 0.0
1511, 0.0
1512, 0.0
1513, 0.0
1514, 0.0
1515, 0.0
1516, 0.0
1517, 0.0
1518, 0.0
1519, 0.0
1520, 0.0
1521, 0.0
1522, 0.0
1523, 0.0
1524, 0.0
1525, 0.0
1526, 0.0
1527, 0.0
1528, 0.0
1529, 0.0
1530, 0.0
1531, 0.0
1532, 0.0
1533, 0.0
1534, 0.0
1535, 0.0
1536, 0.0
1537, 0.0
1538, 0.0
1539, 0.0
1540, 0.0
1541, 0.0
1542, 0.0
1543, 0.0
1544, 0.0
1545, 0.0
1546, 0.0
1547, 0.0
1548, 0.0
1549, 0.0
1550, 0.0
1551, 0.0
1552, 0.0
1553, 0.0
1554, 0.0
1555, 0.0
1556, 0.0
1557, 0.0
1558, 0.0
1559, 0.0
1560, 0.0
1561, 0.0
1562, 0.0
1563, 0.0
1564, 0.0
1565, 0.0
1566, 0.0
1567, 0.0
1568, 0.0
1569, 0.0
1570, 0.0
1571, 0.0
1572, 0.0
1573, 0.0
1574, 0.0
1575, 0.0
1576, 0.0
1577, 0.0
1578, 0.0
1579, 0.0
1580, 0.0
1581, 0.0
1582, 0.0
1583, 0.0
1584, 0.0
1585, 0.0
1586, 0.0
1587, 0.0
1588, 0.0
1589, 0.0
1590, 0.0
1591, 0.0
1592, 0.0
1593, 0.0
1594, 0.0
1595, 0.0
1596, 0.0
1597, 0.0
1598, 0.0
1599, 0.0
