30, 0.0
31, 0.0
32, 0.0
33, 0.0
34, 0.0
35, 0.0
36, 0.0
37, 0.0
38, 0.0
39, 0.0
40, 0.0
41, 0.0
42, 0.0
43, 0.0
44, 0.0
45, 0.0
46, 0.0
47, 0.0
48, 0.0
49, 0.0
50, 0.0
51, 0.0
52, 0.0
53, 0.0
54, 0.0
55, 0.0
56, 0.0
57, 0.0
58, 0.0
59, 0.0
60, 0.0
61, 0.0
62, 0.0
63, 0.0
64, 0.0
65, 0.0
66, 0.0
67, 0.0
68, 0.0
69, 0.0
70, 0.0
71, 0.0
72, 0.0
73, 0.0
74, 0.0
75, 0.0
76, 0.0
77, 0.0
78, 0.0
79, 0.0
80, 0.0
81, 0.0
82, 0.0
83, 0.0
84, 0.0
85, 0.0
86, 0.0
87, 0.0
88, 0.0
89, 0.0
90, 0.0
91, 0.0
92, 0.0
93, 0.0
94, 0.0
95, 0.0
96, 0.0
97, 0.0
98, 0.0
99, 0.0
100, 0.0
101, 0.0
102, 0.0
103, 0.0
104, 0.0
105, 0.0
106, 0.0
107, 0.0
108, 0.0
109, 0.0
110, 0.0
111, 0.0
112, 0.0
113, 0.0
114, 0.0
115, 0.0
116, 0.0
117, 0.0
118, 0.0
119, 0.0
120, 0.0
121, 0.0
122, 0.0
123, 0.0
124, 0.0
125, 0.0
126, 0.0
127, 0.0
128, 0.0
129, 0.0
130, 0.0
131, 0.0
132, 0.0
133, 0.0
134, 0.0
135, 0.0
136, 0.0
137, 0.0
138, 0.0
139, 0.0
140, 0.0
141, 0.0
142, 0.0
143, 0.0
144, 0.0
145, 0.0
146.0, 0.00030175147202541485
147.0, 0.0010620346097213347
148.0, 0.00032701311252997543
149.0, 0.00045377999251468553
150.0, 0.0008325999570016
151.0, 0.002315204408012569
152.0, 0.0012573098041725125
153.0, 0.003151594747355706
154.0, 0.0064666123682280315
155.0, 0.008926450882277207
156.0, 0.011032071312618411
157.0, 0.014714660922051283
158.0, 0.018850831845908366
159.0, 0.022334770953404137
160.0, 0.025760332168075193
161.0, 0.03429424461432671
162.0, 0.04068891212845734
163.0, 0.04683725000358691
164.0, 0.05590889236440576
165.0, 0.0650025304019156
166.0, 0.07225884919241361
167.0, 0.07420989018913836
168.0, 0.06900072070361933
169.0, 0.05936416218957975
170.0, 0.050324965927182774
171.0, 0.04891218056203282
172.0, 0.05133842114612889
173.0, 0.050883627786179185
174.0, 0.055591458402891834
175.0, 0.060775527289547895
176.0, 0.06962774975303018
177.0, 0.08507005639302927
178.0, 0.10504816666361527
179.0, 0.1273386022164667
180.0, 0.1318705231319523
181.0, 0.1137936444266586
182.0, 0.08553235348661162
183.0, 0.06657366772351263
184.0, 0.056309993805645324
185.0, 0.049637581346809886
186.0, 0.04195018785895406
187.0, 0.0343597849950096
188.0, 0.028296815594541693
189.0, 0.024856939568807128
190.0, 0.023566405982093912
191.0, 0.021667134628488984
192.0, 0.025640511073583797
193.0, 0.03209618979035913
194.0, 0.03460025872837303
195.0, 0.029774845917973917
196.0, 0.02687145846981969
197.0, 0.029344900182161206
198.0, 0.03596867179159554
199.0, 0.04374085711631849
200.0, 0.04350407109534847
201.0, 0.036398737749952816
202.0, 0.02675567863052279
203.0, 0.017579589403853915
204.0, 0.00723799574579491
205.0, 0.00633777704532915
206.0, 0.007996222614125048
207.0, 0.009382253682660775
208.0, 0.012126548895672946
209.0, 0.013260606407357507
210.0, 0.016610763662073567
211.0, 0.021344264656475622
212.0, 0.024892909149985754
213.0, 0.027217228171560675
214.0, 0.03716665301600813
215.0, 0.04366294628826298
216.0, 0.04792912132806321
217.0, 0.058204659921584384
218.0, 0.07445097985787115
219.0, 0.08873761842596756
220.0, 0.09215798128969899
221.0, 0.08046063685218842
222.0, 0.05834771550024342
223.0, 0.03770345232962612
224.0, 0.022943635643778777
225.0, 0.015691866597113538
226.0, 0.014848117745255796
227.0, 0.01386382378703398
228.0, 0.013149998245257947
229.0, 0.011569840605635916
230.0, 0.008332183815668278
231.0, 0.0040959575983197495
232.0, 0.0024834273908362317
233.0, 0.0017586647095804112
234.0, 0.0010594643209012483
235.0, 0.0006189365770481529
236.0, 0.0011398413381188536
237.0, 0.0010014587167898935
238.0, 0.001428432921725662
239.0, 0.0009040641143667268
240.0, 0.0005659222669739783
241.0, 0.0031999425124678077
242.0, 0.004898191796393208
243.0, 0.005701753981043767
244.0, 0.00737701534594291
245.0, 0.009202287074614183
246.0, 0.012419302911070858
247.0, 0.017037622547205013
248.0, 0.022515106803989604
249.0, 0.027281785549029432
250.0, 0.02758168046249564
251.0, 0.02010733457700747
252.0, 0.010094739601202841
253.0, 0.004427420861695064
254.0, 0.0015708977149761505
255.0, 0.0016314352204106512
256.0, 0.0029679410930102423
257.0, 0.0028115915076349246
258.0, 0.0029339146507210883
259.0, 0.005447857311472128
260.0, 0.003380819217510425
261.0, 0.0004852205254191025
262.0, 0.0009711048072748138
263.0, 0.0023234199744993395
264.0, 0.0019496630718611168
265.0, 0.005093010843560723
266.0, 0.0076918632232411055
267.0, 0.01350261252350712
268.0, 0.01688991735944133
269.0, 0.022475755370292387
270.0, 0.029483209609190316
271.0, 0.0348384511174006
272.0, 0.03534196716747833
273.0, 0.032616494410437076
274.0, 0.028973374541941124
275.0, 0.025779458613939522
276.0, 0.02484446897454724
277.0, 0.03022757110083145
278.0, 0.036650313290584914
279.0, 0.042047228473332685
280.0, 0.04786270329103581
281.0, 0.056019154671469396
282.0, 0.06399672889668917
283.0, 0.06738562272919274
284.0, 0.06916356739007243
285.0, 0.07112982363168464
286.0, 0.07067760975056764
287.0, 0.06433231747531085
288.0, 0.05241701633731674
289.0, 0.037798853734442264
290.0, 0.0248758879680162
291.0, 0.016593699317173576
292.0, 0.009954370770703418
293.0, 0.006396854387996577
294.0, 0.005198783812098742
295.0, 0.004485224440719919
296.0, 0.004528280990899674
297.0, 0.007711726277704351
298.0, 0.011798323882538597
299.0, 0.01606677530266915
300.0, 0.021191564251984492
301.0, 0.020482286016546846
302.0, 0.015949292192994496
303.0, 0.011843350827264714
304.0, 0.009207260429844577
305.0, 0.005733836142804528
306.0, 0.005880024329374046
307.0, 0.008799747024119545
308.0, 0.013182236764700993
309.0, 0.017460914670681435
310.0, 0.01867857602755548
311.0, 0.01806137659287366
312.0, 0.01809419077029336
313.0, 0.01701783469183526
314.0, 0.012270355068079762
315.0, 0.010795591648065697
316.0, 0.008502711666654016
317.0, 0.009327773901593166
318.0, 0.013151701483605487
319.0, 0.015108141348808614
320.0, 0.02107390402588007
321.0, 0.02812865457132922
322.0, 0.03728796149901331
323.0, 0.04819130299704895
324.0, 0.05854182162885868
325.0, 0.07007370324767428
326.0, 0.08289458653907449
327.0, 0.09011430806992721
328.0, 0.08661078522643868
329.0, 0.0724837174880393
330.0, 0.0567180992210202
331.0, 0.03980501579196173
332.0, 0.02467666079709714
333.0, 0.01412936501200432
334.0, 0.00765148537775348
335.0, 0.004798074476978107
336.0, 0.005893099775276125
337.0, 0.008666327899680805
338.0, 0.010534563710361539
339.0, 0.014105176202418013
340.0, 0.019932884143564245
341.0, 0.02485301377370483
342.0, 0.027965943749240267
343.0, 0.02852137099500821
344.0, 0.021999627321017207
345.0, 0.018578810545569317
346.0, 0.014210978601217044
347.0, 0.008229156685522201
348.0, 0.005377153870661391
349.0, 0.006485900772910305
350.0, 0.009060328828836459
351.0, 0.011490910109098324
352.0, 0.013851948013284932
353.0, 0.017219755284191163
354.0, 0.022212623643951646
355.0, 0.028357832642999518
356.0, 0.037003419588181756
357.0, 0.04945775042790527
358.0, 0.0635689985455126
359.0, 0.06639411475617849
360.0, 0.05886631283899566
361.0, 0.04203911240242012
362.0, 0.021638692589641646
363.0, 0.00769888161496585
364.0, 0.0017053543041907762
365.0, 0.0033740054587929466
366.0, 0.005050389598863585
367.0, 0.003413835620313042
368.0, 0.0015129544358614517
369.0, 0.0011944653148465278
370.0, 0.0013052091205585981
371.0, 0.004177291492027079
372.0, 0.007462032406294186
373.0, 0.01232982275648423
374.0, 0.015965749301546713
375.0, 0.02262995411190678
376.0, 0.02853092732966071
377.0, 0.033228849324884055
378.0, 0.042838360962842235
379.0, 0.049176780690160744
380.0, 0.05804843647777855
381.0, 0.06743758967225646
382.0, 0.07643108797388443
383.0, 0.08746089596737705
384.0, 0.09582075210371369
385.0, 0.1087031990476684
386.0, 0.12406257374790601
387.0, 0.13885179268687234
388.0, 0.15146577488632007
389.0, 0.1553596029357875
390.0, 0.15539896082060037
391.0, 0.14721624803922312
392.0, 0.13658511328334091
393.0, 0.13235259445545997
394.0, 0.1326830428581308
395.0, 0.13367082219451526
396.0, 0.13275278305304553
397.0, 0.1283642953110184
398.0, 0.12029324827101295
399.0, 0.11100255018032344
400.0, 0.10196045868806347
401.0, 0.09376799775183703
402.0, 0.08659846285684056
403.0, 0.07979285865300573
404.0, 0.06974458880551397
405.0, 0.0617620066541697
406.0, 0.052741745713833124
407.0, 0.04045794485171773
408.0, 0.027715722988657772
409.0, 0.022572857013742932
410.0, 0.015689257874835237
411.0, 0.010440060291173132
412.0, 0.00802082639134729
413.0, 0.006904064624425962
414.0, 0.005771307500189489
415.0, 0.0034658195589192067
416.0, 0.006914198645373895
417.0, 0.010323781844498437
418.0, 0.00967488906729516
419.0, 0.009927067997316349
420.0, 0.011696078421835877
421.0, 0.01563986967729213
422.0, 0.01911867182447274
423.0, 0.02184197518943043
424.0, 0.026822039307285137
425.0, 0.03156344365735531
426.0, 0.03548733135524522
427.0, 0.04185895921207013
428.0, 0.04829473497866329
429.0, 0.05099542541824651
430.0, 0.05347162908652427
431.0, 0.05821585433625622
432.0, 0.06139434285744077
433.0, 0.06427257133423414
434.0, 0.0678375478364345
435.0, 0.06895278429264874
436.0, 0.06700042857306036
437.0, 0.0636014807659986
438.0, 0.05960859184460554
439.0, 0.05599541363101815
440.0, 0.05371053164682244
441.0, 0.04952359779443679
442.0, 0.04536227207237373
443.0, 0.04021280334493676
444.0, 0.03469405043961432
445.0, 0.030639589298605958
446.0, 0.02513912891647723
447.0, 0.018140788740467432
448.0, 0.010623902339144658
449.0, 0.007049511798811505
450.0, 0.006221331170990778
451.0, 0.0035731861347514196
452.0, 0.0016928196909911097
453.0, 0.0011288459758931463
454.0, 0.0019200901300382568
455.0, 0.0028087759737921133
456.0, 0.001624500514945111
457.0, 0.002059011784875632
458.0, 0.0027341121300153946
459.0, 0.0029705250240214557
460.0, 0.0027890705823996795
461.0, 0.0025772271492151867
462.0, 0.0022456551793342424
463.0, 0.0018528731927021707
464.0, 0.0007349498200481117
465.0, 0.001536793868736962
466.0, 0.002716921610572354
467.0, 0.0017246049151552762
468.0, 0.0012640312953977027
469.0, 0.0015160459041007267
470.0, 0.0025452339696842826
471.0, 0.0031051233155315913
472.0, 0.0013181054226164787
473.0, 0.0005557573317880568
474.0, 0.0006442380267718286
475.0, 0.0020084332625765634
476.0, 0.002215515556426014
477.0, 0.0015279209974346352
478.0, 0.0024558126178582285
479.0, 0.0038188471874186676
480.0, 0.002725565971578044
481.0, 0.0030163772239131296
482.0, 0.0050890857550806926
483.0, 0.0052706341304114696
484.0, 0.008613903722925942
485.0, 0.008339285527245255
486.0, 0.009515053832061032
487.0, 0.012719127733606284
488.0, 0.015077289284754719
489.0, 0.01638326988983346
490.0, 0.019454333207867543
491.0, 0.023502549175916158
492.0, 0.026801547276870074
493.0, 0.030437769643786684
494.0, 0.036551771495206976
495.0, 0.0419189294312174
496.0, 0.04672098618046071
497.0, 0.05112899556246002
498.0, 0.056876255267169405
499.0, 0.06469606095114257
500.0, 0.07327043890872545
501.0, 0.08559377252671097
502.0, 0.09867110353754853
503.0, 0.11057759320750721
504.0, 0.11851982349628029
505.0, 0.11832930555808444
506.0, 0.10613971027481475
507.0, 0.0858303946975794
508.0, 0.06318675114188298
509.0, 0.04534920380110491
510.0, 0.03466813769568587
511.0, 0.02615343227312594
512.0, 0.020277340560473294
513.0, 0.014752267563664287
514.0, 0.012015411952895452
515.0, 0.010745533735181565
516.0, 0.008311203127591977
517.0, 0.005861148440725342
518.0, 0.0064095629806052955
519.0, 0.003967924487242381
520.0, 0.0035982453690790945
521.0, 0.004991410607511571
522.0, 0.0026528162364028024
523.0, 0.0038662562116750583
524.0, 0.003108102248440675
525.0, 0.0036440300567935065
526.0, 0.005698830201284337
527.0, 0.005781073533654082
528.0, 0.004267679217073969
529.0, 0.005698979190091743
530.0, 0.005159409159222265
531.0, 0.005456428725648989
532.0, 0.005855935520251731
533.0, 0.00636169120433601
534.0, 0.007782731082165077
535.0, 0.009020559670854793
536.0, 0.012051084949843353
537.0, 0.016691326080394597
538.0, 0.021492585629998978
539.0, 0.026073733472165073
540.0, 0.03753423818612873
541.0, 0.04119503964820815
542.0, 0.047713104279308444
543.0, 0.0555351855476546
544.0, 0.061506682111296444
545.0, 0.06929251921178842
546.0, 0.0821035339351506
547.0, 0.0943990493735855
548.0, 0.10572146185505531
549.0, 0.12156130524384938
550.0, 0.14329603232500585
551.0, 0.16640102922897843
552.0, 0.1895320299536606
553.0, 0.21673682787589418
554.0, 0.2439597518774388
555.0, 0.2659380327614182
556.0, 0.27763349786786123
557.0, 0.2737684677190581
558.0, 0.25264682740066685
559.0, 0.2199578244514269
560.0, 0.18639923343173073
561.0, 0.15556635429047477
562.0, 0.12909629511845006
563.0, 0.11166095637390844
564.0, 0.10239492896801394
565.0, 0.09796827765887708
566.0, 0.09908009163602652
567.0, 0.10368722312165381
568.0, 0.10998529499985178
569.0, 0.12109202665504298
570.0, 0.13288954029287836
571.0, 0.1440721008164533
572.0, 0.15660605509797357
573.0, 0.17197734112408028
574.0, 0.18905515223723676
575.0, 0.20532547849321248
576.0, 0.21969761056555714
577.0, 0.2320166285338339
578.0, 0.24112614268048646
579.0, 0.24991600919844933
580.0, 0.2609809031229824
581.0, 0.27145446415409386
582.0, 0.2891017134267011
583.0, 0.30672350302385515
584.0, 0.32107498940812296
585.0, 0.32493736557878683
586.0, 0.3086478001093307
587.0, 0.2708719320427656
588.0, 0.2225609814607726
589.0, 0.1728386776299317
590.0, 0.12979024624691562
591.0, 0.09694761029482973
592.0, 0.07384857828026804
593.0, 0.05928821348143998
594.0, 0.0469842243163542
595.0, 0.03868579768544902
596.0, 0.032219238860022995
597.0, 0.025513942073747325
598.0, 0.019896149130419483
599.0, 0.01823582777851802
600.0, 0.016031652701784988
601.0, 0.012633314585619693
602.0, 0.011873038788566695
603.0, 0.010524036646578479
604.0, 0.008544082041575883
605.0, 0.010057449382961907
606.0, 0.006470736399819045
607.0, 0.004252974812254579
608.0, 0.005489775525063597
609.0, 0.005879753275312949
610.0, 0.004136865100103455
611.0, 0.003946450903328787
612.0, 0.004282726061013667
613.0, 0.0032688976172447343
614.0, 0.0029714978867797846
615.0, 0.00294703916118003
616.0, 0.0013648367863128277
617.0, 0.0017393985987032715
618.0, 0.0013748543311613425
619.0, 0.00238829801667107
620.0, 0.0011732127693037644
621.0, 0.001373507163153683
622.0, 0.0025605701909858
623.0, 0.0016104663657256707
624.0, 0.00140225703899108
625.0, 0.0007476162466310127
626.0, 0.002254477630745374
627.0, 0.0016284690865203044
628.0, 0.0007310918034546799
629.0, 0.0009001037843222734
630.0, 0.0012540318216218566
631.0, 0.0010101839873878093
632.0, 0.000698947128089352
633.0, 0.0006635242644521836
634.0, 0.0010008380611328852
635.0, 0.0008593473337131544
636.0, 0.001761000425212727
637.0, 0.0004907337608084632
638.0, 0.0014438259177070058
639.0, 0.0022911585350571966
640.0, 0.0020171814166669057
641.0, 0.00253665231845288
642.0, 0.004228140377005552
643.0, 0.005280777909415504
644.0, 0.006164959943593045
645.0, 0.007167157039104177
646.0, 0.0074937461695056395
647.0, 0.0072507982858758275
648.0, 0.006517787524099941
649.0, 0.0056800709229738325
650.0, 0.005477561433412263
651.0, 0.0035103618456856604
652.0, 0.002399541345820912
653.0, 0.0027429018621026795
654.0, 0.0029210155134932895
655.0, 0.002485777453379333
656.0, 0.0024824280339883803
657.0, 0.0021096816118040267
658.0, 0.0020991029011825668
659.0, 0.003563388589590162
660.0, 0.004567758083754121
661.0, 0.004073705723632709
662.0, 0.0034217241526278306
663.0, 0.0040983332829503515
664.0, 0.003013436772833899
665.0, 0.00376494054973968
666.0, 0.004623039715164418
667.0, 0.004182840597402271
668.0, 0.003970640043690864
669.0, 0.005524423187477202
670.0, 0.006035118547510044
671.0, 0.004742735916025529
672.0, 0.00519452736741221
673.0, 0.004961304724023341
674.0, 0.0045604930750839795
675.0, 0.005117624433196197
676.0, 0.005405369681843782
677.0, 0.004945071568347749
678.0, 0.0036069362887194505
679.0, 0.002769063682241525
680.0, 0.0035793861367155537
681.0, 0.004496721772826235
682.0, 0.00419863554393545
683.0, 0.004433882407407104
684.0, 0.002936326532875161
685.0, 0.00368403062150417
686.0, 0.00508988572218647
687.0, 0.005106603878347319
688.0, 0.0044211361398101105
689.0, 0.004589363056458329
690.0, 0.003818172642839797
691.0, 0.003307431247931542
692.0, 0.003789436620330382
693.0, 0.004291618815139489
694.0, 0.004136227092969208
695.0, 0.00417103399283572
696.0, 0.00542769653628802
697.0, 0.0062449835908741196
698.0, 0.005926501474315159
699.0, 0.0052920971262767885
700.0, 0.005406348536838129
701.0, 0.006142423199429888
702.0, 0.006804376472524728
703.0, 0.007035266314304817
704.0, 0.00768983641852853
705.0, 0.007234617335930685
706.0, 0.0074308873807963
707.0, 0.007238419239412253
708.0, 0.006335284838606376
709.0, 0.005968583084358342
710.0, 0.00651254409335944
711.0, 0.006347409326490034
712.0, 0.007556971449436912
713.0, 0.007860790521857787
714.0, 0.007652105327025346
715.0, 0.007111079633576888
716.0, 0.00678088358006549
717.0, 0.0076626694161034455
718.0, 0.008075329992321271
719.0, 0.006275986948090076
720.0, 0.005299961059981376
721.0, 0.005723982679040474
722.0, 0.006185142452807431
723.0, 0.005664537348860606
724.0, 0.004746759477690123
725.0, 0.004803303009818422
726.0, 0.0029857464416986196
727.0, 0.0046488509329524865
728.0, 0.005030520845047211
729.0, 0.00442555849800641
730.0, 0.004756866499258068
731.0, 0.005121176193670507
732.0, 0.004718332806081908
733.0, 0.0051243238066840105
734.0, 0.003796174133776347
735.0, 0.002776969356184145
736.0, 0.0024224687717458804
737.0, 0.0031358424393700015
738.0, 0.004171242336613899
739.0, 0.0014251944216890924
740.0, 0.0011244354345850047
741.0, 0.0017064360835360212
742.0, 0.001699878598640996
743.0, 0.0014382520225790965
744.0, 0.0018223644148474853
745.0, 0.0020919585137985724
746.0, 0.0005074929389294371
747.0, 0.001130864700532625
748.0, 0.0004998725403452628
749.0, 0.00031677197592598855
750.0, 0.0011003876075984017
751.0, 0.0024747201005665166
752.0, 0.001880409333678586
753.0, 0.0027528497870912346
754.0, 0.001904742649334964
755.0, 0.00033473966378601446
756.0, 0.0008460679640807653
757.0, 0.0011634075343133208
758.0, 0.000750271686140323
759.0, 0.0008484671326288324
760.0, 0.0013493820809681576
761.0, 0.000859112901777404
762.0, 0.0005087560515107007
763.0, 0.00039832803887375815
764.0, 0.00043177911811882036
765.0, 0.0007046092990025995
766.0, 0.0009935220655846746
767.0, 0.0009245749055554912
768.0, 0.0024068419961044236
769.0, 0.00115969086419899
770.0, 0.0017080848485555714
771.0, 0.0038139912563514696
772.0, 0.006288624311710119
773.0, 0.006965489980330242
774.0, 0.007036112239318215
775.0, 0.00932026305241835
776.0, 0.010795030649398064
777.0, 0.01079531180992384
778.0, 0.014267866079529214
779.0, 0.015637517363382515
780.0, 0.018316552054117682
781.0, 0.021167256221936853
782.0, 0.021923953300478603
783.0, 0.02629740496916408
784.0, 0.027112922755032746
785.0, 0.02861131730597928
786.0, 0.02925021407788792
787.0, 0.03040791087346516
788.0, 0.03177031262184956
789.0, 0.03175692566651198
790.0, 0.03118603369298967
791.0, 0.03252908920501236
792.0, 0.03533668758068241
793.0, 0.033891534218164605
794.0, 0.03210867360453626
795.0, 0.03370285251305376
796.0, 0.035391856614663535
797.0, 0.03639900957273552
798.0, 0.038918810167268544
799.0, 0.04044264823605817
800.0, 0.045159691613349394
801.0, 0.04587716382550797
802.0, 0.04742484950582653
803.0, 0.050832175389697185
804.0, 0.05237236225137871
805.0, 0.05087117514574884
806.0, 0.04915740854344085
807.0, 0.0490855763901352
808.0, 0.04565343868450424
809.0, 0.04274790878416215
810.0, 0.03643205075699996
811.0, 0.031159034814281162
812.0, 0.026786056011917372
813.0, 0.021482544407326862
814.0, 0.018442486097222738
815.0, 0.013938224763068146
816.0, 0.011500142942719699
817.0, 0.006894129084611952
818.0, 0.004602334279911962
819.0, 0.002391955956142702
820.0, 0.0007259587561471264
821.0, 0.002298904196171129
822.0, 0.0035670280150329817
823.0, 0.004910576395169725
824.0, 0.004850273777373318
825.0, 0.004231984211552441
826.0, 0.005142084228861427
827.0, 0.004081157395885204
828.0, 0.0011874594742551294
829.0, 0.0004299794965725482
830.0, 0.0004653240782181087
831.0, 0.0018564117018828926
832.0, 0.0028720145841117494
833.0, 0.002653425418539548
834.0, 0.007812916882615175
835.0, 0.013780534100626313
836.0, 0.018510442322348938
837.0, 0.022420404656577856
838.0, 0.025692862598970585
839.0, 0.02967845016411152
840.0, 0.03638329613486235
841.0, 0.04727506350936048
842.0, 0.058742082568944205
843.0, 0.07067007091364104
844.0, 0.0851547088615241
845.0, 0.10090354539009781
846.0, 0.11760128228267942
847.0, 0.13766612858566532
848.0, 0.15750734916981252
849.0, 0.18372491717158965
850.0, 0.2081965022203448
851.0, 0.2354580518073408
852.0, 0.26711702945252475
853.0, 0.3027036928953426
854.0, 0.3421344886111865
855.0, 0.383867165396512
856.0, 0.42526013109745203
857.0, 0.4683556629068526
858.0, 0.5035466576446757
859.0, 0.5306101739306696
860.0, 0.5467604830046866
861.0, 0.5439955665281525
862.0, 0.5221017143150196
863.0, 0.4878046401983453
864.0, 0.44602109006936663
865.0, 0.39977691387687014
866.0, 0.35719222270605283
867.0, 0.32465664935483535
868.0, 0.2984429297657104
869.0, 0.2775666878482589
870.0, 0.2615668168222375
871.0, 0.24775600519749866
872.0, 0.23694521391478368
873.0, 0.23243367800419695
874.0, 0.2270806152858768
875.0, 0.22721131890962049
876.0, 0.22890502305857174
877.0, 0.2326712635646949
878.0, 0.23625833753381142
879.0, 0.23787670261364158
880.0, 0.2367920527670219
881.0, 0.2313495722214195
882.0, 0.21923381296072353
883.0, 0.20078248147124578
884.0, 0.18069384942953243
885.0, 0.16033269131006667
886.0, 0.14371314455420595
887.0, 0.12975658307809634
888.0, 0.12069787385437425
889.0, 0.1137227854478734
890.0, 0.10443180286556533
891.0, 0.10430956126409907
892.0, 0.1060373663935796
893.0, 0.10720224066244433
894.0, 0.1115625951953885
895.0, 0.1167862822535887
896.0, 0.12657236456573043
897.0, 0.1379865623715315
898.0, 0.15223289425635536
899.0, 0.1734219297269731
900.0, 0.19598982956704636
901.0, 0.2202111195369754
902.0, 0.2495325637659655
903.0, 0.27971675232001975
904.0, 0.31511074135832395
905.0, 0.3594844424241528
906.0, 0.41259238142103416
907.0, 0.46821388458895896
908.0, 0.5280746500808006
909.0, 0.6050268950327186
910.0, 0.6880533664375009
911.0, 0.779102434971868
912.0, 0.8700857729846517
913.0, 0.9471099048972722
914.0, 0.9945987402206093
915.0, 0.9884665749179308
916.0, 0.9207534697179125
917.0, 0.8046374057760924
918.0, 0.6645739318443435
919.0, 0.5263846256367286
920.0, 0.41254707548859815
921.0, 0.32185108543005264
922.0, 0.25599938141023393
923.0, 0.20470803472705804
924.0, 0.16764552857201356
925.0, 0.1396348539279426
926.0, 0.11582359351064384
927.0, 0.09754189168906852
928.0, 0.08390825113656677
929.0, 0.07268935022227534
930.0, 0.06398445658550024
931.0, 0.05650148122840868
932.0, 0.050662698416673764
933.0, 0.04503389621072746
934.0, 0.03890700965814041
935.0, 0.03405378948454547
936.0, 0.030291554754547013
937.0, 0.025811286439369554
938.0, 0.02189067197116149
939.0, 0.017990720630417713
940.0, 0.014980867725775972
941.0, 0.012408594668269496
942.0, 0.01029040079971944
943.0, 0.0082950558911298
944.0, 0.007487880331097549
945.0, 0.006681485471475704
946.0, 0.004723914884770399
947.0, 0.003113556625943669
948.0, 0.003002377074636245
949.0, 0.0019168524171179475
950.0, 0.0005916708599573232
951.0, 0.0002249226010787066
952.0, 0.0003306378798424777
953.0, 0.001739562235534522
954.0, 0.0022341780895725545
955.0, 0.0017071487314671723
956.0, 0.0020476579886224058
957.0, 0.0019323270617375536
958.0, 0.0014789966068244694
959.0, 0.002052225532789904
960.0, 0.0012034647007170465
961.0, 0.0032341033566097655
962.0, 0.003303116114203081
963.0, 0.003848802234814665
964.0, 0.0026317033542801937
965.0, 0.0008037997449433504
966.0, 0.0012521953865940823
967.0, 0.0013604327074682502
968.0, 0.00034274154111329185
969.0, 0.00042696152277680834
970.0, 0.0005849241159024249
971.0, 0.0015232940133186807
972.0, 0.0005009474624624247
973.0, 0.0008427579371722643
974.0, 0.0007920085386265255
975.0, 0.0014135881553466855
976.0, 0.0006308075321270081
977.0, 0.0012187882183592443
978.0, 0.0007602151112321436
979.0, 0.0025140409945934384
980.0, 0.0029928688262898483
981.0, 0.0037212289193541345
982.0, 0.0034883330995804673
983.0, 0.00275366059343096
984.0, 0.004235768771083037
985.0, 0.004558297411160203
986.0, 0.0029267235990938275
987.0, 0.002386273902483573
988.0, 0.003381294436407306
989.0, 0.0036436659828604544
990.0, 0.004080161486284587
991.0, 0.004234571689402614
992.0, 0.004887903879501682
993.0, 0.005424629701126395
994.0, 0.006144344234345548
995.0, 0.00737224280088963
996.0, 0.006613423168671717
997.0, 0.006514951801513866
998.0, 0.00647165978332398
999.0, 0.004901892761627026
1000.0, 0.00603919470936618
1001.0, 0.006632950203295758
1002.0, 0.007331057640911224
1003.0, 0.007512288161401786
1004.0, 0.009141650425045576
1005.0, 0.007904599566519498
1006.0, 0.0076564064203383814
1007.0, 0.008920217146982233
1008.0, 0.00919642104426867
1009.0, 0.008576432753635113
1010.0, 0.008729216248467649
1011.0, 0.009566206290790828
1012.0, 0.009912750450204628
1013.0, 0.007835081667017237
1014.0, 0.006401922415647276
1015.0, 0.005643033357455166
1016.0, 0.005439286223999722
1017.0, 0.006356270855142043
1018.0, 0.006612396838894534
1019.0, 0.00723818578359962
1020.0, 0.006442530836373482
1021.0, 0.004395630092416838
1022.0, 0.00479652868155409
1023.0, 0.0043093146549937015
1024.0, 0.003054978856026787
1025.0, 0.004692306438538868
1026.0, 0.004876521701228411
1027.0, 0.004194207561749759
1028.0, 0.004834635009400357
1029.0, 0.0046904143899194565
1030.0, 0.004833373142399414
1031.0, 0.0059531016742841855
1032.0, 0.004691519460128541
1033.0, 0.003966263562229152
1034.0, 0.006966368237818347
1035.0, 0.005395931708380595
1036.0, 0.003682637682068028
1037.0, 0.0022164403097186657
1038.0, 0.0033059818697597177
1039.0, 0.004647632246064366
1040.0, 0.00578390981558783
1041.0, 0.004043500182960026
1042.0, 0.003633495317096999
1043.0, 0.0037310102573020728
1044.0, 0.003214455119465961
1045.0, 0.0034371172340326123
1046.0, 0.0031569136520912806
1047.0, 0.0029746200621668384
1048.0, 0.004530466033003322
1049.0, 0.005528575739975569
1050.0, 0.004072588557317093
1051.0, 0.002259837741447312
1052.0, 0.0024143672498254313
1053.0, 0.0032382788954109266
1054.0, 0.0017584400844876786
1055.0, 0.002292496521676939
1056.0, 0.003189537783838958
1057.0, 0.0028522112742743293
1058.0, 0.0036396205456521364
1059.0, 0.0036041541535164283
1060.0, 0.003948189426960984
1061.0, 0.005773168627304657
1062.0, 0.004230099649990103
1063.0, 0.0015792796974721953
1064.0, 0.0017314778169982884
1065.0, 0.001380753585970874
1066.0, 0.0041210325221005565
1067.0, 0.005009160724636192
1068.0, 0.003447264814088692
1069.0, 0.00396555356998469
1070.0, 0.00513096687593894
1071.0, 0.00395811634679097
1072.0, 0.0032415855803514383
1073.0, 0.0036901614566721896
1074.0, 0.0033963534025924893
1075.0, 0.0032845649592210245
1076.0, 0.003679373174431441
1077.0, 0.00622196531064063
1078.0, 0.0024655780941316967
1079.0, 0.003390556001071671
1080.0, 0.001768880206859672
1081.0, 0.00122680358050496
1082.0, 0.0025087945119340875
1083.0, 0.0032540681139745374
1084.0, 0.004114540133281659
1085.0, 0.003426010574523071
1086.0, 0.003176093269469038
1087.0, 0.002851896059241141
1088.0, 0.0034970239387103028
1089.0, 0.005171943470334623
1090.0, 0.0015134136163038314
1091.0, 0.0026255489650807116
1092.0, 0.0016214176812984135
1093.0, 0.0018680639384062291
1094.0, 0.0021896202387464594
1095.0, 0.0035216515352196
1096.0, 0.003121803920025203
1097.0, 0.003001181564232706
1098.0, 0.004468179540399293
1099.0, 0.003385087812663016
1100.0, 0.0028129504154681653
1101.0, 0.003222334691110256
1102.0, 0.0021314830847856928
1103.0, 0.0028654839507497145
1104.0, 0.001498181823346382
1105.0, 0.0013613555109496015
1106.0, 0.001125296797511086
1107.0, 0.0015682336962783592
1108.0, 0.0016182852694999503
1109.0, 0.0011213471743004425
1110.0, 0.0010351405554296846
1111.0, 0.000739503475145508
1112.0, 0.0012385174050461556
1113.0, 0.0008862346608882107
1114.0, 0.0014507141660270373
1115.0, 0.0012997671472764279
1116.0, 0.0007848643908095268
1117.0, 0.001661526002508096
1118.0, 0.0005375701171934192
1119.0, 0.0006987879602882489
1120.0, 0.0009663750428713679
1121.0, 0.0014411276146534453
1122.0, 0.0004389242736774013
1123.0, 0.0010441079710188437
1124.0, 0.000485310089328629
1125.0, 0.00043030456526852145
1126.0, 0.0005653844269431096
1127.0, 0.00041908863609715246
1128.0, 0.0004612365822795384
1129.0, 0.0005244526203395329
1130.0, 0.002312876456351626
1131.0, 0.00029270001009929804
1132.0, 0.001120855064345948
1133.0, 0.0015684170769978934
1134.0, 0.0009234321793083402
1135.0, 0.0021549090025294376
1136.0, 0.005091054606292842
1137.0, 0.006081444300835817
1138.0, 0.007026534407123081
1139.0, 0.008426282906482157
1140.0, 0.009337529193165668
1141.0, 0.010630986118596556
1142.0, 0.011450773685574931
1143.0, 0.013633004223728897
1144.0, 0.018796229395936084
1145.0, 0.02037189539455722
1146.0, 0.024982860652336222
1147.0, 0.02889339384101493
1148.0, 0.03499453350910896
1149.0, 0.03717916447131109
1150.0, 0.03802983734493989
1151.0, 0.03664057657937821
1152.0, 0.02958059761428486
1153.0, 0.021675694337454463
1154.0, 0.014737108426687502
1155.0, 0.010939862722272242
1156.0, 0.00858950003559739
1157.0, 0.0049975630840577295
1158.0, 0.0032815261469082363
1159.0, 0.004024000874696242
1160.0, 0.0043302652483951
1161.0, 0.004244462398265735
1162.0, 0.0025116391883475155
1163.0, 0.002929391556169575
1164.0, 0.002400409222972741
1165.0, 0.0026995743898688305
1166.0, 0.003104069641901324
1167.0, 0.0025375686323589586
1168.0, 0.002157270686921511
1169.0, 0.001760748623359385
1170.0, 0.001407220344382485
1171.0, 0.0023155372159209342
1172.0, 0.002984407537330912
1173.0, 0.002727302760295183
1174.0, 0.0013331363447275802
1175.0, 0.0009792104052354978
1176.0, 0.001604261715840677
1177.0, 0.0015035104167128736
1178.0, 0.001283952188200594
1179.0, 0.0005127511101179279
1180.0, 0.0011001227585973234
1181.0, 0.0002987196340212428
1182.0, 0.0005182882354697341
1183.0, 0.0012448555338571965
1184.0, 0.0009484107806567228
1185.0, 0.0022623666797792004
1186.0, 0.0007848575652650741
1187.0, 0.0004023731004793636
1188.0, 0.000548672437486983
1189.0, 0.0003034388860908446
1190.0, 0.000461984059183109
1191.0, 0.0005291012638428682
1192.0, 0.0005525481698395539
1193.0, 0.0006825477695159769
1194.0, 0.0007224509511984576
1195.0, 0.0007742871765340681
1196.0, 0.0015126221266026421
1197.0, 0.0005908808713652485
1198.0, 0.0017525604009375323
1199.0, 0.0007417506604565457
1200.0, 0.00247868300287793
1201.0, 0.0020137408680783796
1202.0, 0.0009434691250873155
1203.0, 0.0026275694612763354
1204.0, 0.0017646898442952076
1205.0, 0.0009452361159543511
1206.0, 0.0015719198004258287
1207.0, 0.0012695704990399008
1208.0, 0.00041788379104600786
1209.0, 0.0011428239556233412
1210.0, 0.0019705766112634677
1211.0, 0.0032191194676957687
1212.0, 0.003320902292088893
1213.0, 0.0014720551692817894
1214.0, 0.0017037139897477399
1215.0, 0.0019039514432334598
1216.0, 0.0011328991527659272
1217.0, 0.0026060544860250557
1218.0, 0.002053705272559551
1219.0, 0.002211630710987139
1220.0, 0.003144809844636333
1221.0, 0.0013679946671096926
1222.0, 0.002000214898945421
1223.0, 0.0022533659738062217
1224.0, 0.0026015348257219426
1225.0, 0.0031070577839139605
1226.0, 0.0053304396851749205
1227.0, 0.003825127430250332
1228.0, 0.0033050209778032894
1229.0, 0.005904713551440472
1230.0, 0.004962631959895725
1231.0, 0.005396069067391759
1232.0, 0.006322349214119901
1233.0, 0.005619729354179428
1234.0, 0.005596871411954672
1235.0, 0.007638402863894446
1236.0, 0.008893022338084759
1237.0, 0.00990943599799756
1238.0, 0.012464877080556895
1239.0, 0.013243081970969595
1240.0, 0.01272510100357959
1241.0, 0.014144263385469185
1242.0, 0.01383045047474311
1243.0, 0.014010528830945182
1244.0, 0.01208157578320435
1245.0, 0.01217238801034769
1246.0, 0.011103623712987466
1247.0, 0.010066201766516108
1248.0, 0.011727718055743495
1249.0, 0.010521429692136684
1250.0, 0.006799336601122019
1251.0, 0.007732029613719281
1252.0, 0.006722328402103682
1253.0, 0.005052965525963149
1254.0, 0.004513128189425584
1255.0, 0.004744443960907297
1256.0, 0.004007585466547474
1257.0, 0.003650712849693395
1258.0, 0.004777524893386668
1259.0, 0.0031898076732752175
1260.0, 0.002000059625531649
1261.0, 0.0027294422368935667
1262.0, 0.0033248586029669684
1263.0, 0.0037452471034757737
1264.0, 0.0032005585117987935
1265.0, 0.002309395236745204
1266.0, 0.002258498345618359
1267.0, 0.002436371871749983
1268.0, 0.0012161544505835539
1269.0, 0.0015118285054794762
1270.0, 0.0015332551120252826
1271.0, 0.0006709371753982532
1272.0, 0.0004686824811177327
1273.0, 0.0010198267089527669
1274.0, 0.00047696210592201735
1275.0, 0.00037460189437875255
1276.0, 0.0002961876981715691
1277.0, 0.0005769118996627628
1278.0, 0.0005828892337075593
1279.0, 0.0007955089516281237
1280.0, 0.000645608259033362
1281.0, 0.00021714890400563938
1282.0, 0.0006980735989887163
1283.0, 0.0007340455260604055
1284.0, 0.0002209879145401427
1285.0, 0.00044450763077463155
1286.0, 0.00037051710638156746
1287, 0.0
1288, 0.0
1289, 0.0
1290, 0.0
1291, 0.0
1292, 0.0
1293, 0.0
1294, 0.0
1295, 0.0
1296, 0.0
1297, 0.0
1298, 0.0
1299, 0.0
1300, 0.0
1301, 0.0
1302, 0.0
1303, 0.0
1304, 0.0
1305, 0.0
1306, 0.0
1307, 0.0
1308, 0.0
1309, 0.0
1310, 0.0
1311, 0.0
1312, 0.0
1313, 0.0
1314, 0.0
1315, 0.0
1316, 0.0
1317, 0.0
1318, 0.0
1319, 0.0
1320, 0.0
1321, 0.0
1322, 0.0
1323, 0.0
1324, 0.0
1325, 0.0
1326, 0.0
1327, 0.0
1328, 0.0
1329, 0.0
1330, 0.0
1331, 0.0
1332, 0.0
1333, 0.0
1334, 0.0
1335, 0.0
1336, 0.0
1337, 0.0
1338, 0.0
1339, 0.0
1340, 0.0
1341, 0.0
1342, 0.0
1343, 0.0
1344, 0.0
1345, 0.0
1346, 0.0
1347, 0.0
1348, 0.0
1349, 0.0
1350, 0.0
1351, 0.0
1352, 0.0
1353, 0.0
1354, 0.0
1355, 0.0
1356, 0.0
1357, 0.0
1358, 0.0
1359, 0.0
1360, 0.0
1361, 0.0
1362, 0.0
1363, 0.0
1364, 0.0
1365, 0.0
1366, 0.0
1367, 0.0
1368, 0.0
1369, 0.0
1370, 0.0
1371, 0.0
1372, 0.0
1373, 0.0
1374, 0.0
1375, 0.0
1376, 0.0
1377, 0.0
1378, 0.0
1379, 0.0
1380, 0.0
1381, 0.0
1382, 0.0
1383, 0.0
1384, 0.0
1385, 0.0
1386, 0.0
1387, 0.0
1388, 0.0
1389, 0.0
1390, 0.0
1391, 0.0
1392, 0.0
1393, 0.0
1394, 0.0
1395, 0.0
1396, 0.0
1397, 0.0
1398, 0.0
1399, 0.0
1400, 0.0
1401, 0.0
1402, 0.0
1403, 0.0
1404, 0.0
1405, 0.0
1406, 0.0
1407, 0.0
1408, 0.0
1409, 0.0
1410, 0.0
1411, 0.0
1412, 0.0
1413, 0.0
1414, 0.0
1415, 0.0
1416, 0.0
1417, 0.0
1418, 0.0
1419, 0.0
1420, 0.0
1421, 0.0
1422, 0.0
1423, 0.0
1424, 0.0
1425, 0.0
1426, 0.0
1427, 0.0
1428, 0.0
1429, 0.0
1430, 0.0
1431, 0.0
1432, 0.0
1433, 0.0
1434, 0.0
1435, 0.0
1436, 0.0
1437, 0.0
1438, 0.0
1439, 0.0
1440, 0.0
1441, 0.0
1442, 0.0
1443, 0.0
1444, 0.0
1445, 0.0
1446, 0.0
1447, 0.0
1448, 0.0
1449, 0.0
1450, 0.0
1451, 0.0
1452, 0.0
1453, 0.0
1454, 0.0
1455, 0.0
1456, 0.0
1457, 0.0
1458, 0.0
1459, 0.0
1460, 0.0
1461, 0.0
1462, 0.0
1463, 0.0
1464, 0.0
1465, 0.0
1466, 0.0
1467, 0.0
1468, 0.0
1469, 0.0
1470, 0.0
1471, 0.0
1472, 0.0
1473, 0.0
1474, 0.0
1475, 0.0
1476, 0.0
1477, 0.0
1478, 0.0
1479, 0.0
1480, 0.0
1481, 0.0
1482, 0.0
1483, 0.0
1484, 0.0
1485, 0.0
1486, 0.0
1487, 0.0
1488, 0.0
1489, 0.0
1490, 0.0
1491, 0.0
1492, 0.0
1493, 0.0
1494, 0.0
1495, 0.0
1496, 0.0
1497, 0.0
1498, 0.0
1499, 0.0
1500, 0.0
1501, 0.0
1502, 0.0
1503, 0.0
1504, 0.0
1505, 0.0
1506, 0.0
1507, 0.0
1508, 0.0
1509, 0.0
1510, 0.0
1511, 0.0
1512, 0.0
1513, 0.0
1514, 0.0
1515, 0.0
1516, 0.0
1517, 0.0
1518, 0.0
1519, 0.0
1520, 0.0
1521, 0.0
1522, 0.0
1523, 0.0
1524, 0.0
1525, 0.0
1526, 0.0
1527, 0.0
1528, 0.0
1529, 0.0
1530, 0.0
1531, 0.0
1532, 0.0
1533, 0.0
1534, 0.0
1535, 0.0
1536, 0.0
1537, 0.0
1538, 0.0
1539, 0.0
1540, 0.0
1541, 0.0
1542, 0.0
1543, 0.0
1544, 0.0
1545, 0.0
1546, 0.0
1547, 0.0
1548, 0.0
1549, 0.0
1550, 0.0
1551, 0.0
1552, 0.0
1553, 0.0
1554, 0.0
1555, 0.0
1556, 0.0
1557, 0.0
1558, 0.0
1559, 0.0
1560, 0.0
1561, 0.0
1562, 0.0
1563, 0.0
1564, 0.0
1565, 0.0
1566, 0.0
1567, 0.0
1568, 0.0
1569, 0.0
1570, 0.0
1571, 0.0
1572, 0.0
1573, 0.0
1574, 0.0
1575, 0.0
1576, 0.0
1577, 0.0
1578, 0.0
1579, 0.0
1580, 0.0
1581, 0.0
1582, 0.0
1583, 0.0
1584, 0.0
1585, 0.0
1586, 0.0
1587, 0.0
1588, 0.0
1589, 0.0
1590, 0.0
1591, 0.0
1592, 0.0
1593, 0.0
1594, 0.0
1595, 0.0
1596, 0.0
1597, 0.0
1598, 0.0
1599, 0.0
