30, 0.0
31, 0.0
32, 0.0
33, 0.0
34, 0.0
35, 0.0
36, 0.0
37, 0.0
38, 0.0
39, 0.0
40, 0.0
41, 0.0
42, 0.0
43, 0.0
44, 0.0
45, 0.0
46, 0.0
47, 0.0
48, 0.0
49, 0.0
50, 0.0
51, 0.0
52, 0.0
53, 0.0
54, 0.0
55, 0.0
56, 0.0
57, 0.0
58, 0.0
59, 0.0
60, 0.0
61, 0.0
62, 0.0
63, 0.0
64, 0.0
65, 0.0
66, 0.0
67, 0.0
68, 0.0
69, 0.0
70, 0.0
71, 0.0
72, 0.0
73, 0.0
74, 0.0
75, 0.0
76, 0.0
77, 0.0
78, 0.0
79, 0.0
80, 0.0
81, 0.0
82, 0.0
83, 0.0
84, 0.0
85, 0.0
86, 0.0
87, 0.0
88, 0.0
89, 0.0
90, 0.0
91, 0.0
92, 0.0
93, 0.0
94, 0.0
95, 0.0
96, 0.0
97, 0.0
98, 0.0
99, 0.0
100, 0.0
101, 0.0
102, 0.0
103, 0.0
104, 0.0
105, 0.0
106, 0.0
107, 0.0
108, 0.0
109.0, 0.0005871667716931449
110.0, 0.006159077747398218
111.0, 0.011013697168830498
112.0, 0.00631193808667141
113.0, 0.011007179837797882
114.0, 0.0295510879450732
115.0, 0.058350940465016446
116.0, 0.08971879965159099
117.0, 0.11469415357852106
118.0, 0.13802949775819848
119.0, 0.16387803505263984
120.0, 0.19501227737627808
121.0, 0.24095536638294382
122.0, 0.2794896853600344
123.0, 0.3193710090061148
124.0, 0.3686487217291069
125.0, 0.395734609257468
126.0, 0.4485825606705693
127.0, 0.5270977216540688
128.0, 0.614912255330966
129.0, 0.6827432345609104
130.0, 0.7334367515553507
131.0, 0.6901792416949879
132.0, 0.5554285340161949
133.0, 0.4024292314342546
134.0, 0.27488814891338065
135.0, 0.18454693404844802
136.0, 0.13564025232976767
137.0, 0.1329284849148503
138.0, 0.16359236898116408
139.0, 0.16181456663183522
140.0, 0.13466822424075467
141.0, 0.108088961772698
142.0, 0.07793575848311009
143.0, 0.043438688376444684
144.0, 0.01303927949273013
145.0, 0.002499796742209302
146.0, 0.0017861019283813618
147.0, 0.01172049989482546
148.0, 0.025994031376208926
149.0, 0.04414609627673795
150.0, 0.07625307492962949
151.0, 0.1270926385245083
152.0, 0.16871140936507006
153.0, 0.1997333204964195
154.0, 0.24097961646066296
155.0, 0.30764727983996315
156.0, 0.35252739185411636
157.0, 0.3919850059808418
158.0, 0.4347627621511995
159.0, 0.43980536757044236
160.0, 0.4217064838569212
161.0, 0.40612267180830636
162.0, 0.40542840768190963
163.0, 0.4130789427187178
164.0, 0.4198725813584423
165.0, 0.43881459042484866
166.0, 0.4629223385824183
167.0, 0.4841271676439254
168.0, 0.5258866091378247
169.0, 0.5713783984808362
170.0, 0.6094949459316458
171.0, 0.6425695701306482
172.0, 0.690261092550963
173.0, 0.7242463411966615
174.0, 0.7644860731643383
175.0, 0.8072465140232274
176.0, 0.8101459651502417
177.0, 0.775475414547926
178.0, 0.6749110296066854
179.0, 0.525685956357644
180.0, 0.37686970666811
181.0, 0.24116536491304272
182.0, 0.14746862540751465
183.0, 0.09266713610026704
184.0, 0.05916100766299162
185.0, 0.03582133282892367
186.0, 0.010571874169840808
187.0, 0.005081512548232531
188.0, 0.0076953825582614125
189.0, 0.004416239663517685
190.0, 0.0028826310917419106
191.0, 0.01001735296541834
192.0, 0.015172428530375127
193.0, 0.0012527476457090572
194.0, 0.008895597735286014
195.0, 0.0048728720164396685
196.0, 0.0036489062658961284
197.0, 0.004081939804989223
198.0, 0.008744614161385791
199.0, 0.006114762534198326
200.0, 0.003418490636033015
201.0, 0.0070397189011491045
202.0, 0.0011905664721046003
203.0, 0.0035205383595666917
204.0, 0.0007996356447957677
205.0, 0.008277239022224749
206.0, 0.012345556883557492
207.0, 0.001731461082973249
208.0, 0.005155845784935349
209.0, 0.00420463182362395
210.0, 0.006200516533901422
211.0, 0.002858696349595573
212.0, 0.009916744320335966
213.0, 0.015049888566995075
214.0, 0.018673705674602362
215.0, 0.025646200432504557
216.0, 0.027700143418796504
217.0, 0.033888134914676196
218.0, 0.04559381782760771
219.0, 0.05519071319828294
220.0, 0.054668844972420166
221.0, 0.06038530726103747
222.0, 0.06312859826708332
223.0, 0.07120026795557803
224.0, 0.0901615193375349
225.0, 0.09935053518944394
226.0, 0.09183517207313141
227.0, 0.10356286031464046
228.0, 0.1304302989456898
229.0, 0.11926483989687553
230.0, 0.13315405434298994
231.0, 0.1434004882218577
232.0, 0.14800464126226354
233.0, 0.16077871722795103
234.0, 0.17405301886711924
235.0, 0.18863019306209544
236.0, 0.2023982403533583
237.0, 0.21108800330279384
238.0, 0.20818029441165667
239.0, 0.18718920015244436
240.0, 0.1761875190610409
241.0, 0.16914881944200152
242.0, 0.15230852567921574
243.0, 0.1497900628678464
244.0, 0.1387208863268132
245.0, 0.13352230755807673
246.0, 0.13007076429109163
247.0, 0.10408165610061718
248.0, 0.09182212243787574
249.0, 0.09092334559187991
250.0, 0.08196826735317649
251.0, 0.0616759976594382
252.0, 0.061233054625963325
253.0, 0.061168989101835096
254.0, 0.059380939275634204
255.0, 0.0579975174225493
256.0, 0.05868368921056526
257.0, 0.055639901411554234
258.0, 0.05782050836318289
259.0, 0.0584341108006514
260.0, 0.05859597497117497
261.0, 0.07239972493635971
262.0, 0.07491139665044907
263.0, 0.07371866922617965
264.0, 0.08126017178636531
265.0, 0.09715425652112449
266.0, 0.08874251298784974
267.0, 0.10778622931444037
268.0, 0.11996319897297046
269.0, 0.11631512227693011
270.0, 0.13291609173985505
271.0, 0.144549118577556
272.0, 0.14629896500860218
273.0, 0.15131972033786767
274.0, 0.16998975896011367
275.0, 0.18398706232232867
276.0, 0.19451389620650378
277.0, 0.21044150991505745
278.0, 0.22892167030385174
279.0, 0.2393422973098309
280.0, 0.25347010451308155
281.0, 0.2576283719060759
282.0, 0.2594902374924228
283.0, 0.26859574615533083
284.0, 0.2818802954436975
285.0, 0.293456394804318
286.0, 0.29791252337875973
287.0, 0.29374568486037317
288.0, 0.28605570673131986
289.0, 0.28408515885375835
290.0, 0.2766876413614096
291.0, 0.2668924530630208
292.0, 0.2530047148554215
293.0, 0.2343560490673708
294.0, 0.2265047275496829
295.0, 0.21874492402878143
296.0, 0.207236585048396
297.0, 0.19770682737281653
298.0, 0.2027622067697295
299.0, 0.18481473143285534
300.0, 0.1773256067061036
301.0, 0.17862687832561824
302.0, 0.17741341464843247
303.0, 0.1687547648340836
304.0, 0.1590888322616149
305.0, 0.15070978669473442
306.0, 0.14292305671110936
307.0, 0.13185311963645133
308.0, 0.11430917071951441
309.0, 0.10348436057782393
310.0, 0.09158133297717196
311.0, 0.07399108953627269
312.0, 0.05492492277983176
313.0, 0.038702315629940004
314.0, 0.04229524972315614
315.0, 0.04184483163099046
316.0, 0.028998286907770107
317.0, 0.015642310053711556
318.0, 0.017672576289638087
319.0, 0.01945994562385052
320.0, 0.015039657946319049
321.0, 0.010601983088212348
322.0, 0.018115870032424746
323.0, 0.019470880491624508
324.0, 0.008261419004213963
325.0, 0.00033039795317123987
326.0, 0.007302765963993212
327.0, 0.011550521961757494
328.0, 0.008807994717021702
329.0, 0.005216470067505032
330.0, 0.0024813002218337732
331.0, 0.0007640903088995132
332.0, 0.0020991930097114474
333.0, 0.006603026379960539
334.0, 0.006185283848516855
335.0, 0.0034671531043744077
336.0, 0.00700941790580631
337.0, 0.009452201652201555
338.0, 0.0016857108099770177
339.0, 0.005704138802978688
340.0, 0.010835084209047139
341.0, 0.0004200490856726404
342.0, 0.003966529168556605
343.0, 0.008426739398912846
344.0, 0.016426002540312675
345.0, 0.02117225384148163
346.0, 0.014207010889418042
347.0, 0.015599185835776883
348.0, 0.0161638968842832
349.0, 0.02344066611855274
350.0, 0.032331228066026195
351.0, 0.02461057307766287
352.0, 0.015553609934654943
353.0, 0.02516169974392913
354.0, 0.03532108283238455
355.0, 0.03355960053963326
356.0, 0.030781383182141818
357.0, 0.03087945640780141
358.0, 0.037348766785577366
359.0, 0.045609954314160976
360.0, 0.051156290281701704
361.0, 0.053669732584481857
362.0, 0.046570899488783055
363.0, 0.04697212416281463
364.0, 0.04428159088466243
365.0, 0.03666189647089481
366.0, 0.04099651743571177
367.0, 0.031954272541014066
368.0, 0.02584715924296588
369.0, 0.022768431028491142
370.0, 0.01945650234183631
371.0, 0.017618821343689885
372.0, 0.011193923856845112
373.0, 0.005747059855839084
374.0, 0.006079616973520605
375.0, 0.008261744138420318
376.0, 0.003287546363454486
377.0, 0.00103294535645177
378.0, 0.0029948915311202753
379.0, 0.00436660942720528
380.0, 0.004177140048409874
381.0, 0.006543563065110849
382.0, 0.002619935511925673
383.0, 0.003745276105138073
384.0, 0.006358135154739855
385.0, 0.00351395128133887
386.0, 0.0009513468874828201
387.0, 0.0049216011465120025
388.0, 0.004819773691001889
389.0, 0.00812179015803081
390.0, 0.0011239621386886953
391.0, 0.00050767546332407
392.0, 0.005431770493597749
393.0, 0.005027280654628055
394.0, 0.0015421720964267059
395.0, 0.0021646084998788893
396.0, 0.012516998483633971
397.0, 0.006374115959096928
398.0, 0.0019337204670394714
399.0, 0.002635400972535653
400.0, 0.001030579659758741
401.0, 0.001406520986159886
402.0, 0.010315100666478033
403.0, 0.007850012192313405
404.0, 0.004510064247281188
405.0, 0.007102127609572447
406.0, 0.006991474102710291
407.0, 0.002151330226170766
408.0, 0.006703791689119878
409.0, 0.010516380004428321
410.0, 0.0076709034429656795
411.0, 0.003146820863108304
412.0, 0.01015340399482804
413.0, 0.012499895651391212
414.0, 0.009032772317543557
415.0, 0.008876773773619942
416.0, 0.012370763006191787
417.0, 0.006175233378877906
418.0, 0.009609833576389979
419.0, 0.010807773354938214
420.0, 0.011816194411477247
421.0, 0.014424456719410108
422.0, 0.012892292086085616
423.0, 0.015459422707529829
424.0, 0.021597293906291417
425.0, 0.025775777806234985
426.0, 0.023840273845572628
427.0, 0.018321472332160377
428.0, 0.02059614727505725
429.0, 0.03724512424637339
430.0, 0.04699700496411599
431.0, 0.0415602900782341
432.0, 0.03199823353136109
433.0, 0.04680967689226255
434.0, 0.04671033329415795
435.0, 0.043698349760727596
436.0, 0.045591630844759104
437.0, 0.0504667089019608
438.0, 0.051061565288865116
439.0, 0.05651138829932124
440.0, 0.0652271453921517
441.0, 0.07665904462443754
442.0, 0.08729561142734762
443.0, 0.09006749698528328
444.0, 0.08909089118316978
445.0, 0.09662594745927197
446.0, 0.09465314321231035
447.0, 0.07955539260409467
448.0, 0.06670284610192832
449.0, 0.04751967166499511
450.0, 0.03609282176566614
451.0, 0.03136347023713751
452.0, 0.027724474377440154
453.0, 0.02162671537589232
454.0, 0.014897666119595684
455.0, 0.01252414401574647
456.0, 0.011760547669446833
457.0, 0.007810446792697102
458.0, 0.0038159287789426084
459.0, 0.007298827057483505
460.0, 0.011094072193383576
461.0, 0.012003520174656541
462.0, 0.013467108710454652
463.0, 0.01078336202711182
464.0, 0.0026132719343853333
465.0, 0.008118407650415247
466.0, 0.005323152856331818
467.0, 0.00154897689567214
468.0, 0.0038091545196563725
469.0, 0.0018808777599688899
470.0, 0.004093553839463757
471.0, 0.008958620239442215
472.0, 0.006047250685471777
473.0, 0.0018707874452686148
474.0, 0.0031732605519485726
475.0, 0.0023297835365662023
476.0, 0.0011045429241855773
477.0, 0.0032744019261086357
478.0, 0.003341422314475455
479.0, 0.00047467157637669607
480.0, 0.0011679619663169708
481.0, 0.001845650407945998
482.0, 0.0034865028714332474
483.0, 0.003239927874415811
484.0, 0.0005461617421083228
485.0, 0.000833625701433204
486.0, 0.003895467895268196
487.0, 0.006781255389221192
488.0, 0.00420327126381943
489.0, 0.0046370435311822045
490.0, 0.005401134609648339
491.0, 0.002065290802993716
492.0, 0.00962604075938075
493.0, 0.008061721267273808
494.0, 0.008429502651090024
495.0, 0.007219138804643092
496.0, 0.003552826316411506
497.0, 0.004805202331511476
498.0, 0.0024238318513614167
499.0, 0.007703298289938895
500.0, 0.007277508629906203
501.0, 0.004557649808839242
502.0, 0.006791328890457046
503.0, 0.0017884096689964049
504.0, 0.007223929732683616
505.0, 0.005904756599735431
506.0, 0.00481871008710125
507.0, 0.008129073367704558
508.0, 0.00961795289436761
509.0, 0.016618056671913305
510.0, 0.01588037281722105
511.0, 0.01597782529553074
512.0, 0.02055991141941813
513.0, 0.023097828135512248
514.0, 0.01984724123524995
515.0, 0.025760269599015066
516.0, 0.023864697697273587
517.0, 0.029370182906043266
518.0, 0.03855300879140549
519.0, 0.04004186288311708
520.0, 0.043972578785784665
521.0, 0.044146658228189584
522.0, 0.05241731929375851
523.0, 0.05665027043543429
524.0, 0.05578736852239624
525.0, 0.06216211134887059
526.0, 0.06402420857415873
527.0, 0.06376933592002912
528.0, 0.06256683092897357
529.0, 0.0616304181803206
530.0, 0.06069634812427957
531.0, 0.06074368949168143
532.0, 0.0638466587324654
533.0, 0.06941334741812422
534.0, 0.06649760892874226
535.0, 0.06337986254265769
536.0, 0.0672015107991553
537.0, 0.06508385636559787
538.0, 0.06468612138603883
539.0, 0.06574009148432446
540.0, 0.06344505695186826
541.0, 0.05614280646607109
542.0, 0.050533788513791256
543.0, 0.05606284810445822
544.0, 0.05522954441742535
545.0, 0.053705937574435474
546.0, 0.05123492477350172
547.0, 0.05379266782052779
548.0, 0.06248897697973718
549.0, 0.060004496764311105
550.0, 0.07045762607217407
551.0, 0.07800690465537632
552.0, 0.08055620623678034
553.0, 0.07952199943497351
554.0, 0.07625763168741556
555.0, 0.08570281316192693
556.0, 0.1128428608233377
557.0, 0.11739928245879162
558.0, 0.1131594085983731
559.0, 0.11886324624416664
560.0, 0.1319757725018279
561.0, 0.1403169200557504
562.0, 0.13711320261705748
563.0, 0.14843639878492382
564.0, 0.1560032615784995
565.0, 0.1523485162087731
566.0, 0.1553666691861939
567.0, 0.14937877544273026
568.0, 0.1352809262853391
569.0, 0.12090662591126176
570.0, 0.11175755231660445
571.0, 0.10647921718093677
572.0, 0.09772498354421422
573.0, 0.07918805559334814
574.0, 0.07641356031704888
575.0, 0.07523201350080107
576.0, 0.07340458015865774
577.0, 0.07071380288658032
578.0, 0.059619706873678194
579.0, 0.04957123266548673
580.0, 0.057829139588807824
581.0, 0.0634280481240263
582.0, 0.05467348586914104
583.0, 0.046577469990994054
584.0, 0.052381907625416335
585.0, 0.03870618061927679
586.0, 0.03376005458453881
587.0, 0.040272354782507624
588.0, 0.040925550993983026
589.0, 0.032576102677456614
590.0, 0.027163635788481477
591.0, 0.029250077594093003
592.0, 0.03787046852210179
593.0, 0.027721189703023993
594.0, 0.014062673089394594
595.0, 0.01373537343509397
596.0, 0.023212481480714968
597.0, 0.030608001548517855
598.0, 0.025232940185854272
599.0, 0.022257834147804904
600.0, 0.02046048052547546
601.0, 0.016173398796469538
602.0, 0.011462438841226009
603.0, 0.010937101584882508
604.0, 0.016805357498130925
605.0, 0.01785306630223447
606.0, 0.02343797898758821
607.0, 0.028574869386727295
608.0, 0.024104243252132042
609.0, 0.021626629705922572
610.0, 0.023913434951738765
611.0, 0.01703543671226059
612.0, 0.011829542598717947
613.0, 0.015289484261581613
614.0, 0.02066013731230641
615.0, 0.016861420477438445
616.0, 0.0116144702255401
617.0, 0.014751359809623988
618.0, 0.01828005062965374
619.0, 0.013953572796187079
620.0, 0.008882672344960997
621.0, 0.01207553448876887
622.0, 0.00908952708317459
623.0, 0.010416928774925545
624.0, 0.01287613683243368
625.0, 0.00575910167122157
626.0, 0.001350616291879228
627.0, 0.005340551164912167
628.0, 0.0010487149553152922
629.0, 0.0005103307405836654
630.0, 0.004113914871661291
631.0, 0.0023166974036703163
632.0, 0.005368403724090458
633.0, 0.011445282845369468
634.0, 0.0041833718956661645
635.0, 0.0014573146565849343
636.0, 0.0010597653851493094
637.0, 0.0026053788435761514
638.0, 0.00423544450183837
639.0, 0.005525814376152484
640.0, 0.00462011040917597
641.0, 0.0010862592290540392
642.0, 0.0018186017719523644
643.0, 0.0013937861298007617
644.0, 0.002247039818048337
645.0, 0.004831184226681772
646.0, 0.002444329817163176
647.0, 0.001209265461419887
648.0, 0.0026155369101573634
649.0, 0.001112058439771058
650.0, 0.007060321835321731
651.0, 0.008556738608071893
652.0, 0.001259541620475787
653.0, 0.006005599636123595
654.0, 0.007689022634740601
655.0, 0.007890137678919412
656.0, 0.009401755702207559
657.0, 0.010230251600909833
658.0, 0.01183604577617317
659.0, 0.011945313951202005
660.0, 0.0041018772415019195
661.0, 0.01287377845180599
662.0, 0.027219125248849944
663.0, 0.02776684056924729
664.0, 0.028175379716707374
665.0, 0.03105834053715703
666.0, 0.017237028387970504
667.0, 0.030004279655241578
668.0, 0.03051650427555793
669.0, 0.035369864126249775
670.0, 0.03677218612194936
671.0, 0.0406337159097777
672.0, 0.048573989672497854
673.0, 0.04121660223020635
674.0, 0.04799261147696042
675.0, 0.04887891263158449
676.0, 0.05842622706762547
677.0, 0.06298301309998043
678.0, 0.0578945163397945
679.0, 0.05728003303667634
680.0, 0.06342248357370471
681.0, 0.04935586249900364
682.0, 0.04607801903787533
683.0, 0.04113082245466171
684.0, 0.0292010193004004
685.0, 0.021136648273682255
686.0, 0.022761844974356266
687.0, 0.022030117683246267
688.0, 0.011985314074334657
689.0, 0.013480373565482399
690.0, 0.021995818404415383
691.0, 0.020286662842593745
692.0, 0.009469422064606405
693.0, 0.009426357053534512
694.0, 0.013038630905055063
695.0, 0.010252097089329407
696.0, 0.019193900303523304
697.0, 0.014105473069383026
698.0, 0.00497806763175211
699.0, 0.008655370631248823
700.0, 0.012655766186714271
701.0, 0.007750443457498829
702.0, 0.008007569708152591
703.0, 0.005624949569205116
704.0, 0.004583383417603496
705.0, 0.0032030878193156113
706.0, 0.0027781927996738923
707.0, 0.007830729875895752
708.0, 0.004386046758872938
709.0, 0.004654779691774228
710.0, 0.009081839836504159
711.0, 0.010500972958956436
712.0, 0.0071397718073840264
713.0, 0.0045691555035096585
714.0, 0.00444356911532885
715.0, 0.0007064301024546502
716.0, 0.004129408868317346
717.0, 0.01101533680290916
718.0, 0.007269833519258931
719.0, 0.0022567203238823275
720.0, 0.007589801877189521
721.0, 0.009912003309629372
722.0, 0.004689116123744965
723.0, 0.0012168274516233975
724.0, 0.007597046140893456
725.0, 0.014676810778501316
726.0, 0.010388370881073722
727.0, 0.0014044266991177076
728.0, 0.0018461683097906903
729.0, 0.00022337717884683662
730.0, 0.005859646142330571
731.0, 0.011685300883980006
732.0, 0.011609247892383804
733.0, 0.007853091132916412
734.0, 0.007236469186259782
735.0, 0.011259727487884823
736.0, 0.012528102648804405
737.0, 0.006420646259199093
738.0, 0.006792047529256018
739.0, 0.012408286350826494
740.0, 0.01183040618467404
741.0, 0.008693323941825162
742.0, 0.011218401798346548
743.0, 0.004710318842426618
744.0, 0.0006375787517683841
745.0, 0.010212469999169378
746.0, 0.011856659852342535
747.0, 0.017734582923316755
748.0, 0.01735024398830495
749.0, 0.007119566419158325
750.0, 0.015007224594617587
751.0, 0.0054798866441853975
752.0, 0.008752857473524616
753.0, 0.014857003444084981
754.0, 0.016300555544453622
755.0, 0.011624743150441751
756.0, 0.010772491548500454
757.0, 0.01772735985361326
758.0, 0.004712992249020294
759.0, 0.0024311746965883455
760.0, 0.010017660608388837
761.0, 0.011906982562626038
762.0, 0.010746871332232276
763.0, 0.01196461487083925
764.0, 0.010778728037065099
765.0, 0.009571699882555186
766.0, 0.008087298387148029
767.0, 0.004310629868945863
768.0, 0.004491255095836531
769.0, 0.00989718362074678
770.0, 0.011165833953064823
771.0, 0.0038531492543329828
772.0, 0.0025741631086635057
773.0, 0.008339545047901749
774.0, 0.006167201561513877
775.0, 0.004537447088018657
776.0, 0.0011915666866346049
777.0, 0.003966633231372066
778.0, 0.011384403960960398
779.0, 0.009450184427330963
780.0, 0.0020881617836639972
781.0, 0.00741264895827883
782.0, 0.0010522234713535106
783.0, 0.005017474715441922
784.0, 0.0036576909727765554
785.0, 0.010555998340464862
786.0, 0.005398659560676204
787.0, 0.0007445322591697732
788.0, 0.000791182806063427
789.0, 0.002504893265773073
790.0, 0.010475715865336289
791.0, 0.0048460383923364546
792.0, 0.0038494054824091497
793.0, 0.0027542874452207576
794.0, 0.0016031377356114105
795.0, 0.0006488078279368278
796.0, 0.0024891573453480827
797.0, 0.0006326420525835881
798.0, 0.0011744440210961712
799.0, 0.000493394721632775
800.0, 0.00014138051739545908
801.0, 0.0036957556113793727
802.0, 0.009853878992335604
803.0, 0.004338199812488677
804.0, 0.009541067752060733
805.0, 0.006182362135103345
806.0, 0.0020731346037698474
807.0, 0.0025612164337376884
808.0, 0.004024105556530582
809.0, 0.004665553142963102
810.0, 0.003865922496577843
811.0, 0.00023357284007810818
812.0, 0.008193682950576904
813.0, 0.007139042061192095
814.0, 0.006666877599877238
815.0, 0.006634862739026188
816.0, 0.009338922068171905
817.0, 0.006004704440429478
818.0, 0.004675443308866081
819.0, 0.004155570684033139
820.0, 0.006936569763811339
821.0, 0.009296925169051246
822.0, 0.0031784384612448817
823.0, 0.004157731894442664
824.0, 0.006752669681548994
825.0, 0.0032397970865164502
826.0, 0.002005569747542486
827.0, 0.0023361084014676394
828.0, 0.0023747976860425293
829.0, 0.013679971870140951
830.0, 0.007632302383757942
831.0, 0.0007752593858420159
832.0, 0.0069760603706180745
833.0, 0.008561448938854157
834.0, 0.0023345656755008877
835.0, 0.00843190487378371
836.0, 0.010577982671133624
837.0, 0.005794681073524293
838.0, 0.0031024972284717047
839.0, 0.004569956136668006
840.0, 0.01113228307184651
841.0, 0.01420528620517439
842.0, 0.009042163120364165
843.0, 0.004230519934769231
844.0, 0.009931140420434782
845.0, 0.018852779594582203
846.0, 0.014133494658337565
847.0, 0.011033759255489231
848.0, 0.010357392034854895
849.0, 0.0160912553130666
850.0, 0.016092156252899073
851.0, 0.016802034622666058
852.0, 0.03655341122401261
853.0, 0.02650774319537271
854.0, 0.03108789736735135
855.0, 0.03166230067664557
856.0, 0.027447124706359467
857.0, 0.027263587877697212
858.0, 0.027223290489771842
859.0, 0.027057722093471463
860.0, 0.03657814586581312
861.0, 0.04612995466141871
862.0, 0.03826284232808399
863.0, 0.050820148556250694
864.0, 0.058352452056853604
865.0, 0.05732919598999691
866.0, 0.05677892512181688
867.0, 0.06319990154239084
868.0, 0.07952634691715096
869.0, 0.09878871768505984
870.0, 0.10541511806213387
871.0, 0.1194763853959509
872.0, 0.13994360933544076
873.0, 0.160909207367142
874.0, 0.19769233417781565
875.0, 0.22281352367899
876.0, 0.25531974268413654
877.0, 0.3064124926079317
878.0, 0.32657987697049684
879.0, 0.36675772957790836
880.0, 0.40854077413511686
881.0, 0.4656848173798172
882.0, 0.5231596415975533
883.0, 0.5745244661605522
884.0, 0.6312256035895671
885.0, 0.6948765829489675
886.0, 0.7630921372924123
887.0, 0.8368875786853537
888.0, 0.8825145058331918
889.0, 0.9415596076546644
890.0, 0.9886484847710079
891.0, 0.9993267163062721
892.0, 0.999193380524969
893.0, 0.9802706499575949
894.0, 0.9356555908267487
895.0, 0.8904488501128174
896.0, 0.8544187214796714
897.0, 0.7877453157641442
898.0, 0.7308588034852046
899.0, 0.6780161293207607
900.0, 0.6297334986083021
901.0, 0.5759114338427589
902.0, 0.5063133003106364
903.0, 0.45043995226353317
904.0, 0.41809543143045647
905.0, 0.37590203067819916
906.0, 0.35071118761308184
907.0, 0.3054557818297637
908.0, 0.2785227020026217
909.0, 0.24940591043595767
910.0, 0.22123937861028461
911.0, 0.2048781693499455
912.0, 0.1854705552601486
913.0, 0.16527922983839935
914.0, 0.15626879872849214
915.0, 0.13701641485053515
916.0, 0.1219945556637666
917.0, 0.10485806758223634
918.0, 0.09498328488935392
919.0, 0.08294593690495462
920.0, 0.07762585943041818
921.0, 0.07193083078137698
922.0, 0.06358660832554525
923.0, 0.06341706783327702
924.0, 0.062190570650022
925.0, 0.05397455680535597
926.0, 0.049780406440105264
927.0, 0.048406438875676853
928.0, 0.04356430974369436
929.0, 0.045523833240072295
930.0, 0.044718647874901776
931.0, 0.041592903427860005
932.0, 0.04183211619333252
933.0, 0.043552413141511634
934.0, 0.045663263667393185
935.0, 0.049051302344412996
936.0, 0.055593906293589485
937.0, 0.0516437162901309
938.0, 0.050691258423750836
939.0, 0.05153263944841392
940.0, 0.04690275821588969
941.0, 0.04881853702328317
942.0, 0.05511976781993472
943.0, 0.05247415346270124
944.0, 0.0617828499611679
945.0, 0.050586024627803004
946.0, 0.042442308863940195
947.0, 0.041240084949944994
948.0, 0.03285609298755857
949.0, 0.01855246261438792
950.0, 0.012778522330738116
951.0, 0.016426206647824713
952.0, 0.016213429614016735
953.0, 0.008134423280890176
954.0, 0.001243980378032902
955.0, 0.0007778782377649117
956.0, 0.0013482020490710278
957.0, 0.0010736054900270082
958.0, 0.002444083106022948
959.0, 0.0017386220813068467
960.0, 0.002560518351273789
961.0, 0.002878566925933206
962.0, 0.002106920186368727
963.0, 0.002533927100956324
964.0, 0.0010259089148624673
965.0, 6.865752363462491e-05
966.0, 0.001178263913176937
967.0, 0.0007575892234688318
968.0, 0.006300416972767487
969.0, 0.002948670994944889
970.0, 0.0017771056442650853
971.0, 0.004869729820233947
972.0, 0.003659197121669933
973.0, 9.523081154113797e-05
974.0, 0.002237745602802778
975.0, 0.0017714581184168844
976.0, 0.0009973419325635035
977.0, 0.0021541339341343084
978.0, 0.0039543194627082
979.0, 0.0013673578559828302
980.0, 0.0018757972613475224
981.0, 0.0013919314868290438
982.0, 0.001348780292444974
983.0, 0.0009571160364863999
984.0, 0.0009108827412231055
985.0, 0.0033365362796865515
986.0, 0.00020463926397220022
987.0, 0.003272417606093079
988.0, 0.0019978195242579726
989.0, 0.009248215875765617
990.0, 0.004853275153780728
991.0, 0.005598159018247898
992.0, 0.004975482688861634
993.0, 0.0007891025806123538
994.0, 0.00228243752674514
995.0, 0.003900798937572425
996.0, 0.008423384923854423
997.0, 0.010815547625694578
998.0, 0.0076096720444001975
999.0, 0.011108750061944807
1000.0, 0.006327202780650835
1001.0, 0.0073449429644683335
1002.0, 0.008859405055962916
1003.0, 0.009998918204148886
1004.0, 0.01236290506113804
1005.0, 0.015062667019977024
1006.0, 0.015345887267903464
1007.0, 0.013111396682777228
1008.0, 0.015966537137592697
1009.0, 0.014387857017132513
1010.0, 0.02101722902019528
1011.0, 0.024136323729225966
1012.0, 0.022088374613028244
1013.0, 0.02550253969487774
1014.0, 0.028767922779202086
1015.0, 0.03591180408164843
1016.0, 0.041255761993701665
1017.0, 0.032755031437287835
1018.0, 0.029662226837342175
1019.0, 0.039858000551494285
1020.0, 0.036675466012963225
1021.0, 0.034483334541083585
1022.0, 0.03370205105123031
1023.0, 0.036221760062568276
1024.0, 0.031018255387851336
1025.0, 0.024819765775738137
1026.0, 0.022133822398500005
1027.0, 0.022813522660078432
1028.0, 0.024403528672458433
1029.0, 0.025233500032167948
1030.0, 0.025141131116544566
1031.0, 0.01574681450266648
1032.0, 0.018593530198857247
1033.0, 0.015703662573013033
1034.0, 0.015805964261968484
1035.0, 0.01258857509376299
1036.0, 0.010265838689935743
1037.0, 0.011619446310480824
1038.0, 0.017274757508585682
1039.0, 0.015123546562316941
1040.0, 0.009844548535413607
1041.0, 0.010904742771819458
1042.0, 0.007285584838981538
1043.0, 0.007666852317545681
1044.0, 0.006923508692553965
1045.0, 0.005377386136860684
1046.0, 0.0029859900634668607
1047.0, 0.007298505277976025
1048.0, 0.00841886803221243
1049.0, 0.0062944138495264436
1050.0, 0.005058387104354763
1051.0, 0.006513087337483478
1052.0, 0.008547760672583317
1053.0, 0.012241658939978022
1054.0, 0.015279533714822723
1055.0, 0.008348336129689448
1056.0, 0.00881724981693037
1057.0, 0.009934817408388833
1058.0, 0.006316108540091144
1059.0, 0.0037290587254055706
1060.0, 0.006059205655751583
1061.0, 0.01018624549570393
1062.0, 0.013550002268910325
1063.0, 0.0078005298254901585
1064.0, 0.006863050578735357
1065.0, 0.0071619540658272906
1066.0, 0.0029212246834084367
1067.0, 0.008864675362639305
1068.0, 0.011546257028960371
1069.0, 0.00677570036370084
1070.0, 0.007420192218884372
1071.0, 0.0008767436397467464
1072.0, 0.007129304993749526
1073.0, 0.003754963375765553
1074.0, 0.0011039002344558776
1075.0, 0.0008443928661361905
1076.0, 0.005600200439081178
1077.0, 0.010617357276030656
1078.0, 0.008276145566997125
1079.0, 0.0037067876709553638
1080.0, 0.006003930289210525
1081.0, 0.011854020315653142
1082.0, 0.006258714661305505
1083.0, 0.0021134687758610597
1084.0, 0.007732622016529027
1085.0, 0.004014786684017144
1086.0, 0.0034483524496993065
1087.0, 0.006498498147802601
1088.0, 0.0050306448636608945
1089.0, 0.008571048852119206
1090.0, 0.006519159120623733
1091.0, 0.0009965712445550166
1092.0, 0.003502771247833108
1093.0, 0.008559049709503178
1094.0, 0.005924385689933964
1095.0, 0.008234150240810515
1096.0, 0.010339024258161689
1097.0, 0.0017978346173627188
1098.0, 0.0031541687646665746
1099.0, 0.004409937799903723
1100.0, 0.002336518756708204
1101.0, 0.002835360572853995
1102.0, 0.0061205152702530335
1103.0, 0.007159286209580918
1104.0, 0.005840222668154713
1105.0, 0.002763403796817085
1106.0, 0.0019372700918215127
1107.0, 0.0012933009705997601
1108.0, 0.003332162864166271
1109.0, 0.0032224618622033927
1110.0, 0.009558280485390033
1111.0, 0.0024962638850691836
1112.0, 0.006366075959093356
1113.0, 0.004648002127440802
1114.0, 0.0025246433049962345
1115.0, 0.005997199479526
1116.0, 0.005912394852136858
1117.0, 0.0024990763351287093
1118.0, 0.004607310556214275
1119.0, 0.0028056095705193914
1120.0, 0.0019484507408240935
1121.0, 0.006075075890210857
1122.0, 0.00732950001170361
1123.0, 0.004506530982348619
1124.0, 0.0018158509949456863
1125.0, 0.009944718222191918
1126.0, 0.0047945686305844466
1127.0, 0.001593741208022322
1128.0, 0.0019254562578198025
1129.0, 0.00479535428306065
1130.0, 0.006711733646459602
1131.0, 0.008870402897481037
1132.0, 0.005082742058864275
1133.0, 0.0016699797669502995
1134.0, 0.0023011735493883227
1135.0, 0.007122920440137389
1136.0, 0.009098628561063409
1137.0, 0.007070208083163558
1138.0, 0.008044937881463238
1139.0, 0.008422142951069772
1140.0, 0.006903068524511269
1141.0, 0.0020544048343659927
1142.0, 0.003146266945870788
1143.0, 0.007697899763868882
1144.0, 0.006098877073215126
1145.0, 0.0069555031133817355
1146.0, 0.0010546991813270598
1147.0, 0.0017799418812094634
1148.0, 0.005570417006080151
1149.0, 0.008016582706383649
1150.0, 0.005110595067470733
1151.0, 0.002743577327252408
1152.0, 0.006627731753167004
1153.0, 0.01335532291057027
1154.0, 0.010904662052465864
1155.0, 0.0026847753213459762
1156.0, 0.004104098529029917
1157.0, 0.0016186225835714072
1158.0, 0.0015568673835610579
1159.0, 0.010746264447245857
1160.0, 0.01305366601187525
1161.0, 0.004065243152903337
1162.0, 0.00436423896360519
1163.0, 0.0023417879744217253
1164.0, 0.003359987729896462
1165.0, 0.007965173005473059
1166.0, 0.008187191923883936
1167.0, 0.007427558234057448
1168.0, 0.0024107906324004414
1169.0, 0.0019007565542041786
1170.0, 0.004764028494983551
1171.0, 0.004736533220309233
1172.0, 0.0044805999246253945
1173.0, 0.0059299799289493065
1174.0, 0.010231668127731955
1175.0, 0.00562456812084148
1176.0, 0.012195095886667494
1177.0, 0.010939393595339368
1178.0, 0.0006132946003162379
1179.0, 0.010142852072180238
1180.0, 0.00991295777761562
1181.0, 0.002717389274379505
1182.0, 0.012974587862916234
1183.0, 0.0061808308320639264
1184.0, 0.000854414415330925
1185.0, 0.007152185697098973
1186.0, 0.012359878317741399
1187.0, 0.01173110441240615
1188.0, 0.009443814931810216
1189.0, 0.008810087710001469
1190.0, 0.007901434732164498
1191.0, 0.006640459071452886
1192.0, 0.006498362895845115
1193.0, 0.0032003769182641626
1194.0, 0.0038853554835873326
1195.0, 0.007749936789591511
1196.0, 0.010621929727839239
1197.0, 0.01337714228002387
1198.0, 0.004088476748190148
1199.0, 0.000954577161140848
1200.0, 0.007269858075342407
1201.0, 0.0119906825679561
1202.0, 0.0055641472018999084
1203.0, 0.0011952766728332968
1204.0, 0.00044835897440938336
1205.0, 0.003786805050144942
1206.0, 0.012095787637355415
1207.0, 0.010523782608769407
1208.0, 0.009693314023994091
1209.0, 0.009538672625062784
1210.0, 0.007771991757325921
1211.0, 0.013141036576897419
1212.0, 0.014793043082479772
1213.0, 0.010786735231308782
1214.0, 0.0024652141247009977
1215.0, 0.000918981907684299
1216.0, 0.006601988711661195
1217.0, 0.0055394821652944145
1218.0, 0.009415026436281908
1219.0, 0.004334372531236363
1220.0, 0.00118405416907734
1221.0, 0.004533880686039133
1222.0, 0.003195582692418368
1223.0, 0.0006055635293177022
1224.0, 0.004647726355415722
1225.0, 0.002956126795895948
1226.0, 0.0003203378439452393
1227.0, 0.007245962833194417
1228.0, 0.011093100001313022
1229.0, 0.012194291177346725
1230.0, 0.005670691538379635
1231.0, 0.004484884243739207
1232.0, 0.00964658789853614
1233.0, 0.009174880341661206
1234.0, 0.01131290449549408
1235.0, 0.0022702520483944533
1236.0, 0.004935899787993623
1237.0, 0.009707451072407334
1238.0, 0.009138689997283653
1239.0, 0.005115857751409058
1240.0, 0.004926003317992943
1241.0, 0.007982782109002337
1242.0, 0.004673752213173554
1243.0, 0.005779400564645392
1244.0, 0.0014291472401650666
1245.0, 0.0045636714355077376
1246.0, 0.008185729990343744
1247.0, 0.003005360393827976
1248.0, 0.0001382848405861716
1249.0, 0.004176021683346836
1250.0, 0.008113066069227765
1251.0, 0.0025526939262824487
1252.0, 0.003845275092611955
1253.0, 0.010623774381846265
1254.0, 0.005344859232772675
1255.0, 0.005018797903565815
1256.0, 0.006526701956096415
1257.0, 8.296964709831404e-05
1258.0, 0.0005645175921062983
1259, 0.0
1260, 0.0
1261, 0.0
1262, 0.0
1263, 0.0
1264, 0.0
1265, 0.0
1266, 0.0
1267, 0.0
1268, 0.0
1269, 0.0
1270, 0.0
1271, 0.0
1272, 0.0
1273, 0.0
1274, 0.0
1275, 0.0
1276, 0.0
1277, 0.0
1278, 0.0
1279, 0.0
1280, 0.0
1281, 0.0
1282, 0.0
1283, 0.0
1284, 0.0
1285, 0.0
1286, 0.0
1287, 0.0
1288, 0.0
1289, 0.0
1290, 0.0
1291, 0.0
1292, 0.0
1293, 0.0
1294, 0.0
1295, 0.0
1296, 0.0
1297, 0.0
1298, 0.0
1299, 0.0
1300, 0.0
1301, 0.0
1302, 0.0
1303, 0.0
1304, 0.0
1305, 0.0
1306, 0.0
1307, 0.0
1308, 0.0
1309, 0.0
1310, 0.0
1311, 0.0
1312, 0.0
1313, 0.0
1314, 0.0
1315, 0.0
1316, 0.0
1317, 0.0
1318, 0.0
1319, 0.0
1320, 0.0
1321, 0.0
1322, 0.0
1323, 0.0
1324, 0.0
1325, 0.0
1326, 0.0
1327, 0.0
1328, 0.0
1329, 0.0
1330, 0.0
1331, 0.0
1332, 0.0
1333, 0.0
1334, 0.0
1335, 0.0
1336, 0.0
1337, 0.0
1338, 0.0
1339, 0.0
1340, 0.0
1341, 0.0
1342, 0.0
1343, 0.0
1344, 0.0
1345, 0.0
1346, 0.0
1347, 0.0
1348, 0.0
1349, 0.0
1350, 0.0
1351, 0.0
1352, 0.0
1353, 0.0
1354, 0.0
1355, 0.0
1356, 0.0
1357, 0.0
1358, 0.0
1359, 0.0
1360, 0.0
1361, 0.0
1362, 0.0
1363, 0.0
1364, 0.0
1365, 0.0
1366, 0.0
1367, 0.0
1368, 0.0
1369, 0.0
1370, 0.0
1371, 0.0
1372, 0.0
1373, 0.0
1374, 0.0
1375, 0.0
1376, 0.0
1377, 0.0
1378, 0.0
1379, 0.0
1380, 0.0
1381, 0.0
1382, 0.0
1383, 0.0
1384, 0.0
1385, 0.0
1386, 0.0
1387, 0.0
1388, 0.0
1389, 0.0
1390, 0.0
1391, 0.0
1392, 0.0
1393, 0.0
1394, 0.0
1395, 0.0
1396, 0.0
1397, 0.0
1398, 0.0
1399, 0.0
1400, 0.0
1401, 0.0
1402, 0.0
1403, 0.0
1404, 0.0
1405, 0.0
1406, 0.0
1407, 0.0
1408, 0.0
1409, 0.0
1410, 0.0
1411, 0.0
1412, 0.0
1413, 0.0
1414, 0.0
1415, 0.0
1416, 0.0
1417, 0.0
1418, 0.0
1419, 0.0
1420, 0.0
1421, 0.0
1422, 0.0
1423, 0.0
1424, 0.0
1425, 0.0
1426, 0.0
1427, 0.0
1428, 0.0
1429, 0.0
1430, 0.0
1431, 0.0
1432, 0.0
1433, 0.0
1434, 0.0
1435, 0.0
1436, 0.0
1437, 0.0
1438, 0.0
1439, 0.0
1440, 0.0
1441, 0.0
1442, 0.0
1443, 0.0
1444, 0.0
1445, 0.0
1446, 0.0
1447, 0.0
1448, 0.0
1449, 0.0
1450, 0.0
1451, 0.0
1452, 0.0
1453, 0.0
1454, 0.0
1455, 0.0
1456, 0.0
1457, 0.0
1458, 0.0
1459, 0.0
1460, 0.0
1461, 0.0
1462, 0.0
1463, 0.0
1464, 0.0
1465, 0.0
1466, 0.0
1467, 0.0
1468, 0.0
1469, 0.0
1470, 0.0
1471, 0.0
1472, 0.0
1473, 0.0
1474, 0.0
1475, 0.0
1476, 0.0
1477, 0.0
1478, 0.0
1479, 0.0
1480, 0.0
1481, 0.0
1482, 0.0
1483, 0.0
1484, 0.0
1485, 0.0
1486, 0.0
1487, 0.0
1488, 0.0
1489, 0.0
1490, 0.0
1491, 0.0
1492, 0.0
1493, 0.0
1494, 0.0
1495, 0.0
1496, 0.0
1497, 0.0
1498, 0.0
1499, 0.0
1500, 0.0
1501, 0.0
1502, 0.0
1503, 0.0
1504, 0.0
1505, 0.0
1506, 0.0
1507, 0.0
1508, 0.0
1509, 0.0
1510, 0.0
1511, 0.0
1512, 0.0
1513, 0.0
1514, 0.0
1515, 0.0
1516, 0.0
1517, 0.0
1518, 0.0
1519, 0.0
1520, 0.0
1521, 0.0
1522, 0.0
1523, 0.0
1524, 0.0
1525, 0.0
1526, 0.0
1527, 0.0
1528, 0.0
1529, 0.0
1530, 0.0
1531, 0.0
1532, 0.0
1533, 0.0
1534, 0.0
1535, 0.0
1536, 0.0
1537, 0.0
1538, 0.0
1539, 0.0
1540, 0.0
1541, 0.0
1542, 0.0
1543, 0.0
1544, 0.0
1545, 0.0
1546, 0.0
1547, 0.0
1548, 0.0
1549, 0.0
1550, 0.0
1551, 0.0
1552, 0.0
1553, 0.0
1554, 0.0
1555, 0.0
1556, 0.0
1557, 0.0
1558, 0.0
1559, 0.0
1560, 0.0
1561, 0.0
1562, 0.0
1563, 0.0
1564, 0.0
1565, 0.0
1566, 0.0
1567, 0.0
1568, 0.0
1569, 0.0
1570, 0.0
1571, 0.0
1572, 0.0
1573, 0.0
1574, 0.0
1575, 0.0
1576, 0.0
1577, 0.0
1578, 0.0
1579, 0.0
1580, 0.0
1581, 0.0
1582, 0.0
1583, 0.0
1584, 0.0
1585, 0.0
1586, 0.0
1587, 0.0
1588, 0.0
1589, 0.0
1590, 0.0
1591, 0.0
1592, 0.0
1593, 0.0
1594, 0.0
1595, 0.0
1596, 0.0
1597, 0.0
1598, 0.0
1599, 0.0
