30, 0.0
31, 0.0
32, 0.0
33, 0.0
34, 0.0
35, 0.0
36, 0.0
37, 0.0
38, 0.0
39, 0.0
40, 0.0
41, 0.0
42, 0.0
43, 0.0
44, 0.0
45, 0.0
46, 0.0
47, 0.0
48, 0.0
49, 0.0
50, 0.0
51, 0.0
52, 0.0
53, 0.0
54, 0.0
55, 0.0
56, 0.0
57, 0.0
58, 0.0
59, 0.0
60, 0.0
61, 0.0
62, 0.0
63, 0.0
64, 0.0
65, 0.0
66, 0.0
67, 0.0
68, 0.0
69, 0.0
70, 0.0
71, 0.0
72, 0.0
73, 0.0
74, 0.0
75, 0.0
76, 0.0
77, 0.0
78, 0.0
79, 0.0
80, 0.0
81, 0.0
82, 0.0
83, 0.0
84, 0.0
85, 0.0
86, 0.0
87, 0.0
88, 0.0
89, 0.0
90, 0.0
91.0, 0.00026987998061355287
92.0, 0.0010409656395094307
93.0, 0.0012890973190197962
94.0, 0.001582356284700809
95.0, 0.001970830137794871
96.0, 0.0025636057370240976
97.0, 0.003906667980423866
98.0, 0.005130919564195467
99.0, 0.005769825413964071
100.0, 0.004357602665013905
101.0, 0.003783414256613722
102.0, 0.0033668408435201923
103.0, 0.0008816013679111485
104.0, 0.001164417793982858
105.0, 0.0017712193181683735
106.0, 0.0017980485748803742
107.0, 0.0036954175342567186
108.0, 0.004681441967710297
109.0, 0.004486415329893269
110.0, 0.002131335993710928
111.0, 0.00107793474733029
112.0, 0.0008780882733200813
113.0, 0.0014686072889829706
114.0, 0.002873243227697757
115.0, 0.0037821265427013255
116.0, 0.004281647129351383
117.0, 0.004370677861445025
118.0, 0.0036902622653664594
119.0, 0.0029330297944646206
120.0, 0.0023961084068473393
121.0, 0.0037987755263547605
122.0, 0.0034328485863624834
123.0, 0.0030183554190536003
124.0, 0.004352891269141369
125.0, 0.004246212667579242
126.0, 0.003567441890248972
127.0, 0.0029276260529333444
128.0, 0.005280826887112374
129.0, 0.006926010856328628
130.0, 0.010988370587176794
131.0, 0.02007494067542267
132.0, 0.03601268976515229
133.0, 0.06174652755711991
134.0, 0.09131091200595536
135.0, 0.1053196251611537
136.0, 0.08219285559239153
137.0, 0.05249196170218588
138.0, 0.027878866939043238
139.0, 0.015592369576374008
140.0, 0.009082382558979522
141.0, 0.005958834157114465
142.0, 0.0025300769600788025
143.0, 0.0011857423854666593
144.0, 0.00047063946712313706
145.0, 0.00011783595848063351
146.0, 0.0005706633111959834
147.0, 0.0005956690006457193
148.0, 0.00045873378987027776
149.0, 0.0004012394063536238
150.0, 0.002606193767401326
151.0, 0.005590793008328248
152.0, 0.009837093141548257
153.0, 0.018765350239538237
154.0, 0.025855613926972176
155.0, 0.029326853170075298
156.0, 0.027595895661105773
157.0, 0.02283598027496199
158.0, 0.018840942151954875
159.0, 0.017621717516342436
160.0, 0.02470271626743071
161.0, 0.034511996654187985
162.0, 0.05774558014509751
163.0, 0.09992375549050198
164.0, 0.18605568711563963
165.0, 0.28539638167059156
166.0, 0.3602941329231126
167.0, 0.3592677339114289
168.0, 0.23382282644201016
169.0, 0.13188571752955186
170.0, 0.06938602425665986
171.0, 0.04322172631049116
172.0, 0.03096242902712758
173.0, 0.02471718320311177
174.0, 0.020966054033723223
175.0, 0.022362584616772006
176.0, 0.030589301356675872
177.0, 0.043403407815961595
178.0, 0.05685447934452503
179.0, 0.06782274182079974
180.0, 0.0653400857434235
181.0, 0.04756883151367826
182.0, 0.02926199022820767
183.0, 0.018486602557655614
184.0, 0.01205947243509455
185.0, 0.007957471096338068
186.0, 0.006881493786165581
187.0, 0.0060301987833939604
188.0, 0.0054922277828700515
189.0, 0.006386930243601577
190.0, 0.007475766244158355
191.0, 0.01077344925815081
192.0, 0.017028890846789282
193.0, 0.02007076145673192
194.0, 0.01792893120392988
195.0, 0.013632897040805666
196.0, 0.010895493028362398
197.0, 0.007321670629433313
198.0, 0.006701656098381321
199.0, 0.00891590612988595
200.0, 0.01095273841548674
201.0, 0.013177189450836726
202.0, 0.013597313137820878
203.0, 0.010986670758561651
204.0, 0.007532213148618245
205.0, 0.005520637370094386
206.0, 0.004385375661605598
207.0, 0.0032823831162789793
208.0, 0.004238763102196643
209.0, 0.005258472121433325
210.0, 0.006183607704420092
211.0, 0.008303362883554847
212.0, 0.010352118261724864
213.0, 0.011748198526399257
214.0, 0.0120381781810059
215.0, 0.01679941503791669
216.0, 0.02678831195478012
217.0, 0.043856210573484156
218.0, 0.07328917223820602
219.0, 0.08729225663156995
220.0, 0.08094614009964766
221.0, 0.05618794197765266
222.0, 0.03686891049843139
223.0, 0.021601344044150865
224.0, 0.011543037898350924
225.0, 0.008179981037045855
226.0, 0.0058130234408753385
227.0, 0.0037160768705657766
228.0, 0.0022034086791976456
229.0, 0.002062272970566278
230.0, 0.001739140785114735
231.0, 0.0016001925038695703
232.0, 0.001613294624777127
233.0, 0.001066675836966523
234.0, 0.0004343495151298989
235.0, 3.8832814762917145e-05
236.0, 0.00010145905533702514
237.0, 0.0001017531689957998
238.0, 0.0002780122019151588
239.0, 0.000489213501528453
240.0, 0.0004863677223745824
241.0, 0.0006356678655060363
242.0, 0.000942534561777263
243.0, 0.001281663913423607
244.0, 0.0009775169996616801
245.0, 0.0007768761668071954
246.0, 0.0004888634864901088
247.0, 2.723986568117244e-05
248.0, 0.0001143635813592153
249.0, 0.0005622247342669454
250.0, 0.000996359730373557
251.0, 0.0008957162893109276
252.0, 0.000567230513224007
253.0, 0.0006113127958822762
254.0, 0.0008414821459281146
255.0, 0.0003303214206375913
256.0, 0.00039481514644901293
257.0, 0.00045715334879046
258.0, 0.0003439772367269105
259.0, 0.000509610467604559
260.0, 0.0007814448068999012
261.0, 0.0010717827852816982
262.0, 0.0013018299054294283
263.0, 0.0017952274861460287
264.0, 0.002578167614918342
265.0, 0.0033465562416751075
266.0, 0.0033604154257320037
267.0, 0.005536156670763219
268.0, 0.007608610847369122
269.0, 0.009498382575700817
270.0, 0.013975737483849617
271.0, 0.01926587136552927
272.0, 0.025569063375491034
273.0, 0.03307511290869096
274.0, 0.04071106692805623
275.0, 0.04265146688126239
276.0, 0.040316038555565176
277.0, 0.03499109995975639
278.0, 0.025575938045785996
279.0, 0.018376854174174145
280.0, 0.01376668362669982
281.0, 0.011193564676207104
282.0, 0.009355624223263928
283.0, 0.008735269739658161
284.0, 0.009245109325517495
285.0, 0.00820515346391615
286.0, 0.010281522339280532
287.0, 0.012782860733750791
288.0, 0.013894493304931036
289.0, 0.020186434023083493
290.0, 0.030832539457316767
291.0, 0.04390929563120024
292.0, 0.05666429965189129
293.0, 0.07034421677489326
294.0, 0.06879020658476394
295.0, 0.05439334569973082
296.0, 0.04154567740811685
297.0, 0.0300374247006401
298.0, 0.021026477505478057
299.0, 0.015018437401268327
300.0, 0.012310119019804769
301.0, 0.00980574215021012
302.0, 0.008075835604210546
303.0, 0.0075784999737354645
304.0, 0.006537875485834037
305.0, 0.0058188153016612825
306.0, 0.005373363673874249
307.0, 0.005164136532208326
308.0, 0.0048292230926626455
309.0, 0.004884634342604507
310.0, 0.005014551654923927
311.0, 0.004090030079182597
312.0, 0.004457052590501989
313.0, 0.0043926594563362415
314.0, 0.0037036914512197762
315.0, 0.004239087934777161
316.0, 0.004982744375914363
317.0, 0.005493236043738283
318.0, 0.005562261743777727
319.0, 0.0065455058113226905
320.0, 0.007566172276203449
321.0, 0.009165829736353583
322.0, 0.011996216532014504
323.0, 0.014293295612345994
324.0, 0.01426341372217714
325.0, 0.013277187153883098
326.0, 0.014265866936860138
327.0, 0.012520273724251883
328.0, 0.013536402502109794
329.0, 0.017320693283370523
330.0, 0.020423062305501213
331.0, 0.027207005890714907
332.0, 0.03555232978618927
333.0, 0.04419355399167242
334.0, 0.0475222754203567
335.0, 0.0481293917146326
336.0, 0.04296435696883067
337.0, 0.029952459782649765
338.0, 0.021443480574251616
339.0, 0.01579991735950762
340.0, 0.012085295865486092
341.0, 0.00943717948585161
342.0, 0.008794606022734491
343.0, 0.007669352317594993
344.0, 0.006910384214114452
345.0, 0.008574454250417836
346.0, 0.008183317695136102
347.0, 0.008228566180704965
348.0, 0.009020718185711787
349.0, 0.010374194835454612
350.0, 0.010059678591242396
351.0, 0.010867920128416426
352.0, 0.013149059118769955
353.0, 0.013506906840846196
354.0, 0.016010431370058423
355.0, 0.019478873642624288
356.0, 0.023450863724783534
357.0, 0.02921771814467367
358.0, 0.03802087636837706
359.0, 0.04729540803499465
360.0, 0.05493255737050886
361.0, 0.0724595868146979
362.0, 0.08072479961169933
363.0, 0.0837087544785415
364.0, 0.08676938049369459
365.0, 0.07599308503821735
366.0, 0.06225662418749261
367.0, 0.0490838864921717
368.0, 0.042583891738903625
369.0, 0.03373920267803152
370.0, 0.027837265753936805
371.0, 0.02482858601748693
372.0, 0.02156103335263217
373.0, 0.019417923468433223
374.0, 0.018143501525772307
375.0, 0.017562039076157273
376.0, 0.01692845117720045
377.0, 0.018747465292294343
378.0, 0.0200384423949004
379.0, 0.01973346393340157
380.0, 0.02096729498541626
381.0, 0.02129471324623675
382.0, 0.02131987567974382
383.0, 0.021498441699908014
384.0, 0.024838272599796086
385.0, 0.027797834736135733
386.0, 0.0330194649766243
387.0, 0.043296426990063204
388.0, 0.05381364169106988
389.0, 0.07132797764855636
390.0, 0.09656308188523631
391.0, 0.13100196539070572
392.0, 0.14910408450097565
393.0, 0.16570690694981952
394.0, 0.17035754949831078
395.0, 0.13748186359586362
396.0, 0.106740775983081
397.0, 0.08170419660280122
398.0, 0.061717920274776815
399.0, 0.043664990342226206
400.0, 0.03564374366507449
401.0, 0.028793534966072083
402.0, 0.022192440531208737
403.0, 0.02010824271454114
404.0, 0.018062865870614293
405.0, 0.015116749516803907
406.0, 0.0115597555783351
407.0, 0.011229635881193948
408.0, 0.009474533688768206
409.0, 0.008245946307076873
410.0, 0.008108637257653779
411.0, 0.006190386799212737
412.0, 0.00614916567479648
413.0, 0.006557798246067907
414.0, 0.006581716549641876
415.0, 0.00549682976754376
416.0, 0.006378679158166471
417.0, 0.007279293481855409
418.0, 0.006831543422448089
419.0, 0.009585504802819703
420.0, 0.013102874562650274
421.0, 0.017610008844927832
422.0, 0.023369034532786936
423.0, 0.03808031237467696
424.0, 0.04903337834516735
425.0, 0.056999942681155887
426.0, 0.06295950375427405
427.0, 0.04851518084850129
428.0, 0.03450036907651775
429.0, 0.023320262966796724
430.0, 0.017518724925474374
431.0, 0.011517815154717139
432.0, 0.008262308295014066
433.0, 0.006902198036796773
434.0, 0.005570095364994439
435.0, 0.005181576408933357
436.0, 0.005821747388470149
437.0, 0.006569854073918646
438.0, 0.0053141134774438645
439.0, 0.007397373455196805
440.0, 0.008038592535877548
441.0, 0.007267101283418045
442.0, 0.006928587343948847
443.0, 0.005905295536765089
444.0, 0.004857159175037498
445.0, 0.0037825138026085997
446.0, 0.0022973296605589655
447.0, 0.0014246586776673227
448.0, 0.0010768697409986282
449.0, 0.001171098952320957
450.0, 0.0014754563386756353
451.0, 0.0007334405346366982
452.0, 0.0008133078154322331
453.0, 0.0015651835245132366
454.0, 0.0003199153485250149
455.0, 0.0014044616540733943
456.0, 0.002452446528185471
457.0, 0.002882977116257687
458.0, 0.0031452089805707457
459.0, 0.0037079206681957023
460.0, 0.0029318696883754275
461.0, 0.0009745197153411083
462.0, 0.001686000300492292
463.0, 0.0007472480947787964
464.0, 0.0002442718080588372
465.0, 0.0006945681216411206
466.0, 0.0007795383118066289
467.0, 0.00042571058456477835
468.0, 0.00022402307097006596
469.0, 0.00037961039947175413
470.0, 0.0007593166431196537
471.0, 0.0008871914861918802
472.0, 0.0006466564702608815
473.0, 0.0001734323175649722
474.0, 0.0007991745100411299
475.0, 0.000989740860544066
476.0, 0.0010665928817439497
477.0, 0.0010650372740688406
478.0, 0.000291777381143915
479.0, 0.0002716192736164375
480.0, 0.0004918389961532226
481.0, 0.0007599603663578005
482.0, 0.001224920657706871
483.0, 0.000937891482560444
484.0, 0.0013440910600752572
485.0, 0.002738525070835445
486.0, 0.0026025697509354045
487.0, 0.003942707463217435
488.0, 0.005975863954590177
489.0, 0.00848489468662375
490.0, 0.012207031880793973
491.0, 0.015791598144033574
492.0, 0.01620703932943879
493.0, 0.012864652933954482
494.0, 0.010798671396951861
495.0, 0.007317565515465864
496.0, 0.004189270332528339
497.0, 0.0022673797764206187
498.0, 0.0024655411656963997
499.0, 0.0011694965459776423
500.0, 0.00050884519878762
501.0, 0.0009506349358473719
502.0, 0.0004350567497310341
503.0, 0.00023791666115314413
504.0, 0.00018500448168945002
505.0, 0.0002594400124736658
506.0, 0.0006919351391762804
507.0, 0.00035345515303549034
508.0, 0.00037236883296266893
509.0, 0.0008230328788739093
510.0, 0.00031064483880759706
511.0, 0.00043179903823690536
512.0, 0.0006516029116005897
513.0, 0.0007327197448294008
514.0, 0.00031784839925580726
515.0, 0.0002834066134433233
516.0, 0.00025162869264765337
517.0, 0.00025184748248627107
518.0, 0.0007435322280732105
519.0, 0.0007829030251087783
520.0, 0.00208723687558913
521.0, 0.0039704297740297285
522.0, 0.00307872286783062
523.0, 0.005660936753743584
524.0, 0.007129646402198582
525.0, 0.0070939821428207895
526.0, 0.006715387360738664
527.0, 0.005934245434286328
528.0, 0.0041723148903612586
529.0, 0.002336410366103059
530.0, 0.0026695595355010963
531.0, 0.0013873905599249016
532.0, 0.0008379645328653034
533.0, 0.0008678886935754652
534.0, 0.000706373656242716
535.0, 0.0005136089721035218
536.0, 0.0004788439933572138
537.0, 0.0005388620589655417
538.0, 0.0005747037122690106
539.0, 0.0003915929820301477
540.0, 0.0007875972351485278
541.0, 0.001008451850159295
542.0, 5.950524268450027e-05
543.0, 0.0015916143778107576
544.0, 0.0019148702326039237
545.0, 0.0021392530010583793
546.0, 0.0034433411199314818
547.0, 0.004804986017186547
548.0, 0.005702958606726385
549.0, 0.007618765688792593
550.0, 0.011538892732251635
551.0, 0.012822243187178124
552.0, 0.018568497694633073
553.0, 0.02487042120775525
554.0, 0.029107156458168013
555.0, 0.02973714768438454
556.0, 0.0299479257690642
557.0, 0.02687920192858731
558.0, 0.02031720786707805
559.0, 0.018744829082795525
560.0, 0.017799977502137784
561.0, 0.017413120450510768
562.0, 0.017478023650819727
563.0, 0.01759395355903988
564.0, 0.013553691107661145
565.0, 0.011283134161199797
566.0, 0.010899085941012866
567.0, 0.00755974194343922
568.0, 0.006167022015874031
569.0, 0.005453374227709179
570.0, 0.0045258531456499
571.0, 0.0017971109111873983
572.0, 0.0037634878274030222
573.0, 0.004220090871385296
574.0, 0.0036053845382485045
575.0, 0.0038599563670713827
576.0, 0.00502626404917376
577.0, 0.004781626261991606
578.0, 0.00478714161144689
579.0, 0.007193809835153397
580.0, 0.006197438102610571
581.0, 0.006841721469527862
582.0, 0.008441319675913798
583.0, 0.010324871978826509
584.0, 0.0120191645982742
585.0, 0.016164789093860044
586.0, 0.02007553630457937
587.0, 0.02286727874727002
588.0, 0.03143222541344923
589.0, 0.040967239426414254
590.0, 0.04965971237430802
591.0, 0.058784590073361315
592.0, 0.07869297018308781
593.0, 0.08526903894799245
594.0, 0.08850123191177615
595.0, 0.0894537081936877
596.0, 0.08295440610081159
597.0, 0.06856874846931629
598.0, 0.06018828136384211
599.0, 0.055676235094904034
600.0, 0.04608578765699615
601.0, 0.04521391893957189
602.0, 0.04337471920188281
603.0, 0.03949066367805006
604.0, 0.03318269015173345
605.0, 0.031033155403629116
606.0, 0.02454976941533701
607.0, 0.018161413556784724
608.0, 0.015607369298236421
609.0, 0.011726557230794887
610.0, 0.008998767329551285
611.0, 0.007741931485664521
612.0, 0.007607156929687896
613.0, 0.004777669122161368
614.0, 0.004938684479839991
615.0, 0.004822093529419132
616.0, 0.003823284737490011
617.0, 0.004019938648540018
618.0, 0.005076769478372313
619.0, 0.00477524808539856
620.0, 0.00399773168701847
621.0, 0.005746870188666937
622.0, 0.00528426212115318
623.0, 0.005124575837356653
624.0, 0.005969232473256838
625.0, 0.00842939141204075
626.0, 0.006328084118030776
627.0, 0.005906390325518994
628.0, 0.006321388004372777
629.0, 0.006631775087679045
630.0, 0.004788044869163584
631.0, 0.005177294181770873
632.0, 0.005100541277480815
633.0, 0.003942120286200234
634.0, 0.006142525875580561
635.0, 0.005558125363386362
636.0, 0.005331719640415373
637.0, 0.006199260375571651
638.0, 0.007670483302626601
639.0, 0.006380618891214955
640.0, 0.007620113466818287
641.0, 0.009944968586085963
642.0, 0.009689467807060086
643.0, 0.011710739910744356
644.0, 0.01422351905149474
645.0, 0.016224022571147526
646.0, 0.017101254116697932
647.0, 0.023236537471162923
648.0, 0.025414206607275024
649.0, 0.028968861371109936
650.0, 0.03652679380155359
651.0, 0.045777619708690126
652.0, 0.051114067259812296
653.0, 0.062036230852869016
654.0, 0.07603564558500032
655.0, 0.07701505951129907
656.0, 0.08103276193343
657.0, 0.08162211106163163
658.0, 0.07588551527256737
659.0, 0.06080129992477841
660.0, 0.058392949087689196
661.0, 0.05037034514386579
662.0, 0.042276832538457466
663.0, 0.03926287464494893
664.0, 0.03885403406936938
665.0, 0.036165304091362614
666.0, 0.03608631493927255
667.0, 0.039429000742283955
668.0, 0.03899480993075154
669.0, 0.041362098473350484
670.0, 0.042149166158021716
671.0, 0.04021160841395175
672.0, 0.03525689419423979
673.0, 0.03887479269619472
674.0, 0.037696833476537586
675.0, 0.03532998008923393
676.0, 0.03718463895899816
677.0, 0.039432829408914585
678.0, 0.03896397376075235
679.0, 0.04169694701323493
680.0, 0.049629401077574624
681.0, 0.05164330957038493
682.0, 0.060378763819270646
683.0, 0.07154350638583577
684.0, 0.08373764767745415
685.0, 0.09665741455546964
686.0, 0.1324107096459192
687.0, 0.16541023761248871
688.0, 0.21110759892210662
689.0, 0.2935811747198053
690.0, 0.4161797352367094
691.0, 0.5628003847222687
692.0, 0.7627542552399982
693.0, 0.9976702796710705
694.0, 0.9748298842894029
695.0, 0.8968239258045378
696.0, 0.7674243375493146
697.0, 0.5920864040360889
698.0, 0.38330700278222857
699.0, 0.30435932871491156
700.0, 0.2304947236864702
701.0, 0.16439381935202343
702.0, 0.12950091834930252
703.0, 0.10915568542016639
704.0, 0.08572440976646006
705.0, 0.06924089515367535
706.0, 0.06363633897687088
707.0, 0.04947303032266601
708.0, 0.04265898559296593
709.0, 0.03826298500546006
710.0, 0.033893104815406284
711.0, 0.02715910376254888
712.0, 0.026017842423819663
713.0, 0.022250695805548584
714.0, 0.018382044913955356
715.0, 0.018232872306216088
716.0, 0.017867466255041865
717.0, 0.01424780226250632
718.0, 0.01156058082024506
719.0, 0.011427666442820648
720.0, 0.00996920403698083
721.0, 0.009055346472909617
722.0, 0.00915156569107093
723.0, 0.009298777682147017
724.0, 0.007354538841243177
725.0, 0.008058140676844967
726.0, 0.00761682206632751
727.0, 0.006410540708305118
728.0, 0.005188597202005424
729.0, 0.006321422643666823
730.0, 0.005567866934906322
731.0, 0.0050588398092398686
732.0, 0.0053253932708889696
733.0, 0.005262368456513885
734.0, 0.004638287442838719
735.0, 0.005015657456668145
736.0, 0.005022967057627783
737.0, 0.0026143974155483896
738.0, 0.003990962596542192
739.0, 0.003180190407056726
740.0, 0.0024130429523276774
741.0, 0.002953621893762392
742.0, 0.004127155118558243
743.0, 0.0024371292015712416
744.0, 0.002125805177855065
745.0, 0.00282478364387718
746.0, 0.0018475437210485703
747.0, 0.0018289354069743588
748.0, 0.0020506616223069807
749.0, 0.0017470714120739323
750.0, 0.0007253940298589136
751.0, 0.002793877350575738
752.0, 0.002430912863207206
753.0, 0.001400936218264207
754.0, 0.0009306844080968159
755.0, 0.00267390678046006
756.0, 0.0015413576324876056
757.0, 0.0017245708032222614
758.0, 0.002426396069679063
759.0, 0.0025309387663574076
760.0, 0.004498775463486197
761.0, 0.006451030099300887
762.0, 0.00721060861483327
763.0, 0.007773522166853825
764.0, 0.013221597672132022
765.0, 0.013979777513005684
766.0, 0.01346964380977662
767.0, 0.012508224998114418
768.0, 0.011473740209164134
769.0, 0.006871825288243802
770.0, 0.00540945086808571
771.0, 0.004604261372915878
772.0, 0.003263044497569083
773.0, 0.0018538739807551533
774.0, 0.0020894989073545777
775.0, 0.0014536611047390815
776.0, 0.000542609684626095
777.0, 0.0007485150410038947
778.0, 0.000886212239063546
779.0, 0.0012920334497105441
780.0, 0.0013276762585865392
781.0, 0.0008950068886045925
782.0, 0.0011378005867517967
783.0, 0.00048694269218561284
784.0, 0.00018515551652943988
785.0, 0.00046662029365720023
786.0, 0.0012941194338007681
787.0, 0.0007319841081690557
788.0, 0.0013224852911499808
789.0, 0.0015413899192865484
790.0, 0.000802119724276525
791.0, 0.0004358726216441159
792.0, 0.001290796252033291
793.0, 0.0013058784129556813
794.0, 0.0008202844108782577
795.0, 0.0008488003428966508
796.0, 0.00045130989518542145
797.0, 0.0011545012705950885
798.0, 0.0016270357110494166
799.0, 0.0012852860431192736
800.0, 0.0007737501003272915
801.0, 0.00024864596457807055
802.0, 0.0002517902162753735
803.0, 0.0005969950592769439
804.0, 0.0009322672100276661
805.0, 0.0019323483574531317
806.0, 0.0009538592497843594
807.0, 0.00042710358297581895
808.0, 0.001076306550286654
809.0, 0.0012754145820513495
810.0, 0.0011559408855643613
811.0, 0.001377394672231549
812.0, 0.0015956722623755991
813.0, 0.0013144770561851343
814.0, 0.0003177707922087446
815.0, 0.0007886811855941905
816.0, 0.001590220903490155
817.0, 0.0017923108211477033
818.0, 0.00014078231863521933
819.0, 0.0017068831720933957
820.0, 0.0032175169997050238
821.0, 0.003599716971346017
822.0, 0.0027799760661305598
823.0, 0.006429649498300735
824.0, 0.005892331634883801
825.0, 0.008023581408544683
826.0, 0.012587316698844499
827.0, 0.01480460090260799
828.0, 0.01520834423447236
829.0, 0.01879935464239555
830.0, 0.019912406627214684
831.0, 0.015976638388054198
832.0, 0.015180265434680656
833.0, 0.012574193782037875
834.0, 0.009616199639326898
835.0, 0.007700784644631962
836.0, 0.008221758350305102
837.0, 0.005311107769981593
838.0, 0.004354484944059259
839.0, 0.00469207868870521
840.0, 0.0051368139300384755
841.0, 0.0029834939986577063
842.0, 0.004257738137765449
843.0, 0.004323972937222569
844.0, 0.0037189593010369553
845.0, 0.0036145140450342277
846.0, 0.004851072922441398
847.0, 0.003987457254272499
848.0, 0.0043074287414364455
849.0, 0.005482350162752774
850.0, 0.004704498467982595
851.0, 0.005071731891027373
852.0, 0.006892464076032156
853.0, 0.007390681676364125
854.0, 0.006093949220776945
855.0, 0.009430032147760083
856.0, 0.011542510345050935
857.0, 0.01253012501389507
858.0, 0.014855496958920127
859.0, 0.020953031288227803
860.0, 0.0214100845493794
861.0, 0.026777005288140115
862.0, 0.03378081894347401
863.0, 0.03983125961299235
864.0, 0.04191421218293141
865.0, 0.04818891931547784
866.0, 0.044026105969158714
867.0, 0.035848030843117405
868.0, 0.029408839702162702
869.0, 0.025354524964798897
870.0, 0.0186868814405606
871.0, 0.014617545210446148
872.0, 0.012511567282626902
873.0, 0.010128323110850084
874.0, 0.007802272873540429
875.0, 0.009412385323331865
876.0, 0.009357553108842422
877.0, 0.007593697503804132
878.0, 0.009514319137058528
879.0, 0.009380748167146772
880.0, 0.008887753335098713
881.0, 0.009550867117472897
882.0, 0.011261348521093046
883.0, 0.00856170139429247
884.0, 0.009956699537424734
885.0, 0.009697916678596423
886.0, 0.008324923067050596
887.0, 0.00783625937707772
888.0, 0.009862692242868868
889.0, 0.008793216569288284
890.0, 0.007673720778769572
891.0, 0.007898896080431664
892.0, 0.010050747201512113
893.0, 0.008538913550930905
894.0, 0.009915478417594851
895.0, 0.010520051170403444
896.0, 0.009283907236896854
897.0, 0.010629582724198556
898.0, 0.012671024279688494
899.0, 0.012223840948637368
900.0, 0.012967050184813578
901.0, 0.01746099054317718
902.0, 0.016346567162085924
903.0, 0.017566642845431024
904.0, 0.021128952520351525
905.0, 0.02436002727611007
906.0, 0.023871041221350607
907.0, 0.03266543281292631
908.0, 0.038395073955081245
909.0, 0.042576925867464914
910.0, 0.049188784902969435
911.0, 0.06572775065489983
912.0, 0.07429918817104042
913.0, 0.09438527064566922
914.0, 0.12335446986909872
915.0, 0.15571645071788073
916.0, 0.18011726043585613
917.0, 0.23460605450937874
918.0, 0.25233146335718326
919.0, 0.24750319185489847
920.0, 0.24104795094724832
921.0, 0.22129409716281667
922.0, 0.1729160806925516
923.0, 0.14339059911015614
924.0, 0.12563352394861174
925.0, 0.0961614222864665
926.0, 0.07993906208801686
927.0, 0.07230508184699774
928.0, 0.06215163084278316
929.0, 0.051513966391585536
930.0, 0.05207205969711444
931.0, 0.05060457453230983
932.0, 0.04661240172641402
933.0, 0.04668369515806619
934.0, 0.049962400214261175
935.0, 0.04401438772076884
936.0, 0.045672403707280325
937.0, 0.04662248656595207
938.0, 0.043614596606212384
939.0, 0.037374254395243445
940.0, 0.03922223000113667
941.0, 0.033898748631958034
942.0, 0.029409091553077787
943.0, 0.027656039222083206
944.0, 0.028098914195524533
945.0, 0.022133815137722845
946.0, 0.02372968215222547
947.0, 0.02368734014913136
948.0, 0.021844597348847618
949.0, 0.02086781212239681
950.0, 0.024071719865388086
951.0, 0.020575151874300077
952.0, 0.01964164878987309
953.0, 0.02125715724359915
954.0, 0.020530432255411464
955.0, 0.01603308288240097
956.0, 0.018028028932086826
957.0, 0.017513432586870138
958.0, 0.014147617365522615
959.0, 0.015189588075937592
960.0, 0.015505430777947516
961.0, 0.013105870270778521
962.0, 0.012206604078296738
963.0, 0.01336341491235262
964.0, 0.0118907715841139
965.0, 0.010412884054101708
966.0, 0.011980866439901103
967.0, 0.012319604583011467
968.0, 0.010226215864875944
969.0, 0.011689336258845145
970.0, 0.012903655259296445
971.0, 0.012437523997093233
972.0, 0.01375706787480925
973.0, 0.017788326102400748
974.0, 0.016162050098663724
975.0, 0.018096400635581843
976.0, 0.021640892383605972
977.0, 0.024719243617468547
978.0, 0.02715973410993126
979.0, 0.03760418290118922
980.0, 0.04223182671367913
981.0, 0.05270620326810491
982.0, 0.06873283091260568
983.0, 0.08617614087067134
984.0, 0.0948850364625064
985.0, 0.1101079277285192
986.0, 0.11219194018297353
987.0, 0.10119960627304365
988.0, 0.08435835838752098
989.0, 0.07472533149571374
990.0, 0.05564732006240701
991.0, 0.042691199330341066
992.0, 0.03605889856270621
993.0, 0.030184484457380548
994.0, 0.020756287000258028
995.0, 0.020283661053370882
996.0, 0.017675428509803224
997.0, 0.01347811102994672
998.0, 0.01303351521628496
999.0, 0.015515928032365692
1000.0, 0.013542786344079488
1001.0, 0.013703156213745996
1002.0, 0.015201099187034245
1003.0, 0.013777214513675144
1004.0, 0.013172950193752473
1005.0, 0.015089146539548586
1006.0, 0.013749551397834256
1007.0, 0.010933302544218558
1008.0, 0.012340529597437352
1009.0, 0.010796631635626977
1010.0, 0.007576964107690569
1011.0, 0.006646175752660982
1012.0, 0.007161408081192053
1013.0, 0.005514738309251122
1014.0, 0.005035693139524039
1015.0, 0.0061406537170443755
1016.0, 0.005212996179727701
1017.0, 0.003864311939906994
1018.0, 0.0066388284466294915
1019.0, 0.005530426802551084
1020.0, 0.003909788055647668
1021.0, 0.004709030697959515
1022.0, 0.0057325301171329
1023.0, 0.0021055661282400585
1024.0, 0.0048197079482172715
1025.0, 0.005193478117030877
1026.0, 0.003400370641318017
1027.0, 0.0022409184497838583
1028.0, 0.005558046472500862
1029.0, 0.003712652763903674
1030.0, 0.002369029641828588
1031.0, 0.0025703167196584223
1032.0, 0.0032274996089064465
1033.0, 0.0022630525984431594
1034.0, 0.00203545552807744
1035.0, 0.0026034913836367373
1036.0, 0.0022143190670801294
1037.0, 0.002248434675582413
1038.0, 0.004804954864775619
1039.0, 0.0010235167059327735
1040.0, 0.0013662783548541919
1041.0, 0.0027286011756785375
1042.0, 0.002792679068039984
1043.0, 0.00035743411140296954
1044.0, 0.0021716955771420576
1045.0, 0.0016214833513392762
1046.0, 0.0010390553325343643
1047.0, 0.0018902685057867142
1048.0, 0.004346593241416045
1049.0, 0.0015286433086676402
1050.0, 0.002976710832485044
1051.0, 0.0037550629868252938
1052.0, 0.0028900061729263526
1053.0, 0.00132075464686913
1054.0, 0.004129101923646359
1055.0, 0.0035369587647276633
1056.0, 0.0027633615269325386
1057.0, 0.0032788403992894365
1058.0, 0.005029111615187689
1059.0, 0.0035162403394737606
1060.0, 0.005140134808215461
1061.0, 0.006067355457324319
1062.0, 0.005972471192592522
1063.0, 0.005890823476774689
1064.0, 0.009165704953930416
1065.0, 0.008815078209111453
1066.0, 0.010567103216301518
1067.0, 0.013490092460067462
1068.0, 0.016014693199284016
1069.0, 0.016674049167686313
1070.0, 0.025035054171459147
1071.0, 0.03005909277543566
1072.0, 0.03676282801735631
1073.0, 0.04966867340872997
1074.0, 0.07145976098072278
1075.0, 0.08836660414575877
1076.0, 0.11902496152176044
1077.0, 0.13997997107801555
1078.0, 0.14094181615382154
1079.0, 0.12568601221010975
1080.0, 0.12190923944329835
1081.0, 0.10416986941650634
1082.0, 0.08686422875268371
1083.0, 0.07382134772948275
1084.0, 0.06192286799484803
1085.0, 0.04417201424958913
1086.0, 0.03580199641195559
1087.0, 0.028069328915907996
1088.0, 0.020578373690118737
1089.0, 0.01598516175315886
1090.0, 0.01662706895354226
1091.0, 0.012750121406056998
1092.0, 0.01041635325007614
1093.0, 0.009757860570318716
1094.0, 0.009241683474514352
1095.0, 0.006411485710514149
1096.0, 0.006687007731420436
1097.0, 0.00645903313462236
1098.0, 0.005396540537411378
1099.0, 0.004598653297805487
1100.0, 0.007172298993444911
1101.0, 0.003043311465430614
1102.0, 0.002647276460121219
1103.0, 0.0037319249002612637
1104.0, 0.003943390414031597
1105.0, 0.0017019878478229029
1106.0, 0.004021860087707166
1107.0, 0.0021237137768599975
1108.0, 0.0008841758331017952
1109.0, 0.0016440092934262656
1110.0, 0.0031170193736575792
1111.0, 0.000749288589078569
1112.0, 0.0010324141693792799
1113.0, 0.0009239599174297407
1114.0, 0.0007635876573558532
1115.0, 0.0014495295001227032
1116.0, 0.0014206309116749276
1117.0, 0.0007590532543715338
1118.0, 0.0005694834358345798
1119.0, 0.0008612967150999558
1120.0, 0.0011450431282242915
1121.0, 0.0002560898585367503
1122.0, 0.003906265394865745
1123.0, 0.005222318334581645
1124.0, 0.00512389234808085
1125.0, 0.004801278406617019
1126.0, 0.005068456149455523
1127.0, 0.0009770653011525003
1128.0, 0.0007842396947614118
1129.0, 0.0018154797265622334
1130.0, 0.0024485179352112486
1131.0, 0.0019769678753539105
1132.0, 0.0018267747345770647
1133.0, 0.0019960422012218395
1134.0, 0.0011451244070483806
1135.0, 0.0013792524439908182
1136.0, 0.003284183006881194
1137.0, 0.00021617670614240366
1138.0, 0.0008618615472174092
1139.0, 0.0015904510195836271
1140.0, 0.0019651587105046476
1141.0, 0.002055840747232655
1142.0, 0.002216297272258681
1143.0, 0.0007429418974944255
1144.0, 0.000969512784542425
1145.0, 0.0020825270356421345
1146.0, 0.002637862276990127
1147.0, 0.001406295549561582
1148.0, 0.0017280519151073152
1149.0, 0.0017976378052607476
1150.0, 0.0020991751346830755
1151.0, 0.0023445725314861963
1152.0, 0.0020151537483326415
1153.0, 0.0004981989563606497
1154.0, 0.000898791606868853
1155.0, 0.0022164539372769776
1156.0, 0.0018984923395224441
1157.0, 0.00031759695470124353
1158.0, 0.0013345770324515872
1159.0, 0.0018578672254765975
1160.0, 0.0010032517061240541
1161.0, 0.0020974322044267912
1162.0, 0.003563170504727249
1163.0, 0.0022864354013221663
1164.0, 0.0011991028372914706
1165.0, 0.004658144501535093
1166.0, 0.0038250272578899446
1167.0, 0.002773117780235089
1168.0, 0.0047499178378267335
1169.0, 0.006161285665452763
1170.0, 0.006512346326678521
1171.0, 0.007793880756728626
1172.0, 0.0076093944017483275
1173.0, 0.006488760218708814
1174.0, 0.007132861995068252
1175.0, 0.008370720452114797
1176.0, 0.005990250993136411
1177.0, 0.006706653337616988
1178.0, 0.007719553750146538
1179.0, 0.005574586836880244
1180.0, 0.003585156770763079
1181.0, 0.0062119550833698
1182.0, 0.00531145788271108
1183.0, 0.004251237501200515
1184.0, 0.0047162731157433715
1185.0, 0.005409171584443645
1186.0, 0.0036562029895234084
1187.0, 0.005178862079079558
1188.0, 0.00485960841005175
1189.0, 0.003180070307423997
1190.0, 0.0026922989148138255
1191.0, 0.005223490376968926
1192.0, 0.0034569188558782947
1193.0, 0.00406137920864962
1194.0, 0.005883812875175221
1195.0, 0.0062997833726047905
1196.0, 0.0027049884498104144
1197.0, 0.007872264119845838
1198.0, 0.007456830615496466
1199.0, 0.0072384007858321605
1200.0, 0.008596229997268015
1201.0, 0.010413331924187669
1202.0, 0.009728202895388737
1203.0, 0.010640064203517562
1204.0, 0.011751253220699994
1205.0, 0.010545922904965407
1206.0, 0.00835310397749008
1207.0, 0.010656281922014088
1208.0, 0.010143919549093591
1209.0, 0.007984575661597909
1210.0, 0.008148796852509108
1211.0, 0.008074328887690089
1212.0, 0.005163452708444245
1213.0, 0.006128895857418407
1214.0, 0.00743479635538341
1215.0, 0.0049122747339998335
1216.0, 0.004150380738717008
1217.0, 0.006052640400368463
1218.0, 0.005765718223837164
1219.0, 0.0026698978936358503
1220.0, 0.006405920986708986
1221.0, 0.005133965866659685
1222.0, 0.002698587424494272
1223.0, 0.0046107016498265
1224.0, 0.006715978220867987
1225.0, 0.0017669475390871268
1226.0, 0.0028295456299972242
1227.0, 0.003948099178097155
1228.0, 0.0029960740377554954
1229.0, 0.002173381117463199
1230.0, 0.005315681629911669
1231.0, 0.0046778568270737855
1232.0, 0.004440712693530701
1233.0, 0.0051865923385112315
1234.0, 0.005531811128570362
1235.0, 0.002265886127622278
1236.0, 0.004094543643917984
1237.0, 0.004264244783942755
1238.0, 0.002364860951436531
1239.0, 0.0016421228475988143
1240.0, 0.00472158288138467
1241.0, 0.0038322588803643668
1242.0, 0.0015747944713943585
1243.0, 0.00240213925180783
1244.0, 0.00220783482890016
1245.0, 0.0010744865673650225
1246.0, 0.0038922053477332256
1247.0, 0.0047716325216852675
1248.0, 0.0018289992243790843
1249.0, 0.003308355401852225
1250.0, 0.004317500415898953
1251.0, 0.0014133624410288667
1252.0, 0.002644728969614579
1253.0, 0.004997852434002584
1254.0, 0.0030310713735929506
1255.0, 0.002207433402354695
1256.0, 0.003422193127537153
1257.0, 0.004175183921438214
1258.0, 0.00036506725633867095
1259.0, 0.003431417787322342
1260.0, 0.00323831655503146
1261.0, 0.002420592814521132
1262.0, 0.0027383182930321246
1263.0, 0.003093855442248274
1264.0, 0.0006402688437148311
1265.0, 0.002616957927135543
1266.0, 0.00430223596335894
1267.0, 0.0034056696763484443
1268.0, 0.0015148238968815105
1269.0, 0.005564933776220597
1270.0, 0.004040700246754752
1271.0, 0.0023605547901536807
1272.0, 0.0035813621770056842
1273.0, 0.004311081433655894
1274.0, 0.0016616617661467002
1275.0, 0.004231880502957025
1276.0, 0.005215038677278773
1277.0, 0.0024480169773619114
1278.0, 0.001760842844558317
1279.0, 0.003614972572656724
1280.0, 0.004091644348963546
1281.0, 0.0012928718348218014
1282.0, 0.004353680993628637
1283.0, 0.002863492421856906
1284.0, 0.0014182820792561985
1285.0, 0.0027152918986585606
1286.0, 0.004128236225542594
1287.0, 0.0008630048702442817
1288.0, 0.002095131108442544
1289.0, 0.003134450614426179
1290.0, 0.002445690538119149
1291.0, 0.0016633964772852152
1292.0, 0.005691996272144455
1293.0, 0.00321414394167995
1294.0, 0.002698560061266921
1295.0, 0.0034651719176306763
1296.0, 0.0033998652962844034
1297.0, 0.0018001142921047892
1298.0, 0.002631152489440137
1299.0, 0.004374712276039907
1300.0, 0.0022417451015041175
1301.0, 0.0020357655134111
1302.0, 0.0031041642143340175
1303.0, 0.0021991480227643023
1304.0, 0.0008595060190024426
1305.0, 0.0035898148003299874
1306.0, 0.001778498186895662
1307.0, 0.0009888674887987973
1308.0, 0.002221490383504162
1309.0, 0.0025343947778350023
1310.0, 0.0008838343642249454
1311.0, 0.0030885326662837575
1312.0, 0.002999706703670267
1313.0, 0.0014748711967432976
1314.0, 0.0011877260431260148
1315.0, 0.0040312422726025855
1316.0, 0.0018116804097773715
1317.0, 0.003018923777531991
1318.0, 0.004180945304568753
1319.0, 0.002840970925723541
1320.0, 0.0006718400635988268
1321.0, 0.002529723003677591
1322.0, 0.0032276430917214257
1323.0, 0.0011443473112092337
1324.0, 0.0024318561552713605
1325.0, 0.0028620218911437514
1326.0, 0.000922249325289194
1327.0, 0.00104627727920045
1328.0, 0.0020715340565209063
1329.0, 0.0008301363829869822
1330.0, 0.0007326743890151704
1331.0, 0.0013112208435167654
1332.0, 0.0017809960950240815
1333.0, 0.002278918119313875
1334.0, 0.0013772070198307578
1335.0, 0.0015899120551255536
1336.0, 0.0008713527725234705
1337.0, 0.0011390167779109152
1338.0, 0.0024540322503378157
1339.0, 0.000833253866980066
1340.0, 0.00015361263130377853
1341.0, 0.0022667983175518845
1342.0, 0.0020244985745354245
1343.0, 0.0015974885459963041
1344.0, 0.002886270748473463
1345.0, 0.003687738736435699
1346.0, 0.0007356198186209114
1347.0, 0.002387757485139894
1348.0, 0.002778147306179844
1349.0, 0.0015513377266692236
1350.0, 0.0009142355347199422
1351.0, 0.003570312924583486
1352.0, 0.000985087295787484
1353.0, 0.0016224070891705602
1354.0, 0.002907281106912739
1355.0, 0.0027293196543096533
1356.0, 0.0016196428015631057
1357.0, 0.0032032420731708013
1358.0, 0.0021313939325324945
1359.0, 0.001096511464721546
1360.0, 0.002912474980601607
1361.0, 0.003529636822274142
1362.0, 0.0013765781535941693
1363.0, 0.0009633104827957437
1364.0, 0.004875928099688092
1365.0, 0.0015861154120241348
1366.0, 0.002066152812795601
1367.0, 0.004662833329157969
1368.0, 0.0049325711941845965
1369.0, 0.0008122877579322019
1370.0, 0.005835068562162818
1371.0, 0.004620031922688093
1372.0, 0.001768453958726807
1373.0, 0.002079059050966174
1374.0, 0.0038319159366968355
1375.0, 0.00039309464186214327
1376.0, 0.0013204877158460773
1377.0, 0.004054909114528829
1378.0, 0.0021073446138759407
1379.0, 0.0020524182078439845
1380.0, 0.0044867943082811425
1381.0, 0.003714353156716265
1382.0, 0.0010124433025510064
1383.0, 0.004618249478668573
1384.0, 0.005226934922347378
1385.0, 0.0034507313285127646
1386.0, 0.002734057068074414
1387.0, 0.0051607481927815405
1388.0, 0.003466936796515529
1389.0, 0.0020469004277352543
1390.0, 0.003957523704229689
1391.0, 0.0030262576834615314
1392.0, 0.0019110549801484781
1393.0, 0.004869640598749002
1394.0, 0.004957168451531449
1395.0, 0.0010409182537357224
1396.0, 0.0045227038637245184
1397.0, 0.0052655242742465445
1398.0, 0.0030284559188090993
1399.0, 0.0023114681112014358
1400.0, 0.0063142382941205385
1401.0, 0.0024134073165590613
1402.0, 0.00238363189756449
1403.0, 0.0045845122584975105
1404.0, 0.004187009169507416
1405.0, 0.00192499226402948
1406.0, 0.005672622873551639
1407.0, 0.002744323019811753
1408.0, 0.0016334079570733794
1409.0, 0.003317594963532851
1410.0, 0.005008789803848847
1411.0, 0.004467423953462851
1412.0, 0.0022769998246057327
1413.0, 0.00582307979143383
1414.0, 0.0032754103405368408
1415.0, 0.0025082859269742685
1416.0, 0.0035522267101951418
1417.0, 0.0035706774676752713
1418.0, 0.0013136997506449561
1419.0, 0.004245712240594782
1420.0, 0.003913035943268425
1421.0, 0.001840932065510488
1422.0, 0.002693659053392694
1423.0, 0.0035117972734704196
1424.0, 0.0017727762040011556
1425.0, 0.0023871389976023918
1426.0, 0.005470570742205681
1427.0, 0.002496629122620652
1428.0, 0.00238714570504883
1429.0, 0.004340318517666575
1430.0, 0.004555242749253171
1431.0, 0.0010321553325488176
1432.0, 0.00401905800741997
1433.0, 0.0034140552073444424
1434.0, 0.001994601526632922
1435.0, 0.003138159188658485
1436.0, 0.004660070124794196
1437.0, 0.0030733101993700154
1438.0, 0.004154054828017444
1439.0, 0.007804517085308502
1440.0, 0.00481204622596992
1441.0, 0.004881654613042194
1442.0, 0.006997400466871704
1443.0, 0.006736311358125737
1444.0, 0.003886632055206236
1445.0, 0.007533490149995836
1446.0, 0.007501923531303587
1447.0, 0.005557528094350549
1448.0, 0.00611701894440017
1449.0, 0.007922021475886934
1450.0, 0.005958338039579213
1451.0, 0.007616263041632778
1452.0, 0.009784573568042914
1453.0, 0.00706331479821084
1454.0, 0.006242276225190111
1455.0, 0.008824751058667049
1456.0, 0.010638292030004045
1457.0, 0.004795204832686268
1458.0, 0.008108348163163913
1459.0, 0.008522762887345513
1460.0, 0.007267663950366934
1461.0, 0.00815716751245948
1462.0, 0.009921360310734935
1463.0, 0.006695200130896076
1464.0, 0.005072709741344602
1465.0, 0.008964659578306503
1466.0, 0.007521432236559967
1467.0, 0.00610248410452038
1468.0, 0.006899064468619768
1469.0, 0.007515810868369378
1470.0, 0.003248147488290831
1471.0, 0.0071196756730175165
1472.0, 0.00687137003042466
1473.0, 0.004362701478259618
1474.0, 0.004985634271124955
1475.0, 0.007652345282745371
1476.0, 0.004909689548233717
1477.0, 0.0023520177265683086
1478.0, 0.007493822923435269
1479.0, 0.005119943856922155
1480.0, 0.003962009813792953
1481.0, 0.005847316038949578
1482.0, 0.0068726319465394516
1483.0, 0.003931131111840665
1484.0, 0.004941113022492954
1485.0, 0.005742651628450704
1486.0, 0.0037124145457936566
1487.0, 0.003547834291290672
1488.0, 0.005687509640557696
1489.0, 0.005277999295920637
1490.0, 0.001598368003608921
1491.0, 0.00581045981047593
1492.0, 0.003877284792681293
1493.0, 0.00260415766183758
1494.0, 0.004111367646874736
1495.0, 0.0058157775960647135
1496.0, 0.003629947965390219
1497.0, 0.005166965053960741
1498.0, 0.006249743615577714
1499.0, 0.0027437976768117074
1500.0, 0.002502306860227194
1501.0, 0.004699132513980152
1502.0, 0.003247662702374524
1503.0, 0.00024121451555539656
1504.0, 0.004288816857934591
1505.0, 0.005481678167629064
1506.0, 0.003072291976710037
1507.0, 0.002979341751735755
1508.0, 0.0048684866822112805
1509.0, 0.0023249226016934677
1510.0, 0.003539669867613229
1511.0, 0.005599169125259383
1512.0, 0.002102178972882366
1513.0, 0.00234240790995952
1514.0, 0.004901248256138261
1515.0, 0.004479768981002761
1516.0, 0.000554714206806363
1517.0, 0.004037014877868531
1518.0, 0.000999157835672536
1519, 0.0
1520, 0.0
1521, 0.0
1522, 0.0
1523, 0.0
1524, 0.0
1525, 0.0
1526, 0.0
1527, 0.0
1528, 0.0
1529, 0.0
1530, 0.0
1531, 0.0
1532, 0.0
1533, 0.0
1534, 0.0
1535, 0.0
1536, 0.0
1537, 0.0
1538, 0.0
1539, 0.0
1540, 0.0
1541, 0.0
1542, 0.0
1543, 0.0
1544, 0.0
1545, 0.0
1546, 0.0
1547, 0.0
1548, 0.0
1549, 0.0
1550, 0.0
1551, 0.0
1552, 0.0
1553, 0.0
1554, 0.0
1555, 0.0
1556, 0.0
1557, 0.0
1558, 0.0
1559, 0.0
1560, 0.0
1561, 0.0
1562, 0.0
1563, 0.0
1564, 0.0
1565, 0.0
1566, 0.0
1567, 0.0
1568, 0.0
1569, 0.0
1570, 0.0
1571, 0.0
1572, 0.0
1573, 0.0
1574, 0.0
1575, 0.0
1576, 0.0
1577, 0.0
1578, 0.0
1579, 0.0
1580, 0.0
1581, 0.0
1582, 0.0
1583, 0.0
1584, 0.0
1585, 0.0
1586, 0.0
1587, 0.0
1588, 0.0
1589, 0.0
1590, 0.0
1591, 0.0
1592, 0.0
1593, 0.0
1594, 0.0
1595, 0.0
1596, 0.0
1597, 0.0
1598, 0.0
1599, 0.0
