30, 0.0
31, 0.0
32, 0.0
33, 0.0
34, 0.0
35, 0.0
36, 0.0
37, 0.0
38, 0.0
39, 0.0
40, 0.0
41, 0.0
42, 0.0
43, 0.0
44, 0.0
45, 0.0
46, 0.0
47, 0.0
48, 0.0
49, 0.0
50, 0.0
51, 0.0
52, 0.0
53, 0.0
54, 0.0
55, 0.0
56, 0.0
57, 0.0
58, 0.0
59, 0.0
60, 0.0
61, 0.0
62, 0.0
63, 0.0
64, 0.0
65, 0.0
66, 0.0
67, 0.0
68, 0.0
69, 0.0
70, 0.0
71, 0.0
72, 0.0
73, 0.0
74, 0.0
75, 0.0
76, 0.0
77, 0.0
78, 0.0
79, 0.0
80, 0.0
81, 0.0
82, 0.0
83, 0.0
84, 0.0
85, 0.0
86, 0.0
87, 0.0
88, 0.0
89, 0.0
90, 0.0
91, 0.0
92, 0.0
93, 0.0
94, 0.0
95, 0.0
96, 0.0
97, 0.0
98, 0.0
99, 0.0
100, 0.0
101, 0.0
102, 0.0
103, 0.0
104, 0.0
105, 0.0
106, 0.0
107, 0.0
108, 0.0
109, 0.0
110, 0.0
111, 0.0
112, 0.0
113.0, 0.00042093478172599137
114.0, 0.00019784183346541748
115.0, 0.000577303327547177
116.0, 0.00247586453956884
117.0, 0.004905781986954364
118.0, 0.008105879868046503
119.0, 0.011782350330145448
120.0, 0.016090659195624444
121.0, 0.020850579084557005
122.0, 0.02511806849799116
123.0, 0.029386497826957497
124.0, 0.03324233621054048
125.0, 0.03660239990921253
126.0, 0.039971167477117146
127.0, 0.04379812165315155
128.0, 0.0463758467188694
129.0, 0.04817355054210795
130.0, 0.05106215260771331
131.0, 0.05489425566495933
132.0, 0.058511030155454585
133.0, 0.062380621985702045
134.0, 0.06605520411709635
135.0, 0.06774521863210366
136.0, 0.06831740136118729
137.0, 0.06694376745157628
138.0, 0.0639452124929542
139.0, 0.061531891154231216
140.0, 0.05842401734782643
141.0, 0.05481019041552695
142.0, 0.05180726712126725
143.0, 0.05098410124109505
144.0, 0.04937368217061043
145.0, 0.047295680760171634
146.0, 0.04576132418674942
147.0, 0.04550401614312946
148.0, 0.044533879778554775
149.0, 0.04271508428909732
150.0, 0.04052192060020932
151.0, 0.0383408739849425
152.0, 0.03624267081374911
153.0, 0.033175036196788785
154.0, 0.029593680739296857
155.0, 0.026056826255914305
156.0, 0.02300758314578519
157.0, 0.01942005266009702
158.0, 0.016396579358514657
159.0, 0.013848924001870742
160.0, 0.011182241563185816
161.0, 0.008721169699485295
162.0, 0.006912981966827207
163.0, 0.005543000625151285
164.0, 0.004314618815265813
165.0, 0.0034041835961452923
166.0, 0.002389042491590627
167.0, 0.0017914662492342366
168.0, 0.0018455687356821865
169.0, 0.002078462062416176
170.0, 0.0020815954237901045
171.0, 0.0022064366793728514
172.0, 0.002259923308636894
173.0, 0.0020988016444354685
174.0, 0.0027749189858044705
175.0, 0.002425547365206863
176.0, 0.001952402644765734
177.0, 0.0023818086386966767
178.0, 0.0031832908720723463
179.0, 0.0037265564633412484
180.0, 0.0043676908128561735
181.0, 0.004734012804910333
182.0, 0.004122952339089216
183.0, 0.003872244811019094
184.0, 0.003265083721268141
185.0, 0.002483361495715368
186.0, 0.0020432213909260368
187.0, 0.0020665897918156215
188.0, 0.0017262794794752495
189.0, 0.0008301738579867139
190.0, 0.00014540946443046716
191.0, 0.00029866751442264534
192.0, 0.00010778204569883749
193.0, 0.00019530793397644616
194.0, 0.0001342715205869165
195.0, 9.708478452237109e-05
196.0, 0.0002740292137289453
197.0, 0.00042167178622362584
198.0, 0.0005929215538735536
199.0, 0.0009149087496974752
200.0, 0.0008352548570119632
201.0, 0.00045741245097530325
202.0, 0.00011568095418879225
203.0, 0.00020779197331558202
204.0, 0.0007566249119582612
205.0, 0.0003022890139294168
206.0, 2.1243127601487373e-05
207.0, 3.6567928167636923e-05
208.0, 4.5370231200413965e-05
209.0, 0.0004884401413481912
210.0, 0.00020697397813361439
211.0, 0.0003534222277355025
212.0, 0.00016314380153402086
213.0, 0.00015666404098590056
214.0, 0.00010929582697876385
215.0, 0.0001771390803730397
216.0, 0.00011231386784282003
217.0, 0.00026955465879796136
218.0, 0.0005169264456500595
219.0, 0.0003935707033251948
220.0, 0.00011618950668826896
221.0, 8.90641824500194e-05
222.0, 0.00016629669771321665
223.0, 0.00016709398300510995
224.0, 7.745683253400263e-05
225.0, 9.52645095561313e-05
226.0, 0.0008973816924600381
227.0, 0.0008756755435485516
228.0, 0.0010383001034355566
229.0, 0.001498258538830979
230.0, 0.002130012411285662
231.0, 0.0028087752397007197
232.0, 0.0035320626293345917
233.0, 0.004422417301986834
234.0, 0.0053894585003088245
235.0, 0.006344527653387459
236.0, 0.007472839488785748
237.0, 0.00852974895980011
238.0, 0.009826508057768947
239.0, 0.011138431973627768
240.0, 0.011859340309268997
241.0, 0.012841309075112446
242.0, 0.014174382020544492
243.0, 0.015115442683820495
244.0, 0.015368898641422709
245.0, 0.016099446163386488
246.0, 0.016809758126850927
247.0, 0.018063441922600062
248.0, 0.01939322292817957
249.0, 0.019710544985448393
250.0, 0.020284248869441152
251.0, 0.021478101506667856
252.0, 0.022979201034432725
253.0, 0.024450163777377673
254.0, 0.025700674869776455
255.0, 0.026619194275802924
256.0, 0.02798894960236636
257.0, 0.02982320457320316
258.0, 0.0318171288915858
259.0, 0.03462835758345897
260.0, 0.03579136859029313
261.0, 0.03782259197980328
262.0, 0.04127377693881288
263.0, 0.043029541936107196
264.0, 0.04541286796053213
265.0, 0.048118222093076146
266.0, 0.05119009209236758
267.0, 0.05459929891113744
268.0, 0.05753573294155294
269.0, 0.06074844648121791
270.0, 0.06442136345465352
271.0, 0.06841292629917695
272.0, 0.07232765287436894
273.0, 0.07593442156071552
274.0, 0.07938644993351204
275.0, 0.0824823715232591
276.0, 0.08516814685340114
277.0, 0.08773938277858061
278.0, 0.0891302150624749
279.0, 0.08886425870408436
280.0, 0.08699520240862012
281.0, 0.08403429851016607
282.0, 0.08088002645504014
283.0, 0.07656116720643796
284.0, 0.07109012098249691
285.0, 0.06480244294168365
286.0, 0.058139162223181114
287.0, 0.052304663098469296
288.0, 0.047300231590706135
289.0, 0.04250811922094543
290.0, 0.03761782136038674
291.0, 0.03322862265071531
292.0, 0.028971666954883863
293.0, 0.02551508441437247
294.0, 0.022519829088505854
295.0, 0.019449972841962843
296.0, 0.01732784523186204
297.0, 0.01548172318050213
298.0, 0.013618617973517195
299.0, 0.011809822648570242
300.0, 0.010355753782189673
301.0, 0.009872091550637379
302.0, 0.008855126357310847
303.0, 0.00787621238422001
304.0, 0.007393180806694036
305.0, 0.006383613770788162
306.0, 0.005866064809285842
307.0, 0.00546840528836469
308.0, 0.004845375795374241
309.0, 0.004067249084702824
310.0, 0.003769585606176242
311.0, 0.0035014196003076655
312.0, 0.003349188177857728
313.0, 0.0031756515121074557
314.0, 0.0027872641748082137
315.0, 0.002808611978243817
316.0, 0.0025491690132763475
317.0, 0.0025091262519856146
318.0, 0.002740895308253697
319.0, 0.00254157224200564
320.0, 0.0027845244434447965
321.0, 0.002605441510430868
322.0, 0.0023384753646275547
323.0, 0.002453517768356877
324.0, 0.0027402386051084155
325.0, 0.002869839042929078
326.0, 0.0028109322486201513
327.0, 0.0027506394766854433
328.0, 0.0028331028370850516
329.0, 0.0029445006032117927
330.0, 0.002656639733806941
331.0, 0.002393452745910896
332.0, 0.0021878227493451765
333.0, 0.0018147274900768536
334.0, 0.0019700345392617787
335.0, 0.001596323897041435
336.0, 0.001108586719462059
337.0, 0.0008391688295782061
338.0, 0.0006296623155378803
339.0, 0.0007354830082326384
340.0, 0.0005413372494516166
341.0, 0.00022423313144976582
342.0, 5.559113308663834e-05
343.0, 6.25180519702712e-05
344.0, 7.98759183706269e-05
345.0, 0.00019273858568767818
346.0, 0.00031472458225687
347.0, 0.00032442140827723963
348.0, 0.00028225902788317584
349.0, 0.0002259650483163527
350.0, 0.00032785298786705764
351.0, 0.0006462085292723251
352.0, 0.0009746072629803061
353.0, 0.0008905014249492492
354.0, 0.00056502472180099
355.0, 0.0004515196911827986
356.0, 0.0004131691985457532
357.0, 0.00021675708312312385
358.0, 0.0003600411868665117
359.0, 0.0003271519404549266
360.0, 0.00013247668565280786
361.0, 0.00013598509103283397
362.0, 0.000561479770864758
363.0, 0.0003694890069289264
364.0, 7.25236736980282e-05
365.0, 0.00017679472440205364
366.0, 0.0003172556787541962
367.0, 0.00031003222831754197
368.0, 0.00024264572953317973
369.0, 0.00013959981507366393
370.0, 5.789781337734626e-05
371.0, 0.00015256330790416965
372.0, 0.00014011385638870692
373.0, 0.000249707760901004
374.0, 0.000281975633488198
375.0, 0.00027183482503991897
376.0, 0.00025235861728419994
377.0, 0.00029499135582246615
378.0, 0.00035860095466422646
379.0, 0.00026991993338863545
380.0, 0.00025383541982392166
381.0, 0.0006214722554511462
382.0, 0.0013567462705296846
383.0, 0.001519839558575965
384.0, 0.0013362965985876678
385.0, 0.0010392560726684458
386.0, 0.0010313631091100018
387.0, 0.0018584632750871086
388.0, 0.0020946448272709194
389.0, 0.002536259134052706
390.0, 0.0026555350785301773
391.0, 0.0023835294879853293
392.0, 0.0029775895391676065
393.0, 0.0037562179439038904
394.0, 0.004434446252397964
395.0, 0.0047636051985686465
396.0, 0.004918146001224152
397.0, 0.0055551541438612325
398.0, 0.006232990818085127
399.0, 0.006989812172409883
400.0, 0.007599483426244761
401.0, 0.008034714637342745
402.0, 0.00877818838903919
403.0, 0.009316445384672257
404.0, 0.010720718507676285
405.0, 0.012201723452941104
406.0, 0.013254407064453301
407.0, 0.015041721121975061
408.0, 0.016250819289104376
409.0, 0.017532987877126347
410.0, 0.019157564706753602
411.0, 0.02082698256721808
412.0, 0.022097440052317376
413.0, 0.02390859744555673
414.0, 0.026211496571514694
415.0, 0.02824495695280485
416.0, 0.029711586517990267
417.0, 0.031343786434254124
418.0, 0.03377317618603859
419.0, 0.03598305654553067
420.0, 0.03717912193257991
421.0, 0.03736816420346024
422.0, 0.0371144839299667
423.0, 0.03710714252262423
424.0, 0.036999672046151656
425.0, 0.03675603459067517
426.0, 0.0360860448400188
427.0, 0.03437141049179468
428.0, 0.03354785119678822
429.0, 0.03302356328847942
430.0, 0.032343176392439575
431.0, 0.031794727510833114
432.0, 0.03217650138416077
433.0, 0.032736608142525
434.0, 0.032974245868171874
435.0, 0.03357647416321064
436.0, 0.03471845559341402
437.0, 0.03599129439613604
438.0, 0.037674138879316116
439.0, 0.039249906454609
440.0, 0.04112444151023577
441.0, 0.04368342669248119
442.0, 0.04687302464127406
443.0, 0.049932564191751225
444.0, 0.053281076614173556
445.0, 0.05681042655959997
446.0, 0.060387043880162555
447.0, 0.06417991200391765
448.0, 0.0689418599863011
449.0, 0.07192024464946423
450.0, 0.07655125312973156
451.0, 0.08194834941020204
452.0, 0.08603636344199396
453.0, 0.08916664043989377
454.0, 0.09235778493700747
455.0, 0.09498444331993806
456.0, 0.09721020316131496
457.0, 0.09973570808139476
458.0, 0.10283182558993482
459.0, 0.10432209294709413
460.0, 0.10597335728951908
461.0, 0.10742528888237092
462.0, 0.10903354646622555
463.0, 0.1118542762332494
464.0, 0.11315955338463848
465.0, 0.11390589772434169
466.0, 0.11440156465173375
467.0, 0.11440996963467966
468.0, 0.11359136931240886
469.0, 0.1103701922201714
470.0, 0.10746027583607513
471.0, 0.10304507678927767
472.0, 0.0965899298110344
473.0, 0.08914661600492459
474.0, 0.08157457098603348
475.0, 0.07387872918819471
476.0, 0.06694344764921145
477.0, 0.06018474639004892
478.0, 0.05321823512108079
479.0, 0.04694767763900114
480.0, 0.04163096691672284
481.0, 0.03737780798376699
482.0, 0.03352645445623035
483.0, 0.029649604729724232
484.0, 0.025966803802413514
485.0, 0.023763726058997337
486.0, 0.02120675024038037
487.0, 0.019006519744349054
488.0, 0.01731422041040272
489.0, 0.015498230545837672
490.0, 0.01371279734645076
491.0, 0.012307140743229682
492.0, 0.011227811136546766
493.0, 0.010067619958070144
494.0, 0.008652040365866127
495.0, 0.007738588424948181
496.0, 0.007143125219755991
497.0, 0.006497995175475281
498.0, 0.0056801993406282465
499.0, 0.004982346363044967
500.0, 0.004764738538639959
501.0, 0.004391509644776534
502.0, 0.004105027118013166
503.0, 0.0035911823358042547
504.0, 0.003207779670255974
505.0, 0.0032904203162794758
506.0, 0.0026591538479516282
507.0, 0.0022579451832432772
508.0, 0.001735613337756688
509.0, 0.001395904473318225
510.0, 0.0014303867441271506
511.0, 0.0012460270547138658
512.0, 0.0008487601848695584
513.0, 0.0005695543265375838
514.0, 0.0006089260246830699
515.0, 0.0006544391946148086
516.0, 0.00037983064203651396
517.0, 0.00030056693940424373
518.0, 0.00013146820771876597
519.0, 6.859050034309187e-05
520.0, 0.00032835689899271347
521.0, 9.059667197600657e-05
522.0, 0.00019897675763131715
523.0, 0.0005466224568718085
524.0, 0.00027356844208673036
525.0, 9.271630875320676e-05
526.0, 0.0002921851095969902
527.0, 0.00021737840223689728
528.0, 0.0001788398189349745
529.0, 3.21447707781614e-05
530.0, 8.194672145446287e-05
531.0, 0.0002809324954757464
532.0, 0.0004099329095915258
533.0, 0.0005095323153083318
534.0, 0.00039060636307964815
535.0, 0.0005111738057325416
536.0, 0.0005494796936014942
537.0, 0.00039013654001057425
538.0, 0.0004005048814930953
539.0, 0.0004330138956959818
540.0, 0.0003485391734699399
541.0, 0.0002991347446314265
542.0, 0.00032870647525392856
543.0, 0.00026668022449705163
544.0, 8.089341024228228e-05
545.0, 0.0001647097533422819
546.0, 4.0825404497575276e-05
547.0, 0.0002856036576088896
548.0, 0.0002540299297148746
549.0, 0.00042078355416202745
550.0, 0.00028178641380828155
551.0, 0.0006034181106859426
552.0, 0.0007917892086892513
553.0, 0.0007200614293498192
554.0, 0.0006029227884303448
555.0, 0.0003396038379366439
556.0, 0.0005768399423487431
557.0, 0.0006708871249297932
558.0, 0.0005583128784855563
559.0, 0.0005289911984549595
560.0, 0.0007852659005516975
561.0, 0.0013242414165016213
562.0, 0.001432774720214662
563.0, 0.0013445150412561173
564.0, 0.0014245099168934293
565.0, 0.0017358150906704574
566.0, 0.0018939954886947282
567.0, 0.002020936599075853
568.0, 0.0020449092051011103
569.0, 0.002425274730417395
570.0, 0.002763883488459662
571.0, 0.002707364422472565
572.0, 0.0032333858728435107
573.0, 0.0035804976052275293
574.0, 0.0032733691759032155
575.0, 0.0032932634101943844
576.0, 0.0038842751652876525
577.0, 0.004314443034773704
578.0, 0.004343794645061475
579.0, 0.004788173432708774
580.0, 0.005313638548324621
581.0, 0.0056549731126245475
582.0, 0.006076504316502242
583.0, 0.006806223654131048
584.0, 0.006969408514151284
585.0, 0.007676962874083681
586.0, 0.00814366027854974
587.0, 0.008656102739401919
588.0, 0.009835855572710755
589.0, 0.010754395862016763
590.0, 0.011018234492306758
591.0, 0.011932508468230529
592.0, 0.013067506960853171
593.0, 0.014166387765685658
594.0, 0.015431247535210843
595.0, 0.016229535073672485
596.0, 0.01783103008567107
597.0, 0.01925686734413032
598.0, 0.020536662770138603
599.0, 0.022185380232140898
600.0, 0.02419636978846684
601.0, 0.025985967232659248
602.0, 0.027402626266216652
603.0, 0.029598212504471727
604.0, 0.03170832768845892
605.0, 0.03331849938257043
606.0, 0.03587841291113454
607.0, 0.03772726967765892
608.0, 0.03874636284043825
609.0, 0.04059654009258376
610.0, 0.04186151645056587
611.0, 0.04161253189158276
612.0, 0.04227267246916968
613.0, 0.04158182447876452
614.0, 0.04061053999616961
615.0, 0.039057776392337804
616.0, 0.03686896305971216
617.0, 0.03433118774777925
618.0, 0.03156726790404074
619.0, 0.02903888006337792
620.0, 0.026558778434768743
621.0, 0.024623305945539953
622.0, 0.022754751017435317
623.0, 0.020361252215000705
624.0, 0.018539034626194464
625.0, 0.01652911895003122
626.0, 0.014835718713561766
627.0, 0.013710539664180427
628.0, 0.012588031811394073
629.0, 0.010858295014730302
630.0, 0.009616444471201026
631.0, 0.008442192065257105
632.0, 0.0075346581235483595
633.0, 0.007002874620789784
634.0, 0.006497017751292378
635.0, 0.005688508428182151
636.0, 0.005123927827321798
637.0, 0.004509593340562475
638.0, 0.003749833643608707
639.0, 0.003228228232459921
640.0, 0.0029605534217183363
641.0, 0.0025550356877648167
642.0, 0.0021115092372366823
643.0, 0.001786540725213082
644.0, 0.0016307141148835544
645.0, 0.001622962537310398
646.0, 0.0015013528125429698
647.0, 0.0010459359354008104
648.0, 0.0008878817738630702
649.0, 0.0006007804249685008
650.0, 0.0006017935148420115
651.0, 0.0005117708450375297
652.0, 0.00020934103365816573
653.0, 7.652605883408229e-05
654.0, 0.0001264787452011414
655.0, 0.00011929320468588188
656.0, 0.00014036434722356593
657.0, 1.5239900223752106e-05
658.0, 5.213812786157276e-05
659.0, 6.577661340004364e-05
660.0, 0.00015586262370050419
661.0, 0.0002386381684734439
662.0, 0.00018157383265558056
663.0, 0.00012356976537069143
664.0, 0.00022125030898592656
665.0, 1.524609821647346e-05
666.0, 0.00015708836610800047
667.0, 0.00011631036917048631
668.0, 0.0001975819679505364
669.0, 0.00025058041990381786
670.0, 0.000170568864032598
671.0, 0.00014129365032668954
672.0, 0.000651660919858085
673.0, 0.0006200189880534321
674.0, 0.0005037750256383144
675.0, 0.0005010729631213267
676.0, 0.00048387132172921453
677.0, 0.000499250637667291
678.0, 0.000735745814692428
679.0, 0.0006898853618194966
680.0, 0.0007069772200781295
681.0, 0.0007988643649586701
682.0, 0.0008819564227132919
683.0, 0.0008734814332580597
684.0, 0.0007489408286124083
685.0, 0.000908543059281176
686.0, 0.001249929663512135
687.0, 0.0014372831234360196
688.0, 0.0013621598090781035
689.0, 0.0012898051421436044
690.0, 0.001521541114863323
691.0, 0.0015554807944485188
692.0, 0.001594052490564689
693.0, 0.0020463114270086722
694.0, 0.0022163161173517566
695.0, 0.002050562037651526
696.0, 0.0022174978106287344
697.0, 0.0022167947780698293
698.0, 0.0021799994703792093
699.0, 0.00249632474184324
700.0, 0.0025417941819908295
701.0, 0.0024172420324083325
702.0, 0.0025386712301794187
703.0, 0.0023007952369185707
704.0, 0.002459822591617188
705.0, 0.00256563954947776
706.0, 0.002108762557181565
707.0, 0.002017060827543356
708.0, 0.002669090499092298
709.0, 0.00280754040069545
710.0, 0.002968971700653193
711.0, 0.003195534260115615
712.0, 0.0031697409093078776
713.0, 0.002799236488105038
714.0, 0.0024457926841962283
715.0, 0.0025160838905578706
716.0, 0.0026167554850317857
717.0, 0.002916025679637424
718.0, 0.0030546609450829852
719.0, 0.0025727330127321936
720.0, 0.0021481936160376814
721.0, 0.002310052660481353
722.0, 0.002155063602718775
723.0, 0.0020110312183056057
724.0, 0.0023265597050442332
725.0, 0.002297124452312594
726.0, 0.001917689161060703
727.0, 0.0017872784882215277
728.0, 0.002114506510545088
729.0, 0.001986689986088478
730.0, 0.0016831365985445605
731.0, 0.0016733305909349362
732.0, 0.0017162247368483327
733.0, 0.0015248797082151003
734.0, 0.0013891261848411466
735.0, 0.0019030298167701232
736.0, 0.001765614540609897
737.0, 0.0014767456552799364
738.0, 0.0013673005625781667
739.0, 0.0013057234817832695
740.0, 0.0011885472259639059
741.0, 0.0012283033720957362
742.0, 0.0013555233857767454
743.0, 0.0014194841476732865
744.0, 0.0009989577823096263
745.0, 0.0008582150843629021
746.0, 0.0010742233580744922
747.0, 0.0010306815543408032
748.0, 0.0007128791722045657
749.0, 0.0008594339396520367
750.0, 0.0010349790469175836
751.0, 0.000919252151335762
752.0, 0.0006041009716400313
753.0, 0.0006112926305325346
754.0, 0.0009906180776320986
755.0, 0.0004919236808610642
756.0, 0.0003982904491796803
757.0, 0.0005170411474581196
758.0, 0.0004449357611087991
759.0, 0.0003422742237435778
760.0, 0.0004600245200025483
761.0, 0.0006039585286301923
762.0, 0.0003934626741448268
763.0, 0.0004829813987124195
764.0, 0.0002002150490325935
765.0, 0.00016281378838404467
766.0, 0.00047107035601063186
767.0, 0.0005312267197850782
768.0, 0.0006314241517714756
769.0, 0.0005166926817400811
770.0, 0.0005566073985042848
771.0, 0.0006073218785034874
772.0, 0.000397285332309519
773.0, 6.976712901269905e-05
774.0, 5.157280560227238e-05
775.0, 0.0005335168439228999
776.0, 1.010270192472883e-05
777.0, 7.499771701447371e-05
778.0, 0.00016801305549197707
779.0, 6.566987322607367e-05
780.0, 2.4887734631129076e-05
781.0, 1.7136498170325612e-05
782.0, 6.122384417548382e-05
783.0, 7.376568402907027e-05
784.0, 0.00020295371142192237
785.0, 0.00022119298552557566
786.0, 0.0002153848480854945
787.0, 0.00037045792508334265
788.0, 0.0003882948448865016
789.0, 0.00013328979673577705
790.0, 2.6476036841093858e-05
791.0, 4.822435517132303e-05
792.0, 5.70792772096206e-05
793.0, 6.85620894583908e-05
794.0, 0.0004121592949158541
795.0, 0.00017138639919446605
796.0, 0.00014520169895594908
797.0, 0.00038444875874110956
798.0, 0.0001769573794416891
799.0, 0.0001646124921254759
800.0, 9.484351771614684e-05
801.0, 0.00021220089758857804
802.0, 0.00017525555439278784
803.0, 7.352618772750781e-06
804.0, 9.959176607132927e-05
805.0, 0.0001224288068045492
806.0, 0.00016242546667497273
807.0, 0.00011670847769123595
808.0, 0.0002740484986118529
809.0, 0.00013569598772036553
810.0, 0.00040020779700939953
811.0, 0.0001285645536349224
812.0, 0.00018296886832516366
813.0, 0.0004847767146785049
814.0, 0.00045128578244739437
815.0, 0.0003080560716164821
816.0, 0.00020991291572106883
817.0, 0.00037431458316626636
818.0, 0.0004297167892483402
819.0, 0.0005217159252127072
820.0, 0.0006025972139783679
821.0, 0.0006306784381332687
822.0, 0.0006024170647480604
823.0, 0.00045568697558115987
824.0, 0.0006960452293643404
825.0, 0.0009661765939776205
826.0, 0.0009521718900983618
827.0, 0.0009635837588140346
828.0, 0.001008315028821804
829.0, 0.001007242039661534
830.0, 0.001324673989219774
831.0, 0.0011845873414802629
832.0, 0.0010074602694036714
833.0, 0.0012385723015842503
834.0, 0.0014457747168348932
835.0, 0.001512355601951847
836.0, 0.001580905581495009
837.0, 0.0015736371670867365
838.0, 0.0020676934699432204
839.0, 0.0019313434361097532
840.0, 0.0014978936027897978
841.0, 0.001536717967922504
842.0, 0.0018332361404873017
843.0, 0.0018659355481495594
844.0, 0.001668466214671758
845.0, 0.0017781330325638695
846.0, 0.0018837676245570853
847.0, 0.0024392474729167234
848.0, 0.0024813584310125693
849.0, 0.002269878966303571
850.0, 0.002417345790734933
851.0, 0.002636083058479334
852.0, 0.0026562351792178158
853.0, 0.002713975129442514
854.0, 0.0028509372108311273
855.0, 0.0030587370381151982
856.0, 0.002945799853551584
857.0, 0.0028567796288223204
858.0, 0.003295994923928187
859.0, 0.003584303849705067
860.0, 0.003906508772697224
861.0, 0.00419491217300952
862.0, 0.004153894966036179
863.0, 0.0039958018584218625
864.0, 0.004188560896602904
865.0, 0.004630395347974787
866.0, 0.004694437875255729
867.0, 0.005121868816803239
868.0, 0.005342045560031367
869.0, 0.005290793366463273
870.0, 0.005280019096216985
871.0, 0.005438633986757304
872.0, 0.005705299699445014
873.0, 0.005944158391629835
874.0, 0.006009522934316082
875.0, 0.005620851068966388
876.0, 0.005643940214520694
877.0, 0.005842904622952603
878.0, 0.005863186858349637
879.0, 0.005697270268487162
880.0, 0.005630772073855451
881.0, 0.005626374206786622
882.0, 0.005103261124403924
883.0, 0.005530820255602366
884.0, 0.005109326609677838
885.0, 0.004890655556290379
886.0, 0.004713935157691582
887.0, 0.004405145230978938
888.0, 0.004325796260682546
889.0, 0.004029104472684092
890.0, 0.0036707004533346817
891.0, 0.0034743810381366743
892.0, 0.003327103493588274
893.0, 0.0032282178859502153
894.0, 0.003001824467978621
895.0, 0.0026357208429591897
896.0, 0.002429810081866588
897.0, 0.002451800830814241
898.0, 0.0019282360292331912
899.0, 0.0017759048197248132
900.0, 0.001738474191421408
901.0, 0.0017521643181838203
902.0, 0.0016167138758471841
903.0, 0.001218224199849603
904.0, 0.0010476470139468288
905.0, 0.0011030309559413043
906.0, 0.0010334161042711368
907.0, 0.001014952924183603
908.0, 0.0009578442988960109
909.0, 0.0006613912952317412
910.0, 0.0004793340667883679
911.0, 0.0006558987558675598
912.0, 0.0005604356364279495
913.0, 0.0005171598312086771
914.0, 0.00010068990182238014
915.0, 6.681185580828151e-05
916.0, 0.0002597989964477723
917.0, 0.0002981632240902289
918.0, 0.00011082658832735275
919.0, 0.0001485083815078752
920.0, 0.0002672628346917609
921.0, 6.229167342336375e-05
922.0, 0.00032044937396238194
923.0, 2.737818015493163e-05
924.0, 0.000304447675997715
925.0, 0.0002647801832250192
926.0, 7.026618388492527e-05
927.0, 0.00011182309225469414
928.0, 8.93311887081909e-05
929.0, 9.054560487198493e-05
930.0, 6.856273180600085e-05
931.0, 0.00018237776744142807
932.0, 0.00012940499366331947
933.0, 0.0001041749506675403
934.0, 0.0001650210230676521
935.0, 5.0644795237210845e-05
936.0, 0.0003502369372779237
937.0, 0.0003364465904774266
938.0, 0.0006762374380767727
939.0, 0.0008048553337518385
940.0, 0.000615161579084206
941.0, 0.0006860431696181624
942.0, 0.0008845490215983221
943.0, 0.0007349317931996493
944.0, 0.0010141636084950746
945.0, 0.0014334314326398892
946.0, 0.0015486220635004479
947.0, 0.0018933873938498927
948.0, 0.0023105492789639017
949.0, 0.002439113676787206
950.0, 0.002428813595725992
951.0, 0.0027606389543653256
952.0, 0.0035921298760026145
953.0, 0.003517627312636802
954.0, 0.004258685422756784
955.0, 0.005399371939707292
956.0, 0.006253804645938802
957.0, 0.00724574428405692
958.0, 0.008439150887187118
959.0, 0.009624085901053039
960.0, 0.011183534492141654
961.0, 0.012957798147496438
962.0, 0.014723088619525168
963.0, 0.01732603721393129
964.0, 0.01985131445443984
965.0, 0.023463252709085163
966.0, 0.027939709110497046
967.0, 0.03330489872416141
968.0, 0.04086821149606089
969.0, 0.050225704647299085
970.0, 0.06417645372781103
971.0, 0.0818234948397302
972.0, 0.10384839263823491
973.0, 0.12957783558166794
974.0, 0.15680372442223126
975.0, 0.18634774334453716
976.0, 0.22179779032991662
977.0, 0.2657944618644823
978.0, 0.3236933748100816
979.0, 0.4050377006277152
980.0, 0.5158163877084364
981.0, 0.6521770450094244
982.0, 0.8030066185749714
983.0, 0.9406811840889805
984.0, 0.9949130193664706
985.0, 0.8974206131676088
986.0, 0.6722693767612069
987.0, 0.44903731625011406
988.0, 0.2920659537977918
989.0, 0.19418476158721928
990.0, 0.13578178751975478
991.0, 0.09937014570206558
992.0, 0.07502567498969455
993.0, 0.05835807118064762
994.0, 0.046361354777442555
995.0, 0.037471746914394824
996.0, 0.030401293690999132
997.0, 0.02525841073803043
998.0, 0.02100749999547547
999.0, 0.01766702548506199
1000.0, 0.015073925241406407
1001.0, 0.01272776949375267
1002.0, 0.010663143844541383
1003.0, 0.009171250648407939
1004.0, 0.007874758511115331
1005.0, 0.0064180709800030515
1006.0, 0.005092411267066352
1007.0, 0.004546505746260819
1008.0, 0.0038002814378469488
1009.0, 0.0029605396237715794
1010.0, 0.002548392293120985
1011.0, 0.002180664055214588
1012.0, 0.0018265146267192505
1013.0, 0.0015287652631014485
1014.0, 0.0007382270463690234
1015.0, 0.0004901164992193726
1016.0, 0.0006068271677859877
1017.0, 0.0004951803531157505
1018.0, 3.60642800476465e-05
1019.0, 0.0004191308473615436
1020.0, 0.0003549978869236467
1021.0, 0.0005454379651492035
1022.0, 0.000543368110722965
1023.0, 0.0005093165684406413
1024.0, 0.00043167281991064857
1025.0, 0.0002788703150802959
1026.0, 0.0005748792092891606
1027.0, 0.0005825203899489875
1028.0, 9.182777357041713e-05
1029.0, 5.342855568655771e-05
1030.0, 6.827960856627296e-05
1031.0, 3.087723921672657e-05
1032.0, 0.00012146888299257115
1033.0, 0.00018271249028785358
1034.0, 0.0007706764797967866
1035.0, 0.0009922625864121858
1036.0, 0.0012099181362502523
1037.0, 0.001768563383157356
1038.0, 0.0020648301819239673
1039.0, 0.002448609114105541
1040.0, 0.002727544139121278
1041.0, 0.0029882511485196466
1042.0, 0.0035562997337287056
1043.0, 0.0037681516519061614
1044.0, 0.003973749974058455
1045.0, 0.004964065461870708
1046.0, 0.005871133157740071
1047.0, 0.0060828034723409835
1048.0, 0.0068872042331505874
1049.0, 0.007341445546541636
1050.0, 0.00782139719944365
1051.0, 0.007962943498336303
1052.0, 0.008627175382214072
1053.0, 0.009007704361631726
1054.0, 0.00943722824621223
1055.0, 0.009708936987965999
1056.0, 0.009607647325815963
1057.0, 0.009626642418574438
1058.0, 0.009099912953208103
1059.0, 0.00873340854891694
1060.0, 0.008722534259547268
1061.0, 0.00875514091444894
1062.0, 0.008757535706337501
1063.0, 0.008190857866170182
1064.0, 0.00742125902307612
1065.0, 0.006934399051918809
1066.0, 0.006530408057719041
1067.0, 0.0061522360899867535
1068.0, 0.005934185121200307
1069.0, 0.005619462703343167
1070.0, 0.005077235963070879
1071.0, 0.005212349726751793
1072.0, 0.005286290566492906
1073.0, 0.004894275852244372
1074.0, 0.0047191176076763
1075.0, 0.004979998713709971
1076.0, 0.005129124584282028
1077.0, 0.0053828405861986485
1078.0, 0.006042565123150604
1079.0, 0.0064418535458653815
1080.0, 0.006809897562526475
1081.0, 0.007126194004350936
1082.0, 0.007996700491341192
1083.0, 0.009140250982968206
1084.0, 0.010048437557507665
1085.0, 0.011075735459192658
1086.0, 0.012599383539144325
1087.0, 0.01384146387676383
1088.0, 0.014921180031766196
1089.0, 0.01575389287167144
1090.0, 0.017511202514733634
1091.0, 0.018879411162211646
1092.0, 0.019873601006895288
1093.0, 0.021127814642833066
1094.0, 0.02196798024449186
1095.0, 0.02170531077520035
1096.0, 0.02116442948315619
1097.0, 0.020565132173066103
1098.0, 0.01998975848368935
1099.0, 0.01973800859508013
1100.0, 0.018578751113241466
1101.0, 0.01690184103150578
1102.0, 0.015286326492479393
1103.0, 0.013525963010407416
1104.0, 0.011627474410360997
1105.0, 0.010009534088876063
1106.0, 0.008579563048545956
1107.0, 0.006991559007476667
1108.0, 0.006031549684844839
1109.0, 0.004991396201429357
1110.0, 0.00412585996361066
1111.0, 0.003144051997759158
1112.0, 0.002575008492895579
1113.0, 0.0021796151290266225
1114.0, 0.0014014176656333157
1115.0, 0.0008699512243844626
1116.0, 0.0010359254931738564
1117.0, 0.0009372144064684535
1118.0, 0.0010102152914076429
1119.0, 0.0006751028393957026
1120.0, 0.0007563167120181203
1121.0, 0.0012056244759167344
1122.0, 0.0013021641541318453
1123.0, 0.0016984345129007505
1124.0, 0.0018843197209939084
1125.0, 0.0019557623357256484
1126.0, 0.002714367235800097
1127.0, 0.004011025895886212
1128.0, 0.005106914419118127
1129.0, 0.006108452051349207
1130.0, 0.006840605421034351
1131.0, 0.00839719379483724
1132.0, 0.009834585474970505
1133.0, 0.011571502098419976
1134.0, 0.013585667547647465
1135.0, 0.015529787631679762
1136.0, 0.017322178460902327
1137.0, 0.019460705959656557
1138.0, 0.021976177911752742
1139.0, 0.02372108000145191
1140.0, 0.025929913906901966
1141.0, 0.027351122080553843
1142.0, 0.02861758370319933
1143.0, 0.030218462893369036
1144.0, 0.03008658362198249
1145.0, 0.02946317509132099
1146.0, 0.028895714828726455
1147.0, 0.027663307308130415
1148.0, 0.025714962690625474
1149.0, 0.023458314534673112
1150.0, 0.0214721617411915
1151.0, 0.01971563826033385
1152.0, 0.017733382396907537
1153.0, 0.015379754095328444
1154.0, 0.013472235784721821
1155.0, 0.011987620804859362
1156.0, 0.010603370515266648
1157.0, 0.009233951595890017
1158.0, 0.008205394765160955
1159.0, 0.0073661806236320505
1160.0, 0.006412240122288091
1161.0, 0.005908640694167916
1162.0, 0.0049112550104829815
1163.0, 0.003987562750978653
1164.0, 0.0036351112126483216
1165.0, 0.0028062017253801612
1166.0, 0.002695546557549289
1167.0, 0.0023242848915966145
1168.0, 0.0021589899247623765
1169.0, 0.0021885615163219807
1170.0, 0.0018426382011000947
1171.0, 0.0014560144022406464
1172.0, 0.0010656688553899096
1173.0, 0.000835762471130858
1174.0, 0.0006957287277215938
1175.0, 0.00038879757323880736
1176.0, 0.00039899517645641873
1177.0, 0.00031029760842659016
1178.0, 0.00022524252667464854
1179.0, 0.0001550456528999184
1180.0, 9.978410805073557e-05
1181.0, 5.83293537182979e-05
1182.0, 0.00015551912056039786
1183.0, 6.595788316856303e-05
1184.0, 0.00011583719272688153
1185.0, 0.00021220748263379614
1186.0, 5.1479770243508514e-05
1187.0, 7.215772565692671e-05
1188.0, 0.00012366555217272542
1189.0, 0.0002800956664253079
1190.0, 5.3022170517287005e-05
1191.0, 4.133562166252356e-05
1192.0, 0.00023706467379485237
1193.0, 0.00025210790625839304
1194.0, 3.1451349511358976e-05
1195.0, 0.0001002175089453647
1196.0, 0.00023844369680441025
1197.0, 0.00032084011394526926
1198.0, 6.716869300748364e-05
1199.0, 0.00019371130598231403
1200.0, 5.7093360850479784e-05
1201.0, 3.243128611702591e-05
1202.0, 0.00014007387544494345
1203.0, 0.00011593115583042555
1204.0, 0.0001750789373432964
1205.0, 0.0001965456184463516
1206.0, 3.900471324097059e-05
1207.0, 3.899417047056685e-05
1208.0, 0.00019494789693124185
1209.0, 5.901786507477301e-05
1210.0, 0.00024019365343835045
1211.0, 0.00028526922235101916
1212.0, 0.00044450593919610016
1213.0, 0.0002884740537529109
1214.0, 0.0003553589998030414
1215.0, 0.0005095334358769604
1216.0, 0.000546578331380863
1217.0, 0.0005241692797670153
1218.0, 0.0004317503006906212
1219.0, 0.0002938952471704972
1220.0, 0.0003280542801954008
1221.0, 0.0006433900978385764
1222.0, 0.0006967860673581746
1223.0, 0.0006608393648851391
1224.0, 0.0007636297162640496
1225.0, 0.0007687896515661381
1226.0, 0.0007959485452687892
1227.0, 0.0009884720698896136
1228.0, 0.0010935798129047887
1229.0, 0.0009667083786556877
1230.0, 0.000834319548791765
1231.0, 0.0008655633733507525
1232.0, 0.0010776410326275685
1233.0, 0.0012792312300495279
1234.0, 0.001055851372907808
1235.0, 0.0012417564137004215
1236.0, 0.0011165431934269132
1237.0, 0.0010443342625341154
1238.0, 0.0011216842924538057
1239.0, 0.0008496553131171542
1240.0, 0.0009143943330298994
1241.0, 0.0009835438561708208
1242.0, 0.0008554753945313861
1243.0, 0.0007487249967625074
1244.0, 0.0007288651747433066
1245.0, 0.0006761278518254501
1246.0, 0.00045086254556158143
1247.0, 0.000635506868517668
1248.0, 0.0006334122317397692
1249.0, 0.0007117954495507602
1250.0, 0.0003377772413898754
1251.0, 0.0005733093271971561
1252.0, 0.0003663346510707196
1253.0, 0.00042249525879853707
1254.0, 0.0004025305452201165
1255.0, 0.0003045967465674224
1256.0, 0.0002975326322309211
1257.0, 0.0003027277399104227
1258.0, 0.0003678579849739789
1259.0, 0.00046756723956670784
1260.0, 0.0004936190995692184
1261.0, 0.0004418391729435736
1262.0, 0.00018501987826540026
1263.0, 0.00028383679828020505
1264.0, 0.00022485687954998808
1265.0, 0.0002173517362271274
1266.0, 0.00021308276069068703
1267.0, 0.00015326076928612184
1268.0, 3.079284658799615e-05
1269.0, 0.00017716071740058617
1270.0, 0.0003293451622159778
1271.0, 0.00015408408357782982
1272.0, 7.531895046506559e-05
1273.0, 0.0002589918661578979
1274.0, 0.00024410581255190084
1275.0, 8.081596579205066e-06
1276.0, 8.351566011080636e-05
1277.0, 1.104410887548745e-05
1278.0, 0.0001339681919696077
1279.0, 0.0001732370445221979
1280.0, 6.397480828596139e-05
1281.0, 5.7382717621260735e-05
1282.0, 1.3803482947693943e-05
1283, 0.0
1284, 0.0
1285, 0.0
1286, 0.0
1287, 0.0
1288, 0.0
1289, 0.0
1290, 0.0
1291, 0.0
1292, 0.0
1293, 0.0
1294, 0.0
1295, 0.0
1296, 0.0
1297, 0.0
1298, 0.0
1299, 0.0
1300, 0.0
1301, 0.0
1302, 0.0
1303, 0.0
1304, 0.0
1305, 0.0
1306, 0.0
1307, 0.0
1308, 0.0
1309, 0.0
1310, 0.0
1311, 0.0
1312, 0.0
1313, 0.0
1314, 0.0
1315, 0.0
1316, 0.0
1317, 0.0
1318, 0.0
1319, 0.0
1320, 0.0
1321, 0.0
1322, 0.0
1323, 0.0
1324, 0.0
1325, 0.0
1326, 0.0
1327, 0.0
1328, 0.0
1329, 0.0
1330, 0.0
1331, 0.0
1332, 0.0
1333, 0.0
1334, 0.0
1335, 0.0
1336, 0.0
1337, 0.0
1338, 0.0
1339, 0.0
1340, 0.0
1341, 0.0
1342, 0.0
1343, 0.0
1344, 0.0
1345, 0.0
1346, 0.0
1347, 0.0
1348, 0.0
1349, 0.0
1350, 0.0
1351, 0.0
1352, 0.0
1353, 0.0
1354, 0.0
1355, 0.0
1356, 0.0
1357, 0.0
1358, 0.0
1359, 0.0
1360, 0.0
1361, 0.0
1362, 0.0
1363, 0.0
1364, 0.0
1365, 0.0
1366, 0.0
1367, 0.0
1368, 0.0
1369, 0.0
1370, 0.0
1371, 0.0
1372, 0.0
1373, 0.0
1374, 0.0
1375, 0.0
1376, 0.0
1377, 0.0
1378, 0.0
1379, 0.0
1380, 0.0
1381, 0.0
1382, 0.0
1383, 0.0
1384, 0.0
1385, 0.0
1386, 0.0
1387, 0.0
1388, 0.0
1389, 0.0
1390, 0.0
1391, 0.0
1392, 0.0
1393, 0.0
1394, 0.0
1395, 0.0
1396, 0.0
1397, 0.0
1398, 0.0
1399, 0.0
1400, 0.0
1401, 0.0
1402, 0.0
1403, 0.0
1404, 0.0
1405, 0.0
1406, 0.0
1407, 0.0
1408, 0.0
1409, 0.0
1410, 0.0
1411, 0.0
1412, 0.0
1413, 0.0
1414, 0.0
1415, 0.0
1416, 0.0
1417, 0.0
1418, 0.0
1419, 0.0
1420, 0.0
1421, 0.0
1422, 0.0
1423, 0.0
1424, 0.0
1425, 0.0
1426, 0.0
1427, 0.0
1428, 0.0
1429, 0.0
1430, 0.0
1431, 0.0
1432, 0.0
1433, 0.0
1434, 0.0
1435, 0.0
1436, 0.0
1437, 0.0
1438, 0.0
1439, 0.0
1440, 0.0
1441, 0.0
1442, 0.0
1443, 0.0
1444, 0.0
1445, 0.0
1446, 0.0
1447, 0.0
1448, 0.0
1449, 0.0
1450, 0.0
1451, 0.0
1452, 0.0
1453, 0.0
1454, 0.0
1455, 0.0
1456, 0.0
1457, 0.0
1458, 0.0
1459, 0.0
1460, 0.0
1461, 0.0
1462, 0.0
1463, 0.0
1464, 0.0
1465, 0.0
1466, 0.0
1467, 0.0
1468, 0.0
1469, 0.0
1470, 0.0
1471, 0.0
1472, 0.0
1473, 0.0
1474, 0.0
1475, 0.0
1476, 0.0
1477, 0.0
1478, 0.0
1479, 0.0
1480, 0.0
1481, 0.0
1482, 0.0
1483, 0.0
1484, 0.0
1485, 0.0
1486, 0.0
1487, 0.0
1488, 0.0
1489, 0.0
1490, 0.0
1491, 0.0
1492, 0.0
1493, 0.0
1494, 0.0
1495, 0.0
1496, 0.0
1497, 0.0
1498, 0.0
1499, 0.0
1500, 0.0
1501, 0.0
1502, 0.0
1503, 0.0
1504, 0.0
1505, 0.0
1506, 0.0
1507, 0.0
1508, 0.0
1509, 0.0
1510, 0.0
1511, 0.0
1512, 0.0
1513, 0.0
1514, 0.0
1515, 0.0
1516, 0.0
1517, 0.0
1518, 0.0
1519, 0.0
1520, 0.0
1521, 0.0
1522, 0.0
1523, 0.0
1524, 0.0
1525, 0.0
1526, 0.0
1527, 0.0
1528, 0.0
1529, 0.0
1530, 0.0
1531, 0.0
1532, 0.0
1533, 0.0
1534, 0.0
1535, 0.0
1536, 0.0
1537, 0.0
1538, 0.0
1539, 0.0
1540, 0.0
1541, 0.0
1542, 0.0
1543, 0.0
1544, 0.0
1545, 0.0
1546, 0.0
1547, 0.0
1548, 0.0
1549, 0.0
1550, 0.0
1551, 0.0
1552, 0.0
1553, 0.0
1554, 0.0
1555, 0.0
1556, 0.0
1557, 0.0
1558, 0.0
1559, 0.0
1560, 0.0
1561, 0.0
1562, 0.0
1563, 0.0
1564, 0.0
1565, 0.0
1566, 0.0
1567, 0.0
1568, 0.0
1569, 0.0
1570, 0.0
1571, 0.0
1572, 0.0
1573, 0.0
1574, 0.0
1575, 0.0
1576, 0.0
1577, 0.0
1578, 0.0
1579, 0.0
1580, 0.0
1581, 0.0
1582, 0.0
1583, 0.0
1584, 0.0
1585, 0.0
1586, 0.0
1587, 0.0
1588, 0.0
1589, 0.0
1590, 0.0
1591, 0.0
1592, 0.0
1593, 0.0
1594, 0.0
1595, 0.0
1596, 0.0
1597, 0.0
1598, 0.0
1599, 0.0
