30, 0.0
31, 0.0
32, 0.0
33, 0.0
34, 0.0
35, 0.0
36, 0.0
37, 0.0
38, 0.0
39, 0.0
40, 0.0
41, 0.0
42, 0.0
43, 0.0
44, 0.0
45, 0.0
46, 0.0
47, 0.0
48, 0.0
49, 0.0
50, 0.0
51, 0.0
52, 0.0
53, 0.0
54, 0.0
55, 0.0
56, 0.0
57, 0.0
58, 0.0
59, 0.0
60, 0.0
61, 0.0
62, 0.0
63, 0.0
64, 0.0
65, 0.0
66, 0.0
67, 0.0
68, 0.0
69, 0.0
70, 0.0
71, 0.0
72, 0.0
73, 0.0
74, 0.0
75, 0.0
76, 0.0
77, 0.0
78, 0.0
79, 0.0
80, 0.0
81, 0.0
82, 0.0
83, 0.0
84, 0.0
85, 0.0
86, 0.0
87, 0.0
88, 0.0
89, 0.0
90.0, 0.0005604682579188193
91.0, 0.005655634238999024
92.0, 0.006119286172383547
93.0, 0.005730465131448764
94.0, 0.007414824945481886
95.0, 0.006416536573441962
96.0, 0.006074663488301531
97.0, 0.006301206856484246
98.0, 0.0054382604369104335
99.0, 0.0035923095366852706
100.0, 0.0016862259283039142
101.0, 0.0002672764901833747
102.0, 0.0006378330578054481
103.0, 0.0013045805927726821
104.0, 0.0020003239395772537
105.0, 0.0020463293044236915
106.0, 0.00386225973817612
107.0, 0.005975611867878417
108.0, 0.0078104300702594755
109.0, 0.008472450782259631
110.0, 0.008174400787009154
111.0, 0.007575613254092284
112.0, 0.00804084748923165
113.0, 0.012820966679856424
114.0, 0.01878908361404792
115.0, 0.024893584852373182
116.0, 0.02606542024657559
117.0, 0.024156334707650887
118.0, 0.020509220455090894
119.0, 0.016437215552190687
120.0, 0.009666768795855105
121.0, 0.00606371030861236
122.0, 0.00604114829103349
123.0, 0.005441734029049254
124.0, 0.005669121318133598
125.0, 0.0061310321417783085
126.0, 0.006392186999241505
127.0, 0.004955713836455381
128.0, 0.00442074271597596
129.0, 0.004858716493547383
130.0, 0.006006618002902637
131.0, 0.007056225441232862
132.0, 0.008040675070154981
133.0, 0.008967413811143412
134.0, 0.009901389787758697
135.0, 0.010092577365671596
136.0, 0.0097920102272035
137.0, 0.009432755921430372
138.0, 0.009967027743968501
139.0, 0.010599844110593866
140.0, 0.011136965645136417
141.0, 0.011645814990777268
142.0, 0.012913084199473335
143.0, 0.0140750751922173
144.0, 0.014098952999702909
145.0, 0.015071436930038285
146.0, 0.016060848026827335
147.0, 0.01671820724355457
148.0, 0.015729969560057462
149.0, 0.014652931316460055
150.0, 0.013836124771342289
151.0, 0.013523546300441313
152.0, 0.013196483926198824
153.0, 0.013106318446499541
154.0, 0.01321847177361323
155.0, 0.013487534177723023
156.0, 0.013362085418073436
157.0, 0.013415425974268294
158.0, 0.01369853716021702
159.0, 0.01252379274752827
160.0, 0.012664267217137943
161.0, 0.012928602737032615
162.0, 0.011996180619584866
163.0, 0.010937216607637384
164.0, 0.010728778124257893
165.0, 0.01111127863824712
166.0, 0.010483359915615035
167.0, 0.011368778727323567
168.0, 0.011754656893803953
169.0, 0.010590369183018698
170.0, 0.011165299580917502
171.0, 0.011345508602278754
172.0, 0.011235010104196771
173.0, 0.010969186365484619
174.0, 0.009756735461280919
175.0, 0.009682519027419064
176.0, 0.010893548561348467
177.0, 0.010837738083627887
178.0, 0.010909937535730177
179.0, 0.011372405648349088
180.0, 0.012505778120219002
181.0, 0.011752377975349828
182.0, 0.01109659019118582
183.0, 0.0107287641495369
184.0, 0.010981266266447272
185.0, 0.010457856595267037
186.0, 0.010623569115368341
187.0, 0.011917473319113896
188.0, 0.01354000455052835
189.0, 0.012828815842287457
190.0, 0.011640224917205517
191.0, 0.011874859158925085
192.0, 0.012497190122809573
193.0, 0.012572660543858142
194.0, 0.012327019475003564
195.0, 0.012868710970911764
196.0, 0.012812986710901237
197.0, 0.01288284527953214
198.0, 0.013371223232891999
199.0, 0.014310672538224647
200.0, 0.01452796232551577
201.0, 0.014464701340578664
202.0, 0.014633187924301624
203.0, 0.015393375108830726
204.0, 0.01636411941459923
205.0, 0.017229417189513076
206.0, 0.0167852561502054
207.0, 0.019605311759516988
208.0, 0.023258459261510253
209.0, 0.02674097917324068
210.0, 0.029080619579407337
211.0, 0.03412309846054847
212.0, 0.040156178529859546
213.0, 0.04503179963992572
214.0, 0.05165383954051388
215.0, 0.057534032857694796
216.0, 0.06294707751855193
217.0, 0.07035822082051854
218.0, 0.0777384629818772
219.0, 0.08491530753671256
220.0, 0.09180173559211204
221.0, 0.09852446724494372
222.0, 0.10176359730512921
223.0, 0.10244038331941245
224.0, 0.10122044575179988
225.0, 0.0939020194550122
226.0, 0.08456396902309767
227.0, 0.07360188081492816
228.0, 0.060665521358369424
229.0, 0.04788981788360156
230.0, 0.036307440575069364
231.0, 0.02639603066580513
232.0, 0.018295928031416123
233.0, 0.013101629256602139
234.0, 0.009779342051213252
235.0, 0.0075907091498943115
236.0, 0.004848035565950339
237.0, 0.0027615904022510133
238.0, 0.0016174969221438838
239.0, 0.0021684532956819124
240.0, 0.0011885253512697424
241.0, 0.0005954964334166664
242.0, 0.0008969559413260405
243.0, 0.0016574402333521562
244.0, 0.0023927104740625827
245.0, 0.0028528199343634177
246.0, 0.002809697575798558
247.0, 0.00278689439722865
248.0, 0.0026274183072151295
249.0, 0.0024332829562244682
250.0, 0.0024147323322349775
251.0, 0.0023420643067564697
252.0, 0.002208649555721654
253.0, 0.0020915722130613427
254.0, 0.002432642199361812
255.0, 0.001999192275374761
256.0, 0.00176028667757642
257.0, 0.002153379022824894
258.0, 0.0013047917934587425
259.0, 0.0008488900162190867
260.0, 0.0006453228822098562
261.0, 0.0005630907941368895
262.0, 0.0007086723443620853
263.0, 0.0005514185184281198
264.0, 0.0003274088735259461
265.0, 0.0008935389828032161
266.0, 0.0015709485803251124
267.0, 0.0019688082771401228
268.0, 0.0020024489848290135
269.0, 0.0019687375977457604
270.0, 0.002764232588772037
271.0, 0.003453070225434605
272.0, 0.003401946807164852
273.0, 0.00414630005259416
274.0, 0.004735118490219342
275.0, 0.005298550990154037
276.0, 0.006048068649879803
277.0, 0.005967530521805538
278.0, 0.006141949134542798
279.0, 0.006452365747947204
280.0, 0.0059806998926643295
281.0, 0.006838843671307626
282.0, 0.0075274784942317265
283.0, 0.007684325136462333
284.0, 0.00870553609960433
285.0, 0.009221184838072138
286.0, 0.009177767812611775
287.0, 0.008478277049759675
288.0, 0.009587605666110516
289.0, 0.009640716170631112
290.0, 0.009514931183294125
291.0, 0.01064879269059076
292.0, 0.012530194766844884
293.0, 0.011973545272207464
294.0, 0.01003699200799878
295.0, 0.011571291114954328
296.0, 0.012403497664827417
297.0, 0.013394406556187989
298.0, 0.01465854983996566
299.0, 0.014934763169798
300.0, 0.015161029550791386
301.0, 0.015379122890702406
302.0, 0.015624160299731167
303.0, 0.016713614852693615
304.0, 0.017694305486515863
305.0, 0.018632800207399308
306.0, 0.01960992688817832
307.0, 0.02068438995387854
308.0, 0.021797203252371045
309.0, 0.022868918976755286
310.0, 0.02370127846127237
311.0, 0.025351994969609222
312.0, 0.027325324607355803
313.0, 0.029432878875144747
314.0, 0.031203947195546696
315.0, 0.03501926738824656
316.0, 0.039688180128775834
317.0, 0.04474527333673839
318.0, 0.05011795351247759
319.0, 0.05771086574650932
320.0, 0.0667794418813974
321.0, 0.0768606417689402
322.0, 0.0900000042310639
323.0, 0.10825979265766623
324.0, 0.13246361415252558
325.0, 0.16457211216943093
326.0, 0.20482285306138115
327.0, 0.25044952978855844
328.0, 0.3004340160328655
329.0, 0.3531843988790075
330.0, 0.4028823295802872
331.0, 0.44321692154534237
332.0, 0.47284203600161506
333.0, 0.49275086742860913
334.0, 0.4904077508150762
335.0, 0.474201827557841
336.0, 0.44678896234593224
337.0, 0.40534631164165386
338.0, 0.35799628889470825
339.0, 0.30911915951493624
340.0, 0.26185537281732796
341.0, 0.21858506914404066
342.0, 0.18135609538704137
343.0, 0.1500275904162338
344.0, 0.12497869340284648
345.0, 0.10544036216350665
346.0, 0.09066386951384683
347.0, 0.07959733661162287
348.0, 0.0704530447628612
349.0, 0.0638939810692012
350.0, 0.05833635897444952
351.0, 0.05358974008879966
352.0, 0.04996136803375007
353.0, 0.04590265991772615
354.0, 0.04251585342609755
355.0, 0.03996749021111869
356.0, 0.037095545411549004
357.0, 0.03531491038430864
358.0, 0.033424299940232285
359.0, 0.030997937312430505
360.0, 0.030494749919955367
361.0, 0.02990381672017119
362.0, 0.029303370314664474
363.0, 0.02875100831129264
364.0, 0.02794449478765414
365.0, 0.027421273924577196
366.0, 0.02674302963118126
367.0, 0.025358549566344448
368.0, 0.024787633274447635
369.0, 0.024386744250201358
370.0, 0.02418897052970499
371.0, 0.024340930737169326
372.0, 0.024146178694612212
373.0, 0.024227495290827083
374.0, 0.024235833586922658
375.0, 0.022957954142663
376.0, 0.022174225227488322
377.0, 0.02204166953726903
378.0, 0.022611546544090005
379.0, 0.023976521248496557
380.0, 0.022630104745828467
381.0, 0.022081786892482955
382.0, 0.023142269259910652
383.0, 0.023526472678627945
384.0, 0.022066875399279758
385.0, 0.0217494299858889
386.0, 0.02354744737630259
387.0, 0.021404959412955355
388.0, 0.021066867608411657
389.0, 0.02132500737650876
390.0, 0.02141139669092635
391.0, 0.021461044475469274
392.0, 0.021411103855038298
393.0, 0.02122602769843508
394.0, 0.02086451047287528
395.0, 0.02114511887946094
396.0, 0.020504975272586785
397.0, 0.019632205792766314
398.0, 0.019437664942143957
399.0, 0.019361698802599615
400.0, 0.01928179343455526
401.0, 0.01916307311788301
402.0, 0.018952474404377955
403.0, 0.01867135526532849
404.0, 0.01844636158420341
405.0, 0.018115101838641564
406.0, 0.017258848934561685
407.0, 0.016924262574528375
408.0, 0.0161994891752523
409.0, 0.015229312806169787
410.0, 0.014880660998172774
411.0, 0.01468685945545605
412.0, 0.014259185006223791
413.0, 0.013718752219376943
414.0, 0.013898240215402957
415.0, 0.013745937407191185
416.0, 0.012623141930669208
417.0, 0.01110275599030979
418.0, 0.013319414332419994
419.0, 0.011713141980944242
420.0, 0.010399543971030507
421.0, 0.010715737978477817
422.0, 0.011512288099540786
423.0, 0.011225217093029276
424.0, 0.01028024519391181
425.0, 0.009045074119362898
426.0, 0.009495083062828133
427.0, 0.009206999272328672
428.0, 0.009036850652029407
429.0, 0.009398602106774456
430.0, 0.009401465897493097
431.0, 0.008623745832495934
432.0, 0.007788042815706917
433.0, 0.007383899306725152
434.0, 0.00779887535034969
435.0, 0.00844833452857987
436.0, 0.008542976748097392
437.0, 0.00751620322756218
438.0, 0.008164970389917956
439.0, 0.007990984949777095
440.0, 0.00808063763092964
441.0, 0.009400441715077566
442.0, 0.008315251175156368
443.0, 0.006920271052169
444.0, 0.0060843920779712415
445.0, 0.0067189483131524196
446.0, 0.0067319086164064216
447.0, 0.0073915286354591615
448.0, 0.00764364252195578
449.0, 0.006232282076518017
450.0, 0.006080628607792424
451.0, 0.006069469082197924
452.0, 0.006211576919146376
453.0, 0.0065659298357396865
454.0, 0.00706216103193872
455.0, 0.008064491501017132
456.0, 0.008589710394906075
457.0, 0.007229709628317623
458.0, 0.007682204712259524
459.0, 0.0065684396257919666
460.0, 0.0053600148561788585
461.0, 0.006487427243709532
462.0, 0.006441830497653446
463.0, 0.006894604166076079
464.0, 0.007455235971171782
465.0, 0.007360798033311455
466.0, 0.006292967910291743
467.0, 0.006517265356823997
468.0, 0.007512603796033976
469.0, 0.008216915272112147
470.0, 0.007174509102605111
471.0, 0.006910880460710857
472.0, 0.0073480261248179924
473.0, 0.008086066388746774
474.0, 0.008346649448782991
475.0, 0.009079069990948672
476.0, 0.00960913359530112
477.0, 0.008674522554045841
478.0, 0.009352894584855198
479.0, 0.009400106066452805
480.0, 0.00936097479382661
481.0, 0.01042261067797418
482.0, 0.009799681973371374
483.0, 0.009483544504700752
484.0, 0.009483156360022395
485.0, 0.009590762278794502
486.0, 0.00997387990493639
487.0, 0.01085354149917053
488.0, 0.011769718052674443
489.0, 0.01197857234579125
490.0, 0.012211244181959707
491.0, 0.012720823865702838
492.0, 0.012997957591041113
493.0, 0.01225417700721833
494.0, 0.012022571069368937
495.0, 0.011825633927775341
496.0, 0.011834936935504812
497.0, 0.012330495751728546
498.0, 0.01241778199117429
499.0, 0.01246478628615823
500.0, 0.012206118758890414
501.0, 0.011276658824511947
502.0, 0.012440872170969898
503.0, 0.01218050915183296
504.0, 0.011917542587842065
505.0, 0.01343125155896284
506.0, 0.01322065910052889
507.0, 0.01291503806692899
508.0, 0.012421177246555025
509.0, 0.011618901598645811
510.0, 0.011536757714400709
511.0, 0.011547775872558293
512.0, 0.011515452066078766
513.0, 0.011317240671908363
514.0, 0.011246637055514859
515.0, 0.011736849249402338
516.0, 0.01152857948099929
517.0, 0.009714776278926526
518.0, 0.009569852432687926
519.0, 0.00994825964473212
520.0, 0.010216770139563732
521.0, 0.009938393059372174
522.0, 0.009258462656359568
523.0, 0.009079739172946218
524.0, 0.008771833311380407
525.0, 0.008071153572705174
526.0, 0.008201476946052772
527.0, 0.008568030928544945
528.0, 0.008735687085542931
529.0, 0.008518935522000611
530.0, 0.008171279519866879
531.0, 0.008570325447090694
532.0, 0.008152617315433994
533.0, 0.0067270905502349425
534.0, 0.006892986253683334
535.0, 0.007815799876262682
536.0, 0.008514131509444706
537.0, 0.008521817266284457
538.0, 0.007190151204208645
539.0, 0.006797742401180696
540.0, 0.006187782664511298
541.0, 0.005322800644961934
542.0, 0.005055096580817335
543.0, 0.005038781616203082
544.0, 0.005056318541790889
545.0, 0.005077469394626907
546.0, 0.005130274166550659
547.0, 0.00599075630576419
548.0, 0.005771442871463736
549.0, 0.005224355611470475
550.0, 0.006311050453843915
551.0, 0.00581769358387563
552.0, 0.004765004536718661
553.0, 0.004062942408734328
554.0, 0.004945112898780327
555.0, 0.005239178271042604
556.0, 0.004651091674824094
557.0, 0.00431015286549517
558.0, 0.005480507844386743
559.0, 0.004600779912725448
560.0, 0.004302348659705268
561.0, 0.004368766239062115
562.0, 0.004616851997079267
563.0, 0.0052377481909905745
564.0, 0.004267443090476708
565.0, 0.0032215700926530215
566.0, 0.003074504631710571
567.0, 0.004066920139094955
568.0, 0.002537425458949655
569.0, 0.0016558841338258118
570.0, 0.0025683409913711984
571.0, 0.0035799248315928865
572.0, 0.0039614180353630055
573.0, 0.0037322073576901917
574.0, 0.003252136820971088
575.0, 0.003891259300402717
576.0, 0.003504263051460548
577.0, 0.0037990891152167743
578.0, 0.004167882880471992
579.0, 0.0021356253872038995
580.0, 0.002597505117065779
581.0, 0.0022418250715394252
582.0, 0.0017722655200254895
583.0, 0.003124790127831861
584.0, 0.0029033080416315435
585.0, 0.002048054429848442
586.0, 0.0012390850264484277
587.0, 0.001214988874671049
588.0, 0.001091624601263439
589.0, 0.00170680423602611
590.0, 0.0020931145690292387
591.0, 0.0015495059756915554
592.0, 0.001672536550041154
593.0, 0.001976032698013628
594.0, 0.0015252632461862817
595.0, 0.0003538366009790167
596.0, 0.0023752257776700116
597.0, 0.002554415858463964
598.0, 0.0018530204746058164
599.0, 0.0008430686157756061
600.0, 0.00047434705813894924
601.0, 0.0003398993699083565
602.0, 0.0009534097789069846
603.0, 0.0016914930287987749
604.0, 0.0007570915793828106
605.0, 0.0010950386183191225
606.0, 0.0014934440968152423
607.0, 0.0015503430093171365
608.0, 0.0008581517296096655
609.0, 0.002228667603228402
610.0, 0.0017936836545494302
611.0, 0.0008282790447617375
612.0, 0.0006833245996443801
613.0, 0.0006109470940994553
614.0, 0.0009712362805857724
615.0, 0.001199038713306998
616.0, 0.0010606110798787093
617.0, 0.0014790987723125543
618.0, 0.0013003129846258367
619.0, 0.0007844055672535232
620.0, 0.0002513992379583161
621.0, 0.0006043898590422505
622.0, 0.0007971436569454372
623.0, 0.000641071233380912
624.0, 0.0003164013188025528
625.0, 0.00032242799210853586
626.0, 0.00024309749199952918
627.0, 0.000618136364275588
628.0, 0.0008821221193693495
629.0, 0.00022777093410357647
630.0, 0.00013447530140890055
631.0, 0.0010202989000475376
632.0, 0.001411365577982143
633.0, 0.00035438743681585606
634.0, 0.0009361909637131446
635.0, 0.0006199015186409636
636.0, 0.0008578881066020689
637.0, 0.001866829758389523
638.0, 0.00128510466248058
639.0, 0.00101689917645061
640.0, 0.0009681850721695163
641.0, 0.0009150220066247151
642.0, 0.0003344414334609971
643.0, 0.000264690898466088
644.0, 0.0005611544163803075
645.0, 0.0010709932711152825
646.0, 0.0015919729331283685
647.0, 0.0010843415539085674
648.0, 0.0007147207364177698
649.0, 0.0006635061530201024
650.0, 0.0009581141503166833
651.0, 0.0003366446642200597
652.0, 0.00018635759893762682
653.0, 0.000270035903077888
654.0, 0.00042151713453602674
655.0, 0.0003689450756778259
656.0, 0.0008615083087884915
657.0, 0.0009435951779174171
658.0, 0.0006349524195940776
659.0, 0.0004699230986121154
660.0, 0.0012568499916258877
661.0, 0.0014571551967292626
662.0, 0.001656085081566006
663.0, 0.002647036599866542
664.0, 0.001145769488587352
665.0, 0.0007384682160863916
666.0, 0.0008576632604981057
667.0, 0.001237036995610815
668.0, 0.002795305471388332
669.0, 0.0020402745681463576
670.0, 0.001954774770885568
671.0, 0.0025875461142774612
672.0, 0.001007728574964441
673.0, 0.0019406152402160132
674.0, 0.0029552747867571667
675.0, 0.0030734615450291047
676.0, 0.0013501589507610237
677.0, 0.0012662997716010867
678.0, 0.001401031547562162
679.0, 0.0011148875465191593
680.0, 0.00015233594640918645
681.0, 0.0010119738707602371
682.0, 0.0022286641126729916
683.0, 0.0025707595675119083
684.0, 0.0019155504708741138
685.0, 0.0016294355457328407
686.0, 0.0011820242098591013
687.0, 0.0008853707814682118
688.0, 0.0010084340632233678
689.0, 0.0019038841625130226
690.0, 0.002710819328961526
691.0, 0.002736565376070839
692.0, 0.0023771550274303607
693.0, 0.0020249705227607974
694.0, 0.0018740096045288329
695.0, 0.002520408606351989
696.0, 0.0028432568046037024
697.0, 0.00266775029970891
698.0, 0.003060468049074644
699.0, 0.0034527572353883172
700.0, 0.003117305641487058
701.0, 0.0025470479885752457
702.0, 0.002748590790235749
703.0, 0.0038180996754127007
704.0, 0.0027351895546084523
705.0, 0.0019811722226923123
706.0, 0.003234774686095085
707.0, 0.0029855661804252228
708.0, 0.0034497572903244263
709.0, 0.0040566927821075495
710.0, 0.004541188593234753
711.0, 0.004724988239541097
712.0, 0.0044010746157176935
713.0, 0.004596043705678467
714.0, 0.005102016022448554
715.0, 0.005445384405143928
716.0, 0.005903795283582815
717.0, 0.006381368362892093
718.0, 0.0065529092817972106
719.0, 0.0062976643772240095
720.0, 0.006142069472792134
721.0, 0.007307695542863133
722.0, 0.007712775140468599
723.0, 0.007705786082566483
724.0, 0.009361971406878805
725.0, 0.009590629055914167
726.0, 0.011265939646122602
727.0, 0.013053149182545088
728.0, 0.013488787735597127
729.0, 0.014033474928215675
730.0, 0.01788769374334622
731.0, 0.021115555688922698
732.0, 0.022810767653867206
733.0, 0.026176755435218836
734.0, 0.028875238006658838
735.0, 0.032286601552365624
736.0, 0.03657875923887702
737.0, 0.041627105391528474
738.0, 0.04465034385610646
739.0, 0.04725674318497249
740.0, 0.048526775053542956
741.0, 0.047958547783526866
742.0, 0.045960577832993454
743.0, 0.04287654161108213
744.0, 0.039728015663896755
745.0, 0.03633066235494957
746.0, 0.03177891520701226
747.0, 0.027424193109515885
748.0, 0.02400218983711796
749.0, 0.021006316478476218
750.0, 0.018006195243046655
751.0, 0.015638562726955373
752.0, 0.014473903517073549
753.0, 0.012983417269885538
754.0, 0.011109941443752889
755.0, 0.010172238258584381
756.0, 0.010142142967693267
757.0, 0.008929232793627418
758.0, 0.007451304055787355
759.0, 0.006874387011998598
760.0, 0.006293658669897737
761.0, 0.005475089137273076
762.0, 0.004498081513651097
763.0, 0.0038231473761696417
764.0, 0.004892361760687474
765.0, 0.003365407939008842
766.0, 0.0029071351184964773
767.0, 0.0026915011378441387
768.0, 0.0012098014508234696
769.0, 0.002708463456042886
770.0, 0.0034898272441923946
771.0, 0.0027624563547426237
772.0, 0.001210789782824533
773.0, 0.0030247988616467843
774.0, 0.0014564658477596542
775.0, 0.0013597387776332567
776.0, 0.0018022746820733238
777.0, 0.0005243614545176049
778.0, 0.0010924274709197654
779.0, 0.0014812354652458436
780.0, 0.001653969581198025
781.0, 0.0014503821690933934
782.0, 0.0002577722388394445
783.0, 0.000761056309343503
784.0, 0.0010159154947945355
785.0, 0.0013640128371903955
786.0, 0.0026659304064877896
787.0, 0.0013328130793112494
788.0, 0.0008221763585182509
789.0, 0.0009401781940848898
790.0, 0.0013321615190497278
791.0, 0.001049160597401239
792.0, 0.001054747670938992
793.0, 0.0010762930890401323
794.0, 0.0010763393471276085
795.0, 0.0010690247822864576
796.0, 0.001202735402215973
797.0, 0.0012667961526097074
798.0, 0.001315291390777971
799.0, 0.0013842777592241635
800.0, 0.001501594354727411
801.0, 0.0011062829218779107
802.0, 0.0009021205161528367
803.0, 0.000745386459012694
804.0, 0.00036435733454599035
805.0, 0.000289714149191425
806.0, 0.00025605724362192604
807.0, 0.00034556572673998366
808.0, 0.0008228162037580823
809.0, 0.0023965268519682364
810.0, 0.0008839055350210315
811.0, 0.0005575902381191575
812.0, 0.0008353421780477853
813.0, 0.0007026426281903655
814.0, 0.0012570361836943427
815.0, 0.0008870514409541593
816.0, 0.0005177504664248642
817.0, 0.0005566488525296184
818.0, 0.0011647931100076544
819.0, 0.0003500401781971316
820.0, 0.000811427873593895
821.0, 0.001176081351939203
822.0, 0.0004095474635421105
823.0, 0.0004290824037935319
824.0, 0.0003005890099323615
825.0, 0.0009640396389640748
826.0, 0.001551594696200309
827.0, 7.795193896697116e-05
828.0, 0.0033675252731181693
829.0, 0.002003837859780261
830.0, 0.00038200257894535356
831.0, 0.0008669614068085101
832.0, 0.0009023246819893985
833.0, 0.0004702147214806896
834.0, 0.0009724071196515513
835.0, 0.0014256206931745822
836.0, 0.0003940178064369205
837.0, 0.0008215613674213932
838.0, 0.0019502825989100752
839.0, 0.0019515510366142183
840.0, 0.0007103389639138732
841.0, 0.00014659090008807774
842.0, 0.00010413521389721563
843.0, 0.0009527889462180777
844.0, 0.0014057922648057478
845.0, 0.0005422087072707868
846.0, 0.0002766929423284554
847.0, 0.0005106310079521694
848.0, 0.0010955865082646831
849.0, 0.0013841947612274101
850.0, 0.00035471310761714164
851.0, 0.0008249568303853965
852.0, 0.0008810059987900398
853.0, 0.0008378417296039432
854.0, 0.000855912764499429
855.0, 0.0008130089090632214
856.0, 0.0016941034304494733
857.0, 0.0027293963975341066
858.0, 0.0026355849851692134
859.0, 0.0006178490593487851
860.0, 0.0015302428343937188
861.0, 0.0022420570946547853
862.0, 0.0023940532554527216
863.0, 0.0021070303751025165
864.0, 0.0018749604974226547
865.0, 0.003064748510382937
866.0, 0.0033739118935240996
867.0, 0.0032310301070902054
868.0, 0.0032251652595459398
869.0, 0.0044434715611779505
870.0, 0.0049116736123693975
871.0, 0.004941889670954503
872.0, 0.004831015673539087
873.0, 0.004855394421946517
874.0, 0.004829664415863384
875.0, 0.003996146729630606
876.0, 0.003724520877809638
877.0, 0.003884679732747502
878.0, 0.0033152511276582
879.0, 0.0021206066451124957
880.0, 0.0019873416590324997
881.0, 0.0017973592954017921
882.0, 0.001112443503535194
883.0, 0.0009846301639608367
884.0, 0.0007699851098381364
885.0, 0.0006438476596712585
886.0, 0.0004448381520428285
887.0, 7.098461767024143e-05
888.0, 0.0002517901100217376
889.0, 0.0010600854166097884
890.0, 0.0009819687859905653
891.0, 0.0004629321212684666
892.0, 0.0009288636877351525
893.0, 0.0013950055563192111
894.0, 0.0015806681564595755
895.0, 0.0018451515801374454
896.0, 0.0019572699838988302
897.0, 0.0007462845255545792
898.0, 0.0019415501076381256
899.0, 0.00195055977279456
900.0, 0.0010731388449494164
901.0, 0.0001731339868553673
902.0, 0.0012745520747684204
903.0, 0.0014900807884635158
904.0, 0.001017444316591825
905.0, 0.0004924716181091674
906.0, 0.0006050770917396299
907.0, 0.0007032523967431213
908.0, 0.0006781418453408101
909.0, 0.0013914924794468852
910.0, 0.0021784587155207658
911.0, 0.0012916731437962658
912.0, 0.0019862972382112157
913.0, 0.001042971078749464
914.0, 0.000609260436738211
915.0, 0.0013338383942455268
916.0, 0.0016411768294748211
917.0, 0.0015702371641721333
918.0, 0.0017580733298589325
919.0, 0.0016165457773976793
920.0, 0.0008198586507425037
921.0, 0.00023625421426218073
922.0, 0.0015341664014127008
923.0, 0.002059419951396899
924.0, 0.0024582942385855777
925.0, 0.0035822862825161143
926.0, 0.001550712442483435
927.0, 0.000893340493942367
928.0, 0.0011117482356110197
929.0, 0.0012987869663643246
930.0, 0.00037874295846250473
931.0, 0.0023369698260773623
932.0, 0.0019095556935755042
933.0, 0.0014433318360227967
934.0, 0.0017387947329317692
935.0, 0.0022455469423439556
936.0, 0.000891513124877491
937.0, 0.0002163492099597736
938.0, 0.0007949250189430814
939.0, 0.0022252128254905
940.0, 0.0022775260695556353
941.0, 0.0025241169188248086
942.0, 0.0021441098465294394
943.0, 0.001981782105943385
944.0, 0.002587778351040862
945.0, 0.0030277247773473773
946.0, 0.001587019381331529
947.0, 0.0019890837977506806
948.0, 0.002943706479393934
949.0, 0.0026102576227436105
950.0, 0.002294597951756156
951.0, 0.002662418529069285
952.0, 0.002162079458593494
953.0, 0.0015472822706690977
954.0, 0.0021985463971938932
955.0, 0.0022109810569849574
956.0, 0.0016094362068342497
957.0, 0.0013293888574996188
958.0, 0.0013870104258635072
959.0, 0.0012765508490428224
960.0, 0.0011249992982483136
961.0, 0.0012799492831674555
962.0, 0.0013030602074484378
963.0, 0.0013098302264643018
964.0, 0.0019436667703399153
965.0, 0.0018440793866457527
966.0, 0.0019533283938430565
967.0, 0.001792176594420239
968.0, 0.0015046066524517883
969.0, 0.0021830718578612057
970.0, 0.0032856130988282647
971.0, 0.0035908804572198118
972.0, 0.0032363711126959273
973.0, 0.0025924147060460766
974.0, 0.002387093439125682
975.0, 0.0018203853935778874
976.0, 0.0021665011327741926
977.0, 0.00295730421801622
978.0, 0.00332864829472739
979.0, 0.0015878132360952638
980.0, 0.00199982130787079
981.0, 0.0029869353943167056
982.0, 0.003751271330043729
983.0, 0.003960533637315779
984.0, 0.004673515857943917
985.0, 0.004827581795888574
986.0, 0.004837824059711824
987.0, 0.004460102641725189
988.0, 0.003685671983894426
989.0, 0.004301335640962214
990.0, 0.0028823447817141984
991.0, 0.0020802829392912252
992.0, 0.0025423950202506677
993.0, 0.003991651090908277
994.0, 0.0035410233416601866
995.0, 0.0032040658351221688
996.0, 0.003393587645055877
997.0, 0.003699670251009572
998.0, 0.0036931050575534246
999.0, 0.005011422402145859
1000.0, 0.003627334997201161
1001.0, 0.003160527556740678
1002.0, 0.0035538303880622386
1003.0, 0.0036726126447590053
1004.0, 0.004817000106464091
1005.0, 0.004607075660252638
1006.0, 0.003889553975570553
1007.0, 0.0034470829611236847
1008.0, 0.0038805829652955636
1009.0, 0.003642253497867259
1010.0, 0.004005853528808806
1011.0, 0.003718697586622068
1012.0, 0.0032009198238849533
1013.0, 0.0035131839063726232
1014.0, 0.004427678964823418
1015.0, 0.004163753221221869
1016.0, 0.004052147289798403
1017.0, 0.003857232659053081
1018.0, 0.0029053889212209924
1019.0, 0.003781957246566909
1020.0, 0.004531017320720694
1021.0, 0.005483653949897913
1022.0, 0.006133075089698018
1023.0, 0.005708949008466152
1024.0, 0.0048642232643758354
1025.0, 0.004595225189776564
1026.0, 0.005067346011480829
1027.0, 0.006086236676834648
1028.0, 0.0071845535785067345
1029.0, 0.0070648869520073
1030.0, 0.008057414878539462
1031.0, 0.00799410124458115
1032.0, 0.007427851106770654
1033.0, 0.0076556851412071325
1034.0, 0.006241562484392545
1035.0, 0.007501003395383328
1036.0, 0.00871364748611429
1037.0, 0.008728391548518805
1038.0, 0.007541157142902431
1039.0, 0.009702772646289652
1040.0, 0.008898870837902553
1041.0, 0.009291229946082023
1042.0, 0.010830643846963642
1043.0, 0.012008349600046384
1044.0, 0.01065400505276685
1045.0, 0.010812957217984804
1046.0, 0.011788949936321
1047.0, 0.012541220228601125
1048.0, 0.012481527877925407
1049.0, 0.013875086695817421
1050.0, 0.013740248135169102
1051.0, 0.013990895126056451
1052.0, 0.014620893530842977
1053.0, 0.015271999345002668
1054.0, 0.015825127266662842
1055.0, 0.018220428964825553
1056.0, 0.018618432897948452
1057.0, 0.017973850566863944
1058.0, 0.018451766335680117
1059.0, 0.02361613813987126
1060.0, 0.02414297381553386
1061.0, 0.0266498946314626
1062.0, 0.028608362278618193
1063.0, 0.029429601685185974
1064.0, 0.03498531547055098
1065.0, 0.037539767797014234
1066.0, 0.041260839564650306
1067.0, 0.04621003700994432
1068.0, 0.05201537013589749
1069.0, 0.058119571026628014
1070.0, 0.06377876409468843
1071.0, 0.07289482426382221
1072.0, 0.0830580105385997
1073.0, 0.09285004436422313
1074.0, 0.10224148133173828
1075.0, 0.1177034492520043
1076.0, 0.13452276601654845
1077.0, 0.15506668667131965
1078.0, 0.1804508668972747
1079.0, 0.2104611688863766
1080.0, 0.23987701348829585
1081.0, 0.2830899546682996
1082.0, 0.3340063798315815
1083.0, 0.38999359297817826
1084.0, 0.4517941125470462
1085.0, 0.5382310137189844
1086.0, 0.6109543930749174
1087.0, 0.6920793710621017
1088.0, 0.7790759689711465
1089.0, 0.8610870659366757
1090.0, 0.9251065694320304
1091.0, 0.9694185885735725
1092.0, 0.992440191064687
1093.0, 0.9965978700581258
1094.0, 0.9794791651456337
1095.0, 0.9187697472391994
1096.0, 0.8600779435325796
1097.0, 0.7809432291673161
1098.0, 0.6950997559748352
1099.0, 0.6129564346309312
1100.0, 0.5332929682142961
1101.0, 0.46476475618665236
1102.0, 0.4037013585166124
1103.0, 0.3510968352478599
1104.0, 0.30641474234937444
1105.0, 0.2675211989223667
1106.0, 0.233014890873812
1107.0, 0.20560392893174986
1108.0, 0.1815597902583787
1109.0, 0.15967362920095599
1110.0, 0.1406301564005749
1111.0, 0.1306456536306449
1112.0, 0.1157997613040003
1113.0, 0.1030988724050443
1114.0, 0.09210057449391561
1115.0, 0.08139034982995363
1116.0, 0.0747681603843674
1117.0, 0.06655185325755966
1118.0, 0.06085647150652512
1119.0, 0.05715044427520478
1120.0, 0.05353139601213767
1121.0, 0.04682606373963259
1122.0, 0.04906513172042526
1123.0, 0.04861684823540501
1124.0, 0.04404827874213644
1125.0, 0.03736127910403421
1126.0, 0.033255798068091286
1127.0, 0.028333735042136213
1128.0, 0.024289549582694935
1129.0, 0.021831067778320782
1130.0, 0.0205932832253906
1131.0, 0.019543998429630102
1132.0, 0.017172139854919256
1133.0, 0.017193782132702687
1134.0, 0.015537654496049476
1135.0, 0.013752609761478263
1136.0, 0.013563632383628217
1137.0, 0.013189336073784936
1138.0, 0.011226992537935462
1139.0, 0.011257111903675284
1140.0, 0.011773406702467718
1141.0, 0.010978140758602838
1142.0, 0.00749397361657054
1143.0, 0.009671008155544778
1144.0, 0.00860510780524734
1145.0, 0.007438950211301667
1146.0, 0.007310334889776999
1147.0, 0.007781086152417647
1148.0, 0.006673779248537966
1149.0, 0.006466509268997581
1150.0, 0.005077798444711241
1151.0, 0.0035466875591207672
1152.0, 0.003578575164207078
1153.0, 0.006351174517245461
1154.0, 0.004190335443845231
1155.0, 0.0046414362013378
1156.0, 0.004885456165319376
1157.0, 0.0034954924604840023
1158.0, 0.0020883506185619513
1159.0, 0.0034543289076994377
1160.0, 0.002027864439183748
1161.0, 0.002071853690629588
1162.0, 0.0036372598092110644
1163.0, 0.004394259957639265
1164.0, 0.0022323287961406053
1165.0, 0.002278088305626842
1166.0, 0.001504486732223884
1167.0, 0.0007125728770700874
1168.0, 0.001090870882377851
1169.0, 0.0028718499304853334
1170.0, 0.0014766578290052812
1171.0, 0.001659707709764116
1172.0, 0.0033928725979857875
1173.0, 0.004502780696560983
1174.0, 0.001923788451905442
1175.0, 0.002479771687920383
1176.0, 0.0028197553888107125
1177.0, 0.002723042578206413
1178.0, 0.0024820360542363606
1179.0, 0.002460648522672882
1180.0, 0.0026270374064667843
1181.0, 0.0019063394563877006
1182.0, 0.0007926773008463784
1183.0, 0.0005437640799971488
1184.0, 0.0014260551334125688
1185.0, 0.0023638284693425324
1186.0, 0.0023013952258611656
1187.0, 0.001016289928209266
1188.0, 0.0014960117523348676
1189.0, 0.0023195519890463084
1190.0, 0.001382185181446268
1191.0, 0.0031552881323866746
1192.0, 0.0030783334154554794
1193.0, 0.0020802209838539643
1194.0, 0.0013401343987873827
1195.0, 0.0015299137515660537
1196.0, 0.0024247535248288882
1197.0, 0.0020512002882351146
1198.0, 0.0018160916649925985
1199.0, 0.0021054461499525183
1200.0, 0.002040576447268529
1201.0, 0.0009902590920179487
1202.0, 0.0030986334508657115
1203.0, 0.0019748397426838566
1204.0, 0.0020013988680518124
1205.0, 0.0030695669669960927
1206.0, 0.004150248330441704
1207.0, 0.004029405866574096
1208.0, 0.0027479124359402855
1209.0, 0.002267955546446319
1210.0, 0.0022592562424989283
1211.0, 0.002843008976523481
1212.0, 0.0039343113896164895
1213.0, 0.003280593520448817
1214.0, 0.0028580924690331504
1215.0, 0.0018304943604497612
1216.0, 0.0014352105246617224
1217.0, 0.0021291571965661796
1218.0, 0.0028739842514758735
1219.0, 0.003542668170730044
1220.0, 0.00328799724746486
1221.0, 0.0027244245138279134
1222.0, 0.0025749004631042904
1223.0, 0.002940344983519668
1224.0, 0.0014694411503615643
1225.0, 0.004090612634410285
1226.0, 0.0035103359290684245
1227.0, 0.002991945602144484
1228.0, 0.003300999013009652
1229.0, 0.0016419992402317385
1230.0, 0.002383382969299139
1231.0, 0.0026503537570940787
1232.0, 0.002468402890312414
1233.0, 0.0023182649687638213
1234.0, 0.002685741786105987
1235.0, 0.0036585269817138136
1236.0, 0.0023800571886423887
1237.0, 0.002462643065150605
1238.0, 0.0025607347539406303
1239.0, 0.002180533818631055
1240.0, 0.0017981763655178578
1241.0, 0.0024304262092881227
1242.0, 0.0026953052451270166
1243.0, 0.00181602807009505
1244.0, 0.0020599573891826204
1245.0, 0.0037099344805913486
1246.0, 0.003034990167278793
1247.0, 0.002440228272851316
1248.0, 0.0015555005085301132
1249.0, 0.0010547581286031082
1250.0, 0.0011836730506600798
1251.0, 0.0018587828221547933
1252.0, 0.0026702149637639868
1253.0, 0.001080078170995819
1254.0, 0.0026985004199908337
1255.0, 0.0031409075402350386
1256.0, 0.0024250280814138965
1257.0, 0.004353130928076071
1258.0, 0.0026875144378378756
1259.0, 0.0019631603016969992
1260.0, 0.0020275187709494287
1261.0, 0.0025763740108008335
1262.0, 0.002911959272209112
1263.0, 0.0018910312853007902
1264.0, 0.0010689114230342295
1265.0, 0.0018405062073554794
1266.0, 0.002457790167550471
1267.0, 0.002208732165183399
1268.0, 0.0013380302310478382
1269.0, 0.0013806686689643568
1270.0, 0.0012025035158120217
1271.0, 0.00047103623720152105
1272.0, 0.0004061747576737283
1273.0, 0.0010508106423834497
1274.0, 0.001480733449076926
1275.0, 0.0014202724343315809
1276.0, 0.002597518721968738
1277.0, 0.0023824113681018707
1278.0, 0.0011933128998728732
1279.0, 0.00019465178962402432
1280.0, 0.0005829533849135072
1281.0, 0.0018126558031701914
1282.0, 0.002922929468436599
1283.0, 0.0023958815305558804
1284.0, 0.0012808840974372344
1285.0, 0.0007386554467493772
1286.0, 0.00030816364822012555
1287.0, 0.00018512613749106452
1288.0, 0.0004398740997232653
1289.0, 0.00031811181809820506
1290.0, 0.0005206450101831893
1291.0, 0.0014871580476913339
1292.0, 0.00024323670115086488
1293.0, 0.0019694113607000626
1294.0, 0.0009987597804112557
1295.0, 0.0008068758851433696
1296.0, 0.0013983805392718054
1297.0, 0.00044336190714864263
1298.0, 0.0005035982121375802
1299.0, 0.0008686208318433792
1300.0, 0.0012746547037969104
1301.0, 0.001020370349006421
1302.0, 0.0002985373360955164
1303.0, 0.00017728522140352147
1304.0, 0.0005446119186042188
1305.0, 0.0015977081555223845
1306.0, 0.0014668911687355547
1307.0, 0.00114846586328924
1308.0, 0.0014226197985787552
1309.0, 0.0017903657111456523
1310.0, 0.002215738956742346
1311.0, 0.0008628148255072457
1312.0, 0.0010228249264154958
1313.0, 0.0016580047090618015
1314.0, 0.0012497161077000764
1315.0, 0.00012596021701949587
1316.0, 0.00012279849478235633
1317.0, 0.00037661795436150306
1318.0, 0.0015871920139305037
1319.0, 0.00185940491480002
1320.0, 0.0002685914391251905
1321.0, 0.0006065679408474617
1322.0, 0.0018481114642612548
1323.0, 0.0007452360158806963
1324.0, 0.000768947097348964
1325.0, 0.0015176015431648897
1326.0, 0.0015733879547128004
1327.0, 0.0028439532982076376
1328.0, 0.0006294663437148155
1329.0, 0.0008631944903456629
1330.0, 0.0015422999023260396
1331.0, 0.001386715240420031
1332.0, 0.0006124149337235669
1333.0, 0.0019747769673695162
1334.0, 0.0016287311592416062
1335.0, 0.0007409062669447509
1336.0, 0.0007280802871634679
1337.0, 0.0009368153595107408
1338.0, 0.00013544155085595827
1339.0, 0.00048438836614622124
1340.0, 0.0007372277383557011
1341.0, 0.000820552340455084
1342.0, 0.001389790815463501
1343.0, 0.0017789416011748317
1344.0, 0.0010821470532674218
1345.0, 0.0016532803921295357
1346.0, 0.0007957510668560232
1347.0, 0.00043269041807404436
1348.0, 0.0007228641714299556
1349.0, 0.0019282999330028792
1350.0, 0.0035363853761554657
1351.0, 0.000683614475559411
1352.0, 0.002135066896394008
1353.0, 0.0028182696169144275
1354.0, 0.0019755218520711333
1355.0, 0.0013356870689406105
1356.0, 0.00262336274107103
1357.0, 0.0007445688869406096
1358.0, 0.0011097271971365807
1359.0, 0.0012018108465146169
1360.0, 0.0011336126804187053
1361.0, 0.000982386239755019
1362.0, 0.0006888272248033227
1363.0, 0.0004997491557828702
1364.0, 0.0014021392073751081
1365.0, 0.0016948761227193847
1366.0, 0.0022038004115253374
1367.0, 0.0030527681349742626
1368.0, 0.0033863579145213
1369.0, 0.001213215717803522
1370.0, 0.0008461659895325279
1371.0, 0.0013267126724493448
1372.0, 0.0015998346911272252
1373.0, 0.0010902658859411227
1374.0, 0.0005004651517389784
1375.0, 0.003374148824283987
1376.0, 0.0017329341147447864
1377.0, 0.0022517163209706914
1378.0, 0.0031761693822196725
1379.0, 0.002823233501938405
1380.0, 0.0011501158331798254
1381.0, 0.0014258506299742388
1382.0, 0.004159240305526405
1383.0, 0.002832181680213669
1384.0, 0.002716550197445454
1385.0, 0.003898155716199006
1386.0, 0.0041006469222700315
1387.0, 0.0021518307073763654
1388.0, 0.0029103070342755546
1389.0, 0.0037842560746726727
1390.0, 0.003631629484996889
1391.0, 0.003579017828113445
1392.0, 0.004489602446177787
1393.0, 0.00522021578665625
1394.0, 0.0048303428643115065
1395.0, 0.004575581124813141
1396.0, 0.004650569140224332
1397.0, 0.0050593748027943425
1398.0, 0.005510412327374365
1399.0, 0.005626627757352943
1400.0, 0.007176875172650589
1401.0, 0.006812150359446071
1402.0, 0.00687376319799616
1403.0, 0.0065315228984345955
1404.0, 0.006604837685236199
1405.0, 0.008860049193853562
1406.0, 0.006813150095108772
1407.0, 0.01043326005496596
1408.0, 0.01236763408353157
1409.0, 0.014048804651855073
1410.0, 0.01690244496595922
1411.0, 0.020666740552929885
1412.0, 0.022389006191316663
1413.0, 0.02728849906508936
1414.0, 0.03346248119430153
1415.0, 0.0379804797103196
1416.0, 0.041371905947888345
1417.0, 0.04537318309756581
1418.0, 0.04965929670052196
1419.0, 0.053792346198259
1420.0, 0.06018142304427076
1421.0, 0.06496622926581769
1422.0, 0.06748500301801598
1423.0, 0.07033365176902977
1424.0, 0.07764973326626691
1425.0, 0.0767573028516491
1426.0, 0.07966912600900654
1427.0, 0.08061634707093121
1428.0, 0.08212543436099831
1429.0, 0.08353476500782984
1430.0, 0.08104734931302497
1431.0, 0.08309404211410497
1432.0, 0.08152911897293465
1433.0, 0.07866678482373965
1434.0, 0.07720746308522054
1435.0, 0.07644612445133765
1436.0, 0.07456024645633501
1437.0, 0.07363707191811897
1438.0, 0.06915618228598444
1439.0, 0.06445251555629539
1440.0, 0.06206646454351276
1441.0, 0.05883976701144556
1442.0, 0.05318910268425139
1443.0, 0.049891401010081035
1444.0, 0.04638148452469665
1445.0, 0.04268215634873704
1446.0, 0.03943061875015382
1447.0, 0.03838821403051946
1448.0, 0.036165302274805786
1449.0, 0.028196530301533098
1450.0, 0.031294483648962854
1451.0, 0.0276095313297764
1452.0, 0.02439385017771252
1453.0, 0.02333670391903385
1454.0, 0.02238197151131846
1455.0, 0.01924883813601065
1456.0, 0.01605439123836285
1457.0, 0.016515664346841232
1458.0, 0.015887023979041633
1459.0, 0.01578447585958141
1460.0, 0.01589766800548615
1461.0, 0.015161939226333849
1462.0, 0.013148754450025805
1463.0, 0.014442143185147046
1464.0, 0.014234755790800612
1465.0, 0.012123755168947797
1466.0, 0.012264259099484354
1467.0, 0.014022655661888546
1468.0, 0.01349266124394813
1469.0, 0.009547493984882405
1470.0, 0.013404565501881974
1471.0, 0.011325944262650718
1472.0, 0.011107919672782903
1473.0, 0.010444123660373917
1474.0, 0.008535396460243311
1475.0, 0.01105120519743729
1476.0, 0.007653960270865252
1477.0, 0.009870308468396078
1478.0, 0.008489580927571912
1479.0, 0.007728112989475303
1480.0, 0.007949091809062735
1481.0, 0.0069437936519107755
1482.0, 0.008726464413909167
1483.0, 0.007430588692523138
1484.0, 0.008168048768648347
1485.0, 0.007664422400518625
1486.0, 0.00740882264764022
1487.0, 0.008015662931968728
1488.0, 0.007099612107996736
1489.0, 0.008273185691717007
1490.0, 0.006823396766971343
1491.0, 0.0058479352988245106
1492.0, 0.005987957517156052
1493.0, 0.006822586755767441
1494.0, 0.00721025578140036
1495.0, 0.00573143860504566
1496.0, 0.006435939507295096
1497.0, 0.0050919912547660266
1498.0, 0.0042249221789120205
1499.0, 0.0049468114804432205
1500.0, 0.005821803796966707
1501.0, 0.0042328158584981285
1502.0, 0.0028273902709284346
1503.0, 0.003563871664815105
1504.0, 0.004170308630962955
1505.0, 0.0037206355797091886
1506.0, 0.0027402863016431703
1507.0, 0.0020825622946880713
1508.0, 0.0018964010605497853
1509.0, 0.0033527987856912514
1510.0, 0.0036385193442305835
1511.0, 0.0016145962059395365
1512.0, 0.0012392517545208469
1513.0, 0.0020670610519520132
1514.0, 0.0012280053696579688
1515.0, 0.00162715867131338
1516.0, 0.004505387956000488
1517.0, 0.0015842613032829584
1518.0, 0.00135051699615775
1519.0, 0.0030881375133835812
1520.0, 0.0031779365321652885
1521.0, 0.0004659582409312622
1522.0, 0.002799316392982174
1523.0, 0.003665366248732197
1524.0, 0.0023502233619099493
1525.0, 0.0022129745160288745
1526.0, 0.0018027698697622896
1527.0, 0.0009375852539156397
1528.0, 0.004075757879343046
1529.0, 0.0007495105924805717
1530.0, 9.825528007402917e-05
1531, 0.0
1532, 0.0
1533, 0.0
1534, 0.0
1535, 0.0
1536, 0.0
1537, 0.0
1538, 0.0
1539, 0.0
1540, 0.0
1541, 0.0
1542, 0.0
1543, 0.0
1544, 0.0
1545, 0.0
1546, 0.0
1547, 0.0
1548, 0.0
1549, 0.0
1550, 0.0
1551, 0.0
1552, 0.0
1553, 0.0
1554, 0.0
1555, 0.0
1556, 0.0
1557, 0.0
1558, 0.0
1559, 0.0
1560, 0.0
1561, 0.0
1562, 0.0
1563, 0.0
1564, 0.0
1565, 0.0
1566, 0.0
1567, 0.0
1568, 0.0
1569, 0.0
1570, 0.0
1571, 0.0
1572, 0.0
1573, 0.0
1574, 0.0
1575, 0.0
1576, 0.0
1577, 0.0
1578, 0.0
1579, 0.0
1580, 0.0
1581, 0.0
1582, 0.0
1583, 0.0
1584, 0.0
1585, 0.0
1586, 0.0
1587, 0.0
1588, 0.0
1589, 0.0
1590, 0.0
1591, 0.0
1592, 0.0
1593, 0.0
1594, 0.0
1595, 0.0
1596, 0.0
1597, 0.0
1598, 0.0
1599, 0.0
