30, 0.0
31, 0.0
32, 0.0
33, 0.0
34, 0.0
35, 0.0
36, 0.0
37, 0.0
38, 0.0
39, 0.0
40, 0.0
41, 0.0
42, 0.0
43, 0.0
44, 0.0
45, 0.0
46, 0.0
47, 0.0
48, 0.0
49, 0.0
50, 0.0
51, 0.0
52, 0.0
53, 0.0
54, 0.0
55, 0.0
56.0, 3.680292139897391e-05
57.0, 0.00014864279203136843
58.0, 0.00040539222873672723
59.0, 0.0003475778723369068
60.0, 0.0004217194109692217
61.0, 0.0006146041719486378
62.0, 0.0003736711746300921
63.0, 0.0005520657775156953
64.0, 0.0007376756785498468
65.0, 0.0005880777912530427
66.0, 0.000319365766814978
67.0, 0.0001617021588603973
68.0, 0.00011282221027612712
69.0, 0.00010201854422389913
70.0, 9.752653798181272e-05
71.0, 9.513985883191386e-05
72.0, 9.29088578747871e-05
73.0, 0.0001333988761525879
74.0, 0.0001406730249095075
75.0, 0.00012999910945214404
76.0, 0.0001451702824650403
77.0, 0.00026886975130400884
78.0, 0.00044988068827261484
79.0, 0.0006866024978072016
80.0, 0.0013721531744977106
81.0, 0.0020490444489731485
82.0, 0.003043321353397482
83.0, 0.00502028350047898
84.0, 0.00702990935403093
85.0, 0.00880692326972495
86.0, 0.010313325770572465
87.0, 0.01180674990868287
88.0, 0.013593160045167182
89.0, 0.015233644682526748
90.0, 0.016238479876808588
91.0, 0.015779262869381073
92.0, 0.014386473483133174
93.0, 0.012293142253235726
94.0, 0.010293805944232019
95.0, 0.008533341276182925
96.0, 0.006942328826215715
97.0, 0.005509066730230316
98.0, 0.005283473348151773
99.0, 0.004877639285539823
100.0, 0.004421975819172183
101.0, 0.004331949891615021
102.0, 0.004257211117237083
103.0, 0.004140760455025648
104.0, 0.003974287403941427
105.0, 0.004010817405137782
106.0, 0.004024703195539452
107.0, 0.00408486445803579
108.0, 0.00429946058475492
109.0, 0.004483615266185691
110.0, 0.0044694229586734755
111.0, 0.0043635435005595765
112.0, 0.005021664138465796
113.0, 0.005331591428572766
114.0, 0.005257134963788389
115.0, 0.004699226786964876
116.0, 0.004803952079336409
117.0, 0.004843343446178633
118.0, 0.0048297379321948376
119.0, 0.004873524283417933
120.0, 0.004846248034973961
121.0, 0.004772442961945813
122.0, 0.004671778976242224
123.0, 0.004876186466814142
124.0, 0.005022669864971858
125.0, 0.005183249063528978
126.0, 0.005460009278959742
127.0, 0.005250184468665354
128.0, 0.005207538795710867
129.0, 0.005439294402301535
130.0, 0.006058082468237197
131.0, 0.0062573513802255815
132.0, 0.006478788777737739
133.0, 0.006993704698598538
134.0, 0.007387343969521066
135.0, 0.007926546940689632
136.0, 0.008592124853780596
137.0, 0.009355184690256752
138.0, 0.010531114111668176
139.0, 0.012037367565248185
140.0, 0.013956069553981005
141.0, 0.01731954884246222
142.0, 0.022186771775321426
143.0, 0.02895721877939428
144.0, 0.038467150506384475
145.0, 0.05472864841168255
146.0, 0.07840118290706881
147.0, 0.10942181722228526
148.0, 0.14880314759412977
149.0, 0.19515555777534488
150.0, 0.24511473983987792
151.0, 0.2974002555019908
152.0, 0.343827309954583
153.0, 0.3812412673973075
154.0, 0.39966361051597016
155.0, 0.3799958159528832
156.0, 0.31575502973168523
157.0, 0.2412885491905423
158.0, 0.1656974946206534
159.0, 0.1122738112295164
160.0, 0.07694571965341201
161.0, 0.052733249916248164
162.0, 0.037201210843066865
163.0, 0.028567319338991762
164.0, 0.022799402842788207
165.0, 0.01901288641970669
166.0, 0.01596503185660565
167.0, 0.013638478990825926
168.0, 0.01194435538592201
169.0, 0.010785303721674513
170.0, 0.009563416803014459
171.0, 0.00857671422645694
172.0, 0.007897321587988912
173.0, 0.007616010192118614
174.0, 0.00750946038382736
175.0, 0.007050840183492129
176.0, 0.006573770614013928
177.0, 0.006807844568244498
178.0, 0.006875201927987273
179.0, 0.0071944641581187605
180.0, 0.007814464295713452
181.0, 0.008386737370671573
182.0, 0.008855373034860845
183.0, 0.00935425155037219
184.0, 0.009980087480057461
185.0, 0.010519596432832491
186.0, 0.010917602800212377
187.0, 0.010968411130466928
188.0, 0.010154531067815713
189.0, 0.009735827480673632
190.0, 0.009146097710364657
191.0, 0.008364096424903029
192.0, 0.008155184417736614
193.0, 0.008350609273385384
194.0, 0.008450232746597907
195.0, 0.008111228687637645
196.0, 0.008601705603946323
197.0, 0.00854251058162852
198.0, 0.008341114357485413
199.0, 0.008832371540805016
200.0, 0.009152240446029185
201.0, 0.00961849903651904
202.0, 0.010282001268296585
203.0, 0.011086221326793346
204.0, 0.012662067119895967
205.0, 0.014645921683989286
206.0, 0.016888090626638656
207.0, 0.022271529546396055
208.0, 0.029039294154585452
209.0, 0.03857879932546966
210.0, 0.05371292508354567
211.0, 0.08115855979608297
212.0, 0.13084976232504375
213.0, 0.20665361482158828
214.0, 0.3221682773455945
215.0, 0.43344390564677987
216.0, 0.5453447366403759
217.0, 0.6632495874902228
218.0, 0.872114363695197
219.0, 0.9701965437411125
220.0, 0.9403302191195589
221.0, 0.7380597754570389
222.0, 0.4900849409569386
223.0, 0.29086853910645916
224.0, 0.15149109173388037
225.0, 0.09063876822827666
226.0, 0.059725575338686
227.0, 0.041492113513061805
228.0, 0.03113800689942491
229.0, 0.026833984074520808
230.0, 0.02349175400578824
231.0, 0.021019070942021788
232.0, 0.01946355152230199
233.0, 0.018395729131242676
234.0, 0.017471133811151604
235.0, 0.016444252139631892
236.0, 0.014818837590044763
237.0, 0.014357756226722479
238.0, 0.01371131702182748
239.0, 0.012826799907247742
240.0, 0.012700903789075343
241.0, 0.013222103493606592
242.0, 0.014067933390672516
243.0, 0.01511706501555582
244.0, 0.01646102350551633
245.0, 0.01797167467656026
246.0, 0.019124087914883226
247.0, 0.019252187033033198
248.0, 0.019146394083905473
249.0, 0.017925203348796718
250.0, 0.015744000786871715
251.0, 0.01306242095387643
252.0, 0.010187819392488681
253.0, 0.007798885569731498
254.0, 0.006040978752976782
255.0, 0.00466694566743676
256.0, 0.004129871033361105
257.0, 0.003802908694568165
258.0, 0.003345040807858491
259.0, 0.00311709455584226
260.0, 0.0029009727188367717
261.0, 0.0027318349529117207
262.0, 0.00266546110320093
263.0, 0.002697983985009839
264.0, 0.0026696902925075756
265.0, 0.0026059296360218744
266.0, 0.0026275347271827957
267.0, 0.0025798155492525723
268.0, 0.0025902809996401744
269.0, 0.0026478668914254847
270.0, 0.0023850630829237718
271.0, 0.002334356971390099
272.0, 0.0022844505299484097
273.0, 0.0021150531755038562
274.0, 0.002211270628202539
275.0, 0.0023542881386598075
276.0, 0.0023565028624055475
277.0, 0.0019505882871104336
278.0, 0.002060359949602498
279.0, 0.002190518588661736
280.0, 0.002210388159445893
281.0, 0.0018583789395652476
282.0, 0.0017181040374715968
283.0, 0.0017125910001043849
284.0, 0.001813919698187001
285.0, 0.0019471117340971221
286.0, 0.0018349942952439783
287.0, 0.001802234923281072
288.0, 0.001991378492631715
289.0, 0.0017654748817457007
290.0, 0.001880221356891514
291.0, 0.0020948642486287214
292.0, 0.002174567455332795
293.0, 0.0021167813368224596
294.0, 0.0021709001135511888
295.0, 0.00227478536188758
296.0, 0.0022827988042207667
297.0, 0.0023697679591181526
298.0, 0.00219710112777601
299.0, 0.0019088601954616233
300.0, 0.002330522788920219
301.0, 0.0020173829266676175
302.0, 0.001705062829904144
303.0, 0.0016263260580523997
304.0, 0.0015805317836254423
305.0, 0.001391051918263142
306.0, 0.0012731696465698408
307.0, 0.001370120713956064
308.0, 0.001342410229626982
309.0, 0.001220773237350334
310.0, 0.0010490143159297641
311.0, 0.0008772807844934008
312.0, 0.0009926290990862714
313.0, 0.0010017019891217216
314.0, 0.0009682889705938446
315.0, 0.0011028650231954137
316.0, 0.0011124892044040312
317.0, 0.0011305313944249698
318.0, 0.001165223219460013
319.0, 0.0011457792504245157
320.0, 0.0011710003308086248
321.0, 0.0011075588946305255
322.0, 0.0009179157196843731
323.0, 0.0007283054859573097
324.0, 0.0005254548581455795
325.0, 0.0004056279519885364
326.0, 0.0004294507771399322
327.0, 0.00031190738314378655
328.0, 0.0001583988304079539
329.0, 5.9459320442850587e-05
330.0, 0.00012230662453560154
331.0, 8.182105848446059e-05
332.0, 0.00011026205775635052
333.0, 0.00020660401176317097
334.0, 0.0003602740338125029
335.0, 0.0003047356846292602
336.0, 0.0003403978857439021
337.0, 0.00042631781036431515
338.0, 0.00029133500106558934
339.0, 0.00044153655321276674
340.0, 0.0005548231331495611
341.0, 0.0005577561018475546
342.0, 0.0005133277220141501
343.0, 0.0005386176981964758
344.0, 0.00048627181395272936
345.0, 0.00030948374637907507
346.0, 0.0003014409609025765
347.0, 0.00033211340889251206
348.0, 0.0003261483436653542
349.0, 0.000230322042932197
350.0, 0.0004031967464888381
351.0, 0.0004692661903713866
352.0, 0.00044642339286877776
353.0, 0.000348391778431636
354.0, 0.00028485280229923176
355.0, 0.00022303152567844408
356.0, 0.00015639650645091972
357.0, 7.536650799828501e-05
358.0, 8.48306128599683e-05
359.0, 0.00012496279893486567
360.0, 0.00020821513620021862
361.0, 0.0003961215321654914
362.0, 0.0005685329409126605
363.0, 0.0006929104255621401
364.0, 0.0008176525618983358
365.0, 0.0012041152921225251
366.0, 0.0013301774767493153
367.0, 0.0013498881977222607
368.0, 0.0013395852586345178
369.0, 0.0015084427428775438
370.0, 0.0015003865091933047
371.0, 0.0014336804124588673
372.0, 0.0013727453580720873
373.0, 0.0014147333057737983
374.0, 0.0015078024380970451
375.0, 0.0016545677928328265
376.0, 0.0018569532644437418
377.0, 0.0016814990666513556
378.0, 0.0018644336605390785
379.0, 0.0020862269000214077
380.0, 0.001983259924398598
381.0, 0.0020551138167588835
382.0, 0.002122379773427766
383.0, 0.002124203597580145
384.0, 0.0019670217245501024
385.0, 0.0019768589377327267
386.0, 0.0020427461395070234
387.0, 0.0021437311259475842
388.0, 0.00225870728724028
389.0, 0.0023418189124378053
390.0, 0.002347038639261973
391.0, 0.002261542981065904
392.0, 0.002060484757692779
393.0, 0.0020493076269719203
394.0, 0.0019386114413114594
395.0, 0.0017125518410324942
396.0, 0.0016099985314311593
397.0, 0.0018145094695486406
398.0, 0.001968070103024443
399.0, 0.002001664341661326
400.0, 0.002244294495543341
401.0, 0.002351481611955353
402.0, 0.002413339583777992
403.0, 0.0024705261670678645
404.0, 0.0025497964459670498
405.0, 0.002548791677000747
406.0, 0.002547500807780141
407.0, 0.002608754334061046
408.0, 0.0030335048514103053
409.0, 0.0031141635965156733
410.0, 0.0031803794873094464
411.0, 0.00347075889166166
412.0, 0.0033355448861173377
413.0, 0.003394054022066119
414.0, 0.0036341605349647066
415.0, 0.004051858430504191
416.0, 0.004411892346459054
417.0, 0.0048841919121080475
418.0, 0.0053645538855359234
419.0, 0.005719143339993177
420.0, 0.006510014657777519
421.0, 0.007026259450310009
422.0, 0.00744618841095494
423.0, 0.00809137230701667
424.0, 0.009466795788148349
425.0, 0.010563142826951288
426.0, 0.011507742103170172
427.0, 0.012680797106216696
428.0, 0.01415685251174541
429.0, 0.015070183049456681
430.0, 0.015677489305198643
431.0, 0.016778678197101573
432.0, 0.017740590740280303
433.0, 0.018572047780699628
434.0, 0.01930619507213511
435.0, 0.020026507987979975
436.0, 0.021142152593117147
437.0, 0.021743031729593305
438.0, 0.021733361683842878
439.0, 0.021325122895311723
440.0, 0.01954049060561885
441.0, 0.017047534412395423
442.0, 0.014129405314440109
443.0, 0.011310842685396606
444.0, 0.00929937443157001
445.0, 0.007774093458159145
446.0, 0.006689984364777454
447.0, 0.006222331703174797
448.0, 0.0059657139419589614
449.0, 0.005999171550237158
450.0, 0.006313157509577269
451.0, 0.006708784262777618
452.0, 0.007538882278665234
453.0, 0.00844809208931492
454.0, 0.009455237784817456
455.0, 0.011419035263081566
456.0, 0.013873964857755343
457.0, 0.01693568341746965
458.0, 0.020804543091860524
459.0, 0.026477277924340188
460.0, 0.032832332660592344
461.0, 0.04074531877119222
462.0, 0.05067764279360286
463.0, 0.06306647822002125
464.0, 0.07973679337428209
465.0, 0.10287746133152242
466.0, 0.13401756874204096
467.0, 0.17625578075888623
468.0, 0.23637828209751427
469.0, 0.30594142344616065
470.0, 0.38109621031920343
471.0, 0.46182285935382256
472.0, 0.5249547493226144
473.0, 0.542657982119839
474.0, 0.5001443848108543
475.0, 0.40508241091528663
476.0, 0.30405755452181504
477.0, 0.2154485509318516
478.0, 0.14975047634198171
479.0, 0.11134520933266037
480.0, 0.08307931000874753
481.0, 0.0632587135097807
482.0, 0.05086535776034319
483.0, 0.04205534002488659
484.0, 0.03546768282225204
485.0, 0.030426623400913247
486.0, 0.02653468760192459
487.0, 0.022947620871849376
488.0, 0.020191355935652033
489.0, 0.018037422533178697
490.0, 0.0163168479502327
491.0, 0.014361302648561705
492.0, 0.013073693686662391
493.0, 0.011988280376118826
494.0, 0.010925515554578972
495.0, 0.010545864708964276
496.0, 0.009757353219183322
497.0, 0.008988913917517334
498.0, 0.008464444090247158
499.0, 0.008198755035309544
500.0, 0.007439030235791726
501.0, 0.006720281106904143
502.0, 0.006308471005141626
503.0, 0.0062160750072467325
504.0, 0.0059392252876240385
505.0, 0.005577756144245262
506.0, 0.005171422013436204
507.0, 0.004683113729630879
508.0, 0.004446918145444236
509.0, 0.0044746759520388965
510.0, 0.004671976221578895
511.0, 0.004304211121188744
512.0, 0.00410804607648011
513.0, 0.004037142088252979
514.0, 0.004004506742126842
515.0, 0.0035714687729695707
516.0, 0.0035348299032989974
517.0, 0.003526913280833634
518.0, 0.0034632173394890027
519.0, 0.0035954051515355028
520.0, 0.0036691701700183464
521.0, 0.0034917387735700755
522.0, 0.0031546055719431417
523.0, 0.0033805061521902024
524.0, 0.003107249729884871
525.0, 0.002916788142678127
526.0, 0.0029096157352944503
527.0, 0.0028409861087673174
528.0, 0.002772399840867189
529.0, 0.0025532223793658503
530.0, 0.002291575380888767
531.0, 0.002480707362123051
532.0, 0.002243554676371746
533.0, 0.0022678249449810408
534.0, 0.0024693216616133696
535.0, 0.002216249099668645
536.0, 0.0020932510071614333
537.0, 0.002099661152152079
538.0, 0.0021650761617467173
539.0, 0.002121235804587579
540.0, 0.002140284259964026
541.0, 0.002258603233706781
542.0, 0.0023773694552386955
543.0, 0.0022899914061761555
544.0, 0.0022877570878654502
545.0, 0.002370011330916332
546.0, 0.0025293599016311674
547.0, 0.0027554768833862975
548.0, 0.0025793958569331906
549.0, 0.0024963324744430417
550.0, 0.002515707395257193
551.0, 0.0026126746831760706
552.0, 0.0022957504646833648
553.0, 0.0022926009472393765
554.0, 0.0022521875137839903
555.0, 0.0017788855103102322
556.0, 0.0018758337424795736
557.0, 0.0017217194201430404
558.0, 0.0014230771129377254
559.0, 0.0010803678642264272
560.0, 0.0008447849529442671
561.0, 0.0007010582110634202
562.0, 0.0005733036018065358
563.0, 0.0004272328885391191
564.0, 0.000506565440305182
565.0, 0.0005165243523385498
566.0, 0.0004326139719036012
567.0, 0.0002504185969247769
568.0, 5.1717541126739507e-05
569.0, 9.838702886863883e-05
570.0, 0.00011430909457205469
571.0, 3.1690783514600744e-05
572.0, 9.983672084877413e-05
573.0, 0.00014830616620110495
574.0, 0.00013947832616431255
575.0, 0.00010335561501187873
576.0, 0.00020091307253100507
577.0, 9.500118946319233e-05
578.0, 3.056894674437418e-05
579.0, 6.246645014036393e-05
580.0, 0.00019678825183669764
581.0, 0.0001333548920565529
582.0, 0.00012891842214098919
583.0, 0.00015328027993883461
584.0, 7.138396644592817e-05
585.0, 0.00013143751127753987
586.0, 0.00011154881402875925
587.0, 8.60541558263304e-05
588.0, 0.00019104020259187395
589.0, 0.0001437118183686749
590.0, 0.00011962853425955768
591.0, 9.507420804405584e-05
592.0, 3.978626591424037e-05
593.0, 1.047835591193052e-05
594.0, 2.4285250191948577e-06
595.0, 1.1738770112019556e-05
596.0, 3.310948993430069e-05
597.0, 3.516742057832906e-05
598.0, 2.9751837039200698e-05
599.0, 6.006845988064681e-05
600.0, 0.00012360231794668835
601.0, 2.615652096458805e-05
602.0, 0.00011968448063963129
603.0, 0.00013320134292048297
604.0, 3.564236917073235e-05
605.0, 0.00013856136887820564
606.0, 7.968117839366835e-05
607.0, 2.83806516905622e-05
608.0, 2.199665290431951e-05
609.0, 5.0647218668469486e-05
610.0, 3.278382301567048e-05
611.0, 5.466015468463643e-05
612.0, 7.868518594545586e-05
613.0, 9.778996994865734e-06
614.0, 4.8686205349297667e-05
615.0, 0.00010903735452384835
616.0, 0.00014596833038851026
617.0, 0.00011090369616029638
618.0, 0.00020507868155086108
619.0, 0.00031374881439923813
620.0, 0.00044360079223548267
621.0, 0.000591608463085337
622.0, 0.0005935610802355496
623.0, 0.0004179758882369895
624.0, 0.00033480987500847425
625.0, 0.0004569313814305954
626.0, 0.0004959837244348449
627.0, 0.000269836529641238
628.0, 0.00011658217852372304
629.0, 0.00011222311146831632
630.0, 7.677007645654915e-05
631.0, 8.882477731940897e-05
632.0, 0.00013915766616631625
633.0, 0.00020270420721588435
634.0, 0.0002229524497842847
635.0, 0.000226195067750655
636.0, 0.0001719533426671816
637.0, 0.00010717839873601442
638.0, 0.00010872424899469954
639.0, 0.0001647110341768753
640.0, 0.00011094779628185134
641.0, 7.257992323419921e-05
642.0, 0.00016568335536488484
643.0, 0.0002229543137438827
644.0, 0.0002395784708888839
645.0, 0.00022542378562972085
646.0, 0.00018361475701002972
647.0, 9.174357752157397e-05
648.0, 0.00011823714558386494
649.0, 0.00014771196976643328
650.0, 0.00016723920853756126
651.0, 0.000281756661728284
652.0, 0.00026661386968485534
653.0, 0.0002716913280721048
654.0, 0.00030132149975911903
655.0, 0.000302664525592251
656.0, 0.0004777203511144134
657.0, 0.000457169108671916
658.0, 0.000361630043189601
659.0, 0.00038136162004295045
660.0, 0.00015897704485162104
661.0, 0.00016944104488284418
662.0, 0.00025453500425128977
663.0, 0.0002881557224258621
664.0, 0.0002526418902126995
665.0, 0.0002886878278572993
666.0, 0.00025271867182784653
667.0, 0.00014139216144184915
668.0, 0.0002367265042188255
669.0, 0.0002380292839955415
670.0, 0.00026123930002804795
671.0, 0.0002816494239658144
672.0, 0.00017176391051088426
673.0, 0.00023324059587085668
674.0, 0.0003330466366407825
675.0, 0.0003853953014789133
676.0, 0.0002941964489501908
677.0, 0.0004820346759604574
678.0, 0.0005297584110439526
679.0, 0.0005132988503657876
680.0, 0.0005051313731119685
681.0, 0.0006008718101595565
682.0, 0.0005860965367080731
683.0, 0.000523915508404733
684.0, 0.00046965955054097336
685.0, 0.0005466148793619093
686.0, 0.0005281160382227751
687.0, 0.000533475706511793
688.0, 0.0004971929073254261
689.0, 0.00021834609670207916
690.0, 0.0004111733286746656
691.0, 0.0005202580811530492
692.0, 0.0004326522850789353
693.0, 8.656508255448087e-05
694.0, 0.00016337341032623541
695.0, 0.00014164715341753815
696.0, 0.00010898109306772554
697.0, 0.00012487660525327458
698.0, 0.0002015751844418962
699.0, 0.00023331524147334097
700.0, 0.0002259135006497714
701.0, 0.00018654644554970786
702.0, 0.00013197421076585172
703.0, 0.0001773761549525983
704.0, 0.00019138203313853475
705.0, 0.0002006971573025822
706.0, 0.0002773233261434194
707.0, 0.000317193725863122
708.0, 0.0002801994516966296
709.0, 0.00026271051572995357
710.0, 0.00032464983090890504
711.0, 0.00019487668152598942
712.0, 0.0002091344672754079
713.0, 0.0002581470813114423
714.0, 0.00029404670681209936
715.0, 0.00031424080449674496
716.0, 0.00028584519863442294
717.0, 0.00022860784587149533
718.0, 0.00019378525352237933
719.0, 0.000270247485548499
720.0, 0.00011277852414017935
721.0, 0.00017947457015578136
722.0, 0.00028163081677579365
723.0, 0.0002265396001703173
724.0, 0.00017139513610038196
725.0, 7.470698711556995e-05
726.0, 2.5096498146232165e-05
727.0, 5.014111761509124e-05
728.0, 8.472690253155835e-05
729.0, 5.715812225570853e-05
730.0, 4.571522734987323e-05
731.0, 5.2313478409317965e-05
732.0, 4.864531540921578e-05
733.0, 2.747784221746524e-05
734.0, 1.5750640456223246e-05
735.0, 1.8022042230255627e-05
736.0, 3.808032876959969e-05
737.0, 9.526604938657743e-05
738.0, 0.00015192419410867518
739.0, 0.00016551431455709398
740.0, 0.0001427104132004377
741.0, 0.00019374657325483212
742.0, 0.00018497533972748864
743.0, 0.00012105600358261312
744.0, 8.368452440523654e-05
745.0, 0.00021608486142571772
746.0, 0.00011095622647049593
747.0, 5.3275505531260835e-05
748.0, 3.449272570705086e-05
749.0, 3.8351641081443146e-05
750.0, 7.516519528881339e-05
751.0, 3.7451800254395164e-05
752.0, 3.356453368275695e-05
753.0, 8.479133683086148e-05
754.0, 0.00011868467563283647
755.0, 0.00012400568102204475
756.0, 8.556418820668897e-05
757.0, 3.144608328914728e-05
758.0, 5.569640768459626e-06
759.0, 2.8327187028033124e-05
760.0, 2.6985396821269756e-05
761.0, 3.27350361070281e-05
762.0, 5.9081116611141125e-05
763.0, 5.2613976290484104e-05
764.0, 9.592063362229847e-05
765.0, 0.00012881773725435596
766.0, 0.00013002279959205984
767.0, 9.02654034762739e-05
768.0, 8.053661337104745e-05
769.0, 0.00018430613683268973
770.0, 0.00029156398595466996
771.0, 0.00028487629592770025
772.0, 0.00026593586645699076
773.0, 0.00017524357608802055
774.0, 9.362958652296085e-05
775.0, 6.647783941972987e-05
776.0, 0.00012313519093349695
777.0, 0.00016889841891266257
778.0, 0.0001105394377224962
779.0, 3.263486125252366e-05
780.0, 8.927331438353096e-05
781.0, 0.00018351954920646526
782.0, 0.00011874152482406324
783.0, 0.00010213460394369797
784.0, 0.0002328820115846686
785.0, 0.00021334108381107448
786.0, 0.00017776701220333164
787.0, 0.00015906287749467205
788.0, 0.00019923638027675663
789.0, 0.0003693210791258202
790.0, 0.0002344745635441596
791.0, 0.00016994744713556234
792.0, 0.00023354780853333254
793.0, 0.00043119043302692267
794.0, 0.000506143966161826
795.0, 0.0004777996062111084
796.0, 0.000541180919515092
797.0, 0.0006339364683567539
798.0, 0.00034947946139783143
799.0, 0.0008240057170377288
800.0, 0.0009736283129044868
801.0, 0.0009599330065163111
802.0, 0.001122555961691335
803.0, 0.001557112011278151
804.0, 0.0014949290693060868
805.0, 0.0015199719344190326
806.0, 0.0018061391658992113
807.0, 0.0019194900835020744
808.0, 0.0020663207567720968
809.0, 0.002341110610034545
810.0, 0.0026550142903481585
811.0, 0.002866657350183514
812.0, 0.0033217705661019513
813.0, 0.003446210094021336
814.0, 0.003595081542691624
815.0, 0.003995490298036284
816.0, 0.004734458778308035
817.0, 0.004706154982154682
818.0, 0.004890977732143307
819.0, 0.005148494806035958
820.0, 0.004958359967154197
821.0, 0.005108809334205055
822.0, 0.004909766078321146
823.0, 0.004807930624891838
824.0, 0.005022510775838237
825.0, 0.005154941523418575
826.0, 0.004675551710421294
827.0, 0.004352678228426298
828.0, 0.004107608731686073
829.0, 0.0035185149961770414
830.0, 0.003248113688828529
831.0, 0.003288364001020907
832.0, 0.003363981075859171
833.0, 0.0032816996141491177
834.0, 0.003033939654252468
835.0, 0.0031395596933319037
836.0, 0.0031931348129008515
837.0, 0.0032326166104578442
838.0, 0.003479043835910954
839.0, 0.0034062483691400074
840.0, 0.003302825785889585
841.0, 0.0034585231382291463
842.0, 0.003924437555114296
843.0, 0.0039618611180183266
844.0, 0.004193114920021737
845.0, 0.0042438048208332715
846.0, 0.004193101293934506
847.0, 0.0043065822409131885
848.0, 0.004267609062326426
849.0, 0.004282846624658143
850.0, 0.004331737377899999
851.0, 0.004392807925860221
852.0, 0.004434441784842066
853.0, 0.004476179049917053
854.0, 0.004669777496513501
855.0, 0.004872413146196826
856.0, 0.004838541200952052
857.0, 0.005128092691391635
858.0, 0.005522197215012776
859.0, 0.005794343757310867
860.0, 0.005891789364072422
861.0, 0.006100654732573155
862.0, 0.006360607830660318
863.0, 0.006604044308601455
864.0, 0.0068320719570168055
865.0, 0.007050305577358358
866.0, 0.007030181012644592
867.0, 0.0072269311356248835
868.0, 0.007338661499696006
869.0, 0.007202459304106981
870.0, 0.006743771831967481
871.0, 0.006895456147819601
872.0, 0.007031905125115765
873.0, 0.0072006259004063575
874.0, 0.007466275350905732
875.0, 0.007235301575763227
876.0, 0.007112447848454407
877.0, 0.007016034748126173
878.0, 0.006829311207162353
879.0, 0.006350869620864191
880.0, 0.00594331670192864
881.0, 0.005564022625553398
882.0, 0.005092149035246285
883.0, 0.0044880923767233235
884.0, 0.0041043826274537705
885.0, 0.003939568935099476
886.0, 0.003425320655733924
887.0, 0.0027604695888721648
888.0, 0.002512884713310318
889.0, 0.002051973298329706
890.0, 0.0019639704222262537
891.0, 0.0018669819341127006
892.0, 0.0015885024923183507
893.0, 0.0013580850252175728
894.0, 0.0015520000520136646
895.0, 0.001496220672642739
896.0, 0.0013102715250761122
897.0, 0.001278649359576917
898.0, 0.001698111366531043
899.0, 0.0014770945752036343
900.0, 0.0013912441486623134
901.0, 0.0015504501774707181
902.0, 0.0014710009619753699
903.0, 0.0013914564112364582
904.0, 0.0014804121389493789
905.0, 0.0014953269758614255
906.0, 0.0013146275630003769
907.0, 0.0014475296992261704
908.0, 0.001187644972182802
909.0, 0.0010188324792266314
910.0, 0.0010035617253922086
911.0, 0.001056186514200844
912.0, 0.0009803690484427926
913.0, 0.000930788527186283
914.0, 0.0008108356754349422
915.0, 0.0006480369478940729
916.0, 0.0006867506184783188
917.0, 0.0006674156936242274
918.0, 0.0007105550987302531
919.0, 0.0007702663606936296
920.0, 0.0007933784572337812
921.0, 0.0008118681958426282
922.0, 0.0009090125920053519
923.0, 0.000908226704527485
924.0, 0.0009792448091985922
925.0, 0.0014965547054840852
926.0, 0.0012855788258125716
927.0, 0.001506482450541785
928.0, 0.0016286365201618016
929.0, 0.0015720042611872644
930.0, 0.0021422388517929806
931.0, 0.0019335963936864427
932.0, 0.002022349892295371
933.0, 0.002099486193880741
934.0, 0.0018155266794693675
935.0, 0.001968493975141652
936.0, 0.0021372237932427126
937.0, 0.002131193932210081
938.0, 0.002003228298329967
939.0, 0.0019449823597419648
940.0, 0.0018867098730375746
941.0, 0.0017442141288769482
942.0, 0.0015354086019327927
943.0, 0.0013210995065279288
944.0, 0.0012628077943247907
945.0, 0.001204473992751504
946.0, 0.0011337271805165311
947.0, 0.0010496181122132938
948.0, 0.0009582781243185067
949.0, 0.0008982176662305771
950.0, 0.0007432001942551552
951.0, 0.0006455154805324797
952.0, 0.000572338014264931
953.0, 0.00041771611345704904
954.0, 0.0002631753175892916
955.0, 0.0003560034259992207
956.0, 0.0004911232031412293
957.0, 0.0005031376214633517
958.0, 0.00021366519536440421
959.0, 0.0001980832487816351
960.0, 0.0002497991016970783
961.0, 0.00030246858845959195
962.0, 0.0002991964559447479
963.0, 0.00016364434785209073
964.0, 4.614776514058806e-05
965.0, 5.802119709383241e-05
966.0, 0.00010268706203423719
967.0, 5.606553899979834e-05
968.0, 8.797829006625273e-05
969.0, 0.00014036935328292976
970.0, 0.00015664505913606623
971.0, 0.0001575488873727556
972.0, 0.00021488674474022906
973.0, 0.0001382048339117479
974.0, 0.00013137275723537164
975.0, 0.00013200021429948033
976.0, 0.00012738051306788388
977.0, 0.00018458994814246418
978.0, 0.00014680595358574378
979.0, 0.00012215000241451294
980.0, 0.0001130466929702362
981.0, 0.00010739631692086428
982.0, 6.984467761819477e-05
983.0, 0.0001481695223274018
984.0, 0.0001159244974070648
985.0, 9.700378484372863e-05
986.0, 0.0002508224079682356
987.0, 0.0001556684083772119
988.0, 0.00024583128514438083
989.0, 0.0002337913873763887
990.0, 0.00015141759757818877
991.0, 0.00020793821643235393
992.0, 0.00020720360160757684
993.0, 0.00019199421360326877
994.0, 0.00012513428925251465
995.0, 4.6680905720766826e-05
996.0, 0.00010392286614615514
997.0, 0.00014268346413767917
998.0, 0.00010052778573753975
999.0, 8.061605326914168e-05
1000.0, 0.00013176356942312014
1001.0, 0.00015105687455805347
1002.0, 0.00025689587089615086
1003.0, 0.00015352875664582238
1004.0, 3.9912720848730106e-05
1005.0, 0.00010346441169861945
1006.0, 6.825237035797254e-05
1007.0, 2.8188999695255622e-05
1008.0, 4.5807337114024986e-05
1009.0, 7.266908056773553e-05
1010.0, 4.6635069162536026e-05
1011.0, 0.00022058872243736142
1012.0, 0.0003786607014797961
1013.0, 0.0002641206986102299
1014.0, 5.152219094421306e-05
1015.0, 0.00017802385561851324
1016.0, 0.00011911485396787504
1017.0, 0.00017742430150302873
1018.0, 0.00020663808929594307
1019.0, 0.0001670876707535272
1020.0, 0.00012753725221110857
1021.0, 0.0002010582845788527
1022.0, 0.00019501051815796574
1023.0, 0.00011229122263746861
1024.0, 2.7589547858188864e-06
1025.0, 2.2353345949251827e-06
1026.0, 0.0001821373271609401
1027.0, 0.00014107448877750744
1028.0, 0.0001048448714745859
1029.0, 0.00020771229481800408
1030.0, 0.00012932441290717636
1031.0, 3.6909725238046614e-05
1032.0, 2.404229070779533e-05
1033.0, 6.230798844844665e-05
1034.0, 0.00011463338046489254
1035.0, 0.00022326412157701336
1036.0, 8.856478610195289e-05
1037.0, 2.9125557258036573e-05
1038.0, 5.2312384779062965e-05
1039.0, 8.843091470559978e-05
1040.0, 0.00017137213095263227
1041.0, 0.00012210835061120354
1042.0, 0.00012077332724056515
1043.0, 0.00018421202699500338
1044.0, 0.0002582364084556127
1045.0, 0.00027682534146460466
1046.0, 0.0003262337493726141
1047.0, 0.0002694795691306925
1048.0, 0.00015116670527241116
1049.0, 0.00013252506578185922
1050.0, 0.0001900538042707653
1051.0, 8.717528863643695e-05
1052.0, 0.00011071260781674177
1053.0, 0.00022116290550277002
1054.0, 8.452177979318936e-05
1055.0, 0.00017979532320285072
1056.0, 0.00017990621728786513
1057.0, 0.000178013975545031
1058.0, 0.0002116740847320642
1059.0, 0.0002496699001763704
1060.0, 6.973099175869078e-05
1061.0, 0.00013654680563934297
1062.0, 0.00015886716699345165
1063.0, 4.895003482460519e-05
1064.0, 7.648146988152625e-05
1065.0, 3.452138214705142e-05
1066.0, 2.1234388376538134e-05
1067.0, 8.3483147125965e-05
1068.0, 0.00017130612854410776
1069.0, 3.398735982219087e-05
1070.0, 7.967006194062815e-05
1071.0, 0.00024277833598795667
1072.0, 0.00031440654940063825
1073.0, 0.00022668452194408339
1074.0, 0.0002841949853685008
1075.0, 0.0003774788116778393
1076.0, 0.00033131204629322213
1077.0, 0.00017847696590446782
1078.0, 2.1414544676278664e-05
1079.0, 0.00010492075165603813
1080.0, 0.00011185157181853142
1081.0, 0.00023838661815859199
1082.0, 0.0003543739566449263
1083.0, 0.0003244742051712531
1084.0, 0.00012828671256185118
1085.0, 0.00019439370032221258
1086.0, 0.0001778235469969647
1087.0, 0.00012166595152927143
1088.0, 0.00011213541914297506
1089.0, 0.00016984795551841237
1090.0, 0.00012454193089334726
1091.0, 0.00016507245294388365
1092.0, 0.0001787508545255766
1093.0, 8.171414232613228e-05
1094.0, 0.00011973594978756012
1095.0, 0.00031331009590253496
1096.0, 0.00034133975120510096
1097.0, 0.000247128103655262
1098.0, 0.0001521394047578547
1099.0, 0.00020967060237172728
1100.0, 0.00014637260105547354
1101.0, 0.00019080631229446583
1102.0, 0.00020965105388459312
1103.0, 9.249633147562798e-05
1104.0, 0.00011092574988370372
1105.0, 0.00028486989858709437
1106.0, 0.00031805957871566354
1107.0, 0.000258212879235511
1108.0, 0.00019304473410037396
1109.0, 9.406975774532602e-05
1110.0, 0.00018596472673364917
1111.0, 0.0002897307044084256
1112.0, 0.0003177427179295234
1113.0, 0.00026315012678538544
1114.0, 0.0003598744120476902
1115.0, 0.00019418719945928076
1116.0, 0.000148693793398004
1117.0, 0.00016332510171746827
1118.0, 0.00013078689752649687
1119.0, 3.17913537438627e-05
1120.0, 2.0976255640155905e-05
1121.0, 4.5481716911818465e-05
1122.0, 4.8058905281311265e-05
1123.0, 4.875258656068476e-05
1124.0, 0.0003109993820865328
1125.0, 0.00026103076425711944
1126.0, 0.00019442391122437812
1127.0, 0.00022509561267326935
1128.0, 0.00032981364981161335
1129.0, 0.00019124060603426218
1130.0, 0.00032554027419694323
1131.0, 0.00017949756501351252
1132.0, 6.450777183638644e-05
1133.0, 0.0001628167762831756
1134.0, 0.000220316941065955
1135.0, 0.0003519537100083937
1136.0, 0.000185876377677311
1137.0, 7.732778958571878e-05
1138.0, 0.0001573563910871437
1139.0, 9.710151610827067e-05
1140.0, 0.0002640809247614667
1141.0, 0.0003123847457766555
1142.0, 0.0002644280168102595
1143.0, 0.00019642473864242284
1144.0, 0.00023429600389591614
1145.0, 0.00017527029772703364
1146.0, 0.00023149741953609718
1147.0, 0.00018157519553747844
1148.0, 4.459160770091815e-05
1149.0, 8.521355388617035e-05
1150.0, 2.47830938826778e-05
1151.0, 0.00011833046821398284
1152.0, 0.00015342770876787597
1153.0, 8.832568325920208e-05
1154.0, 1.5473952548746886e-05
1155.0, 4.521737674695256e-05
1156.0, 0.00014416409669397475
1157.0, 0.00019549844660526373
1158.0, 0.00019376906655450203
1159.0, 0.00018280373461489652
1160.0, 4.3390912775336234e-05
1161.0, 0.0002941497216251735
1162.0, 0.0003283520191259954
1163.0, 0.0002840650159776205
1164.0, 0.00044909916165923006
1165.0, 0.00017221476804960868
1166.0, 8.101150613865361e-05
1167.0, 0.0001544161676628703
1168.0, 0.00022168031696402797
1169.0, 0.00015188404608396642
1170.0, 0.0001502103742409272
1171.0, 0.00039522037675885545
1172.0, 0.00023199324746699056
1173.0, 1.5764866416781507e-05
1174.0, 5.213676106144229e-05
1175.0, 8.965724441752388e-05
1176.0, 0.00031116467944851997
1177.0, 0.00019062301341995038
1178.0, 0.00010069796194322355
1179.0, 0.00020313045799623278
1180.0, 0.00018165076952032474
1181.0, 0.00016001973060203386
1182.0, 0.0002979533193284992
1183.0, 0.0003247451599297554
1184.0, 0.00023711888888597736
1185.0, 0.00030994615841076445
1186.0, 0.00015002911206534754
1187.0, 0.00020565434453373368
1188.0, 0.0002026562487702673
1189.0, 9.948336420935827e-05
1190.0, 1.3050786333959011e-05
1191.0, 0.0001296232469259156
1192.0, 0.0002298397583544169
1193.0, 0.000210389743968305
1194.0, 0.00019299285399082699
1195.0, 0.00028885684626482155
1196.0, 6.982457481393389e-05
1197.0, 0.00021416888699750495
1198.0, 0.0003088670052825162
1199.0, 0.00024371704951364515
1200.0, 7.748163864516544e-05
1201.0, 0.0001731284638059411
1202.0, 8.632725302696206e-05
1203.0, 0.0001360143719977513
1204.0, 0.00015347294238585052
1205.0, 0.00011603822217534398
1206.0, 0.00030349650993357214
1207.0, 0.00020724361840817788
1208.0, 8.156345290801413e-05
1209.0, 0.00012272364123469282
1210.0, 0.00021788236060125429
1211.0, 3.668295373833428e-05
1212.0, 0.0002895074157878978
1213.0, 0.0001455912161301327
1214.0, 5.2397206931509275e-05
1215.0, 0.00012214177695391148
1216.0, 0.00027340040432704855
1217.0, 0.0002164499900478985
1218.0, 0.00018969697577586253
1219.0, 0.000189428404609085
1220.0, 0.00017242399308215774
1221.0, 0.0001241258437595805
1222.0, 0.00014345254902260575
1223.0, 0.0002520591276637795
1224.0, 0.00023044158534237416
1225.0, 0.00020406381124906482
1226.0, 0.00025046851605829836
1227.0, 0.00032676543755259785
1228.0, 0.000463129760353396
1229.0, 0.0002367673957118162
1230.0, 0.00014974650461961435
1231.0, 0.00025685206676432623
1232.0, 0.0002853162537438652
1233.0, 0.00018428402810324147
1234.0, 0.0002974781508138137
1235.0, 0.00026351027433941545
1236.0, 0.00013179202859224613
1237.0, 5.612716560746701e-05
1238.0, 1.802586308069351e-05
1239.0, 0.00013499167290912327
1240.0, 0.00012429652456418588
1241.0, 0.00014776726827340835
1242.0, 0.000245166493770394
1243.0, 0.0001238221580621221
1244.0, 0.00017730029209162142
1245.0, 0.0002494951894352529
1246.0, 0.000285589759826567
1247.0, 0.00027189470246188083
1248.0, 0.00023207920210848842
1249.0, 0.0002297151066124752
1250.0, 0.00026015380957473326
1251.0, 0.0002856858820008867
1252.0, 0.00031052271168772495
1253.0, 0.0003344996463371765
1254.0, 0.00027251663837447605
1255.0, 0.00017446082329446063
1256.0, 0.00016685156247607427
1257.0, 0.00018637460423698868
1258.0, 0.00019255552092744155
1259.0, 0.00022989488100060858
1260.0, 0.0002884318236228319
1261.0, 0.0003186604016211497
1262.0, 0.00026205349924079567
1263.0, 0.00022218302255298163
1264.0, 0.0003580389122635916
1265.0, 0.00023629828301545435
1266.0, 0.00013134175605918503
1267.0, 0.00022597752637898606
1268.0, 0.0002712804856700687
1269.0, 0.00011758024992104234
1270.0, 0.0003139406641782153
1271.0, 0.00015567524154105233
1272.0, 0.0001429267442537962
1273.0, 0.00027679424051735844
1274.0, 0.0003520248231422152
1275.0, 2.56870825020337e-05
1276.0, 0.00024218219614742878
1277.0, 0.00041088149774713657
1278.0, 0.0004078058770718262
1279.0, 0.0003057398932924671
1280.0, 0.00024897641065957724
1281.0, 0.00024636755591874875
1282.0, 0.000317739052861065
1283.0, 0.0004358619256383679
1284.0, 0.00034238778572217253
1285.0, 9.799838118281844e-05
1286.0, 0.00035468198561784225
1287.0, 0.00011676613517244515
1288.0, 0.00021092562282528298
1289.0, 0.00036458072112829833
1290.0, 0.00039966826077714006
1291.0, 0.0002755396193413664
1292.0, 0.00033277564118802336
1293.0, 0.00037355874284251874
1294.0, 0.00024454139245128856
1295.0, 9.617216826887271e-05
1296.0, 0.00010208634424653381
1297.0, 0.0003213480212405465
1298.0, 0.0001213613282342958
1299.0, 0.00010235900890868927
1300.0, 8.847354763524656e-05
1301.0, 0.00010981989504631467
1302.0, 0.0003072551046588233
1303.0, 4.467720418961252e-05
1304.0, 2.0489507820374093e-05
1305.0, 0.0001635125453450646
1306.0, 0.00025100053507333154
1307.0, 0.00015587418978493304
1308.0, 9.265729151339272e-05
1309.0, 8.7636031759522e-05
1310.0, 0.00018823159133275305
1311.0, 0.00014993385680794877
1312.0, 5.296540208970977e-05
1313.0, 0.00018708916828385718
1314.0, 2.466541570368623e-05
1315.0, 0.00015055370542084237
1316.0, 0.0002519503801432443
1317.0, 0.00024383954190753204
1318.0, 0.00019309564508389917
1319.0, 0.0003703488703922169
1320.0, 0.00027595477360105905
1321.0, 0.00015756314773689156
1322.0, 0.0002543054678637096
1323.0, 0.00040614059332662295
1324.0, 0.00024116980585720433
1325.0, 0.00027800348190843083
1326.0, 0.00019425728235714364
1327.0, 0.00010406585046009586
1328.0, 6.629012159789148e-05
1329.0, 0.00011593811136929489
1330.0, 0.00026613698940526403
1331.0, 0.00014787748960320193
1332.0, 0.00020821955199328132
1333.0, 0.0003036898334675382
1334.0, 0.00034838831860533367
1335.0, 0.00031698798743864985
1336.0, 0.00021374854290459572
1337.0, 0.00028765985687371744
1338.0, 0.00030660857909596334
1339.0, 0.00026601944004349653
1340.0, 0.00023283596339423285
1341.0, 0.0003085499784658983
1342.0, 0.00026543657654135033
1343.0, 0.00014471363439203444
1344.0, 0.00018764009788980183
1345.0, 0.0002283517081663339
1346.0, 8.352191517688865e-05
1347.0, 0.000297037334348305
1348.0, 0.0004403497510900264
1349.0, 0.0004783203582205345
1350.0, 0.0003669220915839593
1351.0, 0.00021430864280786043
1352.0, 0.00024931890704090175
1353.0, 0.00024630712286977964
1354.0, 0.00024329326066665092
1355.0, 0.00022788496145392686
1356.0, 0.00020409349412042323
1357.0, 0.0001755026520821579
1358.0, 0.0001319365335678926
1359.0, 8.868808723135575e-05
1360.0, 6.0498488357289675e-05
1361.0, 0.00013534690861644752
1362.0, 0.00019793718070915332
1363.0, 8.967025792819214e-05
1364.0, 0.00017621052552713445
1365.0, 0.0001463018430135979
1366.0, 0.00014418372823251892
1367.0, 0.00018006151715626418
1368.0, 0.00018158588081736165
1369.0, 3.4259025363726254e-05
1370.0, 0.00031270429724557155
1371.0, 0.00039513665795455654
1372.0, 0.00024962997381860493
1373.0, 9.614466081047031e-05
1374.0, 0.00014227480312742927
1375.0, 0.0003202682871280468
1376.0, 0.00016710739373177212
1377.0, 0.00027603349462758175
1378.0, 0.0002240452834802733
1379.0, 0.00011709009952424016
1380.0, 0.00029416264882728
1381.0, 0.000149966368063771
1382.0, 0.00020542492645187477
1383.0, 0.00011612132000110115
1384.0, 3.696291764555066e-05
1385.0, 6.318764188056532e-05
1386.0, 0.00012126273743886187
1387.0, 0.00019866232704219804
1388.0, 0.00014073864354901001
1389.0, 0.00017042821079357682
1390.0, 0.00017559980983738584
1391.0, 0.0001124570508314483
1392.0, 0.0002907502302818021
1393.0, 0.00014773583661182433
1394.0, 0.00017651761264119331
1395.0, 0.00022003016801187318
1396.0, 0.0001940941602536238
1397.0, 0.00010228406897938699
1398.0, 7.932145713980998e-05
1399.0, 0.0002453636439594881
1400.0, 0.0003216624862334266
1401.0, 0.000296817725832547
1402.0, 0.00021933402556154942
1403.0, 0.00016922709294389765
1404.0, 0.0002470171470885659
1405.0, 8.072485155344566e-05
1406.0, 0.00013260774451288976
1407.0, 0.00015716353574660836
1408.0, 7.98706072103602e-05
1409.0, 0.00019638945365929323
1410.0, 0.00027438533023282956
1411.0, 0.00016605538384720635
1412.0, 0.0002884746719191891
1413.0, 0.0003984906955309205
1414.0, 0.00026985501108636885
1415.0, 0.00012605281663039534
1416.0, 0.0002040082703604254
1417.0, 0.00011761299541336142
1418.0, 0.00014237933462442768
1419.0, 0.00024705436287801775
1420.0, 0.00028032583132882565
1421.0, 0.0001959542048745084
1422.0, 0.00042326134909411687
1423.0, 0.00046438958395028017
1424.0, 0.0003192717182389426
1425.0, 0.000203893129875995
1426.0, 0.0002932645575387353
1427.0, 6.425411182913564e-05
1428.0, 0.00027193135994069297
1429.0, 0.00016316448300549206
1430.0, 0.0001352372477879589
1431.0, 0.0002834807813412581
1432.0, 0.0003737162575215376
1433.0, 0.0005730913749829024
1434.0, 0.0003197262051341586
1435.0, 0.0001661464174985628
1436.0, 0.00015051488148542372
1437.0, 0.00014983974190303103
1438.0, 1.5732902283043925e-05
1439.0, 0.00014371060171935023
1440.0, 0.00014076872063678843
1441.0, 0.00022447969839184257
1442.0, 0.0003262851370136144
1443.0, 0.00034331770735703644
1444.0, 0.0002566458011472105
1445.0, 0.0005376248858230345
1446.0, 0.00037502197632928165
1447.0, 0.0001803680302276112
1448.0, 0.00018166868573706496
1449.0, 0.0002999535938642626
1450.0, 7.762181401293112e-05
1451.0, 2.6292816746547925e-05
1452.0, 0.00036455111495844127
1453.0, 0.00029901958127492894
1454.0, 0.00010638707563689696
1455.0, 0.00019408795880161394
1456.0, 0.0003913015021351993
1457.0, 0.0002257568532546995
1458.0, 0.00015777377993977265
1459.0, 0.0002727013954174388
1460.0, 0.00036326664787678315
1461.0, 0.0003018370574941854
1462.0, 0.00042019322643307544
1463.0, 0.00021589051405481016
1464.0, 0.00025051654597320284
1465.0, 0.00021725474227141255
1466.0, 0.00016305891997582888
1467.0, 0.000205857482311704
1468.0, 0.0001820114180442155
1469.0, 0.0002787494019097493
1470.0, 0.0002818616587309975
1471.0, 0.00023282016222900306
1472.0, 0.0001740542522188148
1473.0, 0.00014065612982033148
1474.0, 0.00015788323410073353
1475.0, 0.00016838366499814865
1476.0, 0.00025253567009968935
1477.0, 0.0003066738152226004
1478.0, 0.00031594796368663273
1479.0, 0.0003345873239838868
1480.0, 0.00045381273244933973
1481.0, 0.000453650296739111
1482.0, 0.00036528565727743704
1483.0, 0.00019770217350052733
1484.0, 0.00019047984767231934
1485.0, 0.00041886463069210425
1486.0, 0.0002119262046240462
1487.0, 7.126835891040592e-05
1488.0, 0.00023716352160850425
1489.0, 0.00037634980971013087
1490.0, 0.0003329355385226143
1491.0, 0.00019695810003825677
1492.0, 0.00037707645828027935
1493.0, 0.0003558698872583106
1494.0, 0.0004747852272918366
1495.0, 0.00029708786794695977
1496.0, 0.0002524422155351769
1497.0, 0.0005905633247789842
1498.0, 0.00013858614798383602
1499.0, 0.0002955924370399062
1500.0, 0.00021141648033520035
1501.0, 0.00027355253850667614
1502.0, 0.0003921703127891924
1503.0, 0.00038890406598439755
1504.0, 0.0003843515539997942
1505.0, 0.00023816695388322308
1506.0, 0.0003742407204772529
1507.0, 0.00029847107415797866
1508.0, 0.000247449980127448
1509.0, 0.00038692338140629555
1510.0, 0.00024252901654004392
1511.0, 0.00015675921202722092
1512.0, 0.0002100413024252515
1513.0, 0.00018562627884442746
1514.0, 0.0001009116278671284
1515.0, 0.00010113403680532892
1516.0, 0.0003470015143085267
1517.0, 0.00029995018702972466
1518.0, 0.0002548721527474715
1519.0, 0.0003853382241776465
1520.0, 0.00043562478517949956
1521.0, 0.00029402333520105005
1522.0, 0.00018238623883338974
1523.0, 0.00025997032038418017
1524.0, 0.00021082159263711246
1525.0, 0.0002720497382492074
1526.0, 0.0002991870168420203
1527.0, 0.0002486365774321831
1528.0, 0.0002484769478262524
1529.0, 0.0003202898051625024
1530.0, 9.18075526295797e-05
1531.0, 2.181147439797431e-05
1532.0, 5.068018962798738e-05
1533.0, 8.905609897002277e-05
1534.0, 8.831180757058433e-05
1535.0, 5.206137675834231e-06
1536.0, 1.3207108653916094e-07
1537, 0.0
1538, 0.0
1539, 0.0
1540, 0.0
1541, 0.0
1542, 0.0
1543, 0.0
1544, 0.0
1545, 0.0
1546, 0.0
1547, 0.0
1548, 0.0
1549, 0.0
1550, 0.0
1551, 0.0
1552, 0.0
1553, 0.0
1554, 0.0
1555, 0.0
1556, 0.0
1557, 0.0
1558, 0.0
1559, 0.0
1560, 0.0
1561, 0.0
1562, 0.0
1563, 0.0
1564, 0.0
1565, 0.0
1566, 0.0
1567, 0.0
1568, 0.0
1569, 0.0
1570, 0.0
1571, 0.0
1572, 0.0
1573, 0.0
1574, 0.0
1575, 0.0
1576, 0.0
1577, 0.0
1578, 0.0
1579, 0.0
1580, 0.0
1581, 0.0
1582, 0.0
1583, 0.0
1584, 0.0
1585, 0.0
1586, 0.0
1587, 0.0
1588, 0.0
1589, 0.0
1590, 0.0
1591, 0.0
1592, 0.0
1593, 0.0
1594, 0.0
1595, 0.0
1596, 0.0
1597, 0.0
1598, 0.0
1599, 0.0
