30, 0.0
31, 0.0
32, 0.0
33, 0.0
34, 0.0
35, 0.0
36, 0.0
37, 0.0
38, 0.0
39, 0.0
40, 0.0
41, 0.0
42, 0.0
43, 0.0
44, 0.0
45, 0.0
46, 0.0
47, 0.0
48, 0.0
49, 0.0
50, 0.0
51, 0.0
52, 0.0
53, 0.0
54, 0.0
55.0, 0.0002831946573541643
56.0, 0.0004203267231032285
57.0, 6.156452459265524e-05
58.0, 4.39016083557655e-05
59.0, 5.310674624165846e-05
60.0, 9.144728321284229e-05
61.0, 0.0002961135676796026
62.0, 0.0003494119265484333
63.0, 0.000491620905956306
64.0, 0.0009119730018994032
65.0, 0.0013537865014176136
66.0, 0.0019424782106922634
67.0, 0.0027844987937325916
68.0, 0.004401384518167935
69.0, 0.006258355230816238
70.0, 0.008506159404135643
71.0, 0.011331319502052514
72.0, 0.014793728886830414
73.0, 0.019007567946991846
74.0, 0.024088083384789367
75.0, 0.030713726244764566
76.0, 0.037370606561627946
77.0, 0.04450003745826776
78.0, 0.052434509403180896
79.0, 0.06036542226774933
80.0, 0.06786111777448672
81.0, 0.07492113007697973
82.0, 0.08146296030790587
83.0, 0.08459298666107706
84.0, 0.08350968378353653
85.0, 0.07723726560835831
86.0, 0.06825085237742491
87.0, 0.06117586028935973
88.0, 0.055003075879316035
89.0, 0.04720995170708528
90.0, 0.03951758959855427
91.0, 0.03206449160093549
92.0, 0.02495056201007971
93.0, 0.019558606745218487
94.0, 0.01599455781512022
95.0, 0.013510544947182656
96.0, 0.010971223702868588
97.0, 0.009693139565111348
98.0, 0.00876516597477071
99.0, 0.007982942803362954
100.0, 0.007406057543389717
101.0, 0.007121822216951037
102.0, 0.0069010179781293654
103.0, 0.0064416910775678
104.0, 0.006547651884796161
105.0, 0.006392612833336748
106.0, 0.005927550376350593
107.0, 0.00599091407572225
108.0, 0.0057551361511031995
109.0, 0.00547743142492993
110.0, 0.0053926627354718626
111.0, 0.005193375194828657
112.0, 0.0049780970350419415
113.0, 0.0047595454616708496
114.0, 0.00455304868530812
115.0, 0.004356880739748191
116.0, 0.00439846691153918
117.0, 0.004863785782244234
118.0, 0.004024347356010885
119.0, 0.003772693132559398
120.0, 0.003855367769475204
121.0, 0.0033635072538944575
122.0, 0.003547178013438239
123.0, 0.003656108808126839
124.0, 0.0034105946902224936
125.0, 0.00335399382167367
126.0, 0.0036269676036539207
127.0, 0.00405077928203341
128.0, 0.0043433731326809775
129.0, 0.004562650969950723
130.0, 0.004905790585412578
131.0, 0.005409250877261353
132.0, 0.005960247536218049
133.0, 0.006519931147072629
134.0, 0.007256671486511611
135.0, 0.00838988482558642
136.0, 0.009592696466621121
137.0, 0.011700786490326845
138.0, 0.01466060850704188
139.0, 0.017947195164317174
140.0, 0.02389578500410549
141.0, 0.03233653462413948
142.0, 0.04356570887049373
143.0, 0.06261232060325979
144.0, 0.0877197795037879
145.0, 0.11949373113284381
146.0, 0.16122216017875435
147.0, 0.20794749730871268
148.0, 0.25640170467247614
149.0, 0.305332616798339
150.0, 0.34789779943249216
151.0, 0.38565085335650834
152.0, 0.4153167858307248
153.0, 0.4308390225853519
154.0, 0.41940638552994464
155.0, 0.3875702845999586
156.0, 0.3366826751593265
157.0, 0.2677803076035499
158.0, 0.20390776431737276
159.0, 0.1482245471586798
160.0, 0.10367604686953483
161.0, 0.07530059079680662
162.0, 0.054879524409505394
163.0, 0.040817589479136704
164.0, 0.031280421909464895
165.0, 0.024742574940310673
166.0, 0.019705431642624918
167.0, 0.01585514092210301
168.0, 0.013045554103342998
169.0, 0.01087656328946699
170.0, 0.009202918358066556
171.0, 0.007995013316752736
172.0, 0.007255774636060772
173.0, 0.0066580094363465885
174.0, 0.0063063205084621906
175.0, 0.0067451470756907045
176.0, 0.006993723397302535
177.0, 0.007495734412864561
178.0, 0.008463060401821794
179.0, 0.010149362220534867
180.0, 0.012090573400366782
181.0, 0.014019197852916812
182.0, 0.015527637933678803
183.0, 0.01690177601698143
184.0, 0.018097305929873145
185.0, 0.019103381074788605
186.0, 0.019887492704126392
187.0, 0.019317356935428763
188.0, 0.017600081933943117
189.0, 0.014702301578564602
190.0, 0.012023670000802704
191.0, 0.00986411882454576
192.0, 0.00832999309663097
193.0, 0.007768669528644374
194.0, 0.007216865112686575
195.0, 0.007032801779162984
196.0, 0.00719409853566998
197.0, 0.006903707091342044
198.0, 0.007327505234889325
199.0, 0.007904300992395133
200.0, 0.008260200114990792
201.0, 0.009272346571202919
202.0, 0.010753814082460846
203.0, 0.012590393074337644
204.0, 0.014602737435834625
205.0, 0.018482837104444132
206.0, 0.02473447077827354
207.0, 0.03381163231641653
208.0, 0.047978771431021125
209.0, 0.07138491646017664
210.0, 0.10948942837701166
211.0, 0.1689773311690786
212.0, 0.2802371564322623
213.0, 0.3977212130462001
214.0, 0.5121602402731165
215.0, 0.6045838439507186
216.0, 0.6650565865130791
217.0, 0.7398106047937862
218.0, 0.8402473991831301
219.0, 0.9649566894382973
220.0, 0.8830462894681509
221.0, 0.6871835315224663
222.0, 0.42856488055766656
223.0, 0.2686270201146651
224.0, 0.1641178168484123
225.0, 0.10300996988829535
226.0, 0.07007903572962927
227.0, 0.050999856171174654
228.0, 0.03835167647555846
229.0, 0.030436256812558127
230.0, 0.025515950179543345
231.0, 0.022547964959953294
232.0, 0.02048382462171535
233.0, 0.01877852634164241
234.0, 0.018600804361538405
235.0, 0.018081826449280847
236.0, 0.01725738461957264
237.0, 0.01615577409917364
238.0, 0.015393388189202025
239.0, 0.015016855928445686
240.0, 0.015098019550442585
241.0, 0.015983880399685676
242.0, 0.0171368467352332
243.0, 0.018657237237392075
244.0, 0.020592495174320692
245.0, 0.021954985304076177
246.0, 0.022641207040102408
247.0, 0.022990303820874365
248.0, 0.023366824362089377
249.0, 0.022078318690932307
250.0, 0.019654674512218067
251.0, 0.016126439609201314
252.0, 0.01127118184732969
253.0, 0.007836069216509228
254.0, 0.005291502521248332
255.0, 0.003508692110299512
256.0, 0.0024118282781554726
257.0, 0.0016254723720107956
258.0, 0.0011062510917451236
259.0, 0.0008569601643668285
260.0, 0.000658068471253865
261.0, 0.0004996633742923634
262.0, 0.0003602952177259469
263.0, 0.00020162867807650602
264.0, 0.00020048704200855392
265.0, 0.00020889436796043092
266.0, 0.0002143237796892895
267.0, 0.000277569477016679
268.0, 0.00025656347274434087
269.0, 0.00024413042274473297
270.0, 0.00027733995600976406
271.0, 0.0002738022916658239
272.0, 0.0002703536699991012
273.0, 0.000214646085989689
274.0, 4.414352884575038e-05
275.0, 0.0001909668172067208
276.0, 0.00025754327639071245
277.0, 0.000223591372592839
278.0, 7.920321042416787e-05
279.0, 6.673092696390671e-05
280.0, 0.0001224816216286333
281.0, 0.00020496786332709278
282.0, 0.00014318046618395051
283.0, 0.00011082669340817665
284.0, 0.00012871100694646673
285.0, 0.0002015373744746138
286.0, 8.802428935613455e-05
287.0, 6.118852575944774e-05
288.0, 0.00010227559888639792
289.0, 0.00020080562669097507
290.0, 0.00017813781983139077
291.0, 0.0001427338151619832
292.0, 0.0001743452605274574
293.0, 0.000455674015115764
294.0, 0.0003489142587024702
295.0, 0.0003459579130857659
296.0, 0.0004989392472556166
297.0, 0.0005739095377066012
298.0, 0.0006189052726202943
299.0, 0.0007994017201461471
300.0, 0.0011505029420247543
301.0, 0.000902874046845597
302.0, 0.0007623186191511052
303.0, 0.0007165525208150809
304.0, 0.0007656189871500123
305.0, 0.0006015522657411319
306.0, 0.000557335301652195
307.0, 0.0006356329363650092
308.0, 0.0008397335217110297
309.0, 0.0007096932929717997
310.0, 0.0006009819520112364
311.0, 0.0005265006660694162
312.0, 0.00035582678459084016
313.0, 0.0004480748223347637
314.0, 0.0005004223504772205
315.0, 0.00045933786427804777
316.0, 0.0006632963182972257
317.0, 0.0006287779819576037
318.0, 0.00048010568505975126
319.0, 0.00028786671159348814
320.0, 0.0002979396057296875
321.0, 0.000385330121915924
322.0, 0.0004205061031488138
323.0, 0.000249499652633748
324.0, 0.00012745728863117404
325.0, 7.69373793511115e-05
326.0, 0.00010120829411480117
327.0, 0.00021438793849571072
328.0, 0.0002081321105145356
329.0, 0.0003747589104193687
330.0, 0.0006223468155822296
331.0, 0.0004056867892507654
332.0, 0.0002625874454473434
333.0, 0.0003367038995975331
334.0, 0.0006221375095138411
335.0, 0.0006391399444558753
336.0, 0.0006177817759671667
337.0, 0.000653639600239764
338.0, 0.0007929838981534519
339.0, 0.0007069738671242736
340.0, 0.0007265578211594425
341.0, 0.0007377343169763661
342.0, 0.0006261771810634523
343.0, 0.0006656342345361753
344.0, 0.0007020823059628351
345.0, 0.0006930651123201308
346.0, 0.0005692136070924766
347.0, 0.00045723876258138145
348.0, 0.0004184823049389442
349.0, 0.0004272996113111585
350.0, 0.0003948129075839047
351.0, 0.0003404379592800124
352.0, 0.00024366196563955502
353.0, 0.00013902460535339593
354.0, 0.00022388773040399378
355.0, 0.00020637756200598046
356.0, 0.000123175397197807
357.0, 1.2052044381035426e-05
358.0, 0.00013400869332886429
359.0, 0.00018901719793605148
360.0, 0.00029393658117455104
361.0, 0.0005154111247026683
362.0, 0.0006230161126188259
363.0, 0.0006774319593485547
364.0, 0.0008260308610090332
365.0, 0.0012191075357210607
366.0, 0.0012810676569262056
367.0, 0.001449594027236608
368.0, 0.0016246316948300252
369.0, 0.0016396289617374694
370.0, 0.001762952124868707
371.0, 0.0018647252170060288
372.0, 0.0019385410791627274
373.0, 0.0019922484454500187
374.0, 0.0020916365691774855
375.0, 0.002066574993173709
376.0, 0.0020415969654559597
377.0, 0.002551140302714881
378.0, 0.0025411335244758565
379.0, 0.0026388774231072168
380.0, 0.002910119974624267
381.0, 0.00282040810636154
382.0, 0.0028430866462855983
383.0, 0.0028965931004370955
384.0, 0.0029478172896890025
385.0, 0.0029753682703184798
386.0, 0.0030706924981175453
387.0, 0.003189592385342186
388.0, 0.0032941180259227665
389.0, 0.0031132415957843755
390.0, 0.003142546836501575
391.0, 0.0033215697741443397
392.0, 0.003605931171079191
393.0, 0.0033598870815345428
394.0, 0.003182691235319537
395.0, 0.0031764120844423095
396.0, 0.0034650248533293817
397.0, 0.0032604516051139435
398.0, 0.0032925366315675643
399.0, 0.0034368376444875513
400.0, 0.0034775317118683788
401.0, 0.0035790932549107325
402.0, 0.0037310626319119367
403.0, 0.003902613500148414
404.0, 0.004034676922151574
405.0, 0.004448279367594121
406.0, 0.004618624321235612
407.0, 0.004644597752346986
408.0, 0.004959966458353343
409.0, 0.005252400681391482
410.0, 0.005564092000103963
411.0, 0.0058842228739544545
412.0, 0.006147278368474795
413.0, 0.006585353643464383
414.0, 0.006852811121509372
415.0, 0.0070037803122583574
416.0, 0.0076995466247382
417.0, 0.00871147143785653
418.0, 0.009629017018018701
419.0, 0.010448397140334076
420.0, 0.011974519081315957
421.0, 0.013210319070792554
422.0, 0.014341733073185224
423.0, 0.015463396566749154
424.0, 0.016765104372475175
425.0, 0.018113782094483204
426.0, 0.01967338748396529
427.0, 0.021488829807222356
428.0, 0.02303571840094967
429.0, 0.024809794205061162
430.0, 0.02659761461830164
431.0, 0.02823845917539237
432.0, 0.02915675178153222
433.0, 0.03123026396871603
434.0, 0.03372093401572125
435.0, 0.036072095109526144
436.0, 0.036839649662003836
437.0, 0.03770807745730923
438.0, 0.038023399150941335
439.0, 0.03721089472802009
440.0, 0.03438128156909131
441.0, 0.029775492100719517
442.0, 0.02442667307442419
443.0, 0.019308262764047558
444.0, 0.014969593676496177
445.0, 0.012242017602780538
446.0, 0.010572540403651081
447.0, 0.009374689420060945
448.0, 0.008965914372026545
449.0, 0.00869003885966811
450.0, 0.0086892926319247
451.0, 0.009162458352957183
452.0, 0.010026004640617741
453.0, 0.01147901206805572
454.0, 0.01357782007197628
455.0, 0.01641640725526859
456.0, 0.02008589726508997
457.0, 0.024700091530070533
458.0, 0.030483244521024334
459.0, 0.037803646158090724
460.0, 0.04798514516915438
461.0, 0.06071471771506942
462.0, 0.07625285191093406
463.0, 0.09516524480905036
464.0, 0.12191252115296172
465.0, 0.15683852554795755
466.0, 0.2021123100367384
467.0, 0.26168126653910484
468.0, 0.3378301086275142
469.0, 0.40804995278098316
470.0, 0.4729518103382538
471.0, 0.5358427234598984
472.0, 0.5873000195537207
473.0, 0.5960635720164439
474.0, 0.5604760555588564
475.0, 0.479664818307927
476.0, 0.3580523549063255
477.0, 0.2597018480409282
478.0, 0.18672802034432112
479.0, 0.1358261851036608
480.0, 0.10435512428776213
481.0, 0.08093152268157947
482.0, 0.06374526358631735
483.0, 0.0514382336252324
484.0, 0.043302653903119846
485.0, 0.036557102509875046
486.0, 0.03092138047442879
487.0, 0.026301576478527204
488.0, 0.02353533619580536
489.0, 0.020726632135076386
490.0, 0.018164651430278147
491.0, 0.01649004377984116
492.0, 0.014952405058707858
493.0, 0.01371947567530389
494.0, 0.012733408046002091
495.0, 0.01190324814744346
496.0, 0.010982592545348592
497.0, 0.01036515513816186
498.0, 0.009774554818502002
499.0, 0.008814784231476056
500.0, 0.008154400059622435
501.0, 0.007390836547764903
502.0, 0.006724364981529654
503.0, 0.0064184909577183836
504.0, 0.006200006001335548
505.0, 0.005852639591441793
506.0, 0.005484444138266352
507.0, 0.005219886229896027
508.0, 0.005066171685270703
509.0, 0.004683572518542735
510.0, 0.004319470384862797
511.0, 0.0042196406589369625
512.0, 0.0041490713751638885
513.0, 0.003921514140422553
514.0, 0.0037496509552566656
515.0, 0.003806533253981916
516.0, 0.0036081234328647037
517.0, 0.0034614187294634735
518.0, 0.003304534228693543
519.0, 0.003114645269613303
520.0, 0.003367671509366057
521.0, 0.003395778570420863
522.0, 0.0032791985744660044
523.0, 0.0030751257677260526
524.0, 0.0028833465243022086
525.0, 0.0027699722713181267
526.0, 0.0026509541526246656
527.0, 0.002492680111811448
528.0, 0.0024065912987910974
529.0, 0.0021886548048598332
530.0, 0.0020234909786040578
531.0, 0.001978555720283998
532.0, 0.0019452798626070915
533.0, 0.0019748682396536466
534.0, 0.0019345887366972498
535.0, 0.0018310266018252473
536.0, 0.0019438647832182708
537.0, 0.0018177797335471612
538.0, 0.0017832074072210216
539.0, 0.0018830081568834273
540.0, 0.0019158446245976543
541.0, 0.0019264591091230627
542.0, 0.002002363381430463
543.0, 0.002130552878097324
544.0, 0.002216438571645411
545.0, 0.0022203674247454363
546.0, 0.002220610629265587
547.0, 0.002226857730934244
548.0, 0.002232901342218559
549.0, 0.0020448457300940273
550.0, 0.0020888065600962818
551.0, 0.002221556084050427
552.0, 0.0021208903369314704
553.0, 0.0018692393196474138
554.0, 0.0017010506189646306
555.0, 0.0015755388693060057
556.0, 0.0014214762773201734
557.0, 0.00130645041561803
558.0, 0.0012890655808655202
559.0, 0.00121631844375113
560.0, 0.0009457379918834895
561.0, 0.000831200992291734
562.0, 0.0007166359770296951
563.0, 0.0006681766096616453
564.0, 0.0007225514249732323
565.0, 0.0007144305724927528
566.0, 0.0004789544066712647
567.0, 0.00031138378420033454
568.0, 0.00031778155153892873
569.0, 0.0001101140468782934
570.0, 0.00019500722877230394
571.0, 0.0002735025314915244
572.0, 0.00024565590735035095
573.0, 0.00017138338933626128
574.0, 0.00019640978348901592
575.0, 0.00021510719238358725
576.0, 0.00021887635406367674
577.0, 0.00026594642026189953
578.0, 0.00010248982198398258
579.0, 8.905232854139091e-05
580.0, 0.00017442840179941147
581.0, 0.0001274425930409889
582.0, 7.082130925303284e-05
583.0, 0.00011620203828093107
584.0, 0.00017709134134327473
585.0, 0.00011557909062789813
586.0, 0.00018359272780241374
587.0, 0.00017815931944197743
588.0, 0.00015008543728101464
589.0, 0.0001565068070418435
590.0, 0.00022916064763733713
591.0, 0.00025271855844825127
592.0, 0.00019807677546159453
593.0, 6.431199857143751e-05
594.0, 3.6790706402601336e-05
595.0, 4.5874442049467216e-05
596.0, 0.0001098370764447673
597.0, 0.00019681769305691547
598.0, 9.460004649905996e-05
599.0, 5.79315872569311e-05
600.0, 4.4271252508872065e-05
601.0, 3.804164220587251e-05
602.0, 2.7003365822452275e-05
603.0, 0.000183430403485235
604.0, 0.00022472399256023216
605.0, 0.00017802592735913147
606.0, 0.00018060705311718543
607.0, 0.00017195007768804939
608.0, 0.00016997092930109192
609.0, 0.00018970973028963208
610.0, 0.0002466004013162735
611.0, 0.00011525078741799089
612.0, 6.887433578542615e-05
613.0, 0.00014055526242930872
614.0, 0.00032547615229194327
615.0, 0.0002605909955588198
616.0, 0.00020601278173002345
617.0, 0.0002629668604265873
618.0, 0.0004271976260283009
619.0, 0.0004023649444338111
620.0, 0.00038844085536163286
621.0, 0.00040417130101697983
622.0, 0.00043824828516112043
623.0, 0.0004406878742047432
624.0, 0.0005737318010021789
625.0, 0.0005599210863612078
626.0, 0.0004887925086313539
627.0, 0.0005842983983885555
628.0, 0.00042277340887533733
629.0, 0.00040669161830015905
630.0, 0.0004204921250328382
631.0, 0.00032846794176404884
632.0, 0.0002493353606623234
633.0, 0.0003249146353371045
634.0, 0.00034976153399076575
635.0, 0.00021676811148410347
636.0, 8.382966789738861e-05
637.0, 0.00012151024264346148
638.0, 0.00020970519563573157
639.0, 0.0002831294108327794
640.0, 0.0002573134601847756
641.0, 0.00018469031809803727
642.0, 0.00016558194571803601
643.0, 0.00018994290406647798
644.0, 0.00020427815877066763
645.0, 0.0001420756883054096
646.0, 0.00018790663957845037
647.0, 0.0003052846992939645
648.0, 0.00043566110424420073
649.0, 0.0003963467837948221
650.0, 0.0004347415740200124
651.0, 0.0004583225293080999
652.0, 0.00041763516562879954
653.0, 0.0003650771359993122
654.0, 0.0003558567715503889
655.0, 0.00044437428861399776
656.0, 0.0005662706851869505
657.0, 0.00046030756635604997
658.0, 0.0004260149104870174
659.0, 0.000369578868161464
660.0, 0.00030569844976761657
661.0, 0.0002808188733894763
662.0, 0.0003870760517806453
663.0, 0.00031698668629307457
664.0, 0.000270578446166389
665.0, 0.00041953165834939475
666.0, 0.0005432573747165118
667.0, 0.00044298759992323614
668.0, 0.0004047279060113
669.0, 0.0005025646811684789
670.0, 0.0004514623755593753
671.0, 0.00043462004209917255
672.0, 0.00047528165613332734
673.0, 0.0005138041488342831
674.0, 0.00040891810694669
675.0, 0.00045580996620026286
676.0, 0.00044425795971435306
677.0, 0.00046071172994745273
678.0, 0.0006020645460233294
679.0, 0.0004297315328768999
680.0, 0.0004835875369357325
681.0, 0.0004713906718897441
682.0, 0.00029423113494034345
683.0, 0.0003646183201565577
684.0, 0.0004238481579789066
685.0, 0.0004665522184658082
686.0, 0.00046928086456470323
687.0, 0.0003775382935274493
688.0, 0.00036058263073842066
689.0, 0.00031622910521071683
690.0, 0.0002601239845196887
691.0, 0.0002220188859376477
692.0, 0.00017067708491989568
693.0, 0.00018759665152358058
694.0, 0.00015649675232919203
695.0, 5.727744369304578e-05
696.0, 0.00019502427424068707
697.0, 0.0001656794140172613
698.0, 0.0001786893250466814
699.0, 0.00023480573286438359
700.0, 0.0001967236855188685
701.0, 0.00040953493968709607
702.0, 0.00032707294641185
703.0, 0.00015747374362723004
704.0, 0.00018964260276220382
705.0, 0.0003002631715523554
706.0, 0.0003412799233371248
707.0, 0.0003157065578322778
708.0, 0.0002634125608365553
709.0, 0.00037403718706117723
710.0, 0.00016508318962089592
711.0, 0.00018487426153489624
712.0, 0.0003600598843208894
713.0, 0.0002810006797052742
714.0, 0.00035678930368443246
715.0, 0.0003247010174959269
716.0, 0.0002856784238319407
717.0, 0.00033594484873937085
718.0, 0.0002974246570131989
719.0, 0.00022760906582766698
720.0, 0.00019322336526022936
721.0, 0.00019684020916148446
722.0, 0.00014463575695091035
723.0, 0.00022346030343270017
724.0, 0.00020059765511843593
725.0, 0.00014798342447991234
726.0, 0.00022660844946234337
727.0, 7.900456370453542e-05
728.0, 3.576612219023408e-05
729.0, 4.171181063016792e-05
730.0, 5.153681763530742e-05
731.0, 3.671829376909846e-05
732.0, 4.5025883430775416e-05
733.0, 5.082539278896152e-05
734.0, 5.472154256285901e-05
735.0, 7.448127457970777e-05
736.0, 5.0331269623009584e-05
737.0, 7.695103737323697e-05
738.0, 9.302907473694057e-05
739.0, 3.92706136354322e-05
740.0, 1.7365151268987483e-05
741.0, 2.775250243447432e-05
742.0, 6.194171464833932e-05
743.0, 9.038809623998232e-05
744.0, 2.6047908790643464e-05
745.0, 4.206402833285672e-05
746.0, 8.562586226424994e-05
747.0, 0.00012392751203265377
748.0, 0.00012348382749247393
749.0, 8.330466956196258e-05
750.0, 7.735407370504629e-05
751.0, 8.211403897001895e-05
752.0, 7.88658696719668e-05
753.0, 4.414126339431044e-05
754.0, 2.9633170435373028e-05
755.0, 7.297271876267753e-05
756.0, 0.00010961160233583417
757.0, 2.017974688926327e-05
758.0, 3.659036985431595e-05
759.0, 2.282421838334139e-05
760.0, 4.10486862456077e-05
761.0, 0.00010886698791282474
762.0, 5.276864835773018e-05
763.0, 0.00010002625468770365
764.0, 9.51596079382193e-05
765.0, 4.804251931914366e-05
766.0, 6.009434895567451e-05
767.0, 7.716683520930962e-05
768.0, 0.00010478864096249193
769.0, 0.00013032952181958352
770.0, 0.0001351622551655219
771.0, 5.344903076276649e-05
772.0, 7.903573515686589e-05
773.0, 9.81857590639595e-05
774.0, 9.453185856952255e-05
775.0, 0.00010893980062484353
776.0, 0.00013629647128584685
777.0, 7.650805516981447e-05
778.0, 2.039495314754513e-05
779.0, 5.219886420114016e-05
780.0, 0.0001621721594778744
781.0, 0.00011845046945104192
782.0, 6.555295940608493e-05
783.0, 5.7982034003511136e-05
784.0, 0.00011331004399374786
785.0, 0.00016867878573296793
786.0, 0.00019694453023429525
787.0, 0.0002213519888664345
788.0, 0.0002809947722295571
789.0, 0.0005276638558769815
790.0, 0.00045483058281076306
791.0, 0.00036783480692349866
792.0, 0.0003941393118688145
793.0, 0.0005990295894934123
794.0, 0.0005833985208805271
795.0, 0.0005656745135353183
796.0, 0.0005994267336438764
797.0, 0.0007113379582971496
798.0, 0.0008482569236258568
799.0, 0.0007840735591778366
800.0, 0.0008276491275238923
801.0, 0.0010498413448998315
802.0, 0.001406235772844607
803.0, 0.0013259754328837452
804.0, 0.0014649833406549676
805.0, 0.0016901444251599764
806.0, 0.0018743023709778316
807.0, 0.001998096057642981
808.0, 0.002293949094840331
809.0, 0.0026310448136516017
810.0, 0.0029517513126889245
811.0, 0.0032125988431968905
812.0, 0.0035552235424930177
813.0, 0.004015472348201748
814.0, 0.004299266649964152
815.0, 0.00440663977141843
816.0, 0.005202267336265766
817.0, 0.005414863265524808
818.0, 0.005546808358273054
819.0, 0.005591782771559385
820.0, 0.005438820761161892
821.0, 0.00568627505542361
822.0, 0.005677536371232205
823.0, 0.005549989074696735
824.0, 0.005348500641758747
825.0, 0.004984525145244989
826.0, 0.00475201752668003
827.0, 0.004480999073703539
828.0, 0.004241877153640923
829.0, 0.004115844813349126
830.0, 0.003951574630565108
831.0, 0.0037218667893597866
832.0, 0.003573831987082564
833.0, 0.0035646641856500573
834.0, 0.0037024485869191098
835.0, 0.003763124781199385
836.0, 0.0037910454958115557
837.0, 0.003832835853984948
838.0, 0.003907208384044638
839.0, 0.003921289129295256
840.0, 0.004156921600598572
841.0, 0.0043458821492003
842.0, 0.004478063027628399
843.0, 0.004622026783362575
844.0, 0.004319562682193867
845.0, 0.004394165712201064
846.0, 0.0045557949617410385
847.0, 0.004665757252009199
848.0, 0.004775931854764414
849.0, 0.004747129791903258
850.0, 0.004810754102648221
851.0, 0.004886220425440541
852.0, 0.004893373205897606
853.0, 0.005086323094613452
854.0, 0.00528223285665786
855.0, 0.005506418756937147
856.0, 0.005737441398297016
857.0, 0.005920205408169667
858.0, 0.0063438635824619866
859.0, 0.006850069822037624
860.0, 0.007170779172209553
861.0, 0.007282339867543891
862.0, 0.007751034449423189
863.0, 0.007716740573984224
864.0, 0.007832404209527044
865.0, 0.008018389278906654
866.0, 0.008080617533172093
867.0, 0.008053084838716223
868.0, 0.007838493937125107
869.0, 0.007728430147725587
870.0, 0.0077560545555834266
871.0, 0.007783705528695049
872.0, 0.007811437673909463
873.0, 0.007721641725432596
874.0, 0.007619666924485168
875.0, 0.007557781202876807
876.0, 0.007460926870699499
877.0, 0.0073765006464834
878.0, 0.00713027672224075
879.0, 0.006678326831609133
880.0, 0.006060427809958553
881.0, 0.0058092276091912965
882.0, 0.005447550234573541
883.0, 0.004688281611401834
884.0, 0.003752583849071357
885.0, 0.0032114942795083506
886.0, 0.0027657591466348475
887.0, 0.0025516837029717363
888.0, 0.002367422915447608
889.0, 0.0020865523935752655
890.0, 0.0016837444098152213
891.0, 0.0017340581490096138
892.0, 0.0015594164689294765
893.0, 0.0014446138173904697
894.0, 0.0016388177828698845
895.0, 0.0016245237333825254
896.0, 0.0015949051301750842
897.0, 0.0015011382841138776
898.0, 0.0014372511780493826
899.0, 0.0015440494736320002
900.0, 0.0016130833866516484
901.0, 0.0015331124755599995
902.0, 0.0014968954335078612
903.0, 0.0015199880773751875
904.0, 0.0014472824120025974
905.0, 0.001337478479914417
906.0, 0.0013609686187771631
907.0, 0.0013049294313506575
908.0, 0.0011154091422918941
909.0, 0.0011652193141083427
910.0, 0.0010636066184705666
911.0, 0.0009050758357191361
912.0, 0.0007998037824502766
913.0, 0.000832473663028056
914.0, 0.0009157503731363037
915.0, 0.0008010797303377359
916.0, 0.0007897838788143291
917.0, 0.0008150787843568945
918.0, 0.0006864125032717311
919.0, 0.0008528893687289636
920.0, 0.001017306046538093
921.0, 0.0010909273274342937
922.0, 0.0010908040323172876
923.0, 0.0011330639569009273
924.0, 0.0013785957024371421
925.0, 0.0015862643252856962
926.0, 0.0018101286210027241
927.0, 0.0020691362343834663
928.0, 0.0023054417298363616
929.0, 0.00224686921041256
930.0, 0.0022660041746603637
931.0, 0.0023771737123350527
932.0, 0.002527132498341088
933.0, 0.0025412302931876758
934.0, 0.0021804931658293515
935.0, 0.002202496072146838
936.0, 0.002364661544023637
937.0, 0.0022524711840312774
938.0, 0.00212745238907993
939.0, 0.0020138318018579453
940.0, 0.0018564854191979346
941.0, 0.001687171883100935
942.0, 0.0015732736638246223
943.0, 0.0013785157924466789
944.0, 0.0014317281521301992
945.0, 0.0013719384183629494
946.0, 0.0011283861815352982
947.0, 0.0008638064092910049
948.0, 0.0009759503532451667
949.0, 0.0007326220164758404
950.0, 0.0005268518054624663
951.0, 0.0005364206948922307
952.0, 0.0006341695767737937
953.0, 0.0004939387298034396
954.0, 0.0003888257936615638
955.0, 0.0003533003310364123
956.0, 0.00040269720116358415
957.0, 0.0005562990669388596
958.0, 0.00032870789512782947
959.0, 0.00031850754850738816
960.0, 0.00037842823189700094
961.0, 0.00034421882153172007
962.0, 0.0003583447321298758
963.0, 0.00020139862962861307
964.0, 0.00017645333765093813
965.0, 0.00023282415181702986
966.0, 0.00025558232078346443
967.0, 0.00022795062164783524
968.0, 0.0001650065483734994
969.0, 0.00013632741366216417
970.0, 0.0001548647774340983
971.0, 0.00020892489762813386
972.0, 0.00023721316393230432
973.0, 0.00012925529120806295
974.0, 0.000145927180020007
975.0, 0.0002194464728347128
976.0, 0.00014109898617462095
977.0, 0.00011081692762612532
978.0, 0.00011548242583551932
979.0, 0.0001071822961027903
980.0, 7.538436066791449e-05
981.0, 3.465958898739257e-05
982.0, 4.8721324267728056e-05
983.0, 7.346223286572667e-05
984.0, 0.00012318394920542752
985.0, 0.00015048666216257244
986.0, 5.132694282751015e-05
987.0, 5.388947977051299e-05
988.0, 3.467710669144432e-05
989.0, 9.67472660072635e-05
990.0, 0.00019434771678721572
991.0, 0.00011031610916448326
992.0, 0.00010887380695065757
993.0, 5.788035800202263e-05
994.0, 3.44555496681325e-05
995.0, 5.934903960919277e-05
996.0, 7.332110692106906e-05
997.0, 0.0001834058621002483
998.0, 0.000135875537771963
999.0, 5.637971604439177e-05
1000.0, 6.705157264872754e-05
1001.0, 0.0002773893442474943
1002.0, 0.0001305058373012762
1003.0, 0.0001871894921614709
1004.0, 0.0002013973485246752
1005.0, 8.374469161860083e-05
1006.0, 9.323982176253544e-05
1007.0, 8.485184903892863e-05
1008.0, 9.811346630379666e-05
1009.0, 7.5840044862333e-05
1010.0, 1.9620141422460275e-05
1011.0, 5.831881132689202e-05
1012.0, 7.362706188732459e-05
1013.0, 0.00017485601414102487
1014.0, 0.00017891911040361386
1015.0, 4.76398315900333e-05
1016.0, 7.55526979323563e-05
1017.0, 0.00015633789936506063
1018.0, 0.00020214295517604014
1019.0, 0.00018097131998638031
1020.0, 0.00011287361905413463
1021.0, 0.00011462958699212677
1022.0, 6.167490828076503e-05
1023.0, 0.00017036930958349292
1024.0, 0.0001789171759269584
1025.0, 1.1224248284378472e-05
1026.0, 2.5072354120425085e-05
1027.0, 7.904077041494335e-05
1028.0, 7.653248369231032e-05
1029.0, 7.96357208447736e-05
1030.0, 0.00010483274920474291
1031.0, 6.239685736993457e-05
1032.0, 7.34842190296934e-05
1033.0, 0.00014668758168109476
1034.0, 0.0001556800932891923
1035.0, 8.961880196097443e-05
1036.0, 0.00014574781720424836
1037.0, 3.965750088642341e-05
1038.0, 4.729973526918799e-05
1039.0, 5.1498061691847e-05
1040.0, 2.367662046831651e-05
1041.0, 9.394352366918431e-05
1042.0, 0.00023268969040060573
1043.0, 0.00023017842179050488
1044.0, 0.00013305732898126862
1045.0, 7.441042382089995e-05
1046.0, 0.00028561982580076314
1047.0, 0.00014909786951138357
1048.0, 0.00011361738280931491
1049.0, 0.00010002364314214943
1050.0, 8.948416843255864e-05
1051.0, 0.00013213574108430652
1052.0, 0.00024489850143969447
1053.0, 0.00017488073969283545
1054.0, 0.0001208734927924738
1055.0, 0.00015048386914980657
1056.0, 0.00021558677039008222
1057.0, 0.0001025842393122169
1058.0, 0.00010049273129387863
1059.0, 0.00011337517092529801
1060.0, 0.00010097514360600342
1061.0, 7.116908386290727e-05
1062.0, 0.0002404653008290775
1063.0, 0.000158467248866406
1064.0, 0.00012140435992953022
1065.0, 0.00018194826968678723
1066.0, 0.0002749018239795036
1067.0, 0.0003029295020887278
1068.0, 0.0001651063981601257
1069.0, 0.00013931261469738137
1070.0, 0.00016064154570586992
1071.0, 9.28895728615282e-05
1072.0, 5.0234538490179815e-05
1073.0, 0.00014385406807181452
1074.0, 0.00017720961002384112
1075.0, 0.00017407011964558765
1076.0, 0.00018515640494038164
1077.0, 0.00017491207950036294
1078.0, 0.00023844772547025725
1079.0, 0.0001393245097891214
1080.0, 3.805445916819691e-05
1081.0, 9.490419495585853e-05
1082.0, 0.0003421546683521112
1083.0, 0.00014389374146788798
1084.0, 0.00024529665573844764
1085.0, 0.00036202211791384946
1086.0, 0.0002988466669135377
1087.0, 0.00011426453273751692
1088.0, 0.00014277319318591335
1089.0, 8.771436837738129e-05
1090.0, 6.644888802522991e-05
1091.0, 0.00011341154899000187
1092.0, 0.00017086278650505442
1093.0, 0.0001170632195518729
1094.0, 0.00014982843908662875
1095.0, 0.00021423963413698993
1096.0, 0.00020638359244220852
1097.0, 4.897431457221704e-05
1098.0, 0.00023164887897774087
1099.0, 0.00026199651542930993
1100.0, 0.00025319086102491384
1101.0, 0.00020794175160778063
1102.0, 0.00013387280950471746
1103.0, 0.00024719449138822856
1104.0, 0.00017193413142714957
1105.0, 0.00016375342175166285
1106.0, 0.00019453850653812564
1107.0, 0.00020917595841590407
1108.0, 0.00022321233643156818
1109.0, 0.00021099778935843155
1110.0, 0.0002162912159061147
1111.0, 0.00019681556912117893
1112.0, 0.00012684001407576375
1113.0, 1.5145678084719903e-05
1114.0, 8.487266449496366e-05
1115.0, 0.00011231994174665778
1116.0, 0.00011834790241968955
1117.0, 0.0001264168665712229
1118.0, 0.00015412999333789596
1119.0, 0.0001391011827269013
1120.0, 0.00012617494110996727
1121.0, 0.00010392469985818234
1122.0, 9.939464409542785e-05
1123.0, 0.0001623301856598572
1124.0, 0.0003891403393361813
1125.0, 0.00017212262404079322
1126.0, 0.00013880943625691074
1127.0, 0.00019774498972237407
1128.0, 0.00021007034341078033
1129.0, 0.00028082133682808853
1130.0, 0.00017611884178545296
1131.0, 0.00020391366378840408
1132.0, 0.0001865742444671484
1133.0, 8.569246013673e-05
1134.0, 7.177918030164847e-05
1135.0, 9.903089050815045e-05
1136.0, 7.075404849993177e-05
1137.0, 0.00016814114207391406
1138.0, 0.00029939367366658043
1139.0, 0.00025573842933387567
1140.0, 0.00021346407134617432
1141.0, 0.00015765061603358779
1142.0, 0.00014458041375993934
1143.0, 0.00019184399056358908
1144.0, 0.00024731603050884597
1145.0, 7.548508184066261e-05
1146.0, 8.876245184989072e-05
1147.0, 0.00016670406434271857
1148.0, 0.000188086094343935
1149.0, 0.00014987334822848995
1150.0, 0.00020538957371885906
1151.0, 0.0002002501553637602
1152.0, 0.00014624057891650892
1153.0, 0.00012832410969344733
1154.0, 0.00015294450735577262
1155.0, 0.00017991843235228317
1156.0, 0.0002032217985594848
1157.0, 0.0002554376269307442
1158.0, 0.00015003447271105206
1159.0, 8.743340131829336e-05
1160.0, 0.00021229333493411078
1161.0, 0.00025389032786260306
1162.0, 0.0002819398837940616
1163.0, 0.000248073255085612
1164.0, 0.00018975109653013525
1165.0, 0.00013491405062217063
1166.0, 9.581506260894958e-05
1167.0, 0.00020890912141661763
1168.0, 0.00010340849391420764
1169.0, 9.35706124174629e-05
1170.0, 0.00019722850128974426
1171.0, 0.0002875447484825096
1172.0, 0.00021663286217746665
1173.0, 0.00017116445595123092
1174.0, 0.0001367869829118903
1175.0, 0.00013328051594134422
1176.0, 0.00016708573465023835
1177.0, 0.00021372057646183598
1178.0, 0.00019844190802700989
1179.0, 0.00025923348939482115
1180.0, 0.00030650139402782706
1181.0, 0.0002636261592058925
1182.0, 0.00011929267811052643
1183.0, 0.00024671144546410407
1184.0, 0.0002009292330041878
1185.0, 0.0001730583665480523
1186.0, 0.00014169305549055933
1187.0, 9.837393957347557e-05
1188.0, 0.0001822016987683888
1189.0, 0.00018361525497279264
1190.0, 0.0002673155325818264
1191.0, 0.00027087268750143606
1192.0, 0.00019965992423732424
1193.0, 0.00019375216699581084
1194.0, 0.00013459772787456916
1195.0, 0.00010140663153559561
1196.0, 0.00012525626309164135
1197.0, 0.00018682022870832485
1198.0, 0.0002321425250690826
1199.0, 0.0001585125765071198
1200.0, 0.0002080601182425132
1201.0, 0.00016929683491778436
1202.0, 0.00016129128339102154
1203.0, 0.00022917986803459102
1204.0, 0.00031167633385279116
1205.0, 0.00015267645468847288
1206.0, 8.952681009092739e-05
1207.0, 0.00017396279522174276
1208.0, 0.00027172566942080016
1209.0, 0.0002478389973910617
1210.0, 0.000122648981828232
1211.0, 0.0001428505228806133
1212.0, 0.00016966973327376905
1213.0, 0.0002186383723307933
1214.0, 0.00030139108401832434
1215.0, 0.0003867362353835598
1216.0, 0.00011230147576310641
1217.0, 0.0002175570438159862
1218.0, 0.00024247163808371774
1219.0, 0.000165589158297921
1220.0, 0.00011389236832176313
1221.0, 0.00027020230116269904
1222.0, 0.0001322438324635215
1223.0, 4.3912940807578e-05
1224.0, 4.651044809699012e-05
1225.0, 6.769205983504404e-05
1226.0, 1.5557919181048184e-05
1227.0, 0.00016870773367439238
1228.0, 6.767174880310844e-05
1229.0, 5.8303325594359946e-05
1230.0, 8.835624109823305e-05
1231.0, 0.00010847784598269034
1232.0, 0.00020619501087358158
1233.0, 0.00014627873213552843
1234.0, 6.473243781168269e-05
1235.0, 0.00014865906248027783
1236.0, 0.00023897772126352617
1237.0, 0.00011246124794758052
1238.0, 2.627886098268205e-05
1239.0, 8.163850180660215e-06
1240.0, 0.000109092718524648
1241.0, 0.0001422725079212404
1242.0, 0.0001039621178404758
1243.0, 0.00019784900868290376
1244.0, 0.00020587794103095906
1245.0, 0.00012061080400402052
1246.0, 0.00018794881523882213
1247.0, 0.00023003936671249446
1248.0, 0.00010802671397294533
1249.0, 9.120410755465231e-05
1250.0, 0.0001730755706981191
1251.0, 0.00016959600822280316
1252.0, 0.00010685021545449048
1253.0, 5.704576186506821e-05
1254.0, 8.167651988086038e-05
1255.0, 6.585255839681185e-05
1256.0, 0.00017972652953159507
1257.0, 0.00025792802647039395
1258.0, 0.00017692807496103778
1259.0, 1.804316359981839e-05
1260.0, 7.398925078688986e-05
1261.0, 0.000186990781899561
1262.0, 0.0001676818623367672
1263.0, 7.78496876697895e-05
1264.0, 7.763428121539316e-05
1265.0, 0.00018213605893376673
1266.0, 5.844405604262613e-06
1267.0, 9.874904470882312e-05
1268.0, 0.00017615841401457213
1269.0, 0.0002705600904368425
1270.0, 0.0002748489696844355
1271.0, 8.819667708619731e-05
1272.0, 2.7100003864155098e-05
1273.0, 5.9609808819372675e-05
1274.0, 6.979349047149374e-05
1275.0, 0.00010306429784756157
1276.0, 0.000127677356015199
1277.0, 5.306690260196032e-05
1278.0, 0.00016990909619686654
1279.0, 9.587418051921481e-05
1280.0, 3.805182521628762e-05
1281.0, 7.590410862144899e-05
1282.0, 0.00015681873947305007
1283.0, 8.663002517491561e-05
1284.0, 0.0002728206751289523
1285.0, 0.0001183308771627927
1286.0, 9.296105883038659e-05
1287.0, 0.0001224958879903707
1288.0, 5.239045809874336e-05
1289.0, 0.00013673211083588008
1290.0, 8.010737342825658e-05
1291.0, 0.00015091808053390205
1292.0, 0.00012707846935835522
1293.0, 4.764879274902563e-05
1294.0, 7.107027299866517e-05
1295.0, 8.412374326618858e-05
1296.0, 9.588813683269646e-05
1297.0, 7.714464288217584e-05
1298.0, 0.00010437261195511855
1299.0, 0.00016571947414800722
1300.0, 0.00017892297823665496
1301.0, 0.00020758293546817278
1302.0, 8.004979193471714e-05
1303.0, 2.1020099110439753e-05
1304.0, 2.3601009237705205e-05
1305.0, 0.00010691143141329369
1306.0, 0.0003275286726949276
1307.0, 0.00014990800208491276
1308.0, 7.216821640684307e-05
1309.0, 7.703514337481146e-05
1310.0, 0.0001177992692831168
1311.0, 0.00013463843395813404
1312.0, 7.399963392419029e-05
1313.0, 5.655643666287727e-05
1314.0, 0.00012118565722753255
1315.0, 0.0001242002820263642
1316.0, 6.792645019552654e-05
1317.0, 1.2649016677976959e-05
1318.0, 1.5505196892470564e-05
1319.0, 0.00011838597400637291
1320.0, 7.375473365312142e-05
1321.0, 6.737870661735505e-05
1322.0, 0.0001458925487131768
1323.0, 0.00023799111833610107
1324.0, 0.00016215197151251732
1325.0, 5.965292897709137e-05
1326.0, 3.849793441302783e-05
1327.0, 0.00011633137244477982
1328.0, 0.00018457404862213663
1329.0, 0.0001378951550068655
1330.0, 9.117151935006626e-05
1331.0, 4.446188180841694e-05
1332.0, 0.00011823308718129799
1333.0, 0.00016700031628079953
1334.0, 0.00012320931645901486
1335.0, 2.2855243702978212e-05
1336.0, 3.431355485280246e-05
1337.0, 4.627786300474085e-05
1338.0, 6.891966712819314e-05
1339.0, 5.663687592399841e-05
1340.0, 6.982411316649126e-05
1341.0, 0.0001605088219010055
1342.0, 2.6108613668662084e-05
1343.0, 9.697664100539912e-05
1344.0, 9.586633122013475e-05
1345.0, 8.720594413678214e-05
1346.0, 0.00012813476418290783
1347.0, 0.00019653161915274205
1348.0, 6.206837430099931e-05
1349.0, 1.4225153287114439e-05
1350.0, 9.334683122473952e-05
1351.0, 0.00010245673435478875
1352.0, 0.00010790149340623741
1353.0, 0.0002699973960166041
1354.0, 0.00016557583597067569
1355.0, 5.954610298004032e-05
1356.0, 3.991367802094197e-05
1357.0, 7.542938217682283e-05
1358.0, 8.284475130091597e-05
1359.0, 5.924685616705375e-06
1360.0, 1.5019398623319669e-05
1361.0, 0.00016595175147617427
1362.0, 0.00014189219746427092
1363.0, 7.440414316651796e-05
1364.0, 3.728755409589975e-05
1365.0, 4.0171621502841154e-05
1366.0, 0.00015551145208764124
1367.0, 7.644599089300513e-05
1368.0, 0.0002349998101858859
1369.0, 0.00019856143923173324
1370.0, 5.997660324027098e-05
1371.0, 0.0001468604298380644
1372.0, 0.00017496765263834213
1373.0, 3.844020659605648e-05
1374.0, 6.465532675712099e-05
1375.0, 8.214413613004992e-05
1376.0, 8.406602538297795e-05
1377.0, 0.00012487059461818066
1378.0, 8.063371002646088e-05
1379.0, 0.00014673650640791046
1380.0, 8.234411969929661e-05
1381.0, 0.00014294032689246932
1382.0, 0.00018215709001555868
1383.0, 4.27977142938885e-05
1384.0, 7.071686979334655e-05
1385.0, 0.00011751035810484504
1386.0, 0.00017630950500700814
1387.0, 0.0002125719388251053
1388.0, 0.00017265236618877204
1389.0, 6.146283390489104e-05
1390.0, 4.10946499926364e-06
1391.0, 0.00010490849554363975
1392.0, 0.00019400342622393187
1393.0, 0.00015808579326246312
1394.0, 7.154422232584314e-05
1395.0, 5.693238106525161e-05
1396.0, 0.00017552867283196735
1397.0, 0.00012971761649323494
1398.0, 6.363295159543975e-05
1399.0, 2.3837949188329914e-05
1400.0, 6.425091100790506e-05
1401.0, 0.00011877596940463815
1402.0, 3.47892721129222e-05
1403.0, 6.521329330177213e-05
1404.0, 0.00013251241161271407
1405.0, 7.923740502581631e-05
1406.0, 4.383756279667603e-05
1407.0, 9.10141752300708e-05
1408.0, 0.00015103255684028303
1409.0, 7.408548153901752e-05
1410.0, 0.00012184182755300784
1411.0, 9.904276928937225e-05
1412.0, 7.746069960904116e-05
1413.0, 0.00011287384020879117
1414.0, 0.0001656326053811904
1415.0, 1.2450225849295162e-05
1416.0, 6.913117502176955e-06
1417.0, 0.00016767551913871064
1418.0, 0.00013117917163875923
1419.0, 1.1406428336435386e-05
1420.0, 2.9874282529059432e-05
1421.0, 0.00014391895512544208
1422.0, 7.424096686326989e-05
1423.0, 0.00017364038854537266
1424.0, 0.00015899115587256633
1425.0, 9.444955744172793e-05
1426.0, 5.849427524011863e-05
1427.0, 2.9987339394966974e-05
1428.0, 0.00019396136812100068
1429.0, 0.0001129087236444431
1430.0, 5.0177123788245954e-05
1431.0, 7.96098661099738e-05
1432.0, 0.00011478978211428671
1433.0, 3.940879821726035e-05
1434.0, 4.8898119902368557e-05
1435.0, 3.437657545354668e-05
1436.0, 2.798359028097477e-05
1437.0, 8.545302679414405e-05
1438.0, 0.00011224716602742626
1439.0, 3.6178398260374154e-05
1440.0, 1.24607893291432e-05
1441.0, 3.453243350339754e-05
1442.0, 1.334771045101923e-05
1443.0, 7.347495015674913e-05
1444.0, 0.00010595572722206452
1445.0, 5.750333055949088e-05
1446.0, 4.0862736050722436e-05
1447.0, 6.43595414267233e-05
1448.0, 5.635552568238306e-05
1449.0, 9.486443557136731e-05
1450.0, 9.151304704893645e-05
1451.0, 5.796642801144938e-05
1452.0, 6.55034573135694e-05
1453.0, 3.542231879775336e-05
1454.0, 3.502825588319483e-05
1455.0, 4.7193186845349685e-05
1456.0, 0.0001340937648750763
1457.0, 0.0001377296934463356
1458.0, 2.992492678002022e-05
1459.0, 0.00013730740866375055
1460.0, 1.9120681485881473e-05
1461.0, 2.3961665594931604e-05
1462.0, 2.1016531595568136e-05
1463.0, 6.166747317641633e-05
1464.0, 9.534022724156303e-05
1465.0, 1.768494238439663e-05
1466.0, 0.00011321672301768031
1467.0, 6.106735486860094e-05
1468.0, 0.0001275523680780462
1469.0, 0.00014411500500349282
1470.0, 0.00015826672728266514
1471.0, 0.00020141511842946473
1472.0, 3.2186550617599495e-05
1473.0, 0.0001821866205829663
1474.0, 7.94672649558237e-05
1475.0, 2.287376470461212e-05
1476.0, 7.143895577388421e-05
1477.0, 0.00011168402140144512
1478.0, 1.1736506415195271e-05
1479.0, 6.0181611709546174e-05
1480.0, 7.62223752758028e-05
1481.0, 9.964082324643649e-05
1482.0, 0.0001426142889271328
1483.0, 0.0001707726547530383
1484.0, 0.00013657484094043972
1485.0, 3.62403210719708e-05
1486.0, 0.0002493969714431814
1487.0, 0.00023826487877050774
1488.0, 0.0003166864664055722
1489.0, 0.0002880653795030551
1490.0, 0.0001826916042728784
1491.0, 0.00026616198604464546
1492.0, 0.000377606425770259
1493.0, 0.00021710506094289915
1494.0, 0.00013993040411151
1495.0, 0.00014300736930361903
1496.0, 0.00011755960880730465
1497.0, 7.29510252139707e-05
1498.0, 0.00021352130388682777
1499.0, 0.00010555461649397294
1500.0, 0.00010466384287735401
1501.0, 0.0001495433126644961
1502.0, 0.00018424715693985902
1503.0, 0.00022579599344574867
1504.0, 0.00029495819266200517
1505.0, 0.0002677135141960085
1506.0, 0.00039873229441222057
1507.0, 0.00018001395576362013
1508.0, 0.00028459874971379295
1509.0, 0.0004938617753983673
1510.0, 0.0005000074804234056
1511.0, 0.00035572923637133857
1512.0, 0.0004902987418997185
1513.0, 0.0006277860718872829
1514.0, 0.0005512455049765154
1515.0, 0.0006487262284550233
1516.0, 0.0006933925096421323
1517.0, 0.000497577346223517
1518.0, 0.0005517463322320245
1519.0, 0.0008792081999536005
1520.0, 0.0007631611956419503
1521.0, 0.0009168376513670937
1522.0, 0.0010887377366300217
1523.0, 0.0010817923827975877
1524.0, 0.0010399321953758782
1525.0, 0.001459836274386348
1526.0, 0.0014661876477790859
1527.0, 0.0017858705164338392
1528.0, 0.002107380767311476
1529.0, 0.0013137068441818034
1530, 0.0
1531, 0.0
1532, 0.0
1533, 0.0
1534, 0.0
1535, 0.0
1536, 0.0
1537, 0.0
1538, 0.0
1539, 0.0
1540, 0.0
1541, 0.0
1542, 0.0
1543, 0.0
1544, 0.0
1545, 0.0
1546, 0.0
1547, 0.0
1548, 0.0
1549, 0.0
1550, 0.0
1551, 0.0
1552, 0.0
1553, 0.0
1554, 0.0
1555, 0.0
1556, 0.0
1557, 0.0
1558, 0.0
1559, 0.0
1560, 0.0
1561, 0.0
1562, 0.0
1563, 0.0
1564, 0.0
1565, 0.0
1566, 0.0
1567, 0.0
1568, 0.0
1569, 0.0
1570, 0.0
1571, 0.0
1572, 0.0
1573, 0.0
1574, 0.0
1575, 0.0
1576, 0.0
1577, 0.0
1578, 0.0
1579, 0.0
1580, 0.0
1581, 0.0
1582, 0.0
1583, 0.0
1584, 0.0
1585, 0.0
1586, 0.0
1587, 0.0
1588, 0.0
1589, 0.0
1590, 0.0
1591, 0.0
1592, 0.0
1593, 0.0
1594, 0.0
1595, 0.0
1596, 0.0
1597, 0.0
1598, 0.0
1599, 0.0
