30, 0.0
31, 0.0
32, 0.0
33, 0.0
34, 0.0
35, 0.0
36, 0.0
37, 0.0
38, 0.0
39, 0.0
40, 0.0
41, 0.0
42, 0.0
43, 0.0
44, 0.0
45, 0.0
46, 0.0
47, 0.0
48, 0.0
49, 0.0
50, 0.0
51, 0.0
52, 0.0
53, 0.0
54, 0.0
55, 0.0
56, 0.0
57, 0.0
58, 0.0
59, 0.0
60, 0.0
61, 0.0
62, 0.0
63, 0.0
64, 0.0
65, 0.0
66, 0.0
67, 0.0
68, 0.0
69, 0.0
70, 0.0
71, 0.0
72, 0.0
73, 0.0
74, 0.0
75, 0.0
76, 0.0
77, 0.0
78, 0.0
79, 0.0
80, 0.0
81, 0.0
82, 0.0
83, 0.0
84, 0.0
85, 0.0
86, 0.0
87.0, 0.00019548075651456778
88.0, 0.0004835059662522716
89.0, 0.000765708262123049
90.0, 0.0007189349316747768
91.0, 0.0008720343670944937
92.0, 0.0015800083316921667
93.0, 0.004155973769620305
94.0, 0.009680523562674364
95.0, 0.01640976441891446
96.0, 0.023582763212622686
97.0, 0.026474589934722886
98.0, 0.028676220530492822
99.0, 0.029676318914214635
100.0, 0.02848666767785118
101.0, 0.02831568041418859
102.0, 0.02829883446912236
103.0, 0.028936902527302168
104.0, 0.03319398937843514
105.0, 0.037590873251583584
106.0, 0.04194301360270495
107.0, 0.0461275064914637
108.0, 0.04842423186687406
109.0, 0.04990645197336854
110.0, 0.051261521369591306
111.0, 0.053514430157540316
112.0, 0.049526474161071386
113.0, 0.04971861732537524
114.0, 0.05399212611037351
115.0, 0.05492550901584424
116.0, 0.053270455338154776
117.0, 0.04853348632818924
118.0, 0.04028942025182079
119.0, 0.035134380395887684
120.0, 0.030739983299752964
121.0, 0.025784891690081035
122.0, 0.018158495245511542
123.0, 0.014977050943286387
124.0, 0.012657388877483121
125.0, 0.011188151863780454
126.0, 0.012838174872907015
127.0, 0.014183886815362466
128.0, 0.015651238298656143
129.0, 0.0175059047933697
130.0, 0.021912326282933364
131.0, 0.028217914388501426
132.0, 0.034969016036566866
133.0, 0.04028916866738553
134.0, 0.04641890162872196
135.0, 0.05344174168418556
136.0, 0.06050867082460361
137.0, 0.06418206540356765
138.0, 0.06586513425409023
139.0, 0.06717450034083908
140.0, 0.06861982461705375
141.0, 0.06854301860809713
142.0, 0.07304198488340226
143.0, 0.08001640716132469
144.0, 0.08761722399315992
145.0, 0.1044756182341209
146.0, 0.12178176892297651
147.0, 0.13998594776847814
148.0, 0.1627781456285236
149.0, 0.1799955147925283
150.0, 0.19020044236995415
151.0, 0.19333197390292753
152.0, 0.19704942603378117
153.0, 0.20149409017065004
154.0, 0.20716068062927342
155.0, 0.21464645306784538
156.0, 0.22566222169648134
157.0, 0.23616912963991038
158.0, 0.24461557136029022
159.0, 0.24747512145784564
160.0, 0.2467293793399607
161.0, 0.24301382689446702
162.0, 0.23610614377213396
163.0, 0.22398517985084415
164.0, 0.21617819087583465
165.0, 0.2099623868012407
166.0, 0.20400840522486766
167.0, 0.20024868831620926
168.0, 0.20044140019728915
169.0, 0.20250861569824932
170.0, 0.20370277982754892
171.0, 0.20618567278812439
172.0, 0.20595182389356448
173.0, 0.20325113309483145
174.0, 0.200511914889828
175.0, 0.1937993838153261
176.0, 0.18461523922451573
177.0, 0.17376735004353713
178.0, 0.16677212408647485
179.0, 0.1544967792946383
180.0, 0.1428979134839257
181.0, 0.13726179459290277
182.0, 0.12898630257054755
183.0, 0.12258905792747785
184.0, 0.11781040298769548
185.0, 0.11397771134352003
186.0, 0.10961890709233316
187.0, 0.10688840118569395
188.0, 0.10533374414388677
189.0, 0.10013719848062921
190.0, 0.09534376228084597
191.0, 0.08878411625488158
192.0, 0.07940464164086616
193.0, 0.07079441640416222
194.0, 0.06279919257433521
195.0, 0.05598188192378887
196.0, 0.05118057508317294
197.0, 0.04711898385868202
198.0, 0.044762260671791114
199.0, 0.043317332146514106
200.0, 0.04062099132667189
201.0, 0.03795568833814274
202.0, 0.034715932084510855
203.0, 0.03088857746420234
204.0, 0.027423038477883455
205.0, 0.023705288460594852
206.0, 0.02028910511474369
207.0, 0.017473282314695894
208.0, 0.013894109174447113
209.0, 0.012776476391733089
210.0, 0.012779170456417261
211.0, 0.012384280623080692
212.0, 0.011542277472808981
213.0, 0.012841173810565917
214.0, 0.01520862214149434
215.0, 0.015224875028371044
216.0, 0.017033622720621654
217.0, 0.017536015095784216
218.0, 0.01636683299534053
219.0, 0.01623744210338207
220.0, 0.016978839250592948
221.0, 0.018114282793026654
222.0, 0.019494798622196517
223.0, 0.02368310839218707
224.0, 0.029193770301721406
225.0, 0.035679172877456776
226.0, 0.04287444199908522
227.0, 0.05312988345181567
228.0, 0.061970619030364174
229.0, 0.06915811434561799
230.0, 0.0745897602043819
231.0, 0.07347002841951808
232.0, 0.07061604647991208
233.0, 0.06627576794135713
234.0, 0.0565860935277123
235.0, 0.0491523773637043
236.0, 0.04336726889581963
237.0, 0.03935572563761422
238.0, 0.04177508160763266
239.0, 0.038779899876960906
240.0, 0.035414108839671735
241.0, 0.03611048542466067
242.0, 0.03778460307526764
243.0, 0.03908842393731957
244.0, 0.040277678703349806
245.0, 0.04186736193382223
246.0, 0.040291803152609475
247.0, 0.03715284994741165
248.0, 0.032532287538081905
249.0, 0.025809757727123
250.0, 0.0191236411195413
251.0, 0.014176466057032471
252.0, 0.011079175850678781
253.0, 0.006176817682537624
254.0, 0.004387951847801642
255.0, 0.003921118408596119
256.0, 0.0038411785321004277
257.0, 0.0041143440217820395
258.0, 0.005199944367061371
259.0, 0.006266358590997546
260.0, 0.006374255257992382
261.0, 0.006396302261677046
262.0, 0.0055132675499971005
263.0, 0.003956150502940839
264.0, 0.002216770953542134
265.0, 0.0023313364567000747
266.0, 0.0037814313015905607
267.0, 0.005806297167332253
268.0, 0.005709287939871697
269.0, 0.008402376350886507
270.0, 0.009680800084829275
271.0, 0.008664028270498812
272.0, 0.009952119150315322
273.0, 0.01028534888050383
274.0, 0.009962439366853208
275.0, 0.009159587027220757
276.0, 0.009598350264546841
277.0, 0.009348034394613465
278.0, 0.008892605163278448
279.0, 0.008730547569617917
280.0, 0.006730238072868181
281.0, 0.005670055632023935
282.0, 0.005022343551946263
283.0, 0.003600100036621059
284.0, 0.0017899349732881818
285.0, 0.0013260492040668924
286.0, 0.0025940994235681743
287.0, 0.006260149031105694
288.0, 0.009399137601510114
289.0, 0.013769898871285127
290.0, 0.019699031041068175
291.0, 0.02618589691517967
292.0, 0.03309843642940893
293.0, 0.040791095285260946
294.0, 0.04919842474394256
295.0, 0.054251210452810145
296.0, 0.06031988268712328
297.0, 0.06446767828220822
298.0, 0.0643005249586775
299.0, 0.06012704230261083
300.0, 0.05761880703852886
301.0, 0.05488530593547984
302.0, 0.04940102370061274
303.0, 0.047629457016049856
304.0, 0.04586754142601762
305.0, 0.04371444193060697
306.0, 0.04080644130034209
307.0, 0.03700496159262577
308.0, 0.03345736054544596
309.0, 0.030164431296960392
310.0, 0.02653150188596616
311.0, 0.022951182220064384
312.0, 0.02099519537135134
313.0, 0.020415392432250847
314.0, 0.01696056159507025
315.0, 0.015594787418381896
316.0, 0.015035212325305839
317.0, 0.01460270628637429
318.0, 0.012400943611357849
319.0, 0.011420295012046947
320.0, 0.010058180544690504
321.0, 0.007277612700781671
322.0, 0.007222147877950286
323.0, 0.006854637272612179
324.0, 0.006141506628561944
325.0, 0.0050178619235921595
326.0, 0.006322505286766035
327.0, 0.005853684961931406
328.0, 0.0050056385058842145
329.0, 0.006269148712302263
330.0, 0.005857958999029184
331.0, 0.006166362608468019
332.0, 0.0071502337901453
333.0, 0.008195038928253543
334.0, 0.008785678004062927
335.0, 0.009959428148662264
336.0, 0.011440943495808037
337.0, 0.01153265937378646
338.0, 0.011347574389890982
339.0, 0.011618314194447477
340.0, 0.012367267543521101
341.0, 0.012491106579968391
342.0, 0.013073219914652228
343.0, 0.013717488113667058
344.0, 0.014447057424053344
345.0, 0.01710877768403945
346.0, 0.01803158603204443
347.0, 0.02010222183807354
348.0, 0.0248885835550628
349.0, 0.027666801719268736
350.0, 0.029206510936564553
351.0, 0.031170258315503584
352.0, 0.03497257625987812
353.0, 0.03517944826516355
354.0, 0.035373389058758635
355.0, 0.035488707341513895
356.0, 0.03543695882855742
357.0, 0.030612211349362137
358.0, 0.028324664213981714
359.0, 0.02727637599490209
360.0, 0.024888142110224085
361.0, 0.02563147774286199
362.0, 0.024862865652446525
363.0, 0.023241517565136042
364.0, 0.02317132364150462
365.0, 0.025082341562350466
366.0, 0.025468469093099404
367.0, 0.02613768088906928
368.0, 0.03432537715553351
369.0, 0.030579345700762265
370.0, 0.026434328980542165
371.0, 0.0242334659905497
372.0, 0.02334439118631781
373.0, 0.02101584567646882
374.0, 0.019270747690539883
375.0, 0.01838774267893714
376.0, 0.016393582167344874
377.0, 0.014680628581773351
378.0, 0.0131393747700226
379.0, 0.011749584798406553
380.0, 0.010662170524687022
381.0, 0.010647630767142476
382.0, 0.01054149470863067
383.0, 0.009829849820224534
384.0, 0.009754954304001426
385.0, 0.009583084907475834
386.0, 0.009641307507795153
387.0, 0.010145626372962176
388.0, 0.010803418333222594
389.0, 0.010895589677230302
390.0, 0.011504717147231393
391.0, 0.013514952834130794
392.0, 0.012512132731036284
393.0, 0.01293424890906666
394.0, 0.013723959239309398
395.0, 0.013789653681140324
396.0, 0.014484940538024642
397.0, 0.015594168439112118
398.0, 0.016413113528632173
399.0, 0.016020821632626615
400.0, 0.018114054724910844
401.0, 0.019846738175018457
402.0, 0.021728291474570376
403.0, 0.024773948619271718
404.0, 0.027395606421993936
405.0, 0.030025508584150817
406.0, 0.03348178614322326
407.0, 0.039300891694489484
408.0, 0.045372141626715004
409.0, 0.0517609102253371
410.0, 0.058785623305607194
411.0, 0.0671885612317604
412.0, 0.07540452088082883
413.0, 0.08397218409618025
414.0, 0.09209264950181173
415.0, 0.09744278090967681
416.0, 0.10442289811227581
417.0, 0.11070735005700143
418.0, 0.11536804527488968
419.0, 0.11668592359414573
420.0, 0.12123357269047393
421.0, 0.12521501717605157
422.0, 0.128279390829749
423.0, 0.13189557821896766
424.0, 0.1343637384833334
425.0, 0.13524347135935355
426.0, 0.1347270788663506
427.0, 0.13404719973331233
428.0, 0.12958389747492802
429.0, 0.12641015017023186
430.0, 0.12490466224696002
431.0, 0.12036448700908517
432.0, 0.12111630723735375
433.0, 0.12273564423996074
434.0, 0.12441756561095649
435.0, 0.12899432824792934
436.0, 0.1369414567979464
437.0, 0.1467117326928411
438.0, 0.15806493356191867
439.0, 0.1725093863864404
440.0, 0.1891791061476181
441.0, 0.20705296921190233
442.0, 0.2255906281439511
443.0, 0.24355515127097488
444.0, 0.2562366162947574
445.0, 0.2701567881013352
446.0, 0.28581785847370844
447.0, 0.2879780698827098
448.0, 0.2888547355530302
449.0, 0.28889514402800653
450.0, 0.2872488952779564
451.0, 0.2759633288122105
452.0, 0.26828696649655953
453.0, 0.2572916631210338
454.0, 0.24076482618530134
455.0, 0.22678716908274055
456.0, 0.21127181728900749
457.0, 0.1949259550851423
458.0, 0.17775960311831657
459.0, 0.15717488639039964
460.0, 0.14037758014597398
461.0, 0.127860379337266
462.0, 0.1187715306864584
463.0, 0.10207484624652845
464.0, 0.08966529837496717
465.0, 0.08040005037357499
466.0, 0.07334237499615867
467.0, 0.06419401358685213
468.0, 0.059014594343136044
469.0, 0.05487474844604814
470.0, 0.05049889700257662
471.0, 0.04706632049712916
472.0, 0.04567137035631652
473.0, 0.043861352293613855
474.0, 0.0407433808975138
475.0, 0.039051387683340565
476.0, 0.03740218134052547
477.0, 0.0366442231988217
478.0, 0.03708273432835497
479.0, 0.03769954224637182
480.0, 0.03748145092912516
481.0, 0.03762745290518751
482.0, 0.038547051054438286
483.0, 0.03901667415042879
484.0, 0.04059613516896251
485.0, 0.04168328468535412
486.0, 0.041783555872455344
487.0, 0.04259688227282351
488.0, 0.0455033015074913
489.0, 0.048294381249576655
490.0, 0.05038627479583357
491.0, 0.05416009202947448
492.0, 0.05463812535660594
493.0, 0.05711939268063809
494.0, 0.06253838228975374
495.0, 0.06356318118431888
496.0, 0.06342502317861413
497.0, 0.06490995020242628
498.0, 0.06806324363322086
499.0, 0.06734597619134225
500.0, 0.06782284190720582
501.0, 0.06865891945920691
502.0, 0.06933565929734825
503.0, 0.06862574073522071
504.0, 0.07077665768426109
505.0, 0.0726697367258601
506.0, 0.07389012628514194
507.0, 0.07670782326177848
508.0, 0.07942213264098277
509.0, 0.08272054875102937
510.0, 0.08729403339768506
511.0, 0.09512359035782891
512.0, 0.10056315254162422
513.0, 0.10909792648956022
514.0, 0.12060625706430333
515.0, 0.13046430129870246
516.0, 0.13998037569648705
517.0, 0.155034987011312
518.0, 0.17448522001963135
519.0, 0.19179093714679313
520.0, 0.2170366659182056
521.0, 0.24236647833567268
522.0, 0.2706861984238126
523.0, 0.3124777022462887
524.0, 0.36407651709380645
525.0, 0.41692537326010165
526.0, 0.47687891320669396
527.0, 0.5588490202015014
528.0, 0.6322042143497361
529.0, 0.7160024951894233
530.0, 0.8071478842659425
531.0, 0.8968964998601964
532.0, 0.9342780542870479
533.0, 0.9716855228450014
534.0, 0.98938667489482
535.0, 0.9522771465550232
536.0, 0.8800145574050414
537.0, 0.8021533423753041
538.0, 0.7139339540345487
539.0, 0.6079482098884409
540.0, 0.5309174840478812
541.0, 0.45294822020564673
542.0, 0.38220824607140225
543.0, 0.3272555690011948
544.0, 0.28097766976737376
545.0, 0.23984208123878398
546.0, 0.20609545940294455
547.0, 0.18128805951819504
548.0, 0.15764020803867065
549.0, 0.13865809211382946
550.0, 0.12238740675727675
551.0, 0.10776038165886938
552.0, 0.09754991130248807
553.0, 0.08886201944858702
554.0, 0.08098054471359298
555.0, 0.07352900297790546
556.0, 0.06644785434885345
557.0, 0.060323486955692555
558.0, 0.0558659299306916
559.0, 0.052828987315148006
560.0, 0.04802639078281132
561.0, 0.04359291874595014
562.0, 0.0409176541264813
563.0, 0.039491946838121475
564.0, 0.03532373079304486
565.0, 0.032216278420900836
566.0, 0.030907592421058196
567.0, 0.030242978039500965
568.0, 0.02612577500521065
569.0, 0.024007429398447577
570.0, 0.02227904864309565
571.0, 0.020906192468862987
572.0, 0.020430853560426374
573.0, 0.019509840748183276
574.0, 0.018144481306434986
575.0, 0.0168442853823002
576.0, 0.01647805780372343
577.0, 0.015957086257660298
578.0, 0.014335615638095173
579.0, 0.013148176102389846
580.0, 0.014400663399089584
581.0, 0.012565933674407948
582.0, 0.012867730195511342
583.0, 0.012925120986291944
584.0, 0.010615379155067935
585.0, 0.013106441000712113
586.0, 0.011861001155026129
587.0, 0.010308770373635373
588.0, 0.010680304658337981
589.0, 0.010851235910321402
590.0, 0.009830061525139211
591.0, 0.008887780915934238
592.0, 0.008521166667056526
593.0, 0.007733637994616953
594.0, 0.006754388967088436
595.0, 0.006140400763019992
596.0, 0.006004793798377431
597.0, 0.005974937473467149
598.0, 0.005684507376026333
599.0, 0.005395146698909575
600.0, 0.004998330874664591
601.0, 0.003995283667072016
602.0, 0.005212008791903906
603.0, 0.005080254533578893
604.0, 0.004138227893370655
605.0, 0.00451558651277211
606.0, 0.009471886345935565
607.0, 0.008535229909816582
608.0, 0.005199564413386243
609.0, 0.005332561380930673
610.0, 0.0055324728209175545
611.0, 0.00537087236900386
612.0, 0.004679364624536772
613.0, 0.003431026502569584
614.0, 0.004928307712853808
615.0, 0.004540536638324554
616.0, 0.002875792270874415
617.0, 0.0006852768309256569
618.0, 0.0014187142226417364
619.0, 0.0008258011445627612
620.0, 0.00021009842412719347
621.0, 0.000330186442211454
622.0, 0.0022109210010300825
623.0, 0.0013406982156552903
624.0, 0.0006265570406087919
625.0, 0.0006250543751154321
626.0, 0.000546161433348872
627.0, 0.001245792641480396
628.0, 0.001022004451224392
629.0, 0.0006760650814995391
630.0, 0.002400010753912535
631.0, 0.0014144301064936624
632.0, 0.0019607921997817075
633.0, 0.0025810995076839104
634.0, 0.0009527335311474733
635.0, 0.001231964772820904
636.0, 0.0016801208790282304
637.0, 0.002015886497334267
638.0, 0.002051280241207686
639.0, 0.0024923868222212647
640.0, 0.0023567751026325246
641.0, 0.0015719674714382923
642.0, 0.0005113569577945966
643.0, 0.00206602439926975
644.0, 0.0011599090368832952
645.0, 0.0007698905596307644
646.0, 0.0013260687862913666
647.0, 0.0006468782148148532
648.0, 0.0007114984465952707
649.0, 0.0006265284677681526
650.0, 0.0007585625784944508
651.0, 0.002313169838243978
652.0, 0.0019792671583476625
653.0, 0.0021178886060944572
654.0, 0.002736084472197636
655.0, 0.0035474816998642524
656.0, 0.0036459071654451054
657.0, 0.004867698768845166
658.0, 0.006313592744304725
659.0, 0.007142652811346947
660.0, 0.006669343467421597
661.0, 0.007009262806246695
662.0, 0.007545308182347291
663.0, 0.008229741401428563
664.0, 0.010716961105775417
665.0, 0.011798741771252766
666.0, 0.013307442614894475
667.0, 0.0154559002931268
668.0, 0.01718879623466645
669.0, 0.018201524477646287
670.0, 0.02061228270303994
671.0, 0.023118242032405853
672.0, 0.022799574673330145
673.0, 0.025408800805112795
674.0, 0.026459621567675794
675.0, 0.02616449256393476
676.0, 0.02503577412817634
677.0, 0.023102615673225517
678.0, 0.020356228034372523
679.0, 0.018248732959474063
680.0, 0.01740196325613301
681.0, 0.015451483723368433
682.0, 0.012435184957075664
683.0, 0.010629052328618228
684.0, 0.010180028489346927
685.0, 0.00864722441042136
686.0, 0.008127173063631898
687.0, 0.008206460216904462
688.0, 0.008106755776616383
689.0, 0.006437171105100734
690.0, 0.0077900197483240265
691.0, 0.0076404159639269
692.0, 0.007178535883557057
693.0, 0.00804357403915369
694.0, 0.01007583719572836
695.0, 0.009935640046204595
696.0, 0.010277840582334566
697.0, 0.01227835259591468
698.0, 0.011876289787198189
699.0, 0.012912827431424564
700.0, 0.014349084899550432
701.0, 0.015705434066519336
702.0, 0.016553697245620305
703.0, 0.018389522683156436
704.0, 0.01958643753362736
705.0, 0.0209551709640608
706.0, 0.0243899282466745
707.0, 0.02844887482898742
708.0, 0.031812565332641075
709.0, 0.03540472695881954
710.0, 0.040197862214411816
711.0, 0.046580826603929135
712.0, 0.0526234544747995
713.0, 0.05889016316452317
714.0, 0.06492589392887603
715.0, 0.06648045695012646
716.0, 0.06926902652129244
717.0, 0.06807973277002487
718.0, 0.06309014952593862
719.0, 0.05838272327673457
720.0, 0.055696899151461435
721.0, 0.05083444158184929
722.0, 0.047395204528769976
723.0, 0.05056240581497167
724.0, 0.035996670278627796
725.0, 0.029734024059182674
726.0, 0.026745656854750336
727.0, 0.023227545520498733
728.0, 0.019022811630779034
729.0, 0.018079878587399147
730.0, 0.01658047346398836
731.0, 0.014188814103914775
732.0, 0.014472462905227884
733.0, 0.014183156557670802
734.0, 0.012314921363763488
735.0, 0.010454993259412114
736.0, 0.011456165094313707
737.0, 0.010610877252843327
738.0, 0.010594551916929002
739.0, 0.010504229702281343
740.0, 0.009683109931989557
741.0, 0.010362192491835884
742.0, 0.010331759515723874
743.0, 0.010351322851927608
744.0, 0.010738303183101983
745.0, 0.011462410459345648
746.0, 0.0126009630747732
747.0, 0.01359641200081334
748.0, 0.014102469312103712
749.0, 0.013691975812837886
750.0, 0.01523383849754023
751.0, 0.016687020030380237
752.0, 0.01800617924023958
753.0, 0.019204077344564828
754.0, 0.019922403213284322
755.0, 0.021145992494045616
756.0, 0.022584907233481836
757.0, 0.023863208748288286
758.0, 0.023972853628861035
759.0, 0.025084063043817363
760.0, 0.024366478333609446
761.0, 0.02308628829271634
762.0, 0.024507724802558525
763.0, 0.023685998264187314
764.0, 0.022840340942848827
765.0, 0.021991496400296465
766.0, 0.02108801838464313
767.0, 0.020157768047380956
768.0, 0.018267491769143628
769.0, 0.01698810930103287
770.0, 0.01637055970817102
771.0, 0.014166648797786074
772.0, 0.01340578620247829
773.0, 0.01236658605657828
774.0, 0.011144842956564437
775.0, 0.010350407702514147
776.0, 0.009210857352198237
777.0, 0.008561272360220683
778.0, 0.008133294162681487
779.0, 0.007583899418596106
780.0, 0.005919809248104844
781.0, 0.004827228747936584
782.0, 0.00473732140024927
783.0, 0.004845090054317279
784.0, 0.0023114019391122778
785.0, 0.0034865394872332814
786.0, 0.00319087556617066
787.0, 0.0020026311642279805
788.0, 0.0015050332911619468
789.0, 0.0018874537810347058
790.0, 0.0016950916191404086
791.0, 0.0011810261043819145
792.0, 0.000572715560245739
793.0, 0.00022491071816321725
794.0, 0.00010495602239142249
795.0, 0.00023952032661808575
796.0, 0.00040213609890597254
797.0, 9.345989587482772e-05
798.0, 0.0008235388495396818
799.0, 0.0009267014669343642
800.0, 0.0006085785334303627
801.0, 0.00025343070641474405
802.0, 0.0008745065318213827
803.0, 0.0013289742916404316
804.0, 0.001328711596801657
805.0, 0.0009524693194907956
806.0, 0.0009002644336123785
807.0, 0.0006933297320347144
808.0, 0.0003400764266032355
809.0, 0.00015778436338808986
810.0, 0.0005777956541317422
811.0, 0.0011035109885670254
812.0, 0.0008975926863353219
813.0, 0.0013247806506181316
814.0, 0.002569457042895279
815.0, 0.0006280797948099438
816.0, 0.0011654165967321906
817.0, 0.0016636187687392302
818.0, 0.0015415621859118252
819.0, 0.0009086592994106116
820.0, 0.0011004246778257255
821.0, 0.001247914473852938
822.0, 0.0012105322588795851
823.0, 0.0010069514038065133
824.0, 0.0016974263942257403
825.0, 0.0013059150034381943
826.0, 0.001285512826578087
827.0, 0.0016456059646095004
828.0, 0.0008648150933570665
829.0, 0.0006360574960146779
830.0, 0.0009356623129571379
831.0, 0.0010366038665231565
832.0, 0.00018537274136397994
833.0, 0.0002751602367549925
834.0, 0.0007941156271645723
835.0, 0.0008070484441364766
836.0, 0.00017183907162704432
837.0, 0.00013960909033045927
838.0, 0.0012877525209240746
839.0, 0.001482919781042902
840.0, 0.001043890810656492
841.0, 0.0009681270727620486
842.0, 0.0011267442259652045
843.0, 0.0010230614337673246
844.0, 0.0009193562657450054
845.0, 0.0009097900443644269
846.0, 0.0006206371937971612
847.0, 0.0016662476581228987
848.0, 0.002248869582859341
849.0, 0.0021282979186912254
850.0, 0.0016004023854996933
851.0, 0.0028092977356359633
852.0, 0.0015403388636384791
853.0, 0.0005212186965498874
854.0, 0.0014460750204265001
855.0, 0.001877325286191618
856.0, 0.0010405240906199741
857.0, 0.0029957137255481234
858.0, 0.005718476511551371
859.0, 0.002928902291219067
860.0, 0.0025277806197590976
861.0, 0.0023595893637430396
862.0, 0.001879990265448895
863.0, 0.0009855776003238645
864.0, 0.0017208815058008151
865.0, 0.0017859337689969251
866.0, 0.0013670746490737815
867.0, 0.0010853641778136355
868.0, 0.0021818129835410598
869.0, 0.0008318834197276973
870.0, 0.0021585311052022753
871.0, 0.0033392731827246312
872.0, 0.002048852795893197
873.0, 0.0013016140715735166
874.0, 0.0020184509467850386
875.0, 0.0022269894041733545
876.0, 0.001865962080327057
877.0, 0.002220045105273666
878.0, 0.0015133344636526858
879.0, 0.0012502181213204509
880.0, 0.001472580838485499
881.0, 0.0019989696550459673
882.0, 0.0017646724866221637
883.0, 0.002523374971655596
884.0, 0.0029625387006636333
885.0, 0.0028218098269016155
886.0, 0.0024465515691333706
887.0, 0.0027897974238077455
888.0, 0.0029162199766554642
889.0, 0.0026701479712018467
890.0, 0.002270882449950261
891.0, 0.0040606789439170225
892.0, 0.002655695826593507
893.0, 0.0023672836009197206
894.0, 0.0034416251157456806
895.0, 0.003748136189044173
896.0, 0.0030838319142725335
897.0, 0.0038383695190601533
898.0, 0.003888770514269746
899.0, 0.00216133218667478
900.0, 0.003012083087051846
901.0, 0.002385806915637779
902.0, 0.0022946901817434257
903.0, 0.0029519545790143795
904.0, 0.003773447886998293
905.0, 0.002697545721944342
906.0, 0.003565667028142073
907.0, 0.004721670524909608
908.0, 0.0048354625324221094
909.0, 0.0032894818667004353
910.0, 0.0036542934650835406
911.0, 0.0037485002642197746
912.0, 0.003561900205880847
913.0, 0.003799570053673507
914.0, 0.004814806453458722
915.0, 0.004782404721173139
916.0, 0.004766029924021593
917.0, 0.005251218894149158
918.0, 0.005677524740605894
919.0, 0.006004476842382108
920.0, 0.006064994306632377
921.0, 0.005939956559626796
922.0, 0.005856250276796295
923.0, 0.007683925313569522
924.0, 0.007891214596163465
925.0, 0.007781841885876372
926.0, 0.00792015311149449
927.0, 0.008204032070481287
928.0, 0.008668216874389366
929.0, 0.009444062935957072
930.0, 0.010860887238543837
931.0, 0.012891170265153712
932.0, 0.012275583197584065
933.0, 0.013334875985710178
934.0, 0.014429115670470215
935.0, 0.015607346861513853
936.0, 0.018134541049348456
937.0, 0.02087822515761227
938.0, 0.02412449207588807
939.0, 0.02764743304444595
940.0, 0.031234128816494344
941.0, 0.03476400651351707
942.0, 0.03583744824982594
943.0, 0.037437557421691796
944.0, 0.039094259639632756
945.0, 0.03908492386210806
946.0, 0.03541396435140315
947.0, 0.033843477567980944
948.0, 0.031230167528230855
949.0, 0.02708966714511029
950.0, 0.025580243930618956
951.0, 0.026033152209002035
952.0, 0.02562054174303763
953.0, 0.0249505550943455
954.0, 0.02480363524095482
955.0, 0.022302257658323384
956.0, 0.023313307418476086
957.0, 0.023470419897281762
958.0, 0.021772270164778038
959.0, 0.019338657786160115
960.0, 0.020227461401380795
961.0, 0.019139274717221842
962.0, 0.01797558641120485
963.0, 0.017930918527905765
964.0, 0.017314925254857075
965.0, 0.016559969401092826
966.0, 0.01785329470905139
967.0, 0.02028269235604274
968.0, 0.0219807695737175
969.0, 0.022699128476159087
970.0, 0.02606009540588347
971.0, 0.02865401000577853
972.0, 0.030763951809312566
973.0, 0.03731002898769314
974.0, 0.04034598721659995
975.0, 0.042666980749170164
976.0, 0.0445551472076984
977.0, 0.04587252777049007
978.0, 0.0450619289682709
979.0, 0.044914987468192814
980.0, 0.043594760551806964
981.0, 0.04173129020339158
982.0, 0.04091936935547436
983.0, 0.037507698976916894
984.0, 0.03481875482785643
985.0, 0.03299132827481004
986.0, 0.03183147057897757
987.0, 0.030587625873546916
988.0, 0.02814501266545131
989.0, 0.028534309278424052
990.0, 0.029016821576347402
991.0, 0.027550528751136026
992.0, 0.02996475319475152
993.0, 0.031152098474159066
994.0, 0.0316282998369866
995.0, 0.03229398510266055
996.0, 0.03434058805015299
997.0, 0.03730025769081314
998.0, 0.03835817432230935
999.0, 0.0392295914592746
1000.0, 0.040714436782078506
1001.0, 0.04258077393102528
1002.0, 0.04583955929890006
1003.0, 0.04981415005776176
1004.0, 0.0532336512364083
1005.0, 0.05536810138837749
1006.0, 0.05822645583494952
1007.0, 0.05728360444004791
1008.0, 0.05548285111605049
1009.0, 0.052542738455493704
1010.0, 0.047322779420153144
1011.0, 0.043768692558472336
1012.0, 0.039489197544928044
1013.0, 0.03648201066950833
1014.0, 0.03440021598023827
1015.0, 0.03017638067924465
1016.0, 0.03109412278360811
1017.0, 0.030229630969692608
1018.0, 0.028485078943714735
1019.0, 0.02739791447044109
1020.0, 0.029673183997343748
1021.0, 0.028836102639542845
1022.0, 0.029326884172764845
1023.0, 0.030795801622595924
1024.0, 0.03185116119361437
1025.0, 0.031937469105920276
1026.0, 0.03622725261835788
1027.0, 0.03867551416530645
1028.0, 0.0397504705087276
1029.0, 0.04419847237986569
1030.0, 0.049769524374478444
1031.0, 0.054013904963185796
1032.0, 0.0592405878943221
1033.0, 0.06666541007105896
1034.0, 0.07593540833405948
1035.0, 0.08403225551418901
1036.0, 0.09546624086600423
1037.0, 0.10471002487851115
1038.0, 0.10812763761267635
1039.0, 0.11541556965805426
1040.0, 0.12173915324268833
1041.0, 0.12392163089677836
1042.0, 0.12481466094047204
1043.0, 0.1287226124209682
1044.0, 0.1277964230528716
1045.0, 0.12609006537833692
1046.0, 0.12593575563877804
1047.0, 0.12570305826789818
1048.0, 0.12038031025571055
1049.0, 0.11953381608543413
1050.0, 0.11885143391689859
1051.0, 0.11292280280140013
1052.0, 0.10315953435844713
1053.0, 0.10421713857653901
1054.0, 0.09505510238457417
1055.0, 0.08906218880884093
1056.0, 0.0827654953882339
1057.0, 0.07293568813663814
1058.0, 0.064344219599045
1059.0, 0.06223604837500548
1060.0, 0.061336048200834534
1061.0, 0.059464850064088984
1062.0, 0.05576631389526181
1063.0, 0.0568265289013182
1064.0, 0.05480369275280009
1065.0, 0.05389973426529078
1066.0, 0.05476989829651415
1067.0, 0.056078455225093464
1068.0, 0.05444123613261974
1069.0, 0.05577875407325566
1070.0, 0.05633020936956477
1071.0, 0.05532502360711517
1072.0, 0.05555297338403687
1073.0, 0.05739468278644496
1074.0, 0.05634961442794485
1075.0, 0.05578212983187596
1076.0, 0.057517725972016945
1077.0, 0.05900561853199892
1078.0, 0.05817812128556588
1079.0, 0.06340843011748222
1080.0, 0.06918161459376657
1081.0, 0.06960400413687212
1082.0, 0.06626006936849306
1083.0, 0.06558900520880212
1084.0, 0.06528691446851582
1085.0, 0.06756394889254985
1086.0, 0.0742182817761325
1087.0, 0.06802124902165474
1088.0, 0.06527636657012173
1089.0, 0.06576068755818913
1090.0, 0.06630050437771562
1091.0, 0.06199580895352063
1092.0, 0.05937160939942473
1093.0, 0.05945307136876928
1094.0, 0.05708755919173177
1095.0, 0.05228435354766217
1096.0, 0.05007468561377418
1097.0, 0.04646710743887166
1098.0, 0.04253592585903267
1099.0, 0.03975387266975796
1100.0, 0.03789599086348272
1101.0, 0.033761902997200964
1102.0, 0.033765466356086966
1103.0, 0.032371730484580044
1104.0, 0.030637648340322808
1105.0, 0.029535013313539228
1106.0, 0.028491165423839605
1107.0, 0.028732347494793534
1108.0, 0.028073680764728225
1109.0, 0.028335475380387564
1110.0, 0.030482360316319627
1111.0, 0.0287167684968504
1112.0, 0.027949205799993847
1113.0, 0.0282200102753095
1114.0, 0.028048058833097293
1115.0, 0.0261866267112097
1116.0, 0.026760261538846076
1117.0, 0.02615040982806113
1118.0, 0.02488921812383158
1119.0, 0.02444827119674264
1120.0, 0.026107700873807812
1121.0, 0.02138420036790924
1122.0, 0.020141467872431405
1123.0, 0.0200018703339409
1124.0, 0.018983795448162533
1125.0, 0.015347182704254222
1126.0, 0.01560009501466919
1127.0, 0.015850967231475367
1128.0, 0.015387694660573749
1129.0, 0.01439072215921782
1130.0, 0.013831684411243038
1131.0, 0.012412553716571658
1132.0, 0.012000273021388355
1133.0, 0.011718970310036563
1134.0, 0.01109959118826585
1135.0, 0.010136332792724164
1136.0, 0.010147675009193188
1137.0, 0.009879061435564234
1138.0, 0.009243051430610697
1139.0, 0.008652196786286334
1140.0, 0.00935801074730138
1141.0, 0.005945843056494248
1142.0, 0.005500075930214374
1143.0, 0.007131023838361905
1144.0, 0.008550755788559947
1145.0, 0.00518486140654517
1146.0, 0.005723592867068331
1147.0, 0.00479084054613078
1148.0, 0.003925214626054357
1149.0, 0.004321306419002679
1150.0, 0.004480713858647962
1151.0, 0.0026994806048916114
1152.0, 0.0030426643789157404
1153.0, 0.003635808256823874
1154.0, 0.00280752137644348
1155.0, 0.0022457289597525537
1156.0, 0.00419982304832721
1157.0, 0.0026204929855177797
1158.0, 0.0006945186989129946
1159.0, 0.001707645981666936
1160.0, 0.0028148059932888857
1161.0, 0.0010762006359212903
1162.0, 0.001652862406276719
1163.0, 0.0027949592689567675
1164.0, 0.002044278028331226
1165.0, 0.0005978795013010073
1166.0, 0.0012893741045332187
1167.0, 0.0014628128971026525
1168.0, 0.0014784395317419467
1169.0, 0.0019711699169801715
1170.0, 0.0008768763137763876
1171.0, 0.0004099725860814982
1172.0, 0.0006052831315841512
1173.0, 0.00174814594649824
1174.0, 0.0035328354772833134
1175.0, 0.001441643406799428
1176.0, 0.0011200788300308362
1177.0, 0.000942287556573506
1178.0, 0.00058566749365062
1179.0, 0.00018698276651017912
1180.0, 0.0005295331924060036
1181.0, 0.0008028908717820903
1182.0, 0.0008561402501046774
1183.0, 0.0010058784247719418
1184.0, 0.0014841460254000254
1185.0, 0.0006550683323260479
1186.0, 0.000549985804509303
1187.0, 0.0004678773875598071
1188.0, 0.0003507902413797135
1189.0, 0.00042359733710296593
1190.0, 0.0015558051719414888
1191.0, 0.0008613746559535655
1192.0, 0.0013203181965688005
1193.0, 0.002340555679982733
1194.0, 0.002274830494710753
1195.0, 0.0005680038289316301
1196.0, 0.0015389723533455431
1197.0, 0.0012687882220554314
1198.0, 0.0002801005258856331
1199.0, 0.00022215063826101425
1200.0, 0.00034304231559749784
1201.0, 0.0005209684496759434
1202.0, 0.0014108889650870015
1203.0, 0.0018495252286451446
1204.0, 0.0006545588060985954
1205.0, 0.00024268566044377535
1206.0, 0.0018192691738002174
1207.0, 0.0013638867576837937
1208.0, 0.0001948001748772179
1209.0, 0.0006788262659701495
1210.0, 0.0023575045776359285
1211.0, 0.00092020028631199
1212.0, 0.0005839152039157025
1213.0, 0.001356124114133948
1214.0, 0.0021175521676905953
1215.0, 0.0015157521372540243
1216.0, 0.002108457980650713
1217.0, 0.0013579048825038927
1218.0, 0.00031217482916927433
1219.0, 0.0003804773189583015
1220.0, 0.0011091933379201756
1221.0, 0.0007729087873569204
1222.0, 0.00142623174109483
1223.0, 0.001856773214085703
1224.0, 0.001011942472525362
1225.0, 0.0004745515145956799
1226.0, 0.002117018245810649
1227.0, 0.0018750717227071442
1228.0, 0.0012932804529700859
1229.0, 0.0015392271983831192
1230.0, 0.000267550330083787
1231.0, 0.0004751064609460145
1232.0, 0.002173645418781966
1233.0, 0.0029829928276619054
1234.0, 0.001759317035223175
1235.0, 0.0007040317835386592
1236.0, 0.002732517486076029
1237.0, 0.00232134753239578
1238.0, 0.0019555353316202425
1239.0, 0.0029485168260408074
1240.0, 0.003448114063222305
1241.0, 0.0010407565381382346
1242.0, 0.0021758882330325108
1243.0, 0.002782112451107425
1244.0, 0.0015924032929012016
1245.0, 0.0018211316944377622
1246.0, 0.002314090680978844
1247.0, 0.0017411005474678382
1248.0, 0.0007767414173647064
1249.0, 0.0005511438999197348
1250.0, 0.002489370069767187
1251.0, 0.000663717739557598
1252.0, 0.0008923058785512902
1253.0, 0.0020254652254714247
1254.0, 0.0023668377177308133
1255.0, 0.00024424229642191846
1256.0, 0.002763795312953288
1257.0, 0.0012658401996008012
1258.0, 0.0006383873160624389
1259.0, 0.0011391476008021258
1260.0, 0.000840940850473646
1261.0, 0.000918241120584621
1262.0, 0.0005685730307485186
1263.0, 0.0020499833454749117
1264.0, 0.003096258647965825
1265.0, 0.0010925349873201898
1266.0, 0.0016338125163759757
1267.0, 0.0025736003823831734
1268.0, 0.002126254177969237
1269.0, 0.0016405734224945274
1270.0, 0.002134922372048781
1271.0, 0.0003303553402819533
1272.0, 0.0009263211692503956
1273.0, 0.0025322744260075736
1274.0, 0.0026154737375532508
1275.0, 0.0006564636215011417
1276.0, 0.0014504457496422748
1277.0, 0.0007940170185907113
1278.0, 0.0004278223356229846
1279.0, 0.001738205572617199
1280.0, 0.003553193590545995
1281.0, 0.0008164004584630912
1282.0, 0.001020322700129753
1283.0, 0.0018447649487817052
1284.0, 0.0019337284529267606
1285.0, 0.0016367377366222067
1286.0, 0.0027895321573612984
1287.0, 0.0005868778427415334
1288.0, 0.0008688910834731744
1289.0, 0.0020621334396452393
1290.0, 0.0027103078131627124
1291.0, 0.0019642272929205383
1292.0, 0.004934460093962987
1293.0, 0.004069684455685217
1294.0, 0.0019190095503977735
1295.0, 0.0003546061774863208
1296.0, 0.0005761736909093942
1297.0, 0.0013878129260102613
1298.0, 0.0007325838281005369
1299.0, 0.00024735436755668277
1300.0, 0.0011451315065981044
1301.0, 0.0032342674275811704
1302.0, 0.002560757937320597
1303.0, 0.002944561026106332
1304.0, 0.0025733397168937054
1305.0, 0.0022691332913046037
1306.0, 0.002692935798408706
1307.0, 0.003828468155653063
1308.0, 0.0008114676395870554
1309.0, 0.0007404007931075169
1310.0, 0.001502033203263463
1311.0, 0.0016232687468430759
1312.0, 0.0006277074202135499
1313.0, 0.001187298957719654
1314.0, 0.0007354568657310336
1315.0, 0.00039408099845090544
1316.0, 0.0011572089167630323
1317.0, 0.0031503042582334342
1318.0, 0.0006817247126305757
1319.0, 0.0007974872775604262
1320.0, 0.003411262846400533
1321.0, 0.004053326986739476
1322.0, 0.000520725632526277
1323.0, 0.0022211588519719895
1324.0, 0.001926113854056547
1325.0, 0.0019050148028096757
1326.0, 0.0029814391430195283
1327.0, 0.00389322155256489
1328.0, 0.00016505322507246248
1329.0, 0.0007756452961513714
1330.0, 0.0022666163620694716
1331.0, 0.002019774248510484
1332.0, 0.000746495169141803
1333.0, 0.00181489105681798
1334.0, 0.0030411551040586487
1335.0, 0.0013897339643560173
1336.0, 0.001693634458804312
1337.0, 0.0030996424130713854
1338.0, 0.0028038088323947856
1339.0, 0.0016653680271392483
1340.0, 0.003519585696921573
1341.0, 0.002882880936750239
1342.0, 0.0016722356201886147
1343.0, 0.0023373162310239655
1344.0, 0.004802205388576032
1345.0, 0.0025046436969280187
1346.0, 0.0011730512869953791
1347.0, 0.0012270477276581922
1348.0, 0.0018010724292418722
1349.0, 0.001122375516720017
1350.0, 0.003491185478583563
1351.0, 0.002892424420084984
1352.0, 0.0017528351492380385
1353.0, 0.0016641804338879517
1354.0, 0.002982178016406525
1355.0, 0.0008740290522751542
1356.0, 0.0018898990801514194
1357.0, 0.002566117901810792
1358.0, 0.0020715374340656402
1359.0, 0.0010002288633843216
1360.0, 0.0021088737205453277
1361.0, 0.0026341697934011326
1362.0, 0.0021402359363574056
1363.0, 0.0023589307629700573
1364.0, 0.002770148356027286
1365.0, 6.655461540318916e-05
1366.0, 0.0016658236928059316
1367.0, 0.003695626525969922
1368.0, 0.0029291038702036914
1369.0, 0.0014189298590360849
1370.0, 0.0029349948648046353
1371.0, 0.002293881542431214
1372.0, 0.0019696675661430153
1373.0, 0.0024486395295948904
1374.0, 0.0028776242860601236
1375.0, 0.0025626602466434093
1376.0, 0.0020075683636800045
1377.0, 0.0051654655655428185
1378.0, 0.0035211658958034086
1379.0, 0.0019885570039307786
1380.0, 0.002474057021474205
1381.0, 0.002752525988202804
1382.0, 0.001583079548100311
1383.0, 0.001689323724474959
1384.0, 0.001927733357301439
1385.0, 0.001454178464266669
1386.0, 0.0002904222721256288
1387.0, 0.0018083254190497606
1388.0, 0.0013440037232309273
1389.0, 0.0011427896989700999
1390.0, 0.001827143663954154
1391.0, 0.0026017270202199068
1392.0, 0.0007668405315536212
1393.0, 0.0029844568681294866
1394.0, 0.003967657040696426
1395.0, 0.0024233675325714406
1396.0, 0.0013105366469235216
1397.0, 0.004747279515133456
1398.0, 0.0022787644229643263
1399.0, 0.0020423224327133266
1400.0, 0.0036217716791691903
1401.0, 0.003845569549269547
1402.0, 0.0012349750883990105
1403.0, 0.0005339857990350487
1404.0, 0.003822360056818927
1405.0, 0.003220794706497085
1406.0, 0.002977888764733956
1407.0, 0.004382389703534123
1408.0, 0.004948469033589346
1409.0, 0.0016259704497705073
1410.0, 0.003774387964661391
1411.0, 0.0046002981811075275
1412.0, 0.002875149546788372
1413.0, 0.0007567394208340969
1414.0, 0.004785182402741228
1415.0, 0.0029904523196825177
1416.0, 0.002857970107842134
1417.0, 0.003932315422828295
1418.0, 0.003975829059427594
1419.0, 0.0001755947166123059
1420.0, 0.0014761418328394639
1421.0, 0.0046268625240208795
1422.0, 0.0035393271732317186
1423.0, 0.0019442201042093224
1424.0, 0.004907095643821329
1425.0, 0.004255556451866808
1426.0, 0.001758099443189047
1427.0, 0.0035159877933754633
1428.0, 0.004214611220177676
1429.0, 0.001846054313060958
1430.0, 0.0009421341411205977
1431.0, 0.004665303309627063
1432.0, 0.002021543241734247
1433.0, 0.00203629188553262
1434.0, 0.003849850789907527
1435.0, 0.0029805158245132346
1436.0, 0.0008973424229570981
1437.0, 0.0037265917377401732
1438.0, 0.0035384407994794023
1439.0, 0.001968191097046405
1440.0, 0.001961936875844327
1441.0, 0.005850745225144587
1442.0, 0.002094277601581882
1443.0, 0.0014752608558233102
1444.0, 0.002604855411843733
1445.0, 0.002926874296879212
1446.0, 0.0018210256045533397
1447.0, 0.008763571642234708
1448.0, 0.005630165815619587
1449.0, 0.002314252273922023
1450.0, 0.002026269579341391
1451.0, 0.004042477216618915
1452.0, 0.003945949086507767
1453.0, 0.0008008587853748838
1454.0, 0.00429277974722231
1455.0, 0.0037767345819499426
1456.0, 0.0016557797863080987
1457.0, 0.003446214591065689
1458.0, 0.006760444718175124
1459.0, 0.0040798695030113885
1460.0, 0.0033573926110255594
1461.0, 0.004836180392373829
1462.0, 0.00533771381235524
1463.0, 0.0005117664044526275
1464.0, 0.004632228280072306
1465.0, 0.00537053561493175
1466.0, 0.00423057169618003
1467.0, 0.003205998012485665
1468.0, 0.0034991150011614205
1469.0, 0.003881087320485748
1470.0, 0.0027258868603946542
1471.0, 0.004948089204079147
1472.0, 0.0048833456328965874
1473.0, 0.0032189371504372823
1474.0, 0.004807480014100031
1475.0, 0.005783708466424728
1476.0, 0.0035136549021874183
1477.0, 0.0039745520482336125
1478.0, 0.004250233548812601
1479.0, 0.0025819577540305634
1480.0, 0.0023803889411413166
1481.0, 0.005898731712738989
1482.0, 0.0054917985144258335
1483.0, 0.004609543544687061
1484.0, 0.005066429477206116
1485.0, 0.006532628480577127
1486.0, 0.004016717494391548
1487.0, 0.0052999871761313325
1488.0, 0.007152838705888913
1489.0, 0.005517859949719629
1490.0, 0.002559654517645905
1491.0, 0.005837339746440156
1492.0, 0.00648824493376083
1493.0, 0.003902997780798111
1494.0, 0.0043253078903249835
1495.0, 0.004665545446137456
1496.0, 0.002522313198711183
1497.0, 0.0033699662524737392
1498.0, 0.004895752504318347
1499.0, 0.00557810826926633
1500.0, 0.004799485288151174
1501.0, 0.004212374483929898
1502.0, 0.005373278476698101
1503.0, 0.0024160706580538343
1504.0, 0.003205384077326648
1505.0, 0.004735779232445695
1506.0, 0.003942499893319757
1507.0, 0.0021345618862788724
1508.0, 0.0048915461995672265
1509.0, 0.004641727460578055
1510.0, 0.001671365086537195
1511.0, 0.004471615217039904
1512.0, 0.006590032412253408
1513.0, 0.002665595359382691
1514.0, 0.000716397310440943
1515.0, 0.005307236180866858
1516.0, 0.0034539262856956004
1517.0, 0.0016859034027158484
1518.0, 0.0029771386141649626
1519.0, 0.005912108508671258
1520.0, 0.0016886980731516217
1521.0, 0.0031447558894478205
1522.0, 0.003988388816910116
1523.0, 0.002932496198114493
1524.0, 0.0019300948632189655
1525.0, 0.004643707985937954
1526.0, 0.004640419760662029
1527.0, 0.002246853728169891
1528.0, 0.004782307081237374
1529.0, 0.005408360749048624
1530.0, 0.0010783715240783056
1531.0, 0.0016284157876906848
1532.0, 0.004268743339373691
1533.0, 0.0030054576010175487
1534.0, 0.003100336010711572
1535.0, 0.0046110296656709905
1536.0, 0.004806486038355471
1537.0, 0.00025296573709378354
1538.0, 0.004983969970900382
1539.0, 0.005286966593719829
1540.0, 0.00260008593020381
1541.0, 1.7614258219136374e-06
1542, 0.0
1543, 0.0
1544, 0.0
1545, 0.0
1546, 0.0
1547, 0.0
1548, 0.0
1549, 0.0
1550, 0.0
1551, 0.0
1552, 0.0
1553, 0.0
1554, 0.0
1555, 0.0
1556, 0.0
1557, 0.0
1558, 0.0
1559, 0.0
1560, 0.0
1561, 0.0
1562, 0.0
1563, 0.0
1564, 0.0
1565, 0.0
1566, 0.0
1567, 0.0
1568, 0.0
1569, 0.0
1570, 0.0
1571, 0.0
1572, 0.0
1573, 0.0
1574, 0.0
1575, 0.0
1576, 0.0
1577, 0.0
1578, 0.0
1579, 0.0
1580, 0.0
1581, 0.0
1582, 0.0
1583, 0.0
1584, 0.0
1585, 0.0
1586, 0.0
1587, 0.0
1588, 0.0
1589, 0.0
1590, 0.0
1591, 0.0
1592, 0.0
1593, 0.0
1594, 0.0
1595, 0.0
1596, 0.0
1597, 0.0
1598, 0.0
1599, 0.0
