30, 0.0
31, 0.0
32, 0.0
33, 0.0
34, 0.0
35, 0.0
36, 0.0
37, 0.0
38, 0.0
39, 0.0
40, 0.0
41, 0.0
42, 0.0
43, 0.0
44, 0.0
45, 0.0
46, 0.0
47, 0.0
48, 0.0
49, 0.0
50, 0.0
51, 0.0
52, 0.0
53, 0.0
54, 0.0
55, 0.0
56, 0.0
57, 0.0
58, 0.0
59, 0.0
60, 0.0
61, 0.0
62, 0.0
63, 0.0
64, 0.0
65, 0.0
66, 0.0
67, 0.0
68, 0.0
69, 0.0
70, 0.0
71, 0.0
72, 0.0
73, 0.0
74, 0.0
75, 0.0
76, 0.0
77, 0.0
78, 0.0
79, 0.0
80, 0.0
81, 0.0
82, 0.0
83, 0.0
84, 0.0
85, 0.0
86, 0.0
87, 0.0
88, 0.0
89, 0.0
90, 0.0
91, 0.0
92, 0.0
93, 0.0
94, 0.0
95, 0.0
96, 0.0
97.0, 1.668476204373896e-05
98.0, 6.619444169875024e-05
99.0, 0.0012516789401129874
100.0, 0.0035265621826621137
101.0, 0.006551280517743047
102.0, 0.009049175444303921
103.0, 0.010499154001866214
104.0, 0.011104563405153665
105.0, 0.01081885625584199
106.0, 0.008924699229415968
107.0, 0.007373068514230486
108.0, 0.006355663991382823
109.0, 0.006439426223815589
110.0, 0.007366442429064721
111.0, 0.009250060044060983
112.0, 0.012253818870204563
113.0, 0.01715897852563396
114.0, 0.020533166067006108
115.0, 0.022601436172755028
116.0, 0.023480911370075484
117.0, 0.021105204466142877
118.0, 0.018891688755764708
119.0, 0.017708633119554864
120.0, 0.015350984737144717
121.0, 0.013181450030563605
122.0, 0.011738412939520475
123.0, 0.01206019642471397
124.0, 0.01144300454903779
125.0, 0.011074325637072809
126.0, 0.011138591104758244
127.0, 0.01135193699418982
128.0, 0.010799962917214656
129.0, 0.010368128139798425
130.0, 0.010933751955622545
131.0, 0.010130887432270004
132.0, 0.009851652542810865
133.0, 0.010012419688993707
134.0, 0.009402239188242581
135.0, 0.009208803212284192
136.0, 0.00884445258540249
137.0, 0.007941333647157333
138.0, 0.008524009372792886
139.0, 0.008985311552852546
140.0, 0.009074342270291372
141.0, 0.008116553081862127
142.0, 0.007204572386187419
143.0, 0.006015679013768585
144.0, 0.0044931140187853295
145.0, 0.004540199279776444
146.0, 0.003764719439986959
147.0, 0.002962704623434512
148.0, 0.003350707764543905
149.0, 0.0025614566357495296
150.0, 0.002250521031324861
151.0, 0.002560506227845493
152.0, 0.002365421656338686
153.0, 0.0022001135462095815
154.0, 0.0022247612038783474
155.0, 0.002611097179885696
156.0, 0.0027017689391423097
157.0, 0.00262175392238175
158.0, 0.0025212369942880855
159.0, 0.002900272001303841
160.0, 0.0039540445592231716
161.0, 0.004584520997757292
162.0, 0.004342993057915113
163.0, 0.0051475964080493035
164.0, 0.0055360166245109164
165.0, 0.00566948374812997
166.0, 0.005756012394143029
167.0, 0.005615701974685213
168.0, 0.005231681813056084
169.0, 0.004655797630764128
170.0, 0.004365699968352162
171.0, 0.004463294881530579
172.0, 0.004125424892233244
173.0, 0.0026141043462161212
174.0, 0.0025930976447323803
175.0, 0.0019680029688972926
176.0, 0.001142481845115
177.0, 0.0016878272096444247
178.0, 0.0014919025762934362
179.0, 0.0009329199571989669
180.0, 0.00016084677943390302
181.0, 0.0002591177055092739
182.0, 0.0004007089959025086
183.0, 0.0004765453243430523
184.0, 0.00032478465971479164
185.0, 0.0002678019885351478
186.0, 0.00019413858492906417
187.0, 0.00010778713263349108
188.0, 0.00010303102533851737
189.0, 0.0004828834394025347
190.0, 0.0007746145684551696
191.0, 0.000714094056365869
192.0, 0.0002853786633802017
193.0, 0.00027851397169157316
194.0, 0.0003927978615642198
195.0, 5.436061377641762e-05
196.0, 0.00011238323969409191
197.0, 0.00020365244675491065
198.0, 0.0002803958613602722
199.0, 0.0005347743944287841
200.0, 0.00035945010944075825
201.0, 0.00022631706610070525
202.0, 0.0004875878235158259
203.0, 0.0005837629219470573
204.0, 0.0007053826542119489
205.0, 0.0007736150198916885
206.0, 0.0005606597529354641
207.0, 0.0008437788452670748
208.0, 0.0007078459453707605
209.0, 6.216589307349475e-05
210.0, 0.0006295489121444901
211.0, 0.0007047436595415791
212.0, 0.0006888436572510284
213.0, 0.0009134177570088627
214.0, 0.0013897388407970418
215.0, 0.0013429404492186253
216.0, 0.0010302818696458842
217.0, 0.0012424221440016003
218.0, 0.0018722339669340184
219.0, 0.0019377615143369841
220.0, 0.0012960622993211783
221.0, 0.0018984893371575486
222.0, 0.0021828148082592004
223.0, 0.0021623181609954955
224.0, 0.001792991364741604
225.0, 0.0025922409970828117
226.0, 0.002893633351918128
227.0, 0.0028834666989243102
228.0, 0.003282101851127463
229.0, 0.004315243360167685
230.0, 0.004711703262634552
231.0, 0.004294937451054738
232.0, 0.005150075002841055
233.0, 0.005806602521646243
234.0, 0.006617804335503143
235.0, 0.007898648816534843
236.0, 0.008504139180360212
237.0, 0.0084601125394097
238.0, 0.008381201315007039
239.0, 0.009729749680162778
240.0, 0.010932002209928347
241.0, 0.012089288301460053
242.0, 0.013237273425259103
243.0, 0.014482509341878632
244.0, 0.01678376105360861
245.0, 0.01938458580206914
246.0, 0.02182713638355066
247.0, 0.02515225041486941
248.0, 0.028478667784139072
249.0, 0.03226009314595937
250.0, 0.037437108368233565
251.0, 0.04315297228323786
252.0, 0.04945482554797089
253.0, 0.056196687613710175
254.0, 0.0625978151758011
255.0, 0.06947073772978629
256.0, 0.07647220417853079
257.0, 0.08344098605345227
258.0, 0.09000602042752527
259.0, 0.0978718915657857
260.0, 0.10609281751852455
261.0, 0.11356784969013034
262.0, 0.11909902364031102
263.0, 0.12173401050553541
264.0, 0.12163424718432933
265.0, 0.11914580169663537
266.0, 0.11246573486463196
267.0, 0.10337767290592997
268.0, 0.09239611938376147
269.0, 0.08038779151702133
270.0, 0.06909231558746129
271.0, 0.05926416120602371
272.0, 0.05161477352839178
273.0, 0.04314346385608299
274.0, 0.03664404510400434
275.0, 0.03175025545947036
276.0, 0.028007666753102473
277.0, 0.024113427485842567
278.0, 0.02110898578056187
279.0, 0.01890540074882913
280.0, 0.01653068956573904
281.0, 0.015503913837680143
282.0, 0.014390587659278928
283.0, 0.012713322118154048
284.0, 0.011537416345905728
285.0, 0.010974134294371078
286.0, 0.010009927247926653
287.0, 0.007700650352057925
288.0, 0.007136155736988893
289.0, 0.0069933928517101245
290.0, 0.00688581477343225
291.0, 0.006133823408290743
292.0, 0.005948104591319378
293.0, 0.005547530752125643
294.0, 0.004932135555312088
295.0, 0.0046824632829515645
296.0, 0.004407216753972425
297.0, 0.00409827257918947
298.0, 0.003756483267410944
299.0, 0.003465813121922317
300.0, 0.00298993687225831
301.0, 0.0024162848050198697
302.0, 0.0018065913955381532
303.0, 0.001586826899428411
304.0, 0.0012991598950008942
305.0, 0.0012544974029938928
306.0, 0.00206526517763917
307.0, 0.0013826015053870842
308.0, 0.0008275278664078569
309.0, 0.0006739290081243651
310.0, 0.0011593720807795244
311.0, 0.0007144158246185673
312.0, 0.0005097991480317076
313.0, 0.0008178734346035518
314.0, 0.0006882917336241693
315.0, 0.0005197093922377332
316.0, 0.0005006903397746533
317.0, 0.0007503904513438945
318.0, 0.00024382524308783752
319.0, 0.00026803879763589663
320.0, 0.0004069890840099839
321.0, 0.0001441540767820612
322.0, 0.0003368984445440546
323.0, 0.0005816456287422169
324.0, 0.0006770059794516229
325.0, 0.00018646683892030138
326.0, 0.0002773698390677585
327.0, 0.00039210078500045693
328.0, 0.00042658725620049065
329.0, 0.0003959771959811678
330.0, 0.0004783214490330504
331.0, 0.00041509660428694817
332.0, 0.0001502658448346816
333.0, 0.0002694882081593453
334.0, 0.0002494880311120994
335.0, 0.0002811098456059291
336.0, 0.0005013749879225699
337.0, 0.0007216401302392105
338.0, 0.0004485307691942638
339.0, 0.00013784369988313752
340.0, 0.0003803419891794732
341.0, 0.0003339188538545297
342.0, 0.0006371740071926695
343.0, 0.0009126936330702091
344.0, 0.0001910399849080856
345.0, 0.0002349713758310787
346.0, 0.0006953931996646356
347.0, 0.0012424904647721753
348.0, 0.0007757600547456385
349.0, 0.0006240753486595547
350.0, 0.0005660005395045882
351.0, 0.0005305360688354019
352.0, 0.000495638802705274
353.0, 0.00029345874415031105
354.0, 0.0001108782492046231
355.0, 5.360019817666929e-05
356.0, 0.0001886799532944288
357.0, 0.00019475555880809058
358.0, 0.000245587487496222
359.0, 0.0005019364543264816
360.0, 0.00031752087350768416
361.0, 0.0002307742851564623
362.0, 0.0002314127853497476
363.0, 0.00029770397854028127
364.0, 0.0005446628695951154
365.0, 0.0004724084898918121
366.0, 0.00029904979136698097
367.0, 0.0006362053831110054
368.0, 0.0006988086111553069
369.0, 0.0007259168769147506
370.0, 0.0007062976132417802
371.0, 0.000436963693557788
372.0, 0.0004062833712122881
373.0, 0.00029625846269290036
374.0, 0.00015558762112477835
375.0, 0.0008951973700125391
376.0, 0.0006131577221239749
377.0, 0.00038918234808410507
378.0, 0.0006549786250450989
379.0, 0.0007043326631009152
380.0, 0.00043419589972496344
381.0, 0.00013507727447004502
382.0, 2.576849916120132e-06
383.0, 8.692664801512818e-05
384.0, 0.00034227335370647
385.0, 0.0004891756214345262
386.0, 0.000240873769339429
387.0, 0.000101678284881735
388.0, 0.0001751898204497512
389.0, 0.00037723543574395114
390.0, 0.0005923155684498561
391.0, 0.0002626651655744521
392.0, 0.00029367474486118224
393.0, 0.0004860536117532132
394.0, 0.00030012478014414886
395.0, 0.0003218445499649373
396.0, 0.0002630777108627369
397.0, 0.00023805700951979965
398.0, 0.0006984730594612096
399.0, 0.0004551525108296273
400.0, 0.0001942214436716242
401.0, 0.00016720222225728173
402.0, 0.0008356510078376424
403.0, 0.0003866358715980814
404.0, 0.00041902036288614484
405.0, 0.0010727277922083019
406.0, 0.00032273908468417444
407.0, 0.0006399462552589162
408.0, 0.0010288454353499974
409.0, 0.0010486420971040633
410.0, 0.00033082906604533753
411.0, 0.00011505590930034445
412.0, 0.0001876522247727266
413.0, 0.0004056232236499248
414.0, 0.0001453916323697142
415.0, 0.0004211153940130224
416.0, 0.0008379566582401851
417.0, 0.0011059930555498473
418.0, 0.0004470517304546235
419.0, 0.0008308886085654724
420.0, 0.0010721338299287547
421.0, 0.00013646931861538674
422.0, 0.00020225121608926237
423.0, 0.0006162647995659429
424.0, 0.0010128674657806846
425.0, 0.0009837184386642724
426.0, 0.0010013902058246854
427.0, 0.0005345707469133064
428.0, 0.00012091346762076156
429.0, 0.0005189247973945467
430.0, 0.00034439241297076046
431.0, 0.00039034722035137775
432.0, 0.0005201935628106331
433.0, 0.0004436847546090213
434.0, 0.00021246673204667672
435.0, 0.00015303290706762218
436.0, 0.00021564070718331973
437.0, 0.0002578273120324801
438.0, 0.00018492500272317507
439.0, 0.00025924196860989206
440.0, 0.0004294353816584376
441.0, 0.0005151081171710097
442.0, 0.0006886613086882096
443.0, 0.0008519775934462036
444.0, 0.00097212908804821
445.0, 0.000995762791336773
446.0, 0.001114208941778653
447.0, 0.0011600532004527894
448.0, 0.0010795793257013288
449.0, 0.0007902092417078737
450.0, 0.0006640992842278085
451.0, 0.0005153793821716734
452.0, 0.0005224081075465125
453.0, 0.0014293004779267905
454.0, 0.0017272453225085885
455.0, 0.0014848246112254037
456.0, 0.0009808103567164736
457.0, 0.0012212978058351392
458.0, 0.0006329001689065681
459.0, 0.0004897966202097667
460.0, 0.000796454137041412
461.0, 0.000247437294168877
462.0, 0.0005296549864323203
463.0, 0.001274903619695242
464.0, 0.0020353475381696485
465.0, 0.0012399449117077236
466.0, 0.001404140204358503
467.0, 0.0010697309575065893
468.0, 0.00019437531055703858
469.0, 0.0005841095212542505
470.0, 0.0010292305282201227
471.0, 0.0010951414843595787
472.0, 0.0008810807446794139
473.0, 0.001529415249038761
474.0, 0.0015593204154593485
475.0, 0.001398603939230961
476.0, 0.001287387679992326
477.0, 0.0017721856684169274
478.0, 0.0011860829228719162
479.0, 0.001164713861094353
480.0, 0.0018386952908912675
481.0, 0.0012861473926707406
482.0, 0.000910393938567611
483.0, 0.0009212379880330283
484.0, 0.0013124527635875224
485.0, 0.0017152295987661547
486.0, 0.001151791726635755
487.0, 0.001246434748591639
488.0, 0.001989722442213746
489.0, 0.0010125921507462025
490.0, 0.0012520477114970742
491.0, 0.0017905141184806472
492.0, 0.002142271848061836
493.0, 0.001323331751989971
494.0, 0.001251546073267335
495.0, 0.0017844388537330022
496.0, 0.002458517754778299
497.0, 0.001507145275412742
498.0, 0.0019778533754516016
499.0, 0.0021983066324610468
500.0, 0.0019167630515443286
501.0, 0.001785062312736006
502.0, 0.0010677220658780382
503.0, 0.0011804420867156543
504.0, 0.0018840297090930587
505.0, 0.0012542345856627805
506.0, 0.0018458782502704138
507.0, 0.0025007803628862408
508.0, 0.002744004689253172
509.0, 0.0018449212568457548
510.0, 0.001814280125960092
511.0, 0.0019886011270260503
512.0, 0.002231552342066186
513.0, 0.0024959605004217945
514.0, 0.0019838603413489405
515.0, 0.0019193038164334749
516.0, 0.0021892075796100968
517.0, 0.0021244233930400006
518.0, 0.002059540158646882
519.0, 0.002164494994153782
520.0, 0.00240703094966546
521.0, 0.0026872276981832347
522.0, 0.0025852203095726527
523.0, 0.002443070932375284
524.0, 0.0022209225329760207
525.0, 0.0017985678431147148
526.0, 0.0016743932865631965
527.0, 0.0017872706725944954
528.0, 0.0019339215103755683
529.0, 0.001836948706028475
530.0, 0.0020359934611520938
531.0, 0.0021263104872269816
532.0, 0.0020389137679066283
533.0, 0.001711620254509153
534.0, 0.002141831122517944
535.0, 0.0024984181771985094
536.0, 0.0024645975337481765
537.0, 0.0017954784818028915
538.0, 0.0024529097927080594
539.0, 0.0018942522935430591
540.0, 0.0014283190697443322
541.0, 0.0019724777204856475
542.0, 0.0021188031824596544
543.0, 0.001526682568035633
544.0, 0.001054242624351453
545.0, 0.001152830391824043
546.0, 0.0011394080562143962
547.0, 0.000993683405292316
548.0, 0.0007891315962025665
549.0, 0.0005987211698591481
550.0, 0.000682770563568856
551.0, 0.0008970408757434687
552.0, 0.001035727659079943
553.0, 0.001018682267678399
554.0, 0.0008111612489020818
555.0, 0.001175674459540702
556.0, 0.0014741652168478426
557.0, 0.0016584888335361078
558.0, 0.0021129357239680234
559.0, 0.0009522062624023578
560.0, 0.0012601401932461204
561.0, 0.0022110505732902473
562.0, 0.000517012607628637
563.0, 0.0014235987123612866
564.0, 0.0014442889512897128
565.0, 0.001040397495769467
566.0, 0.0016825817540471676
567.0, 0.0020150162462529674
568.0, 0.0017050347117370645
569.0, 0.001351275453574127
570.0, 0.0017147361564279371
571.0, 0.001726517636976831
572.0, 0.0014016627723050681
573.0, 0.0012094461875124599
574.0, 0.0015447663312115351
575.0, 0.0017637486303337302
576.0, 0.001723911556074485
577.0, 0.001823130631362573
578.0, 0.0022177429041301128
579.0, 0.001953689194599735
580.0, 0.0022362637476162346
581.0, 0.0021736587578201605
582.0, 0.0015427117989688542
583.0, 0.001276910307888731
584.0, 0.0013501128645690894
585.0, 0.0015823127666118708
586.0, 0.0017663097433498714
587.0, 0.001373484559703328
588.0, 0.0013424609512973013
589.0, 0.001312023725691887
590.0, 0.0012906894286317258
591.0, 0.001439067312384769
592.0, 0.0008315765993996175
593.0, 0.0005487131886039084
594.0, 0.0005226588586907271
595.0, 0.0005092830551506913
596.0, 0.0010518385730141262
597.0, 0.0013283377152972556
598.0, 0.0013401767830150426
599.0, 0.0011300908185938778
600.0, 0.0011305892957444383
601.0, 0.0010972840157137218
602.0, 0.001232385326032775
603.0, 0.0015535372214812119
604.0, 0.0011192685216476466
605.0, 0.0008364271377189548
606.0, 0.0009465043244907493
607.0, 0.0013751906088972157
608.0, 0.0013689826131881805
609.0, 0.0013498446379705687
610.0, 0.0014350814552776773
611.0, 0.0016384097675172522
612.0, 0.0019256097334210919
613.0, 0.0019869317382317834
614.0, 0.0016447359049409974
615.0, 0.0013664839941666315
616.0, 0.0019124830133070661
617.0, 0.0011955297610911817
618.0, 0.0011363225500831704
619.0, 0.0015161365769323254
620.0, 0.0020250411391787297
621.0, 0.001988721751523685
622.0, 0.001847257083830524
623.0, 0.001965841342855294
624.0, 0.0023526913490834844
625.0, 0.0015129565509909987
626.0, 0.001954696915836433
627.0, 0.002334559861985434
628.0, 0.00223101323378515
629.0, 0.0017690139561723343
630.0, 0.002244312862149342
631.0, 0.0026207023720861587
632.0, 0.0026861705244322024
633.0, 0.002387019828409096
634.0, 0.002798744309341651
635.0, 0.002455891034431793
636.0, 0.002235368703402019
637.0, 0.003197804485096534
638.0, 0.0029678148260225056
639.0, 0.0027089781100206123
640.0, 0.002502987029854164
641.0, 0.0023879269625680867
642.0, 0.002227058813185181
643.0, 0.002369367043446106
644.0, 0.0028208288066297227
645.0, 0.0033247533077122183
646.0, 0.002918323185751011
647.0, 0.00227338938089948
648.0, 0.002303827635798669
649.0, 0.002888323890497273
650.0, 0.0034711721156135272
651.0, 0.003478741744963525
652.0, 0.0038599720460089806
653.0, 0.004417501603920367
654.0, 0.004849857644358756
655.0, 0.00431145629378681
656.0, 0.004119874809607969
657.0, 0.004115752442916242
658.0, 0.00416260204064457
659.0, 0.0040003312906237804
660.0, 0.004637564423840181
661.0, 0.005034757175740206
662.0, 0.004958900832395351
663.0, 0.0046251923604910036
664.0, 0.005062490739865463
665.0, 0.005040985571321063
666.0, 0.0046795008086131015
667.0, 0.004377186075964714
668.0, 0.004697232158425441
669.0, 0.004840393186329073
670.0, 0.0046366202193241475
671.0, 0.004115843945245029
672.0, 0.004735041005735451
673.0, 0.004481472245086562
674.0, 0.004717652062964266
675.0, 0.005551427806936487
676.0, 0.005427800875806739
677.0, 0.004951275575036119
678.0, 0.004888879868610534
679.0, 0.005111764577805965
680.0, 0.005171658024009124
681.0, 0.005380761248060276
682.0, 0.005520611128488023
683.0, 0.0054990065058856796
684.0, 0.005330509138233596
685.0, 0.006076214275659588
686.0, 0.006424271214339855
687.0, 0.006999315416903734
688.0, 0.007710297211187622
689.0, 0.007140392119391553
690.0, 0.0074329535700589046
691.0, 0.007395405497235041
692.0, 0.006716895049950053
693.0, 0.005249940496549089
694.0, 0.005073615035575786
695.0, 0.00398848977084501
696.0, 0.00303177957958362
697.0, 0.0029744717668624457
698.0, 0.0016324303367879463
699.0, 0.0013682523506128124
700.0, 0.0015878623718917103
701.0, 0.0019735767020151148
702.0, 0.002257061963257064
703.0, 0.002087773113179754
704.0, 0.002186295553192604
705.0, 0.002123561319021626
706.0, 0.0010814715837569942
707.0, 0.0013606806787939685
708.0, 0.0008975887884569111
709.0, 0.0006012114003829522
710.0, 0.0010591952274039693
711.0, 0.0014513578943923776
712.0, 0.0013050045952827803
713.0, 0.0018760509417573969
714.0, 0.002590154672656605
715.0, 0.0007808288874098345
716.0, 0.0009171198061218832
717.0, 0.0015521351687313007
718.0, 0.0020095471422770434
719.0, 0.0017357044061533716
720.0, 0.0028066178968263376
721.0, 0.0021485994508330325
722.0, 0.0017224012252169889
723.0, 0.0023367063013275567
724.0, 0.0027474867211939647
725.0, 0.0018269194060953195
726.0, 0.0012349445796314368
727.0, 0.001109281530639247
728.0, 0.0010559506438466964
729.0, 0.0008932562593567563
730.0, 0.00043413666456656216
731.0, 6.506750932786419e-05
732.0, 0.0001458287085621898
733.0, 0.001050610420930059
734.0, 0.0006269441439722069
735.0, 0.0005187556823533933
736.0, 0.000990783536625247
737.0, 0.0012747318122418383
738.0, 0.0008328856683649473
739.0, 0.0011444452975237717
740.0, 0.0014859778919367088
741.0, 0.0009647767220565248
742.0, 0.0006848843117779112
743.0, 0.0005861293061097067
744.0, 0.0006965379832023686
745.0, 0.0009092342858806681
746.0, 0.000784410163129515
747.0, 0.0007343367281825887
748.0, 0.0007753526276964909
749.0, 0.0007399359539236995
750.0, 0.0004034787767388392
751.0, 0.00042920483470450433
752.0, 0.0007843634331804749
753.0, 0.0016082040631289758
754.0, 0.0023994136920048766
755.0, 0.00031244783616639414
756.0, 0.001287185344036158
757.0, 0.001198284519763358
758.0, 0.0004913121289428955
759.0, 0.0013682999180922584
760.0, 0.0013396440715314148
761.0, 0.0009034062223261794
762.0, 0.0008994937298424764
763.0, 0.001552543088484423
764.0, 0.0006918496660794002
765.0, 0.0006101681749672179
766.0, 0.0005124219664127917
767.0, 0.0003214291974011018
768.0, 0.00026645011130450776
769.0, 0.0008160304994923933
770.0, 0.0009613409026253396
771.0, 0.0012733724790892577
772.0, 0.001911456218145472
773.0, 0.0008097680719840284
774.0, 0.0004782257226703558
775.0, 0.0008888007725430848
776.0, 0.0013679943362782734
777.0, 0.0005882659892009917
778.0, 0.0007019735624001661
779.0, 0.0010664104731669785
780.0, 0.0010612434289332376
781.0, 0.0004318305028005909
782.0, 0.0005780796256154105
783.0, 0.0002761961480112391
784.0, 0.00018627601677825826
785.0, 0.0004941611319624278
786.0, 0.001202751448371034
787.0, 0.0009058464094132706
788.0, 0.0009406614527607766
789.0, 0.0011791102703833855
790.0, 0.0013127638429864925
791.0, 0.00024445121780796125
792.0, 0.0005242360909680628
793.0, 0.0005243038343236462
794.0, 0.0005745928881497366
795.0, 0.0019499375809814083
796.0, 0.0011697897682883597
797.0, 0.00046861435733606494
798.0, 0.0006875532707912857
799.0, 0.00173821948417211
800.0, 0.0004869772908623537
801.0, 0.0010268302653199742
802.0, 0.001317666301941817
803.0, 0.0010746305441930554
804.0, 0.0005363883138690195
805.0, 0.0014244917044730458
806.0, 0.001591213487110536
807.0, 0.0012105162964634651
808.0, 0.0005554859597602078
809.0, 0.00024721772809330536
810.0, 8.128530756615148e-05
811.0, 0.0011336965624089165
812.0, 0.0019052726767104045
813.0, 0.0005888717404749637
814.0, 0.001470320123517141
815.0, 0.0015085737978612803
816.0, 0.0011446020679263776
817.0, 0.0009516018986080233
818.0, 0.002007219438372387
819.0, 0.001740163720833749
820.0, 0.0020234269074920225
821.0, 0.0020375423317331638
822.0, 0.0010734479678613956
823.0, 0.0010192203574042658
824.0, 0.0009424553587650408
825.0, 0.0007979878518704378
826.0, 0.0006275626934230114
827.0, 0.0005411605723929603
828.0, 0.0014974608566929812
829.0, 0.0009167344835549834
830.0, 0.0007675683116457157
831.0, 0.001912328210810765
832.0, 0.001760104921464314
833.0, 0.0014913574254492579
834.0, 0.0016221358101039466
835.0, 0.0017836698662499317
836.0, 0.0013850024867918286
837.0, 0.0012189873456962795
838.0, 0.0011128116621200142
839.0, 0.001018886668351736
840.0, 0.0009092248736062785
841.0, 0.0007666211476105603
842.0, 0.0010345832117259694
843.0, 0.0012199856378417371
844.0, 0.0014300943010272758
845.0, 0.001673389671051019
846.0, 0.0010579903064989065
847.0, 0.0012135837704890342
848.0, 0.0008899442401726225
849.0, 0.0004750820508508524
850.0, 0.001111343805854059
851.0, 0.0011809081703076333
852.0, 0.0005586277243343705
853.0, 0.0006119245100030092
854.0, 0.0014152663297216463
855.0, 0.0007422443138647092
856.0, 0.001463438250723513
857.0, 0.0016433242834955155
858.0, 0.0014884840291840569
859.0, 0.0014989488341094382
860.0, 0.0023261301583332727
861.0, 0.002602476610235912
862.0, 0.0021303903481432592
863.0, 0.0013872739704525454
864.0, 0.0012993915511971764
865.0, 0.0011116972692063504
866.0, 0.002011423570171654
867.0, 0.0024904593200041508
868.0, 0.002157872784643817
869.0, 0.002498517452042988
870.0, 0.004059755800035754
871.0, 0.003840129372640054
872.0, 0.003344338665653935
873.0, 0.003932354559003938
874.0, 0.0027989570529816316
875.0, 0.0029541287088703703
876.0, 0.003351737321303526
877.0, 0.003921026156878989
878.0, 0.004886504647027279
879.0, 0.0036241989873617058
880.0, 0.003482471195715835
881.0, 0.003959321863950334
882.0, 0.004540993055287162
883.0, 0.0045250783178916116
884.0, 0.005104636047534927
885.0, 0.005201500164748896
886.0, 0.005195000890139127
887.0, 0.005246139108680395
888.0, 0.0043225572632834474
889.0, 0.004463129858477002
890.0, 0.003909118948120866
891.0, 0.0034625406647060615
892.0, 0.0043396494535225295
893.0, 0.004840397662835872
894.0, 0.004974815632157869
895.0, 0.004886630707001733
896.0, 0.004604341910154322
897.0, 0.004099565338207868
898.0, 0.00498370293478323
899.0, 0.005013228912443473
900.0, 0.004858509385912881
901.0, 0.004900749395692943
902.0, 0.005112763884845952
903.0, 0.004951473467010122
904.0, 0.004914980753946041
905.0, 0.005111127915239953
906.0, 0.0052427860806481055
907.0, 0.003429442846622167
908.0, 0.003842811243619544
909.0, 0.004106838170509233
910.0, 0.0035627662484988727
911.0, 0.002250196701328338
912.0, 0.003343157149536225
913.0, 0.0032384255125586362
914.0, 0.003552095388568566
915.0, 0.003911448779079405
916.0, 0.0028702263982679473
917.0, 0.002508943449636711
918.0, 0.0020719528523582297
919.0, 0.0014198949879939003
920.0, 0.0011523494162831594
921.0, 0.0029073254484653097
922.0, 0.0026013199619744987
923.0, 0.0023549606546536405
924.0, 0.0021438979344255552
925.0, 0.001926577667840396
926.0, 0.001845113358692109
927.0, 0.0019513053555469545
928.0, 0.0019107634678909803
929.0, 0.0017223839920170942
930.0, 0.0014978669746996821
931.0, 0.0016703679155757442
932.0, 0.0012087032315446782
933.0, 0.0007244504524029052
934.0, 0.000738192784387137
935.0, 0.0015052845967171184
936.0, 0.0009529974311789338
937.0, 0.0012288531071885142
938.0, 0.0018343495643838418
939.0, 0.0022265272751909606
940.0, 0.0018321875677108721
941.0, 0.0013265560831896006
942.0, 0.0016501390931045797
943.0, 0.0017315740067773702
944.0, 0.0015596904286057471
945.0, 0.0019642018647683616
946.0, 0.0005950295593015286
947.0, 0.0008854209360605463
948.0, 0.0013169485076125508
949.0, 0.001152140337102619
950.0, 0.0006081142925046551
951.0, 0.0021423669765986936
952.0, 0.001443121865361086
953.0, 0.0005843757447603221
954.0, 0.0008817713999134807
955.0, 0.0017207538144446623
956.0, 0.0007238040669800939
957.0, 0.001179641720645374
958.0, 0.0016038626607702297
959.0, 0.0008954854279050425
960.0, 0.00034561456931211557
961.0, 0.0003546741147239967
962.0, 0.0007227597903553788
963.0, 0.0009340185521543403
964.0, 0.0006588897995473485
965.0, 0.000578130349567535
966.0, 0.0004412604795377377
967.0, 0.001105272412795805
968.0, 0.0014682087127850891
969.0, 0.0005209611767498216
970.0, 0.0006226094387244141
971.0, 0.0005032448900795361
972.0, 0.0002497059641386651
973.0, 9.110606626621023e-05
974.0, 0.00023463816067360513
975.0, 0.00025747179030933366
976.0, 0.00016956884010596395
977.0, 8.864110541892316e-05
978.0, 7.038988628261986e-05
979.0, 0.00016406138499671855
980.0, 0.0006290346301372986
981.0, 0.000636676197800747
982.0, 0.0004698534256854967
983.0, 0.00044934256932811756
984.0, 0.0008498535042269382
985.0, 0.0004952729422213497
986.0, 0.0011352399471262567
987.0, 0.0011717073069716678
988.0, 0.0005575822100949265
989.0, 0.00015021536549432825
990.0, 0.000806231601010874
991.0, 0.0004545479147848087
992.0, 0.00010983954404174219
993.0, 0.00020784597470796095
994.0, 0.0007782913778679937
995.0, 0.00035692557433459097
996.0, 0.0012824364050894237
997.0, 0.001536753242044083
998.0, 0.001003907372014781
999.0, 0.0009058782438304952
1000.0, 0.0009064890875329806
1001.0, 0.0011662717370005344
1002.0, 0.0013113506846686087
1003.0, 0.001547495573207662
1004.0, 0.0024543809335967354
1005.0, 0.001554157299008006
1006.0, 0.0017756660966598498
1007.0, 0.0018296952090798078
1008.0, 0.0017442424771275643
1009.0, 0.0024834759602396575
1010.0, 0.0017131922700814762
1011.0, 0.000785262487126818
1012.0, 0.0010324503369880183
1013.0, 0.0018053502938498375
1014.0, 0.0010799090362442602
1015.0, 0.0018831728367417506
1016.0, 0.0015774606340926874
1017.0, 0.0012769906568622803
1018.0, 0.0013998165814858524
1019.0, 0.0018813384779229653
1020.0, 0.0027331520498639216
1021.0, 0.0020721400789442714
1022.0, 0.002259156226951016
1023.0, 0.0029981537229062543
1024.0, 0.002459502332455745
1025.0, 0.002476835905994317
1026.0, 0.0027447315959931826
1027.0, 0.002800830788014501
1028.0, 0.0024131003560929057
1029.0, 0.001598810387098559
1030.0, 0.0020119813346036277
1031.0, 0.0020907558547339435
1032.0, 0.003043563952035914
1033.0, 0.0038916277017921005
1034.0, 0.0030239104478174805
1035.0, 0.0032902357788224383
1036.0, 0.003665707686933458
1037.0, 0.0033006660602600334
1038.0, 0.0032136126044546116
1039.0, 0.004674273823895253
1040.0, 0.005367254556496317
1041.0, 0.003768167297364443
1042.0, 0.004650930856995479
1043.0, 0.0057073217876063825
1044.0, 0.003997673543092858
1045.0, 0.0050545146246164276
1046.0, 0.005846166681484003
1047.0, 0.0056567263567648025
1048.0, 0.006427625899567765
1049.0, 0.009525155229173363
1050.0, 0.011845177280374703
1051.0, 0.012591565368339063
1052.0, 0.013593469313292379
1053.0, 0.013593072942220511
1054.0, 0.012103522771657224
1055.0, 0.012005167450406438
1056.0, 0.011899283420449899
1057.0, 0.012721261429345156
1058.0, 0.014179384809409076
1059.0, 0.015785418507715664
1060.0, 0.016936750018448927
1061.0, 0.021878132610654417
1062.0, 0.026238482901724508
1063.0, 0.03131415664185977
1064.0, 0.03821594606278619
1065.0, 0.04744203972611819
1066.0, 0.0637245430626125
1067.0, 0.09582473136070686
1068.0, 0.15424788122709546
1069.0, 0.26257900160685826
1070.0, 0.4557440593567609
1071.0, 0.7998872414567482
1072.0, 0.953629260234151
1073.0, 0.857796925878841
1074.0, 0.6006284358744446
1075.0, 0.35130510072121346
1076.0, 0.20070356102634412
1077.0, 0.12343179200314383
1078.0, 0.07903503216943028
1079.0, 0.05243938922108394
1080.0, 0.036794430341329384
1081.0, 0.03102916471691604
1082.0, 0.024444140925790746
1083.0, 0.01922203955020061
1084.0, 0.01564584666638783
1085.0, 0.013368552409793857
1086.0, 0.011512972022777939
1087.0, 0.01123794955104076
1088.0, 0.010329723447718864
1089.0, 0.009254865980574095
1090.0, 0.008358326248285235
1091.0, 0.007365149412653127
1092.0, 0.006875892907083848
1093.0, 0.006366545934333939
1094.0, 0.006806725333196196
1095.0, 0.006932212441122878
1096.0, 0.0038584099714197117
1097.0, 0.005149492207433547
1098.0, 0.003964718111563837
1099.0, 0.003157006034544072
1100.0, 0.003516854208610024
1101.0, 0.004350820045524797
1102.0, 0.001924392103122475
1103.0, 0.0030928869694831548
1104.0, 0.0032097060073589074
1105.0, 0.002446619219639829
1106.0, 0.002042838590995066
1107.0, 0.0026031234774105687
1108.0, 0.0025438330016573987
1109.0, 0.0022007990358456184
1110.0, 0.0020113537909084416
1111.0, 0.002075207140110117
1112.0, 0.0019169127720978284
1113.0, 0.002272576850061003
1114.0, 0.0029097783669048984
1115.0, 0.0021310634123484257
1116.0, 0.0009576989430977521
1117.0, 0.002272993152464948
1118.0, 0.0024094734067568835
1119.0, 0.0014376567972027722
1120.0, 0.001718269402373019
1121.0, 0.0020219369430944556
1122.0, 0.0008836562650856976
1123.0, 0.0029010655159452557
1124.0, 0.0027401488853210742
1125.0, 0.0023122358947309145
1126.0, 0.002753460458062225
1127.0, 0.003628096511719308
1128.0, 0.0015027049437694982
1129.0, 0.002532691424479523
1130.0, 0.0026338059676123825
1131.0, 0.0020404319525119284
1132.0, 0.0014686381711006826
1133.0, 0.0017507623349229512
1134.0, 0.0012304256857597175
1135.0, 0.0017503902111282586
1136.0, 0.0026751490259040236
1137.0, 0.002546274910666708
1138.0, 0.0006604558350148327
1139.0, 0.0015555204331312504
1140.0, 0.002591074494923672
1141.0, 0.001381684335605219
1142.0, 0.001119476123862703
1143.0, 0.0028596634691100404
1144.0, 0.0019310968666016704
1145.0, 0.002451984072990387
1146.0, 0.0020567271180222295
1147.0, 0.0022035198984035297
1148.0, 0.002879235473432347
1149.0, 0.0029136328865293736
1150.0, 0.0027570097827118423
1151.0, 0.0011204793437354804
1152.0, 0.0018235593502832
1153.0, 0.003055383533036523
1154.0, 0.0024022473569679697
1155.0, 0.0015739491637404655
1156.0, 0.0032526100830680377
1157.0, 0.0027792517155962237
1158.0, 0.0021443050176017968
1159.0, 0.0026397015689036078
1160.0, 0.003684645761553671
1161.0, 0.0007800244875908113
1162.0, 0.0023795799254073403
1163.0, 0.0024233767448124856
1164.0, 0.001417182607887076
1165.0, 0.002143843094867826
1166.0, 0.002104857180658975
1167.0, 0.000785308719928294
1168.0, 0.0006177547835048623
1169.0, 0.0015516167190953872
1170.0, 0.002368212945448591
1171.0, 0.0007491178580359202
1172.0, 0.003430580860034094
1173.0, 0.001559642701122077
1174.0, 0.000538919553127369
1175.0, 0.0013948176433940666
1176.0, 0.002195802556102766
1177.0, 0.0013349374081118041
1178.0, 0.0011617675238671254
1179.0, 0.0010842524297870167
1180.0, 0.0007780359692224133
1181.0, 0.0006218376426633167
1182.0, 0.0021996002238465263
1183.0, 0.0018079216183530902
1184.0, 0.0010349488854704126
1185.0, 0.0010901683165236147
1186.0, 0.0015240292149151446
1187.0, 0.0011635855489958442
1188.0, 0.0018635713732271487
1189.0, 0.0024742686664397232
1190.0, 0.0014232465086708491
1191.0, 0.001255009796040729
1192.0, 0.002668234053645229
1193.0, 0.0012587554130408518
1194.0, 0.000504571984955872
1195.0, 0.0025486387907626123
1196.0, 0.002370725490031415
1197.0, 0.0006718015786619538
1198.0, 0.0011901075476045495
1199.0, 0.0026033662667792304
1200.0, 0.0007877383957881627
1201.0, 0.0014415695883864185
1202.0, 0.001760598352755511
1203.0, 0.0005592933177853087
1204.0, 0.001732685862784035
1205.0, 0.0032525390145354337
1206.0, 0.0015610828775267185
1207.0, 0.0011004671614638683
1208.0, 0.0021801594790329826
1209.0, 0.0027789020189080567
1210.0, 0.000759291967524515
1211.0, 0.0028364083088711248
1212.0, 0.002299430547666539
1213.0, 0.001531499956397884
1214.0, 0.002303371238780735
1215.0, 0.0038888612846636446
1216.0, 0.0015800675721499824
1217.0, 0.002023465154242273
1218.0, 0.002678372604840483
1219.0, 0.002337482370604811
1220.0, 0.001223744369978043
1221.0, 0.00204898148463125
1222.0, 0.0021801115127999806
1223.0, 0.001294477247715882
1224.0, 0.0024791081612850633
1225.0, 0.003865265394687481
1226.0, 0.0010625517694575393
1227.0, 0.002055538954933174
1228.0, 0.0032557349526993523
1229.0, 0.002357151478140737
1230.0, 0.0021502317460127818
1231.0, 0.0031260508973943403
1232.0, 0.00050039465882098
1233.0, 0.0015663777885629058
1234.0, 0.0035399089903363225
1235.0, 0.0025306312265841184
1236.0, 0.0008870922024388758
1237.0, 0.001910103715015512
1238.0, 0.0019542858718150174
1239.0, 0.0012983400070143772
1240.0, 0.002400285681034564
1241.0, 0.002770106570091653
1242.0, 0.0017894079391797557
1243.0, 0.0010739541582087777
1244.0, 0.003322051998741875
1245.0, 0.0018553528768646122
1246.0, 0.001968411087921217
1247.0, 0.003227825383228473
1248.0, 0.0035976093615597672
1249.0, 0.0009359804310862474
1250.0, 0.002389176843303982
1251.0, 0.0027125833081941436
1252.0, 0.001496527329636482
1253.0, 0.0011088669994323863
1254.0, 0.0027779523771182014
1255.0, 0.0013927148107844753
1256.0, 0.0015654880427121568
1257.0, 0.0028492761193194987
1258.0, 0.002433379354261147
1259.0, 0.0012406925064335527
1260.0, 0.0019326186345953443
1261.0, 0.001762092935546299
1262.0, 0.0018767922933881382
1263.0, 0.003182697614178211
1264.0, 0.002690599169211609
1265.0, 0.0009093194099044945
1266.0, 0.002162497313139663
1267.0, 0.003704060559299853
1268.0, 0.0014478593873966483
1269.0, 0.0016719451576467728
1270.0, 0.002894948804231863
1271.0, 0.002543217002857105
1272.0, 6.751103518894087e-05
1273.0, 0.003236725475965073
1274.0, 0.0025012549875565665
1275.0, 0.0022094677255201085
1276.0, 0.0027099533433987627
1277.0, 0.0027475800885111232
1278.0, 0.0014714406195848306
1279.0, 0.0016370067626998368
1280.0, 0.0017089097542312274
1281.0, 0.0017421255819398745
1282.0, 0.0025593220632989192
1283.0, 0.0041182960513811
1284.0, 0.0016769581582908347
1285.0, 0.000689680004872999
1286.0, 0.001362513397497813
1287.0, 0.0014986959029632064
1288.0, 0.000742142624818018
1289.0, 0.0004158030535494859
1290.0, 0.0017015417838947223
1291.0, 0.000684438461198376
1292.0, 0.0016305324029182052
1293.0, 0.0024541104879743474
1294.0, 0.002055867813315279
1295.0, 0.0013542589412485085
1296.0, 0.0010949167925863774
1297.0, 0.001392982004131782
1298.0, 0.0007606823745189715
1299.0, 0.0010482131007441484
1300.0, 0.0019348224926708552
1301.0, 0.0002788161873325801
1302.0, 0.002373108316882417
1303.0, 0.0027236819208533943
1304.0, 0.0014334510838984146
1305.0, 0.0008092143017946028
1306.0, 0.001353926404580375
1307.0, 0.0002475663367179841
1308.0, 0.00045177332322722557
1309.0, 0.0019572583720234506
1310.0, 0.0015156066946719925
1311.0, 0.0012090633021848728
1312.0, 0.002522390771487786
1313.0, 0.0029247915452698344
1314.0, 0.001163081645064471
1315.0, 0.001967714474520394
1316.0, 0.0014845350316718582
1317.0, 0.00042312806690031894
1318.0, 0.0008830474075034445
1319.0, 0.003972543534416375
1320.0, 0.0006564180645373516
1321.0, 0.001067845381284817
1322.0, 0.002175481763417064
1323.0, 0.0020595101165295933
1324.0, 0.0008537715919923313
1325.0, 0.0016408609199798025
1326.0, 0.001970604385870724
1327.0, 0.0007301691827974536
1328.0, 0.0016162399936624498
1329.0, 0.0022330610199351947
1330.0, 0.0004324415134130059
1331.0, 1.683683964607272e-05
1332.0, 0.0014250391516541267
1333.0, 0.001215297411321533
1334.0, 0.0017919796855301736
1335.0, 0.0026396613962964147
1336.0, 0.00233075657117615
1337.0, 0.0003822452261518078
1338.0, 0.0013484309316117318
1339.0, 0.001551070291344958
1340.0, 0.001260629241535347
1341.0, 0.0015151335579660034
1342.0, 0.002110100280664634
1343.0, 0.00012609307403231996
1344.0, 0.001761676910605117
1345.0, 0.0025466761156869135
1346.0, 0.001485880910753862
1347.0, 0.0013787307096985247
1348.0, 0.002973690125856757
1349.0, 0.0012709759301667975
1350.0, 0.0013406831914492881
1351.0, 0.0023293061073833103
1352.0, 0.002463678965920674
1353.0, 0.0020333081587641387
1354.0, 0.0021688335641482075
1355.0, 0.0037740413919270027
1356.0, 0.0016366234686887924
1357.0, 0.0011623862743834743
1358.0, 0.002923313323793501
1359.0, 0.003267310532293998
1360.0, 0.0018093939919280734
1361.0, 0.0033252389797221106
1362.0, 0.0028308228536799425
1363.0, 0.0017639929825030004
1364.0, 0.003171952410476542
1365.0, 0.0031780059180251882
1366.0, 0.0012092541304659912
1367.0, 0.0015640868720296498
1368.0, 0.003727287123535654
1369.0, 0.0016851489198471375
1370.0, 0.0004127499574020303
1371.0, 0.0010392076241063201
1372.0, 0.0017791996081233134
1373.0, 0.00037675680062539043
1374.0, 0.002325966948426479
1375.0, 0.0015206765390828202
1376.0, 0.0018085312943546352
1377.0, 0.002218699147353626
1378.0, 0.0020171002903210996
1379.0, 0.0013978119877903021
1380.0, 0.0017382246266582553
1381.0, 0.004552993737524987
1382.0, 0.002796022268442514
1383.0, 0.0034993501159748053
1384.0, 0.005783511077200375
1385.0, 0.005733052665116361
1386.0, 0.0037550327608079697
1387.0, 0.007666114200206691
1388.0, 0.006361946649903149
1389.0, 0.00541194756834855
1390.0, 0.0067241517037159235
1391.0, 0.008428142019093346
1392.0, 0.0061550082517775545
1393.0, 0.009256085919237786
1394.0, 0.012206545301013184
1395.0, 0.011671638340782733
1396.0, 0.012210265954227757
1397.0, 0.014714285349859633
1398.0, 0.014483243629516373
1399.0, 0.013211790318788531
1400.0, 0.014239313448502405
1401.0, 0.013678189923087811
1402.0, 0.012999230485981979
1403.0, 0.012900856568685684
1404.0, 0.012124949722901601
1405.0, 0.006916767513873543
1406.0, 0.008716852124601996
1407.0, 0.010145256347763329
1408.0, 0.008043272375750607
1409.0, 0.006756875093311438
1410.0, 0.00901689055550432
1411.0, 0.006808884352150173
1412.0, 0.0039268459760081025
1413.0, 0.006497579463194431
1414.0, 0.005991326168613204
1415.0, 0.006277814584505793
1416.0, 0.009017615045796097
1417.0, 0.008646790714079531
1418.0, 0.005585208517209946
1419.0, 0.006733446386676037
1420.0, 0.007289769807756805
1421.0, 0.007274527485314344
1422.0, 0.00782453875923427
1423.0, 0.009433365603782048
1424.0, 0.009479419260458569
1425.0, 0.008214645319460144
1426.0, 0.012040796774806212
1427.0, 0.011693582420894934
1428.0, 0.009403818822104096
1429.0, 0.01035594642969014
1430.0, 0.013444537259969157
1431.0, 0.011370189589237183
1432.0, 0.013295018615852623
1433.0, 0.0153822126693687
1434.0, 0.01413824973566479
1435.0, 0.011863530063744524
1436.0, 0.014121518341265033
1437.0, 0.013275139925557592
1438.0, 0.011575407065752085
1439.0, 0.013000872135561956
1440.0, 0.0122183204430586
1441.0, 0.00987694487516849
1442.0, 0.009695909974616595
1443.0, 0.012391221532246406
1444.0, 0.008662442845840881
1445.0, 0.008960852810129408
1446.0, 0.009671408786525289
1447.0, 0.008208925299656248
1448.0, 0.006243947459351415
1449.0, 0.008110113766106564
1450.0, 0.007623728692820235
1451.0, 0.004525266494428109
1452.0, 0.0069926013910936325
1453.0, 0.007695177991137069
1454.0, 0.005694043163599783
1455.0, 0.004867470783302484
1456.0, 0.0075084656309049045
1457.0, 0.003865176332767178
1458.0, 0.003058625189510199
1459.0, 0.005118034636273216
1460.0, 0.00519462449297585
1461.0, 0.0038393671605644495
1462.0, 0.006544833645898271
1463.0, 0.004527165425981843
1464.0, 0.004132910625776455
1465.0, 0.005388631242355325
1466.0, 0.00487732649412848
1467.0, 0.0035309330592407442
1468.0, 0.003705589854046631
1469.0, 0.004856328625726688
1470.0, 0.002078987289395785
1471.0, 0.004142598383698162
1472.0, 0.0057423902924986425
1473.0, 0.0040306426150636026
1474.0, 0.0014813900917181927
1475.0, 0.0028017715564421187
1476.0, 0.004843129428502273
1477.0, 0.0015803901102368594
1478.0, 0.0032802994163740793
1479.0, 0.004430132148918928
1480.0, 0.0030804583129042367
1481.0, 0.0020055628696962645
1482.0, 0.005722748280913482
1483.0, 0.001388504491573106
1484.0, 0.002310132338597185
1485.0, 0.003737456274836034
1486.0, 0.002337834519510095
1487.0, 0.0014885918945958842
1488.0, 0.004247280319057432
1489.0, 0.00313108725980934
1490.0, 0.0014582530462952902
1491.0, 0.002406945238128502
1492.0, 0.0017016825121328614
1493.0, 0.001857128041800476
1494.0, 0.0038612340600493655
1495.0, 0.004823985775719846
1496.0, 0.0001771938689191896
1497.0, 0.002651693672931105
1498.0, 0.004298285099615476
1499.0, 0.002634648080416101
1500.0, 0.0017479078142332801
1501.0, 0.0036332299584743988
1502.0, 0.004097129542598846
1503.0, 0.0009237227356916123
1504.0, 0.003141911877671639
1505.0, 0.0030906009821431756
1506.0, 0.002209359614119162
1507.0, 0.0027509910607205154
1508.0, 0.003990165363542431
1509.0, 0.0010865869959421548
1510.0, 0.00020052048806468164
1511.0, 0.004513401809167955
1512.0, 0.0023425623141015883
1513.0, 0.0013498946422288262
1514.0, 0.00330621354742318
1515.0, 0.0037347357448677307
1516.0, 0.0007380270043129168
1517.0, 0.003324381867161442
1518.0, 0.0021690572002874987
1519.0, 0.0006694004149696991
1520.0, 1.6026778954014511e-06
1521, 0.0
1522, 0.0
1523, 0.0
1524, 0.0
1525, 0.0
1526, 0.0
1527, 0.0
1528, 0.0
1529, 0.0
1530, 0.0
1531, 0.0
1532, 0.0
1533, 0.0
1534, 0.0
1535, 0.0
1536, 0.0
1537, 0.0
1538, 0.0
1539, 0.0
1540, 0.0
1541, 0.0
1542, 0.0
1543, 0.0
1544, 0.0
1545, 0.0
1546, 0.0
1547, 0.0
1548, 0.0
1549, 0.0
1550, 0.0
1551, 0.0
1552, 0.0
1553, 0.0
1554, 0.0
1555, 0.0
1556, 0.0
1557, 0.0
1558, 0.0
1559, 0.0
1560, 0.0
1561, 0.0
1562, 0.0
1563, 0.0
1564, 0.0
1565, 0.0
1566, 0.0
1567, 0.0
1568, 0.0
1569, 0.0
1570, 0.0
1571, 0.0
1572, 0.0
1573, 0.0
1574, 0.0
1575, 0.0
1576, 0.0
1577, 0.0
1578, 0.0
1579, 0.0
1580, 0.0
1581, 0.0
1582, 0.0
1583, 0.0
1584, 0.0
1585, 0.0
1586, 0.0
1587, 0.0
1588, 0.0
1589, 0.0
1590, 0.0
1591, 0.0
1592, 0.0
1593, 0.0
1594, 0.0
1595, 0.0
1596, 0.0
1597, 0.0
1598, 0.0
1599, 0.0
