30, 0.0
31, 0.0
32, 0.0
33, 0.0
34, 0.0
35, 0.0
36, 0.0
37, 0.0
38, 0.0
39, 0.0
40, 0.0
41, 0.0
42, 0.0
43, 0.0
44, 0.0
45, 0.0
46, 0.0
47, 0.0
48, 0.0
49, 0.0
50, 0.0
51, 0.0
52, 0.0
53, 0.0
54, 0.0
55, 0.0
56, 0.0
57, 0.0
58, 0.0
59, 0.0
60, 0.0
61, 0.0
62, 0.0
63, 0.0
64, 0.0
65, 0.0
66, 0.0
67, 0.0
68, 0.0
69, 0.0
70, 0.0
71, 0.0
72, 0.0
73, 0.0
74, 0.0
75, 0.0
76, 0.0
77, 0.0
78, 0.0
79, 0.0
80, 0.0
81, 0.0
82, 0.0
83, 0.0
84, 0.0
85, 0.0
86, 0.0
87.0, 3.8050086099600536e-05
88.0, 0.0007104723898076078
89.0, 0.00378708648627992
90.0, 0.007451051598563284
91.0, 0.012721362691925175
92.0, 0.02011894549134616
93.0, 0.02977851877199526
94.0, 0.042160565084402725
95.0, 0.05668801225782872
96.0, 0.07291008136327186
97.0, 0.08724055099204249
98.0, 0.0997856491511572
99.0, 0.11013356161971137
100.0, 0.11279166577511157
101.0, 0.1113438299103909
102.0, 0.10532073062560204
103.0, 0.09257830235338867
104.0, 0.07513908530653575
105.0, 0.056768176141363355
106.0, 0.03863499487876931
107.0, 0.025655905277172684
108.0, 0.015735706556585207
109.0, 0.00815794143358638
110.0, 0.002886820099401457
111.0, 0.0023387137195546
112.0, 0.0018549210724459631
113.0, 0.0016727803790449404
114.0, 0.00544585956900997
115.0, 0.00999096200043841
116.0, 0.014970549877224997
117.0, 0.020260605423737477
118.0, 0.025016223353930646
119.0, 0.029479533350190754
120.0, 0.03330674516250783
121.0, 0.035243737908590804
122.0, 0.037422335072783225
123.0, 0.039544084015239185
124.0, 0.04143979466130954
125.0, 0.04053385335331603
126.0, 0.040824993110130395
127.0, 0.041245445071724486
128.0, 0.0398782570609073
129.0, 0.0386583387226658
130.0, 0.03600812705126787
131.0, 0.032053286482277385
132.0, 0.032391986574911484
133.0, 0.029104104781899644
134.0, 0.02479411950908225
135.0, 0.021856957982793426
136.0, 0.017382955701645095
137.0, 0.014588926642250073
138.0, 0.013181762232912574
139.0, 0.010418507780887407
140.0, 0.01122336508369923
141.0, 0.012347122961191368
142.0, 0.0120636354694194
143.0, 0.012399059886080588
144.0, 0.012413556549929946
145.0, 0.01264575230950786
146.0, 0.014501019028380566
147.0, 0.015884415457003375
148.0, 0.01800713592535611
149.0, 0.021092345669694312
150.0, 0.02271038176272341
151.0, 0.027840987264298893
152.0, 0.03521630052312684
153.0, 0.043915220553214965
154.0, 0.05407334929213557
155.0, 0.06910545600535
156.0, 0.08835760838832948
157.0, 0.10675324447326633
158.0, 0.12699327299058297
159.0, 0.1489146665638803
160.0, 0.17266878998357232
161.0, 0.18897269929008537
162.0, 0.2038388774647591
163.0, 0.21576690855995037
164.0, 0.22043415020784238
165.0, 0.21898469743675386
166.0, 0.2104083588813862
167.0, 0.19435012970178372
168.0, 0.17353776021514647
169.0, 0.15298940639075367
170.0, 0.13239544244672746
171.0, 0.11144009693737959
172.0, 0.09354635251297624
173.0, 0.0781189092463024
174.0, 0.06479278093151716
175.0, 0.05274927335166374
176.0, 0.04372936507950448
177.0, 0.03593649710639668
178.0, 0.028719656209658502
179.0, 0.02068104080637289
180.0, 0.015755056541172426
181.0, 0.012396026840084342
182.0, 0.008654189226464753
183.0, 0.005495158187508019
184.0, 0.0025514008084874967
185.0, 0.000145044501721221
186.0, 0.00047043131840116546
187.0, 0.0011690555468561047
188.0, 0.0018402551238621472
189.0, 0.002251789914655326
190.0, 0.0035768183980601706
191.0, 0.0034967997310923252
192.0, 0.002958385316145612
193.0, 0.003830472744891639
194.0, 0.004142260505830921
195.0, 0.0035662986638422722
196.0, 0.0023424426106089407
197.0, 0.002989871194699052
198.0, 0.003082572210012881
199.0, 0.002269459849894019
200.0, 0.00015347262062960195
201.0, 0.003146750977465734
202.0, 0.0038480085738138757
203.0, 0.003584213547877883
204.0, 0.005827585145073628
205.0, 0.006712318440769551
206.0, 0.008036805051137734
207.0, 0.009917226499007713
208.0, 0.009398913375140422
209.0, 0.007506720144935077
210.0, 0.006055816393075053
211.0, 0.006524580896391226
212.0, 0.005989791821360682
213.0, 0.004049672629244454
214.0, 0.0022982229413332717
215.0, 0.004684409818907005
216.0, 0.0027815587633222955
217.0, 0.0013744233513144498
218.0, 0.001551144858215546
219.0, 0.0026309046756927837
220.0, 0.003935527242281972
221.0, 0.004374956998878496
222.0, 0.0030129119987604785
223.0, 0.003411450949229591
224.0, 0.004580152737799787
225.0, 0.005558338377879606
226.0, 0.004250255146092088
227.0, 0.0060502377345373086
228.0, 0.007730815436323746
229.0, 0.00861215148701544
230.0, 0.008677063925617672
231.0, 0.008866901527457938
232.0, 0.009208438320945965
233.0, 0.00973553164371867
234.0, 0.008823092453593227
235.0, 0.008214273375302228
236.0, 0.007529482700551664
237.0, 0.006058219239895306
238.0, 0.0067930564098052995
239.0, 0.006524600460655943
240.0, 0.005513231552580889
241.0, 0.007618354868674434
242.0, 0.0073157600939499
243.0, 0.007419004818791182
244.0, 0.009239922355992289
245.0, 0.01160911490729467
246.0, 0.014181716832505421
247.0, 0.01709286851496636
248.0, 0.020573566743992442
249.0, 0.022562782356112424
250.0, 0.026928805548807545
251.0, 0.032838946918158994
252.0, 0.036581741318557334
253.0, 0.03960439773148452
254.0, 0.04315109304786747
255.0, 0.04753582378820561
256.0, 0.051774790750129
257.0, 0.055618826621948
258.0, 0.05919915130413719
259.0, 0.0625818326801514
260.0, 0.06469179089959856
261.0, 0.0644320054867302
262.0, 0.06388052931905482
263.0, 0.06711804080993196
264.0, 0.06300334702615287
265.0, 0.05853757525902599
266.0, 0.05472918273543907
267.0, 0.05080094454230575
268.0, 0.046827730512110186
269.0, 0.043175181887347445
270.0, 0.04004363210387523
271.0, 0.037800098922520085
272.0, 0.035961976303605835
273.0, 0.034424576204287086
274.0, 0.03312655726961971
275.0, 0.03164086814511412
276.0, 0.030915435609894203
277.0, 0.030489831216259897
278.0, 0.029176036130048984
279.0, 0.029457508947928812
280.0, 0.02859610049174062
281.0, 0.026460397679944448
282.0, 0.025705713089181483
283.0, 0.0247927676240099
284.0, 0.02336327834916629
285.0, 0.021214981967363277
286.0, 0.01867036244219393
287.0, 0.016088125139362603
288.0, 0.014427083758560947
289.0, 0.014857129227621663
290.0, 0.011888828726125344
291.0, 0.009516658132791284
292.0, 0.008155695251284657
293.0, 0.00837557093434768
294.0, 0.006849487555771073
295.0, 0.0057370122721810525
296.0, 0.005266501864657418
297.0, 0.004408748837602646
298.0, 0.003978571829433002
299.0, 0.00330562968830444
300.0, 0.002096690014109591
301.0, 0.0005899724667434114
302.0, 0.00018922269502761666
303.0, 0.000236807721874642
304.0, 0.00019603012167177393
305.0, 0.0002790697065398823
306.0, 0.0006247781817453424
307.0, 0.0010689699899669401
308.0, 0.0013150395804470993
309.0, 0.0009490300107409479
310.0, 0.0005495220547792627
311.0, 0.0003997612943298764
312.0, 0.0012731034513357577
313.0, 0.0007710258510222685
314.0, 0.0008415763512851563
315.0, 0.0018037203563810616
316.0, 0.0011762763996511173
317.0, 0.001343212662450217
318.0, 0.0015674310783299137
319.0, 0.0014256889798834813
320.0, 0.0013155130737552447
321.0, 0.0009804809888988412
322.0, 0.0005495317858602417
323.0, 0.00015891095366032888
324.0, 0.0005977143954718763
325.0, 0.0008149962119946325
326.0, 0.0010913381062162
327.0, 0.002156932915923501
328.0, 0.0009933732516890154
329.0, 0.0002955594914105606
330.0, 0.00039890594793748216
331.0, 0.0009729123900539927
332.0, 0.000655644183936617
333.0, 0.00026037312605517785
334.0, 0.00012722432782248845
335.0, 0.0009559200553059294
336.0, 0.0019274054479232064
337.0, 0.002481174656050606
338.0, 0.0023125853785729102
339.0, 0.0025664759967969995
340.0, 0.004186704753603534
341.0, 0.004496302670131292
342.0, 0.0006987518261668377
343.0, 0.0026890853585859404
344.0, 0.002796383520804065
345.0, 0.00163734272575495
346.0, 0.0005586796494870583
347.0, 0.0022180648969875342
348.0, 0.002423707509597253
349.0, 0.0016196751081389443
350.0, 0.0023527593999288676
351.0, 0.00205120082396946
352.0, 0.002121265672459726
353.0, 0.0024192278322425955
354.0, 0.0006513153110035885
355.0, 0.001077550041245666
356.0, 0.0011308587867944204
357.0, 7.910839233451431e-05
358.0, 0.00039249697111583043
359.0, 0.0005267094079656173
360.0, 0.0007714207967109629
361.0, 0.0012791726176667572
362.0, 0.0011207398908825664
363.0, 0.001268975327097939
364.0, 0.001576922771069461
365.0, 0.0019150557004125332
366.0, 0.0016153445355877964
367.0, 0.0011818385349856772
368.0, 0.0006696362228923742
369.0, 0.000137497996070665
370.0, 0.0014262528834349149
371.0, 0.0015532452158103951
372.0, 0.0010467035531268496
373.0, 0.0016410173872162003
374.0, 0.0013865446758404383
375.0, 0.00148717947149468
376.0, 0.002084934700559353
377.0, 0.0030309847363397943
378.0, 0.0023844254644352202
379.0, 0.0018448615644560075
380.0, 0.0017345873074894372
381.0, 0.0014060296872491422
382.0, 0.0017918280355304266
383.0, 0.0017664412173649287
384.0, 0.001069221173106911
385.0, 0.0014839456827898641
386.0, 0.0019878486298506473
387.0, 0.0019931317178007004
388.0, 0.001311668957222014
389.0, 0.0030985939144735856
390.0, 0.002218351102720151
391.0, 0.0009123284886178159
392.0, 0.0009151454769618687
393.0, 0.002133377644494682
394.0, 0.0028317441772312863
395.0, 0.00264884047609322
396.0, 0.0011293119186251844
397.0, 0.0003237243555726548
398.0, 0.00042232262609316374
399.0, 0.0007994186832065233
400.0, 0.0005205610056018766
401.0, 0.0017924520948667234
402.0, 0.0023539190327877576
403.0, 0.0024657133072264067
404.0, 0.002970450537668464
405.0, 0.004054460436865851
406.0, 0.003859291666129773
407.0, 0.002876498941487708
408.0, 0.003001875814473877
409.0, 0.003330120502910852
410.0, 0.003353068870098708
411.0, 0.0031434708902213448
412.0, 0.0032813570918266413
413.0, 0.004261406508039993
414.0, 0.004073565056866552
415.0, 0.0029615315515890825
416.0, 0.004439658619455828
417.0, 0.005038624981960267
418.0, 0.0046153348127535845
419.0, 0.003442437347502835
420.0, 0.0036253394191151215
421.0, 0.0032908889700402786
422.0, 0.0031504862901255387
423.0, 0.0032094240904014548
424.0, 0.0010378002998523168
425.0, 0.002538821418419394
426.0, 0.004388062524700057
427.0, 0.0048851428222970025
428.0, 0.003374207041317694
429.0, 0.004302344626750701
430.0, 0.004961734663644405
431.0, 0.00378825131221261
432.0, 0.0021791804023468513
433.0, 0.0025355357877767334
434.0, 0.0037845362811800456
435.0, 0.005124862420391929
436.0, 0.004351061566155245
437.0, 0.0042317960760614335
438.0, 0.004217096590270474
439.0, 0.003856029377252487
440.0, 0.0034918093330827855
441.0, 0.004160526980506343
442.0, 0.0044712326977518445
443.0, 0.0030794932695716536
444.0, 0.003547279593539369
445.0, 0.004215880503871136
446.0, 0.004446463951835792
447.0, 0.0035306439239906227
448.0, 0.004751635059585857
449.0, 0.005005591259306548
450.0, 0.004785701742408041
451.0, 0.00474629852031009
452.0, 0.005620853351520283
453.0, 0.004843211584437345
454.0, 0.0039778329527835644
455.0, 0.005221029949666622
456.0, 0.004714033015062634
457.0, 0.004342062989104673
458.0, 0.004600415395509952
459.0, 0.006109208088471099
460.0, 0.004049046261957191
461.0, 0.004729623629869416
462.0, 0.0061895370495765045
463.0, 0.004932058395487194
464.0, 0.004738098883527368
465.0, 0.004971986614092852
466.0, 0.005361413419647686
467.0, 0.005542451264248227
468.0, 0.0052754776572209875
469.0, 0.005810905993520189
470.0, 0.006177090774937139
471.0, 0.004617893445316108
472.0, 0.0058685072901777935
473.0, 0.0065772732003764435
474.0, 0.006963457765673843
475.0, 0.00779169106977947
476.0, 0.0075597527904509845
477.0, 0.007557928290449065
478.0, 0.007481650297495306
479.0, 0.00665721164629772
480.0, 0.007014215233291902
481.0, 0.007587828083269648
482.0, 0.007963601683398087
483.0, 0.007566623853836444
484.0, 0.006388424376103378
485.0, 0.006904059569941541
486.0, 0.007560676501334214
487.0, 0.005597109043192284
488.0, 0.0071501513449504055
489.0, 0.006841242521924739
490.0, 0.005816960188415615
491.0, 0.006349392584790348
492.0, 0.00574679058436025
493.0, 0.005841506483869573
494.0, 0.0066509894470674165
495.0, 0.008068725130936337
496.0, 0.00783962339431644
497.0, 0.0072182216570047366
498.0, 0.006435492901984729
499.0, 0.00571911353776203
500.0, 0.00719106048196192
501.0, 0.007983491996935502
502.0, 0.008177787725226959
503.0, 0.007988492010387427
504.0, 0.008092239636730138
505.0, 0.008030796153237159
506.0, 0.008452716210553426
507.0, 0.010085620782767379
508.0, 0.010505289872543356
509.0, 0.010752990159392255
510.0, 0.01104862854572355
511.0, 0.011597115487745311
512.0, 0.011768934918366182
513.0, 0.011966389623303765
514.0, 0.012112248764950225
515.0, 0.012142816625035868
516.0, 0.012201377547503806
517.0, 0.012203029061257326
518.0, 0.01211164239611787
519.0, 0.011967206766860238
520.0, 0.013115786610185783
521.0, 0.012684229761962129
522.0, 0.012069237694723135
523.0, 0.012128032680423938
524.0, 0.012298210991632808
525.0, 0.011739377412257746
526.0, 0.011278784350311672
527.0, 0.011278732641650132
528.0, 0.010923912268325512
529.0, 0.010267739082999062
530.0, 0.009784285896911323
531.0, 0.009494008941692746
532.0, 0.008091951258372006
533.0, 0.00693154979963385
534.0, 0.007066327703276929
535.0, 0.008243809931960614
536.0, 0.007195913030192387
537.0, 0.0064841873334683785
538.0, 0.00576894395344758
539.0, 0.0053342188529965215
540.0, 0.006648317047361587
541.0, 0.005839284939296997
542.0, 0.004294753945202575
543.0, 0.003424442888825995
544.0, 0.006515917068875987
545.0, 0.003986934277570251
546.0, 0.003369833166356435
547.0, 0.004678632302274596
548.0, 0.005271533778467323
549.0, 0.0045920482170179475
550.0, 0.0045126309406741125
551.0, 0.004756590267226469
552.0, 0.004511809423513515
553.0, 0.004694064702663941
554.0, 0.004416868534083204
555.0, 0.0037366845861087536
556.0, 0.0027978424148618532
557.0, 0.0023099445184973804
558.0, 0.0025837327503195084
559.0, 0.0036427578482923933
560.0, 0.005414080380304921
561.0, 0.004464052013558998
562.0, 0.004335275206457917
563.0, 0.004588811315858063
564.0, 0.004844553711357384
565.0, 0.004309075335513547
566.0, 0.003395965909281295
567.0, 0.003482678473893562
568.0, 0.004754850584457079
569.0, 0.003041676168012611
570.0, 0.0031423139958012764
571.0, 0.00439023193457456
572.0, 0.00584168212846028
573.0, 0.004196060566241315
574.0, 0.0036079988389212964
575.0, 0.004319061257126589
576.0, 0.005272315061116856
577.0, 0.0029660156872365236
578.0, 0.003302018327928808
579.0, 0.0037481380104736855
580.0, 0.0035639099644348073
581.0, 0.0020463090484411227
582.0, 0.0033147585961753024
583.0, 0.00316836532739963
584.0, 0.002319541045074822
585.0, 0.0023217292892793793
586.0, 0.003251466851859665
587.0, 0.003102846388640912
588.0, 0.0027859546349327077
589.0, 0.0032504427200968724
590.0, 0.004140945481135216
591.0, 0.0038697422176372257
592.0, 0.0032046434061340947
593.0, 0.0027077102591432935
594.0, 0.002800958485491907
595.0, 0.003093419285558247
596.0, 0.0027105758507263715
597.0, 0.001869935599624945
598.0, 0.003765099964520223
599.0, 0.0017389748367505672
600.0, 0.0007292241050641572
601.0, 0.0014080713488803889
602.0, 0.0016520129688299002
603.0, 0.0031666139293082905
604.0, 0.0027361171159456716
605.0, 0.0018660707942672332
606.0, 0.004433375784893446
607.0, 0.0015197673554871024
608.0, 0.0014152297990642072
609.0, 0.0020361855923037874
610.0, 0.00018756969890199862
611.0, 0.002963476332580658
612.0, 0.0028475966630020005
613.0, 0.002308645688685176
614.0, 0.0030414132371832086
615.0, 0.0016308732696433906
616.0, 0.0024945435396798686
617.0, 0.002720859861141907
618.0, 0.001361518284341917
619.0, 0.0009465243051447685
620.0, 0.002233754580907105
621.0, 0.0023941289024140586
622.0, 0.0013968138639301245
623.0, 0.0015327831246358741
624.0, 0.004187864204906582
625.0, 0.0041688791978517605
626.0, 0.0032386156463319487
627.0, 0.005737204367194162
628.0, 0.0022104408435392503
629.0, 0.0022187898448343996
630.0, 0.0035007490900881106
631.0, 0.003291564028628758
632.0, 0.0036752281484861604
633.0, 0.0047368828344036005
634.0, 0.004760572110949481
635.0, 0.003166102367403463
636.0, 0.003619000083389913
637.0, 0.0026447437768755398
638.0, 0.0029731921225476343
639.0, 0.0047827269959920425
640.0, 0.005313416465276947
641.0, 0.006953377420389297
642.0, 0.007678069433627464
643.0, 0.007322886782915142
644.0, 0.006264616371803093
645.0, 0.004195297897873224
646.0, 0.004855797281083437
647.0, 0.006007401384681593
648.0, 0.0051476134042748815
649.0, 0.007607322795364325
650.0, 0.007869496978887666
651.0, 0.0073040160319704055
652.0, 0.006801284572277456
653.0, 0.006596268256607256
654.0, 0.006782849544084154
655.0, 0.007217495420994226
656.0, 0.007704264399484601
657.0, 0.007765777400801544
658.0, 0.0074428601405934
659.0, 0.007047875038368352
660.0, 0.006867476679631731
661.0, 0.007287461551706522
662.0, 0.010004352437238127
663.0, 0.010160833177554859
664.0, 0.009162752226159535
665.0, 0.00862233855906252
666.0, 0.011316174178513654
667.0, 0.009056934996377993
668.0, 0.008479180882959628
669.0, 0.011071835152449866
670.0, 0.009150612605238417
671.0, 0.009687404151247159
672.0, 0.009728097115472838
673.0, 0.008545205431015801
674.0, 0.006002283657658848
675.0, 0.007194712563882065
676.0, 0.00840758956995768
677.0, 0.008688745088859789
678.0, 0.007409246226198338
679.0, 0.007532162297641742
680.0, 0.008063536083595137
681.0, 0.008033546840988894
682.0, 0.007069156250715842
683.0, 0.006234888221932971
684.0, 0.008177189075176436
685.0, 0.008917464284045626
686.0, 0.008175968127389853
687.0, 0.007940263581238614
688.0, 0.010288386000820882
689.0, 0.008871705222301343
690.0, 0.007168554729957163
691.0, 0.009841323653924304
692.0, 0.007438834499249117
693.0, 0.006659030770757615
694.0, 0.00533961142026391
695.0, 0.003069625832519908
696.0, 0.005347031698556451
697.0, 0.0033415669331593153
698.0, 0.0041696888103155
699.0, 0.0063253937246070605
700.0, 0.0014130283977381456
701.0, 0.005213321699281493
702.0, 0.0062933614498332366
703.0, 0.00560806551616884
704.0, 0.005359353475489872
705.0, 0.0038170584620631754
706.0, 0.0055159758092036
707.0, 0.007180723658229715
708.0, 0.00713370303166855
709.0, 0.00605168217093002
710.0, 0.003974818284271845
711.0, 0.005171160770282652
712.0, 0.008043276082086142
713.0, 0.007296222104575778
714.0, 0.008244076440415936
715.0, 0.009492373299736883
716.0, 0.011507859708431163
717.0, 0.014408994651707877
718.0, 0.013272418456591245
719.0, 0.016768821387216942
720.0, 0.018757181400280768
721.0, 0.017468184643767228
722.0, 0.016003319354104758
723.0, 0.014695634409245352
724.0, 0.0137169302090768
725.0, 0.012127530682049845
726.0, 0.00853205804364861
727.0, 0.007241910088128739
728.0, 0.006473265152068443
729.0, 0.004617839025695168
730.0, 0.0016273131186791234
731.0, 0.004414899137364226
732.0, 0.005429421515915973
733.0, 0.004544192430967978
734.0, 0.0029729982442582644
735.0, 0.003584323351745715
736.0, 0.00333253191936118
737.0, 0.002777331205851199
738.0, 0.0024049453011440493
739.0, 0.0025763028478891486
740.0, 0.002235218483068666
741.0, 0.002247212792290708
742.0, 0.0026477267177836337
743.0, 0.002896813540770658
744.0, 0.001130432461995048
745.0, 0.0017977874142516505
746.0, 0.0023776650638974535
747.0, 0.0020469296343169105
748.0, 0.0002809818815519101
749.0, 0.0001664658287675649
750.0, 0.0010853379618497958
751.0, 0.0023797361311533307
752.0, 0.0035974414983322863
753.0, 0.00443435874383616
754.0, 0.0016876176663019337
755.0, 0.0013567175729743725
756.0, 0.002581106689781038
757.0, 0.0018576616806936677
758.0, 0.0016698845475721109
759.0, 0.002281553382125608
760.0, 0.0022199618937737294
761.0, 0.0008676458983821724
762.0, 0.000892204353482626
763.0, 0.0006605440358435266
764.0, 0.001276946671635421
765.0, 0.002112969205547683
766.0, 0.001332998660802173
767.0, 0.0009647850194877424
768.0, 0.00075738756653907
769.0, 0.0006816153778790058
770.0, 0.0008764068691449466
771.0, 0.0026456030086395095
772.0, 0.0018310144238905222
773.0, 0.0007342291650985194
774.0, 0.0008989331602659973
775.0, 0.004200687866841827
776.0, 0.0012872833366384452
777.0, 0.001141699765909048
778.0, 0.0017526759813082118
779.0, 0.001207935297800002
780.0, 0.0026799733399654577
781.0, 0.002048479919959057
782.0, 0.001308693389060191
783.0, 0.001226520860681122
784.0, 0.0020752783493005224
785.0, 0.0010909692420136583
786.0, 0.0012867527906363229
787.0, 0.0016233676796757336
788.0, 0.0011857719070670586
789.0, 0.0016502098355607616
790.0, 0.0009763714491149956
791.0, 0.00037414636708339895
792.0, 0.0002462307798364763
793.0, 0.0006199834513715636
794.0, 0.0015141417964574307
795.0, 0.0011842663428926195
796.0, 0.0006000137392695796
797.0, 0.0007918368527593221
798.0, 0.002669549530457163
799.0, 0.0018243792384689
800.0, 0.0016383933332312353
801.0, 0.0020165921685886485
802.0, 0.0007515366007884928
803.0, 0.002460248618460066
804.0, 0.0016304023095899788
805.0, 0.0010981469532783867
806.0, 0.0026461675235150512
807.0, 0.0028980827793061797
808.0, 0.002136783391959361
809.0, 0.001641972575703237
810.0, 0.0015824080202542822
811.0, 0.0016907414202657547
812.0, 0.0005036155842317251
813.0, 0.0015977134480656698
814.0, 0.0018748354971373825
815.0, 0.0001297476635020937
816.0, 7.255507710783078e-05
817.0, 0.0031860829168272814
818.0, 0.002925885076088374
819.0, 0.0008388291863377571
820.0, 0.0008308723293158058
821.0, 0.0036677233791251925
822.0, 0.0022018756692460087
823.0, 0.0008419851765136448
824.0, 0.0014421787643052488
825.0, 0.0028072291598821826
826.0, 0.0021578338956170996
827.0, 0.0018145471223245504
828.0, 0.0019520165195835199
829.0, 0.0023740164365563606
830.0, 0.002149408008521089
831.0, 0.0035517623570974132
832.0, 0.003609982503006357
833.0, 0.0019424350872949898
834.0, 0.00011027918067664662
835.0, 0.0020806687577257354
836.0, 0.001879068482198585
837.0, 0.0021095729027622526
838.0, 0.0041350085671136416
839.0, 0.002765382800000432
840.0, 0.00375797108806959
841.0, 0.003734811595163258
842.0, 0.0028399871611877524
843.0, 0.002423744614856525
844.0, 0.0005770345184140579
845.0, 0.002102154439206517
846.0, 0.003600599168505096
847.0, 0.0034759387612087445
848.0, 0.002354139334245378
849.0, 0.001246562304377414
850.0, 0.0005073095754359217
851.0, 0.00038424720606671404
852.0, 0.0009096748552203152
853.0, 0.0006690995397639356
854.0, 0.000987122203981435
855.0, 0.0011722106148701354
856.0, 0.0017493130514809206
857.0, 0.004081281545600803
858.0, 0.006149114628947958
859.0, 0.0035520793010615703
860.0, 0.002025225260557625
861.0, 0.00349489616998995
862.0, 0.0009072549628547076
863.0, 0.0021519102760346057
864.0, 0.0030901792599232524
865.0, 0.003870007181193893
866.0, 0.0050743596547034526
867.0, 0.003665366795404041
868.0, 0.0037016050219071017
869.0, 0.0030665784465612324
870.0, 0.002187253539532143
871.0, 0.003374089840583534
872.0, 0.0026684422813767032
873.0, 0.003479874083593455
874.0, 0.004969183446530404
875.0, 0.006199625660750669
876.0, 0.005871371270315969
877.0, 0.006892067107691552
878.0, 0.007429432362155264
879.0, 0.007628184173459621
880.0, 0.007853127739729808
881.0, 0.0071573543117950215
882.0, 0.0062470773323284705
883.0, 0.004871162338370988
884.0, 0.004255739872685046
885.0, 0.006709630614256447
886.0, 0.006192882459413999
887.0, 0.004054237301858145
888.0, 0.003521124065898704
889.0, 0.005334872011151615
890.0, 0.005873087295404638
891.0, 0.004146237268234817
892.0, 0.00537215046340898
893.0, 0.0072503971647618
894.0, 0.007074910444035642
895.0, 0.004375239243474165
896.0, 0.005494492333215485
897.0, 0.006222639139286033
898.0, 0.005440598131898264
899.0, 0.0033196585998800116
900.0, 0.006880728656389701
901.0, 0.005624924368707458
902.0, 0.004368279234024737
903.0, 0.004698757413387457
904.0, 0.005485722781176653
905.0, 0.006032787132105693
906.0, 0.006080779819563818
907.0, 0.0063184618444369605
908.0, 0.00680060685867784
909.0, 0.005851983439058599
910.0, 0.004915618928441394
911.0, 0.004572088301727028
912.0, 0.0038639148199172803
913.0, 0.002393015971461245
914.0, 0.00511142791479304
915.0, 0.005268903029414497
916.0, 0.00655737608272503
917.0, 0.007494512750501448
918.0, 0.0047521647470878114
919.0, 0.00199049356541087
920.0, 0.00560217475408064
921.0, 0.006275212703140239
922.0, 0.00402752622249044
923.0, 0.007194166458580621
924.0, 0.0055588693226948285
925.0, 0.004775977768931125
926.0, 0.004475943709209299
927.0, 0.004136752921637412
928.0, 0.0030851652234274614
929.0, 0.004315112926561044
930.0, 0.004723726124205062
931.0, 0.004693890124118899
932.0, 0.004705405738862109
933.0, 0.004140954103302502
934.0, 0.004082729981594909
935.0, 0.005097256024014416
936.0, 0.005931027314895988
937.0, 0.0051377559263759065
938.0, 0.0036927402369480687
939.0, 0.005951686520977245
940.0, 0.00554756506329611
941.0, 0.003422396497750831
942.0, 0.0037080365203861826
943.0, 0.0030838007396763656
944.0, 0.0048874359472545655
945.0, 0.004779576841474012
946.0, 0.0026301551970453986
947.0, 0.0018415066223793442
948.0, 0.003637960071916858
949.0, 0.0030966294938910917
950.0, 0.002647969627760147
951.0, 0.003284423744809858
952.0, 0.0039049032494619935
953.0, 0.004642473565458986
954.0, 0.004883699430568296
955.0, 0.004826053187243674
956.0, 0.004625286825117345
957.0, 0.004191689298074421
958.0, 0.004293047029759109
959.0, 0.004083725834792508
960.0, 0.0038818857739010026
961.0, 0.0038937385260951036
962.0, 0.003278298373649688
963.0, 0.002701312307563114
964.0, 0.0019326677845971083
965.0, 0.0016821868237735
966.0, 0.002527171877761785
967.0, 0.002943300116718304
968.0, 0.004656847116715484
969.0, 0.0036624804711614272
970.0, 0.0016356425368588227
971.0, 0.0019529603059536558
972.0, 0.004881153466686064
973.0, 0.0032826604191349227
974.0, 0.0035920447150615585
975.0, 0.004778507416440031
976.0, 0.002709449864037032
977.0, 0.0029184972848152195
978.0, 0.00425610356705133
979.0, 0.003403664919272471
980.0, 0.0019554534795432708
981.0, 0.0046379258202195765
982.0, 0.00564900305491737
983.0, 0.004222422176305022
984.0, 0.004865819230880308
985.0, 0.006072432080925582
986.0, 0.001023828490094366
987.0, 0.004639311967677088
988.0, 0.004860259925810743
989.0, 0.0034296445840588143
990.0, 0.0030818911571835086
991.0, 0.007874956061010486
992.0, 0.0043015488431532405
993.0, 0.003918704303659732
994.0, 0.0041511064712049
995.0, 0.0038105397215633654
996.0, 0.0038837463060235437
997.0, 0.00582326654837574
998.0, 0.00632774990262451
999.0, 0.005811826904218058
1000.0, 0.004348736566849172
1001.0, 0.001168745283982183
1002.0, 0.006183788168416833
1003.0, 0.004855276354986942
1004.0, 0.00434417654946998
1005.0, 0.0066716781723990155
1006.0, 0.002685802046215023
1007.0, 0.0021921857996845453
1008.0, 0.004373613105155756
1009.0, 0.005911152928974095
1010.0, 0.005789997679246425
1011.0, 0.007747951637863916
1012.0, 0.005258855685505558
1013.0, 0.005345260291538762
1014.0, 0.007061661583679346
1015.0, 0.0089710244171407
1016.0, 0.009780058975163649
1017.0, 0.010040459350714206
1018.0, 0.008845675387588181
1019.0, 0.008047216550990506
1020.0, 0.007676428017564427
1021.0, 0.0035165403608891513
1022.0, 0.004845451573225781
1023.0, 0.007985466766846406
1024.0, 0.008314236367578677
1025.0, 0.005802517163063397
1026.0, 0.009701639269331454
1027.0, 0.006681387023232831
1028.0, 0.00656185795513337
1029.0, 0.007460743520633325
1030.0, 0.00800814833311727
1031.0, 0.009305441576447936
1032.0, 0.008544427432106563
1033.0, 0.007323431560473405
1034.0, 0.007201034154578499
1035.0, 0.008400159221770759
1036.0, 0.008934683261459372
1037.0, 0.0073747247992904125
1038.0, 0.008152657611057375
1039.0, 0.009174808307978208
1040.0, 0.009517108259509726
1041.0, 0.010426183435896531
1042.0, 0.011742176819227287
1043.0, 0.010850932030522564
1044.0, 0.011232323513784444
1045.0, 0.013105402474743778
1046.0, 0.012379080400515281
1047.0, 0.011145017985612444
1048.0, 0.011312172650388324
1049.0, 0.013335129541569663
1050.0, 0.016638539353912636
1051.0, 0.019597473207210912
1052.0, 0.017931356218157665
1053.0, 0.019642239801055016
1054.0, 0.020554333575821312
1055.0, 0.019431603733257436
1056.0, 0.017544618274685387
1057.0, 0.01710048141635985
1058.0, 0.021641444454877923
1059.0, 0.02596766689071711
1060.0, 0.028507103448652604
1061.0, 0.030162722640606515
1062.0, 0.03460682537242809
1063.0, 0.042763411303743545
1064.0, 0.053957418979268174
1065.0, 0.07064791572675586
1066.0, 0.097503313149524
1067.0, 0.14874080364834713
1068.0, 0.2556115476337701
1069.0, 0.4478383627679365
1070.0, 0.6977017669772843
1071.0, 0.9372531337281836
1072.0, 0.9927813339687237
1073.0, 0.8293904910800247
1074.0, 0.5906356306717189
1075.0, 0.3719856957544992
1076.0, 0.2353934980673204
1077.0, 0.15890144587008362
1078.0, 0.10215543836286373
1079.0, 0.06773543871716851
1080.0, 0.050074584034498736
1081.0, 0.040367053200378776
1082.0, 0.026534776771029705
1083.0, 0.024844695942175775
1084.0, 0.02192870166772799
1085.0, 0.020007302600254916
1086.0, 0.019153081377063147
1087.0, 0.014468257432905002
1088.0, 0.014036530903956486
1089.0, 0.012737543070359271
1090.0, 0.011864043446764037
1091.0, 0.011777440470180355
1092.0, 0.011730055371978233
1093.0, 0.00867359263131671
1094.0, 0.0073072781987666025
1095.0, 0.007480769670165335
1096.0, 0.008530513706372292
1097.0, 0.009447384455523133
1098.0, 0.0091251834319777
1099.0, 0.0062073900392096365
1100.0, 0.006263404510984079
1101.0, 0.007625928006236398
1102.0, 0.006747171994302485
1103.0, 0.003389073957216466
1104.0, 0.004423770279478368
1105.0, 0.004345601748359022
1106.0, 0.003978075756458925
1107.0, 0.004480944596242167
1108.0, 0.0047948956747521174
1109.0, 0.006286964039099854
1110.0, 0.003734573080040072
1111.0, 0.002273894973248715
1112.0, 0.003382074020702475
1113.0, 0.0020524331275740644
1114.0, 0.0012962851585651114
1115.0, 0.003688443090688114
1116.0, 0.003988651757394257
1117.0, 0.002331061716185558
1118.0, 0.0028695468997695594
1119.0, 0.0034946484311901794
1120.0, 0.004844215925105516
1121.0, 0.005150060727072165
1122.0, 0.0045229114576543486
1123.0, 0.0038866379432125116
1124.0, 0.004152605893473263
1125.0, 0.0030351163263955395
1126.0, 0.0027339266694623426
1127.0, 0.0024763765532383086
1128.0, 0.001954548035511027
1129.0, 0.003539768496732602
1130.0, 0.0009481952543439246
1131.0, 0.00234628071563949
1132.0, 0.0035631869891824515
1133.0, 0.0028500421673897576
1134.0, 0.0025154760910662756
1135.0, 0.0010900313633109126
1136.0, 0.0009063355247930775
1137.0, 0.000898057368444015
1138.0, 0.0007684953272678518
1139.0, 0.0007070670932010092
1140.0, 0.000949937699177968
1141.0, 0.0011654336295255222
1142.0, 0.0009253979541524436
1143.0, 0.0005636113526168614
1144.0, 0.0006517873257192066
1145.0, 0.0018669032189516431
1146.0, 0.0024385566580161205
1147.0, 0.003402456329824222
1148.0, 0.0028116673619641348
1149.0, 0.0013225392992251232
1150.0, 0.0032791804425169086
1151.0, 0.001743341991836675
1152.0, 0.0006594065191075213
1153.0, 0.0015353103625749558
1154.0, 0.003372476888379081
1155.0, 0.0037457435111476578
1156.0, 0.0011840965321014457
1157.0, 0.0027373289403340136
1158.0, 0.0023434767768909415
1159.0, 0.001410064766561547
1160.0, 0.0019794564436593893
1161.0, 0.0026871634556835367
1162.0, 0.006189685962696277
1163.0, 0.00416339915806214
1164.0, 0.0028774427362000536
1165.0, 0.003811034408168416
1166.0, 0.0021952943569466016
1167.0, 0.0030829672117332844
1168.0, 0.0014740421621931203
1169.0, 0.003589032472053516
1170.0, 0.005763521520062027
1171.0, 0.0027888000391329765
1172.0, 0.0041604435196084515
1173.0, 0.002222684305648889
1174.0, 0.0023419641072285943
1175.0, 0.003176440324393906
1176.0, 0.0036308842654707227
1177.0, 0.004915066432577342
1178.0, 0.004162799465559363
1179.0, 0.002887044517239894
1180.0, 0.003550612302458043
1181.0, 0.0043891784810578425
1182.0, 0.0020830624577087885
1183.0, 0.0037835374669947888
1184.0, 0.007119475226881609
1185.0, 0.00667298601325305
1186.0, 0.004199771427570325
1187.0, 0.0027330849627248163
1188.0, 0.003958681190078692
1189.0, 0.0052530331896920145
1190.0, 0.005236537854052274
1191.0, 0.0060128165976175325
1192.0, 0.0068284804288386665
1193.0, 0.005068611153820473
1194.0, 0.005796196089485218
1195.0, 0.004456319534131241
1196.0, 0.00405184891012138
1197.0, 0.005400620760771152
1198.0, 0.007465579843715381
1199.0, 0.006101991805215401
1200.0, 0.003728192337849214
1201.0, 0.005430152980189074
1202.0, 0.005328791330007688
1203.0, 0.003785303985519991
1204.0, 0.006198746428740547
1205.0, 0.0009629662054814127
1206.0, 0.0040295405086388895
1207.0, 0.005502667883025918
1208.0, 0.005555988062966037
1209.0, 0.0053469379819162405
1210.0, 0.0002687737876934629
1211.0, 0.0033598325247784205
1212.0, 0.003961867232549556
1213.0, 0.004926438253440177
1214.0, 0.005778710115618165
1215.0, 0.0033597832449638863
1216.0, 0.0032728637373640092
1217.0, 0.0031703251864970104
1218.0, 0.002174666670110087
1219.0, 0.0017186868985288979
1220.0, 0.002758956383575849
1221.0, 0.0037801911733475633
1222.0, 0.003515691942283677
1223.0, 0.004472078686543627
1224.0, 0.004657746833821281
1225.0, 0.003767514274110851
1226.0, 0.002886292592978132
1227.0, 0.0030903881621448816
1228.0, 0.002843410327229591
1229.0, 0.0023297536340410154
1230.0, 0.0035544126161958394
1231.0, 0.006277103974162349
1232.0, 0.006119957304987016
1233.0, 0.0049593941017132635
1234.0, 0.003345021065547904
1235.0, 0.0037544300149747645
1236.0, 0.005418022644423585
1237.0, 0.006149039264868177
1238.0, 0.00510628743542695
1239.0, 0.008542782276221917
1240.0, 0.0066347545354901215
1241.0, 0.005329577991819934
1242.0, 0.006967394387356308
1243.0, 0.007747113638974263
1244.0, 0.00570689321998588
1245.0, 0.0044523307621396205
1246.0, 0.0044770667223711594
1247.0, 0.004860610678263864
1248.0, 0.004615200092420393
1249.0, 0.0037196851212165476
1250.0, 0.0026855504972597005
1251.0, 0.0037942971944045626
1252.0, 0.004335846475806307
1253.0, 0.004458800846914327
1254.0, 0.0055012049078349235
1255.0, 0.003919293293146539
1256.0, 0.005825330532544523
1257.0, 0.004417842499009605
1258.0, 0.0017252336686095493
1259.0, 0.0018877973777819438
1260.0, 0.00844212716048306
1261.0, 0.004288385319146073
1262.0, 0.0012390420745589624
1263.0, 0.002882635199724938
1264.0, 0.004893390506442172
1265.0, 0.003880607100284343
1266.0, 0.004956106629963198
1267.0, 0.004133883678771601
1268.0, 0.004502146990920493
1269.0, 0.0039564997953921745
1270.0, 0.003748028053109517
1271.0, 0.005357668048655501
1272.0, 0.0014429573138448216
1273.0, 0.00450477055389298
1274.0, 0.0039285015763903235
1275.0, 0.003605803015300076
1276.0, 0.0038798339891082095
1277.0, 0.0008979786198331674
1278.0, 0.0037940390953926603
1279.0, 0.0028776299671861203
1280.0, 0.004076475893922416
1281.0, 0.003602986109963975
1282.0, 0.0005139122522589539
1283.0, 0.002027265080310279
1284.0, 0.0033166334579060952
1285.0, 0.0018723972035225003
1286.0, 0.001554492641461124
1287.0, 0.0021285954701318072
1288.0, 0.001952114833519231
1289.0, 0.0004516515504185692
1290.0, 0.005016645976748975
1291.0, 0.003236926434183672
1292.0, 0.003425162821169136
1293.0, 0.005077111351508136
1294.0, 0.003345657308788653
1295.0, 0.0018906129034207157
1296.0, 0.0020345677884285583
1297.0, 0.003947852352775
1298.0, 0.0035888884632492473
1299.0, 0.0011479427086311432
1300.0, 0.000644763568417058
1301.0, 0.0027500542921929027
1302.0, 0.0013271275586373918
1303.0, 0.0013026518081044847
1304.0, 0.002398617489069692
1305.0, 0.002854898426347556
1306.0, 0.0008534389188594184
1307.0, 0.00039018131282210684
1308.0, 0.0003678941463297619
1309.0, 0.0020215389956832566
1310.0, 0.0033049701656167143
1311.0, 0.0033777255583479914
1312.0, 0.004603360070255154
1313.0, 0.0014305765866785502
1314.0, 0.001704478780291112
1315.0, 0.0017644340091265923
1316.0, 0.002233306567911194
1317.0, 0.0035144815251892357
1318.0, 0.00230528688668646
1319.0, 0.002841712921441146
1320.0, 0.0012807003326114398
1321.0, 0.0016766673105817974
1322.0, 0.002870461030632477
1323.0, 0.0022925190793290466
1324.0, 0.00044870368935820176
1325.0, 0.0015387114184376937
1326.0, 0.0010667079742094471
1327.0, 0.0010985325331897122
1328.0, 0.0018706896047044257
1329.0, 0.002380135771678355
1330.0, 0.0015675144713643493
1331.0, 0.002135774044717939
1332.0, 0.002235474623867105
1333.0, 0.0020504651422814037
1334.0, 0.0013552466702173899
1335.0, 0.00031121304756040675
1336.0, 0.001724974862291849
1337.0, 0.001879292043012844
1338.0, 0.0014449530270499965
1339.0, 0.0014434842896729448
1340.0, 0.0015192496835428528
1341.0, 0.0011012728319975686
1342.0, 0.0029735936969179895
1343.0, 0.0027527313614090954
1344.0, 0.0033710050405691082
1345.0, 0.0030947420670973075
1346.0, 0.002619478661908735
1347.0, 0.0036935701148461215
1348.0, 0.0032245200768661786
1349.0, 0.006809071107186508
1350.0, 0.005463102461618186
1351.0, 0.0028886103209502124
1352.0, 0.002959368588984644
1353.0, 0.006078147279523581
1354.0, 0.002176643340858577
1355.0, 0.006885864526922132
1356.0, 0.00711062120420975
1357.0, 0.003616494951818219
1358.0, 0.002332206962926432
1359.0, 0.007707981505605997
1360.0, 0.006528250347359468
1361.0, 0.0055452162699135155
1362.0, 0.00572723118679155
1363.0, 0.004417550636368636
1364.0, 0.004103389567953332
1365.0, 0.008196090265127094
1366.0, 0.008076643570243063
1367.0, 0.0059539210410909935
1368.0, 0.005431029301437067
1369.0, 0.006897226745884413
1370.0, 0.008330126673162427
1371.0, 0.00766204304421244
1372.0, 0.007505118384096247
1373.0, 0.008511603382443188
1374.0, 0.007591564399625706
1375.0, 0.005679429770110034
1376.0, 0.005222160424134422
1377.0, 0.007113728569164655
1378.0, 0.005853492880085229
1379.0, 0.004449380047110116
1380.0, 0.0045995205351155016
1381.0, 0.007084567485107426
1382.0, 0.00886761177251305
1383.0, 0.007530034959847244
1384.0, 0.006764599632112922
1385.0, 0.009266723013871731
1386.0, 0.008692520198970287
1387.0, 0.009622658173534629
1388.0, 0.010189843944024075
1389.0, 0.009206948496848309
1390.0, 0.01197151127058991
1391.0, 0.0104639733693388
1392.0, 0.013632423507892477
1393.0, 0.014025072242202929
1394.0, 0.013391199230801593
1395.0, 0.014764723907567053
1396.0, 0.017576422802683508
1397.0, 0.01442720648769996
1398.0, 0.0198706514942096
1399.0, 0.02092610493203156
1400.0, 0.020814495043041358
1401.0, 0.02124063940869247
1402.0, 0.01859043797249337
1403.0, 0.020415081843313355
1404.0, 0.017544505354851532
1405.0, 0.01444555558834537
1406.0, 0.012962140963622538
1407.0, 0.013643004258398239
1408.0, 0.01497102006703866
1409.0, 0.009830794874185917
1410.0, 0.010317940650471482
1411.0, 0.011675940756744378
1412.0, 0.009614190426231954
1413.0, 0.008926994807903514
1414.0, 0.013725401832657266
1415.0, 0.008916072283869338
1416.0, 0.009029057564901577
1417.0, 0.012583107283296684
1418.0, 0.012826133275021087
1419.0, 0.010464262980188785
1420.0, 0.010268997577699866
1421.0, 0.01646487553834226
1422.0, 0.012305851658129682
1423.0, 0.014149212516415257
1424.0, 0.012231463343780662
1425.0, 0.010706628048445646
1426.0, 0.013586944501483044
1427.0, 0.018068965616257312
1428.0, 0.01359140886203079
1429.0, 0.01701934792652857
1430.0, 0.01698326486397453
1431.0, 0.01514246450473686
1432.0, 0.014879920140296198
1433.0, 0.017309146288699357
1434.0, 0.016878277689300558
1435.0, 0.015731822149288435
1436.0, 0.016747268941793177
1437.0, 0.017142405986884938
1438.0, 0.01701762412250727
1439.0, 0.01754073137286345
1440.0, 0.018078385437934507
1441.0, 0.01761932555086224
1442.0, 0.0176731802697183
1443.0, 0.017762408705829617
1444.0, 0.017482227570993627
1445.0, 0.016616392557800983
1446.0, 0.015300725020146077
1447.0, 0.014705411458620091
1448.0, 0.013369267805361424
1449.0, 0.013120307009773834
1450.0, 0.012905014812299699
1451.0, 0.01165040383460297
1452.0, 0.01033765250390306
1453.0, 0.015356647701675807
1454.0, 0.013001398725440282
1455.0, 0.00986334326098398
1456.0, 0.012928818912161986
1457.0, 0.01329021219136471
1458.0, 0.007702049706039969
1459.0, 0.013494003411392065
1460.0, 0.011265478738526576
1461.0, 0.007502724197089698
1462.0, 0.009153054676816784
1463.0, 0.008875924768975649
1464.0, 0.006188774224022617
1465.0, 0.008495628756137671
1466.0, 0.012605751178182306
1467.0, 0.007855114085937554
1468.0, 0.01167992822602142
1469.0, 0.010757541589581834
1470.0, 0.007205620888358826
1471.0, 0.008270082537327634
1472.0, 0.011005476123414395
1473.0, 0.010287890528820481
1474.0, 0.009725297457259483
1475.0, 0.009348298438615696
1476.0, 0.008434959895100057
1477.0, 0.006738595940080125
1478.0, 0.005179364196240213
1479.0, 0.006782301046695036
1480.0, 0.007285993827637762
1481.0, 0.005752363142027924
1482.0, 0.007453453113566154
1483.0, 0.0072619582461020925
1484.0, 0.002938086780299959
1485.0, 0.007826109594647678
1486.0, 0.004774472149445824
1487.0, 0.003736399514416736
1488.0, 0.00221554965287601
1489.0, 0.0010160998046442788
1490.0, 0.001375585303010397
1491.0, 0.0031368505538242673
1492.0, 0.0023499853181893414
1493.0, 0.0033837815820572633
1494.0, 0.003958698869030992
1495.0, 0.005474957274486619
1496.0, 0.006189020906371531
1497.0, 0.005353204890571439
1498.0, 0.006031502955931941
1499.0, 0.007202156948792698
1500.0, 0.0034952859066711313
1501.0, 0.002043750845725464
1502.0, 0.001890321780975978
1503.0, 0.001557174331950829
1504.0, 0.0007132652938238915
1505.0, 9.318374429487393e-05
1506.0, 0.002271582654421173
1507.0, 0.0018827885157263777
1508.0, 0.0017333574890081825
1509.0, 0.0026919941426846393
1510.0, 0.003265200206832202
1511.0, 0.0013890460948658625
1512.0, 0.001876598857016801
1513.0, 0.004704565114468303
1514.0, 0.0061387101705101385
1515.0, 0.007478047857702704
1516.0, 0.005459972405957202
1517, 0.0
1518, 0.0
1519, 0.0
1520, 0.0
1521, 0.0
1522, 0.0
1523, 0.0
1524, 0.0
1525, 0.0
1526, 0.0
1527, 0.0
1528, 0.0
1529, 0.0
1530, 0.0
1531, 0.0
1532, 0.0
1533, 0.0
1534, 0.0
1535, 0.0
1536, 0.0
1537, 0.0
1538, 0.0
1539, 0.0
1540, 0.0
1541, 0.0
1542, 0.0
1543, 0.0
1544, 0.0
1545, 0.0
1546, 0.0
1547, 0.0
1548, 0.0
1549, 0.0
1550, 0.0
1551, 0.0
1552, 0.0
1553, 0.0
1554, 0.0
1555, 0.0
1556, 0.0
1557, 0.0
1558, 0.0
1559, 0.0
1560, 0.0
1561, 0.0
1562, 0.0
1563, 0.0
1564, 0.0
1565, 0.0
1566, 0.0
1567, 0.0
1568, 0.0
1569, 0.0
1570, 0.0
1571, 0.0
1572, 0.0
1573, 0.0
1574, 0.0
1575, 0.0
1576, 0.0
1577, 0.0
1578, 0.0
1579, 0.0
1580, 0.0
1581, 0.0
1582, 0.0
1583, 0.0
1584, 0.0
1585, 0.0
1586, 0.0
1587, 0.0
1588, 0.0
1589, 0.0
1590, 0.0
1591, 0.0
1592, 0.0
1593, 0.0
1594, 0.0
1595, 0.0
1596, 0.0
1597, 0.0
1598, 0.0
1599, 0.0
