30, 0.0
31, 0.0
32, 0.0
33, 0.0
34, 0.0
35, 0.0
36, 0.0
37, 0.0
38, 0.0
39, 0.0
40, 0.0
41, 0.0
42, 0.0
43, 0.0
44, 0.0
45, 0.0
46, 0.0
47, 0.0
48, 0.0
49, 0.0
50, 0.0
51, 0.0
52, 0.0
53, 0.0
54, 0.0
55, 0.0
56, 0.0
57, 0.0
58, 0.0
59, 0.0
60, 0.0
61, 0.0
62, 0.0
63, 0.0
64, 0.0
65, 0.0
66, 0.0
67, 0.0
68, 0.0
69, 0.0
70, 0.0
71, 0.0
72, 0.0
73, 0.0
74, 0.0
75, 0.0
76, 0.0
77, 0.0
78, 0.0
79, 0.0
80, 0.0
81, 0.0
82, 0.0
83, 0.0
84, 0.0
85, 0.0
86, 0.0
87, 0.0
88, 0.0
89, 0.0
90, 0.0
91, 0.0
92, 0.0
93, 0.0
94.0, 6.496245174589581e-06
95.0, 5.764778198238347e-05
96.0, 0.00039630785456523903
97.0, 0.0037114448417296295
98.0, 0.012675291123401874
99.0, 0.02910205845022071
100.0, 0.05424008313827562
101.0, 0.0861617027821017
102.0, 0.11780366681104426
103.0, 0.1429304893684588
104.0, 0.1524001696468732
105.0, 0.13814720664470295
106.0, 0.10747945349907753
107.0, 0.07917936527390372
108.0, 0.054356956617778576
109.0, 0.035649825040920236
110.0, 0.027786358203886002
111.0, 0.02409196351984945
112.0, 0.022379777848015814
113.0, 0.02764827536151637
114.0, 0.03004178570911706
115.0, 0.030818920081233995
116.0, 0.03232758208430034
117.0, 0.032203046364673235
118.0, 0.034289510909774244
119.0, 0.03963200246565044
120.0, 0.0440415732180803
121.0, 0.04936909634595438
122.0, 0.05534112528873784
123.0, 0.06175457914804417
124.0, 0.062060877585632786
125.0, 0.05951441735892387
126.0, 0.054315605492955776
127.0, 0.04355385354654599
128.0, 0.03275868693472233
129.0, 0.02341290138282743
130.0, 0.017325032364048937
131.0, 0.011651917184333388
132.0, 0.007113723570025618
133.0, 0.0038421189264492795
134.0, 0.002359240630546469
135.0, 0.0010193351493770677
136.0, 0.00028645345649693367
137.0, 0.0005318117140435353
138.0, 0.00019376717379953283
139.0, 0.0009183076890423342
140.0, 0.0022302985141560046
141.0, 0.0028552588030274404
142.0, 0.00507897426942906
143.0, 0.007101822535286613
144.0, 0.008406401902228133
145.0, 0.011423553818500427
146.0, 0.012648062489425198
147.0, 0.013605851244269936
148.0, 0.016565626674725442
149.0, 0.017078483687784196
150.0, 0.017551946502850812
151.0, 0.018483776052408477
152.0, 0.020586061565093718
153.0, 0.02196231006188565
154.0, 0.02321685758492949
155.0, 0.02480900427953982
156.0, 0.029642982701241584
157.0, 0.03435606549376986
158.0, 0.0394527221505683
159.0, 0.04756418172824636
160.0, 0.057530028010415554
161.0, 0.0680493476601273
162.0, 0.07856932896916165
163.0, 0.08496634324758204
164.0, 0.08853766394770735
165.0, 0.09028561881951315
166.0, 0.09143930258968491
167.0, 0.08552515423756028
168.0, 0.0768310290005355
169.0, 0.0660284440867243
170.0, 0.05258583191332715
171.0, 0.042379217466237976
172.0, 0.03333799455219922
173.0, 0.02407372700018234
174.0, 0.018991213581824894
175.0, 0.014617298389170804
176.0, 0.010857343430937045
177.0, 0.008142662907791455
178.0, 0.006980302436363673
179.0, 0.005484223161741762
180.0, 0.0030962391242210885
181.0, 0.0024914486296448964
182.0, 0.0015084120915786457
183.0, 0.0007251704985102864
184.0, 0.0009617923660037524
185.0, 0.0019168123824629306
186.0, 0.002700123218474153
187.0, 0.003181465712138499
188.0, 0.003251352551550151
189.0, 0.0030985135650542757
190.0, 0.0028787964324827565
191.0, 0.0026673886379975664
192.0, 0.0018275794680335485
193.0, 0.002048662210913925
194.0, 0.0024758734790766906
195.0, 0.0014508371181701082
196.0, 0.0016532810428199947
197.0, 0.001431648105698049
198.0, 0.0005832190404762916
199.0, 0.00018780373381763082
200.0, 0.0015470129384153896
201.0, 0.003221043048418736
202.0, 0.004213479380854435
203.0, 0.0065121806016616365
204.0, 0.00863963083720959
205.0, 0.010530804017121684
206.0, 0.012105264830753127
207.0, 0.013966371330432607
208.0, 0.014367157434243645
209.0, 0.013119434038366651
210.0, 0.013647430219422075
211.0, 0.012393593806102169
212.0, 0.010760065768739625
213.0, 0.009894392227054861
214.0, 0.008470222171027646
215.0, 0.007428578800838734
216.0, 0.007160386652620293
217.0, 0.008781768052998594
218.0, 0.008689484298526756
219.0, 0.008847863153363783
220.0, 0.009743529972013729
221.0, 0.010352716103940127
222.0, 0.011712466646743124
223.0, 0.012579079730590019
224.0, 0.01173925135319505
225.0, 0.012221389883352814
226.0, 0.012685585318999512
227.0, 0.013047680687938166
228.0, 0.013265370352350989
229.0, 0.015287856740144112
230.0, 0.017096769805564738
231.0, 0.01815051697400616
232.0, 0.018702089514728435
233.0, 0.019498936009483256
234.0, 0.020149829885774816
235.0, 0.0203101903772156
236.0, 0.019216025523992333
237.0, 0.0177564286877477
238.0, 0.0164044274863766
239.0, 0.01622579694756001
240.0, 0.01516076365065943
241.0, 0.01372985456348642
242.0, 0.012437693368464335
243.0, 0.014365178786886083
244.0, 0.014831522203958489
245.0, 0.015169237549162976
246.0, 0.0162341639059559
247.0, 0.01805573138538686
248.0, 0.020125718082027205
249.0, 0.022906291493799708
250.0, 0.027393608869676317
251.0, 0.030156388767679083
252.0, 0.034489316569981616
253.0, 0.04040890797565119
254.0, 0.04529956292472959
255.0, 0.05042534207395215
256.0, 0.05520985850065607
257.0, 0.05938872399978717
258.0, 0.06394852012835106
259.0, 0.07015177631194144
260.0, 0.07606847838754373
261.0, 0.07926899236374929
262.0, 0.08488609912398043
263.0, 0.08712266472001111
264.0, 0.08669890581361064
265.0, 0.08706540361875541
266.0, 0.08229303585607849
267.0, 0.07507656312313606
268.0, 0.06651080264780598
269.0, 0.06052384531158062
270.0, 0.053805170265940665
271.0, 0.04738645814901587
272.0, 0.042041680384939197
273.0, 0.03709482892904203
274.0, 0.03322777406837288
275.0, 0.030605208840572058
276.0, 0.029713267708859084
277.0, 0.0273629175970174
278.0, 0.025757052670110248
279.0, 0.02470808614348347
280.0, 0.022063270272820876
281.0, 0.0212088371408128
282.0, 0.01991490367573617
283.0, 0.0175134993927992
284.0, 0.016992072532608607
285.0, 0.015488821770904085
286.0, 0.013438583691184199
287.0, 0.011150632792680394
288.0, 0.01039730902643386
289.0, 0.008847807698917846
290.0, 0.0071097451921720125
291.0, 0.006532890052812977
292.0, 0.00588171661387651
293.0, 0.005233063013726875
294.0, 0.004730827509498943
295.0, 0.004988667869096383
296.0, 0.004485147913084103
297.0, 0.004103192066384144
298.0, 0.004073320734389081
299.0, 0.0027121427724772747
300.0, 0.0022533321180451095
301.0, 0.002491023522117386
302.0, 0.0033354305079541487
303.0, 0.0022570646817673796
304.0, 0.002074474111820785
305.0, 0.0021877404951437976
306.0, 0.0014397308904199099
307.0, 0.0014362175962948176
308.0, 0.00118046418538917
309.0, 0.000730759157458717
310.0, 0.0007969656521239862
311.0, 0.0013231615451802087
312.0, 0.001431067319651445
313.0, 0.0009613357066075236
314.0, 0.0011112948377645874
315.0, 0.0006038967160543307
316.0, 0.00032130015645513666
317.0, 0.0008174519967227751
318.0, 0.00028392692799522807
319.0, 0.000492817738678248
320.0, 0.0009623574764784564
321.0, 0.0011104364529154294
322.0, 0.0004372602142124789
323.0, 0.0009498563428540965
324.0, 0.0018540558647571713
325.0, 0.0009054533504731003
326.0, 0.0011692793732424303
327.0, 0.0012493338986634048
328.0, 0.001078189228830841
329.0, 0.001636920189404806
330.0, 0.0015782268974000302
331.0, 0.001512806692516591
332.0, 0.001673573979851692
333.0, 0.0020317228037894175
334.0, 0.0023387013668206753
335.0, 0.002753949317763006
336.0, 0.0033961638160491304
337.0, 0.003952912935683303
338.0, 0.004198824883825503
339.0, 0.00430467827787509
340.0, 0.0044782206490878405
341.0, 0.004294290301069232
342.0, 0.004190463579844719
343.0, 0.004054526035769493
344.0, 0.003554547941966995
345.0, 0.0032158959609932835
346.0, 0.0030765284800482683
347.0, 0.003179239404391947
348.0, 0.003682597077460615
349.0, 0.0026434577669016456
350.0, 0.0021115587509333003
351.0, 0.00254641850713534
352.0, 0.0022328844328877925
353.0, 0.0014053608614301855
354.0, 0.0007007808356045145
355.0, 0.0004919486828494029
356.0, 0.0012167475536301402
357.0, 0.0009762515710994319
358.0, 0.0006300334998683463
359.0, 0.0009469696679616133
360.0, 0.0006113902767242102
361.0, 0.00047523744514695656
362.0, 0.0004066129800760523
363.0, 0.0001909404099603681
364.0, 0.0007249683312549118
365.0, 0.0009256844945467485
366.0, 0.0008379628104271817
367.0, 0.0007620761426999324
368.0, 0.0005248720967161185
369.0, 0.0005701353046586838
370.0, 0.0007367418663790249
371.0, 0.00012156786733036779
372.0, 0.00012739502576955151
373.0, 0.00027049776140291356
374.0, 0.0004235801013850247
375.0, 0.0006502637302217115
376.0, 0.000612925309728747
377.0, 0.0007057334022103544
378.0, 0.001050953279263907
379.0, 0.0008909522509291787
380.0, 0.0004927755618018897
381.0, 0.00033669015855645497
382.0, 0.0007322570142876405
383.0, 0.0004554028740210398
384.0, 0.00026434520016763055
385.0, 0.0003581150486326167
386.0, 0.0009549649645573541
387.0, 0.000317994863188128
388.0, 0.00021172888933180436
389.0, 0.0003249092161606734
390.0, 0.00015981161304267619
391.0, 0.000556609639751463
392.0, 0.0005547560410044021
393.0, 0.00029929851833944426
394.0, 0.00021742000380434376
395.0, 0.0003139799901056537
396.0, 0.0002483728847018221
397.0, 0.00018135718031213094
398.0, 0.00071918821035751
399.0, 0.0005779141845496831
400.0, 0.0006701757630465329
401.0, 0.0009637725630980119
402.0, 0.0005471997060840031
403.0, 0.00034085219627766507
404.0, 0.0005402592473909599
405.0, 0.0009898635794492205
406.0, 0.0003831650379623774
407.0, 0.0007092971376113811
408.0, 0.0013904086461421494
409.0, 0.002048132098186214
410.0, 0.001282523941925062
411.0, 0.0009467284403641391
412.0, 0.0007032597561070982
413.0, 0.0004332330056160789
414.0, 0.0009599749825051831
415.0, 0.0013013174666964453
416.0, 0.0011128238105236271
417.0, 0.00019916382532804351
418.0, 0.0006387948043005456
419.0, 0.0007124100528197533
420.0, 0.0010101557695312371
421.0, 0.0020519068018400206
422.0, 0.0016846723429918384
423.0, 0.0015259897948396988
424.0, 0.0016715040374993973
425.0, 0.00223992124132859
426.0, 0.001319929883678574
427.0, 0.001108909814284988
428.0, 0.0012636110728957441
429.0, 0.0012547641309068225
430.0, 0.0014509777052173472
431.0, 0.0013586216825071345
432.0, 0.00116789051780279
433.0, 0.0012295453464193909
434.0, 0.0016654094542601634
435.0, 0.0016043940576985134
436.0, 0.0013177833186243705
437.0, 0.0014644868341495256
438.0, 0.0017023559574366443
439.0, 0.0021293527612573004
440.0, 0.0023345189021770334
441.0, 0.001325312473756814
442.0, 0.001316239009975495
443.0, 0.0017908403498511614
444.0, 0.0021926412579023878
445.0, 0.0012244872793047475
446.0, 0.0020075121517818748
447.0, 0.002621310039163786
448.0, 0.0028423778235990627
449.0, 0.002970166292866246
450.0, 0.0028042283227391173
451.0, 0.002826601020029299
452.0, 0.003004636586216014
453.0, 0.0029012534184587758
454.0, 0.0033229846206643122
455.0, 0.0033919578969428014
456.0, 0.003203930367357729
457.0, 0.0038785263065870294
458.0, 0.003129451422811014
459.0, 0.00293223284823284
460.0, 0.0034901682355097667
461.0, 0.003599207125834861
462.0, 0.0036842846459252034
463.0, 0.004247902277713958
464.0, 0.004982251162005761
465.0, 0.0038892879425234846
466.0, 0.004254093872138796
467.0, 0.004440728463093233
468.0, 0.004252728078288629
469.0, 0.00499113810932379
470.0, 0.005451846329925095
471.0, 0.005545122413581491
472.0, 0.005348679763705207
473.0, 0.005393475117797741
474.0, 0.005411531742093827
475.0, 0.005073432676116465
476.0, 0.004732028465128208
477.0, 0.006669884056579726
478.0, 0.0056609550736926445
479.0, 0.005481452925264749
480.0, 0.006595510755476554
481.0, 0.00539997778374815
482.0, 0.006310279937248599
483.0, 0.007055711565203791
484.0, 0.007058693140034369
485.0, 0.006943253943275991
486.0, 0.0057191149707776995
487.0, 0.005845722336833205
488.0, 0.007385593227851891
489.0, 0.00710149211343711
490.0, 0.006178678967005789
491.0, 0.006767501324162235
492.0, 0.008582594678458011
493.0, 0.007542338716658223
494.0, 0.007237325297745885
495.0, 0.00780611758323273
496.0, 0.008702568165898584
497.0, 0.007496455993158513
498.0, 0.008211150008290168
499.0, 0.009196836235355745
500.0, 0.009871585743622756
501.0, 0.009607590187090937
502.0, 0.0093679742680379
503.0, 0.009311623326414015
504.0, 0.009553278560654481
505.0, 0.01036409297811362
506.0, 0.011199333672400613
507.0, 0.011778642601789752
508.0, 0.012137941595680686
509.0, 0.012555379662601158
510.0, 0.012916952716581501
511.0, 0.013737650504210481
512.0, 0.0145396189233156
513.0, 0.013806718949974926
514.0, 0.01497941003274893
515.0, 0.01573026757100065
516.0, 0.015811398993354417
517.0, 0.015425700247502155
518.0, 0.016474970191881672
519.0, 0.016559551659085056
520.0, 0.01610420996659305
521.0, 0.016499853679919248
522.0, 0.016736111710268835
523.0, 0.017628658462733118
524.0, 0.018042669713563303
525.0, 0.015953511279172397
526.0, 0.01451677358818541
527.0, 0.014483100699722381
528.0, 0.014501282546134964
529.0, 0.012626298318911421
530.0, 0.011366519273551751
531.0, 0.010884671542801268
532.0, 0.010345083890347218
533.0, 0.008787419044535325
534.0, 0.00873932714472769
535.0, 0.008822589200906134
536.0, 0.008212645713998682
537.0, 0.0062510097432804165
538.0, 0.0075074840727323644
539.0, 0.007090565529582002
540.0, 0.006612737957383668
541.0, 0.007094673403970988
542.0, 0.004870678651256643
543.0, 0.004927535126254631
544.0, 0.005278497705664309
545.0, 0.004862843516530567
546.0, 0.005035822022110135
547.0, 0.0049955042552812
548.0, 0.004891126653359859
549.0, 0.004705544834309406
550.0, 0.0038688934820195523
551.0, 0.003765621697253679
552.0, 0.003856946422840725
553.0, 0.0039072086271504675
554.0, 0.0036995073758264003
555.0, 0.004429315307370535
556.0, 0.005142874916292027
557.0, 0.005326506453554903
558.0, 0.004089030520499527
559.0, 0.0027369982025888815
560.0, 0.0035788245610296845
561.0, 0.005399423294614215
562.0, 0.004316992312207918
563.0, 0.004505258109530882
564.0, 0.00547631611939566
565.0, 0.006071864356810981
566.0, 0.0043930125740659805
567.0, 0.005134736513653177
568.0, 0.005945873375274039
569.0, 0.006013244633063722
570.0, 0.004511792571875739
571.0, 0.0065544399622207575
572.0, 0.005113381519941462
573.0, 0.003818751935413669
574.0, 0.005745743385194207
575.0, 0.004642771719697646
576.0, 0.005057484509681425
577.0, 0.00539975482241362
578.0, 0.004805683699792146
579.0, 0.004743348776148123
580.0, 0.005076819642375611
581.0, 0.004339438836991154
582.0, 0.0026936620729292593
583.0, 0.004585434754606172
584.0, 0.00443683717813327
585.0, 0.003813562498986492
586.0, 0.0034480203361864146
587.0, 0.004295357581730459
588.0, 0.0037764839954469703
589.0, 0.0036289934595990876
590.0, 0.003936078646183942
591.0, 0.004204221918228089
592.0, 0.003703477545180143
593.0, 0.0035283833974475358
594.0, 0.0034864394394579835
595.0, 0.003154008715550244
596.0, 0.0037606387730391086
597.0, 0.0031681312643990172
598.0, 0.0025512373775623044
599.0, 0.003011695985815301
600.0, 0.0025309676615797643
601.0, 0.0014989599259630497
602.0, 0.00150754168473002
603.0, 0.003162350911391317
604.0, 0.003075247091711549
605.0, 0.002400623828956571
606.0, 0.002111986110750243
607.0, 0.0021590439530112847
608.0, 0.0006232265789514614
609.0, 0.001752498321010119
610.0, 0.0029444626503610668
611.0, 0.0031875140783939513
612.0, 0.0014180869462454388
613.0, 0.002517088039109505
614.0, 0.0024604086108599332
615.0, 0.0019074803459860977
616.0, 0.002620156589487454
617.0, 0.002232101906215804
618.0, 0.0019809831252469387
619.0, 0.0023675186312572447
620.0, 0.0036361740564472855
621.0, 0.0012558133855301353
622.0, 0.0022512754274149364
623.0, 0.0030143886387925824
624.0, 0.0018421764097803878
625.0, 0.0018621327126837187
626.0, 0.002718199521549165
627.0, 0.003177859888759714
628.0, 0.0030971260989104982
629.0, 0.003463876632311331
630.0, 0.004019315836638989
631.0, 0.004200052297313506
632.0, 0.004085754274936192
633.0, 0.004036282101572175
634.0, 0.0027267770359517807
635.0, 0.0028710085474060003
636.0, 0.003413904891924654
637.0, 0.002972172213763029
638.0, 0.003464545164015658
639.0, 0.004941801758006839
640.0, 0.0050669650939486905
641.0, 0.002968470177899417
642.0, 0.004444693845532819
643.0, 0.003885612805117915
644.0, 0.00407654325144155
645.0, 0.005334603224013405
646.0, 0.005022981301544578
647.0, 0.004048213565086596
648.0, 0.004654563347755512
649.0, 0.0060170385820847395
650.0, 0.00576733119408576
651.0, 0.006802161781310187
652.0, 0.006947714646562269
653.0, 0.0066879929888512876
654.0, 0.006685091865609879
655.0, 0.007109140909368616
656.0, 0.00758820546012748
657.0, 0.007535151772202025
658.0, 0.00712019236998819
659.0, 0.009635098689533952
660.0, 0.0086132791754269
661.0, 0.008982013710179931
662.0, 0.010681779895540897
663.0, 0.009369568531002065
664.0, 0.009834890878663311
665.0, 0.010271850200810045
666.0, 0.010004677438590563
667.0, 0.008410577266727866
668.0, 0.010401718129086114
669.0, 0.010332698319415096
670.0, 0.009778933858873936
671.0, 0.009762835933129807
672.0, 0.007527694232644685
673.0, 0.006614759889202769
674.0, 0.0062351432917211996
675.0, 0.006448685764372326
676.0, 0.008608168104399133
677.0, 0.006987176827678373
678.0, 0.006239319746246607
679.0, 0.006059819781720012
680.0, 0.004582868871391017
681.0, 0.006100345800816696
682.0, 0.005740483999737325
683.0, 0.005114504515505362
684.0, 0.0057215602644698
685.0, 0.0066218348237605685
686.0, 0.006916481365194289
687.0, 0.007208670615311409
688.0, 0.007701388558504255
689.0, 0.008171093146883296
690.0, 0.008613163374330358
691.0, 0.008559961233393323
692.0, 0.0076909020599243245
693.0, 0.005619722236243544
694.0, 0.0062855972603877
695.0, 0.005922381846031612
696.0, 0.004939129451863524
697.0, 0.003962081589158527
698.0, 0.004624971397010358
699.0, 0.003924742542967205
700.0, 0.00418972379343022
701.0, 0.0052290556993735415
702.0, 0.0030366560674180516
703.0, 0.003835060133691619
704.0, 0.004884995242174569
705.0, 0.005325575846941594
706.0, 0.0045142129007934755
707.0, 0.003642498960321105
708.0, 0.0029246363833325645
709.0, 0.002571090890134596
710.0, 0.002698284569253346
711.0, 0.0031072981411417325
712.0, 0.0028809613553369175
713.0, 0.0026815238687533396
714.0, 0.0023196667815258685
715.0, 0.0006996867701863404
716.0, 0.0018971113370595404
717.0, 0.004017304060575832
718.0, 0.004871777314231697
719.0, 0.0024421187778965034
720.0, 0.005491976517114722
721.0, 0.0043013795512824885
722.0, 0.00280415087355659
723.0, 0.002905875940322178
724.0, 0.003389659288375838
725.0, 0.0025869129455366206
726.0, 0.0024138004540000513
727.0, 0.002682717102008878
728.0, 0.0023148058163843773
729.0, 0.0019471418628086799
730.0, 0.001477924022299127
731.0, 0.0008984805589838513
732.0, 0.0004063258414142421
733.0, 0.0017530126504275954
734.0, 0.0012611243712412883
735.0, 0.0009610882772190787
736.0, 0.001322446297015193
737.0, 0.0017754165199985344
738.0, 0.0021040053714853663
739.0, 0.0021110966048218547
740.0, 0.0018035649347940374
741.0, 0.0012344332120457686
742.0, 0.0005792190725757086
743.0, 0.0005575351933185183
744.0, 0.0006776325416456918
745.0, 0.0008844371497880098
746.0, 0.001845257244620189
747.0, 0.0012989317882221097
748.0, 0.0007538381457345657
749.0, 0.000698297348567852
750.0, 0.001435655109569649
751.0, 0.0005393059140502614
752.0, 0.0011250748158664196
753.0, 0.001898435377686477
754.0, 0.002043704497169848
755.0, 0.00143113950682318
756.0, 0.001560967938435165
757.0, 0.001198294612477277
758.0, 0.0008592851225449681
759.0, 0.0018333481505081839
760.0, 0.00045553946950536425
761.0, 0.0002524023638960177
762.0, 0.0009006043084140589
763.0, 0.001854124046122916
764.0, 0.001564908583141284
765.0, 0.001856113215629802
766.0, 0.0014167569824388015
767.0, 0.0007159962068826974
768.0, 0.0012700606099836206
769.0, 0.0013298346481772755
770.0, 0.0006847216471762356
771.0, 0.0008952675157006275
772.0, 0.0024832337514703227
773.0, 0.0009219446704221581
774.0, 0.0008080765526305393
775.0, 0.0013919463743333105
776.0, 0.002097727486338628
777.0, 0.002176803722119084
778.0, 0.0014863164469315687
779.0, 0.000827401152421119
780.0, 0.00035159700905856763
781.0, 0.00015239652655848506
782.0, 0.00026261501055493784
783.0, 0.00029426296260281435
784.0, 0.0011198233009383097
785.0, 0.0019639443200706653
786.0, 0.0008636097816951806
787.0, 0.0002624211195593688
788.0, 0.000996293333077049
789.0, 0.0018257249663642945
790.0, 0.0017337988777255417
791.0, 0.0003307820512635626
792.0, 0.0005265261932780389
793.0, 0.00044837210646409844
794.0, 0.0006305557056300479
795.0, 0.0028006361893335883
796.0, 0.0010407329648746372
797.0, 0.000611425127280802
798.0, 0.001392737973563667
799.0, 0.0025413403028396245
800.0, 0.0006031952963817324
801.0, 0.00017540780515877904
802.0, 0.0007870770789300437
803.0, 0.001266960254246939
804.0, 6.533935734554875e-05
805.0, 0.0025396047148408566
806.0, 0.001395067273260777
807.0, 0.0001554369043545126
808.0, 0.0004963655323214574
809.0, 0.0011083516595345145
810.0, 0.0008104494890485987
811.0, 0.001157943404680008
812.0, 0.0014479791950898055
813.0, 0.000675566127388458
814.0, 0.0015561693360456432
815.0, 0.002519991812225735
816.0, 0.0028811203106478287
817.0, 0.0028084450211468305
818.0, 0.0036242018467502472
819.0, 0.0028507036811384716
820.0, 0.00272644783350868
821.0, 0.0025484901451134257
822.0, 0.001692563814591824
823.0, 0.002183441005123544
824.0, 0.0018543966865226464
825.0, 0.002736196714297785
826.0, 0.0037818753121516974
827.0, 0.0017176949515745298
828.0, 0.002675949012260761
829.0, 0.0023455021861861426
830.0, 0.0022845159696956406
831.0, 0.0030027926392857196
832.0, 0.0013917377482793127
833.0, 0.001432463445617051
834.0, 0.0023202166513015036
835.0, 0.002582899096460487
836.0, 0.0007171838377139118
837.0, 0.0027299924687156423
838.0, 0.002149571486373881
839.0, 0.001532950174565984
840.0, 0.00189186380996927
841.0, 0.002787932243659548
842.0, 0.0017684314004220104
843.0, 0.0024796050097568977
844.0, 0.002913015492520754
845.0, 0.0015159012275433117
846.0, 0.0017939571392156192
847.0, 0.002519536885653674
848.0, 0.0017107780801803227
849.0, 0.0004984167554475895
850.0, 0.0015423706304484813
851.0, 0.0016687072231078607
852.0, 0.0007726755410250951
853.0, 0.0007452624720576089
854.0, 0.0017418011470148923
855.0, 0.000853577551685175
856.0, 0.0022603176167909846
857.0, 0.0025510316707860743
858.0, 0.002057727670768442
859.0, 0.0017495029517119232
860.0, 0.00372644032423071
861.0, 0.0036507148209254333
862.0, 0.002998769261005579
863.0, 0.0027986351026195355
864.0, 0.004058424156566983
865.0, 0.0034844888879225237
866.0, 0.004476155748481224
867.0, 0.005152166714306418
868.0, 0.004635601719720021
869.0, 0.0035079646678036415
870.0, 0.004557746867881153
871.0, 0.004483409813347755
872.0, 0.004357018380304715
873.0, 0.005098287750391057
874.0, 0.003534006668251412
875.0, 0.003806879284496243
876.0, 0.0035077538060938884
877.0, 0.0028755957142200177
878.0, 0.0032499847117187764
879.0, 0.005275880627136774
880.0, 0.003501493476635211
881.0, 0.0032158939215008947
882.0, 0.005343552923907
883.0, 0.005543107700564116
884.0, 0.003138908781554723
885.0, 0.003376841614325923
886.0, 0.004856998250183026
887.0, 0.005800303395207473
888.0, 0.004343254962105271
889.0, 0.005994442791423333
890.0, 0.005254822575698134
891.0, 0.003485434012484759
892.0, 0.0034828664147272146
893.0, 0.00394141502951639
894.0, 0.004386208620443789
895.0, 0.0046882427293835245
896.0, 0.00433004574595202
897.0, 0.002466419410228027
898.0, 0.0048273952112156335
899.0, 0.004802235631254257
900.0, 0.003872433728701945
901.0, 0.003592741651361302
902.0, 0.006037799029496797
903.0, 0.005072927219753807
904.0, 0.003584470059814388
905.0, 0.003461446538970273
906.0, 0.005050377646208345
907.0, 0.0030656882293354235
908.0, 0.0034385642207380245
909.0, 0.003481281515047072
910.0, 0.0034387001697931026
911.0, 0.004113255354246361
912.0, 0.0046485408163367825
913.0, 0.0037962914357894395
914.0, 0.0027639466134386976
915.0, 0.0024388640239471197
916.0, 0.0035968244997651427
917.0, 0.003488779902967727
918.0, 0.004036601556990505
919.0, 0.004467260204353762
920.0, 0.004290436210486411
921.0, 0.0032253512442315113
922.0, 0.0044316812554099656
923.0, 0.003641851358714741
924.0, 0.0028915621181999657
925.0, 0.0031615863727543743
926.0, 0.0024534471466985453
927.0, 0.002943665266401501
928.0, 0.0036935527925186884
929.0, 0.003442104076955129
930.0, 0.0019073336684242016
931.0, 0.003420487307678761
932.0, 0.002350729273729829
933.0, 0.0017695066624995523
934.0, 0.0024662334929525147
935.0, 0.004174096381012117
936.0, 0.002251903407706988
937.0, 0.0013375176458818095
938.0, 0.0026936339688776083
939.0, 0.004182560765215098
940.0, 0.0022279486143094818
941.0, 0.003254119062702019
942.0, 0.0034236961483910693
943.0, 0.0027257132181425178
944.0, 0.001703403540391448
945.0, 0.0014294568382785795
946.0, 0.001342030700191443
947.0, 0.002688892807296076
948.0, 0.0030575085834396412
949.0, 0.001969533476465803
950.0, 0.0014525645879127505
951.0, 0.003953147613907233
952.0, 0.002302173549162636
953.0, 0.0012706691433813258
954.0, 0.0027685550751780173
955.0, 0.00199802237180892
956.0, 0.0005548679307157311
957.0, 0.0012408932167684095
958.0, 0.0016735567287732944
959.0, 0.0006769285613876829
960.0, 0.0021764408675948345
961.0, 0.0026291792810533877
962.0, 0.0013941429238750486
963.0, 0.0010712735360118085
964.0, 0.003090219052722885
965.0, 0.0015743598130667515
966.0, 0.002479086314837782
967.0, 0.0021885760821079184
968.0, 0.001079035915084094
969.0, 0.00046825171283001045
970.0, 0.00189456178635358
971.0, 0.0011948260079676775
972.0, 0.0009447881133717907
973.0, 0.0014945129624518315
974.0, 0.0023020220229076943
975.0, 0.0009901075522043487
976.0, 0.0008373127716243876
977.0, 0.0014644833494713322
978.0, 0.0017776872931024815
979.0, 0.000692636660584497
980.0, 0.001474117202703626
981.0, 0.0010769340546212018
982.0, 0.0008399841095578935
983.0, 0.0014668344472822425
984.0, 0.0031314127952929882
985.0, 0.001877436854779511
986.0, 0.0029858688390168994
987.0, 0.0023835952267170996
988.0, 0.0005359663074411408
989.0, 0.00048537344332692345
990.0, 0.00318393469660938
991.0, 0.00159244072891084
992.0, 0.0004659797209765821
993.0, 0.0009516494925866976
994.0, 0.001831834163808764
995.0, 0.00039020099022210077
996.0, 0.0022537109997746024
997.0, 0.0021411876094544814
998.0, 0.00044075148723014064
999.0, 0.0014684988784278406
1000.0, 0.0016577964440011137
1001.0, 0.0009056749730899389
1002.0, 0.0022772509420813675
1003.0, 0.004573158190130516
1004.0, 0.0034339256906907043
1005.0, 0.001111246414542551
1006.0, 0.0025263721773671186
1007.0, 0.002509453651890715
1008.0, 0.0009580010409570725
1009.0, 0.0015598590611191929
1010.0, 0.002372623482225947
1011.0, 0.001536154411938742
1012.0, 0.001893356655470336
1013.0, 0.0027548149288552613
1014.0, 0.000994607937340321
1015.0, 0.0017624628621878103
1016.0, 0.0028341163540339777
1017.0, 0.0028129323394573556
1018.0, 0.0022714982152927175
1019.0, 0.0030910331018950635
1020.0, 0.0040227345079068095
1021.0, 0.0031122353633358706
1022.0, 0.002922570780042587
1023.0, 0.003100656595250119
1024.0, 0.0017836293430596069
1025.0, 0.004490733068195434
1026.0, 0.004170926609220427
1027.0, 0.003805328975934321
1028.0, 0.0037652424094843104
1029.0, 0.0032191631950848547
1030.0, 0.004773736697416217
1031.0, 0.00314355824155007
1032.0, 0.003626498949291471
1033.0, 0.004937784117643253
1034.0, 0.0035052366343864667
1035.0, 0.004928644431414886
1036.0, 0.004291268039880174
1037.0, 0.0041437937982185405
1038.0, 0.004216450854297104
1039.0, 0.003605137029107478
1040.0, 0.004812836062442341
1041.0, 0.004763116550387628
1042.0, 0.006735885852676071
1043.0, 0.007440000213072196
1044.0, 0.004102470298030439
1045.0, 0.0077642505312024365
1046.0, 0.007302883680025228
1047.0, 0.006092306550676878
1048.0, 0.007229812015308872
1049.0, 0.011688537013210208
1050.0, 0.012525598782368337
1051.0, 0.015664540720935767
1052.0, 0.01663077289490282
1053.0, 0.015219056349063242
1054.0, 0.0129609551217156
1055.0, 0.014186195089177718
1056.0, 0.014407294640618944
1057.0, 0.015289858339013217
1058.0, 0.017408959346814773
1059.0, 0.019600436461998345
1060.0, 0.017567543423561007
1061.0, 0.02402639115905677
1062.0, 0.029071309937852757
1063.0, 0.032971004863271494
1064.0, 0.039347632269769256
1065.0, 0.05536497197637476
1066.0, 0.06814234044887496
1067.0, 0.10167185435392995
1068.0, 0.16475956875844563
1069.0, 0.27997693371517485
1070.0, 0.4812505359263338
1071.0, 0.813289491878829
1072.0, 0.9575561394983801
1073.0, 0.8697892395260901
1074.0, 0.6260159522555729
1075.0, 0.3716411534596811
1076.0, 0.21286641013831065
1077.0, 0.13313768234851167
1078.0, 0.08631272694605799
1079.0, 0.05760341751003051
1080.0, 0.04162814628373192
1081.0, 0.034591576548556324
1082.0, 0.025902101799718198
1083.0, 0.0210959643197919
1084.0, 0.019273489219626926
1085.0, 0.017799951047782155
1086.0, 0.012946847601039639
1087.0, 0.013162010321118911
1088.0, 0.013117917998007815
1089.0, 0.012361818082990892
1090.0, 0.011163650578257533
1091.0, 0.010205372894109194
1092.0, 0.007104464886471712
1093.0, 0.008494666034712328
1094.0, 0.01009697296949233
1095.0, 0.009371653976260387
1096.0, 0.006119687472082877
1097.0, 0.008602917016341588
1098.0, 0.0068344490051467305
1099.0, 0.0055019542956796195
1100.0, 0.005894562940997988
1101.0, 0.006940818048488624
1102.0, 0.0031477007068025876
1103.0, 0.00393852616009025
1104.0, 0.005483389118160622
1105.0, 0.005322490240389535
1106.0, 0.0033466537580562356
1107.0, 0.006156723777567438
1108.0, 0.006360639493290867
1109.0, 0.00419574342233962
1110.0, 0.003730552539194904
1111.0, 0.005061788205014985
1112.0, 0.0011197576944242216
1113.0, 0.003192083715518281
1114.0, 0.00390502195646515
1115.0, 0.002383171236718978
1116.0, 0.0009616352530789015
1117.0, 0.003697767128389735
1118.0, 0.0024059153469117318
1119.0, 0.0037036122158302545
1120.0, 0.005012508632912921
1121.0, 0.004428032693707259
1122.0, 0.001722660085370655
1123.0, 0.003434890081273446
1124.0, 0.0031817944259280783
1125.0, 0.0030980389967840325
1126.0, 0.0036369141172468197
1127.0, 0.003886329010181911
1128.0, 0.0006952527403784583
1129.0, 0.00223789086971092
1130.0, 0.002769203420528487
1131.0, 0.002015750129777928
1132.0, 0.0011480233037342781
1133.0, 0.0021575071150710585
1134.0, 0.0015882987951915074
1135.0, 0.001073207081699507
1136.0, 0.0023207431221395386
1137.0, 0.0030995347865015264
1138.0, 0.0014350507419863042
1139.0, 0.004901876080528867
1140.0, 0.0015964923826052302
1141.0, 0.0018721339329544544
1142.0, 0.0033339923529681955
1143.0, 0.003049433079079328
1144.0, 0.0011404002709297606
1145.0, 0.003999888428216575
1146.0, 0.003681548105904331
1147.0, 0.0033241635955367685
1148.0, 0.0038876131938679224
1149.0, 0.004164114449490235
1150.0, 0.002088109390230755
1151.0, 0.000945617023832402
1152.0, 0.00258071408437407
1153.0, 0.004302417866132724
1154.0, 0.003390219707801542
1155.0, 0.0019452062421229713
1156.0, 0.003002395113409795
1157.0, 0.0034703584293355886
1158.0, 0.004428408467690561
1159.0, 0.005625101138472235
1160.0, 0.004774446487669489
1161.0, 0.0022282361771910177
1162.0, 0.005522922706124298
1163.0, 0.004948147473902014
1164.0, 0.002047794786814265
1165.0, 0.002757038128579651
1166.0, 0.0065795450450228336
1167.0, 0.002573642319585165
1168.0, 0.0023032532556905238
1169.0, 0.00390330771752967
1170.0, 0.004048659679604977
1171.0, 0.0009206299511391699
1172.0, 0.0061778697123749705
1173.0, 0.003225650004791283
1174.0, 0.0012025144665702722
1175.0, 0.0027943488213845132
1176.0, 0.00542328209163104
1177.0, 0.0016010201613870822
1178.0, 0.0034526583870755634
1179.0, 0.004510823516741042
1180.0, 0.0033292269369038664
1181.0, 0.0017339129855605208
1182.0, 0.005657921228824626
1183.0, 0.002613779894737072
1184.0, 0.0019530825445331845
1185.0, 0.00388010693814184
1186.0, 0.005539598392347281
1187.0, 0.003389044252395139
1188.0, 0.0020831985062317163
1189.0, 0.004003008965489797
1190.0, 0.002276396896055077
1191.0, 0.002517422965095271
1192.0, 0.005903814610306809
1193.0, 0.00039857631251412427
1194.0, 0.0024781990336465165
1195.0, 0.005143870263454018
1196.0, 0.004059599421642397
1197.0, 0.0015044143398832731
1198.0, 0.0028425795237452724
1199.0, 0.006347475795893395
1200.0, 0.0025053638398818967
1201.0, 0.003722387423449664
1202.0, 0.004939759406061258
1203.0, 0.003334439570918693
1204.0, 0.004867394361879558
1205.0, 0.005934451159216559
1206.0, 0.0032565009778008245
1207.0, 0.0032629704623715343
1208.0, 0.005073191368635318
1209.0, 0.004695226900438316
1210.0, 0.002032493760166107
1211.0, 0.005664471551441161
1212.0, 0.003840848901543385
1213.0, 0.0021525491186321095
1214.0, 0.00402877236665383
1215.0, 0.00698280313465555
1216.0, 0.0023455387551605425
1217.0, 0.004355139993688778
1218.0, 0.00654867304249861
1219.0, 0.005896159104103849
1220.0, 0.0030532520242499616
1221.0, 0.005062175439116595
1222.0, 0.004355170855108943
1223.0, 0.0032837153843555903
1224.0, 0.004444030340483953
1225.0, 0.005785002772711517
1226.0, 0.003097439572327404
1227.0, 0.004152383123045714
1228.0, 0.004239920890047065
1229.0, 0.004090648286410868
1230.0, 0.004728374399600412
1231.0, 0.005260798268583883
1232.0, 0.0019451945276859315
1233.0, 0.004278966273235695
1234.0, 0.00647951270000565
1235.0, 0.0053128477778799825
1236.0, 0.0038145949790695673
1237.0, 0.005311185952780018
1238.0, 0.00397641946656505
1239.0, 0.0036960944712463436
1240.0, 0.005556961595994121
1241.0, 0.0059178761721420505
1242.0, 0.004436605467457063
1243.0, 0.003967255530922639
1244.0, 0.005974823082669992
1245.0, 0.0032593947721539203
1246.0, 0.0037344265177852503
1247.0, 0.00529538247224246
1248.0, 0.005077480822414718
1249.0, 0.0028746621524368596
1250.0, 0.005041603282976923
1251.0, 0.006047450249466812
1252.0, 0.0035430401456366333
1253.0, 0.0029048734000399544
1254.0, 0.007082526370077562
1255.0, 0.003349254304047365
1256.0, 0.0037525852917619515
1257.0, 0.00480216763594177
1258.0, 0.005234698123467573
1259.0, 0.00526604039906898
1260.0, 0.005724068484204358
1261.0, 0.0053364943039959116
1262.0, 0.004796778021739287
1263.0, 0.006468969624041356
1264.0, 0.005233321100766375
1265.0, 0.0021850362149281933
1266.0, 0.005085325659924578
1267.0, 0.007090269574241764
1268.0, 0.0032145337397647463
1269.0, 0.003097601638809572
1270.0, 0.004814113413958633
1271.0, 0.0045566642099995665
1272.0, 0.0011345766300505352
1273.0, 0.006334466125412831
1274.0, 0.003239549192593453
1275.0, 0.002726971421015621
1276.0, 0.004956828617797211
1277.0, 0.0059098603870900174
1278.0, 0.0029470741177717516
1279.0, 0.005144889897127083
1280.0, 0.0041413007555977065
1281.0, 0.002926896112688499
1282.0, 0.003021684699090482
1283.0, 0.0036744312387010473
1284.0, 0.0002258504717851256
1285.0, 0.0003927540712871596
1286.0, 0.0036002019880487586
1287.0, 0.003961385882758053
1288.0, 0.001856562452719904
1289.0, 0.0020397233283259357
1290.0, 0.003070537985007645
1291.0, 0.0008073430945297352
1292.0, 0.0007513170306022903
1293.0, 0.0027914345226884747
1294.0, 0.0040225412591488995
1295.0, 0.0010361071085700938
1296.0, 0.0014239274531224165
1297.0, 0.0008214866233535759
1298.0, 0.0019224425036438297
1299.0, 0.003389804670254687
1300.0, 0.003242992621839992
1301.0, 0.0005071852766516896
1302.0, 0.001697626818467659
1303.0, 0.003161957939434623
1304.0, 0.002687273101836558
1305.0, 0.0021521734723409167
1306.0, 0.0023288232241661148
1307.0, 0.0008982016124662376
1308.0, 0.0005716056750864873
1309.0, 0.003924512873226479
1310.0, 0.0045584278138811295
1311.0, 0.0042815716635968655
1312.0, 0.0048256864701749
1313.0, 0.003291133831914766
1314.0, 0.0025482951935280225
1315.0, 0.005235394745359489
1316.0, 0.0033577312906517675
1317.0, 0.0005163630822666943
1318.0, 0.0017914323191266929
1319.0, 0.0062193383594059725
1320.0, 0.0015025016197360074
1321.0, 0.0021779398418701897
1322.0, 0.004035666463907891
1323.0, 0.0037785999877776423
1324.0, 0.001633983363412433
1325.0, 0.0036807823094057073
1326.0, 0.0022738620943235873
1327.0, 0.0008279507044819024
1328.0, 0.003927052472570366
1329.0, 0.0049949711744067945
1330.0, 0.00021958215372913133
1331.0, 0.001086551615221689
1332.0, 0.004032249051706899
1333.0, 0.0017604706974056975
1334.0, 0.0022708621803860705
1335.0, 0.0042080586905866935
1336.0, 0.0037421673289490818
1337.0, 0.0008338707991241865
1338.0, 0.004362073807825989
1339.0, 0.0032382469484340823
1340.0, 0.0017139928979389523
1341.0, 0.001796723841425101
1342.0, 0.0027169544997754508
1343.0, 0.0006704737933752471
1344.0, 0.0017185749697073117
1345.0, 0.004185472763764171
1346.0, 0.002786341171778834
1347.0, 0.002348909606743244
1348.0, 0.005255512869908834
1349.0, 0.0032355525675097276
1350.0, 0.002468707020098193
1351.0, 0.004780887063283848
1352.0, 0.003213341859434627
1353.0, 0.0009251005732830599
1354.0, 0.001974407075169521
1355.0, 0.0056788704551532345
1356.0, 0.0029703237664431186
1357.0, 0.0024470096666595097
1358.0, 0.0057988870032208515
1359.0, 0.00568607718112059
1360.0, 0.00263993861657647
1361.0, 0.008361864265967163
1362.0, 0.0032433920960078847
1363.0, 0.0016280655876392334
1364.0, 0.004352449433704959
1365.0, 0.004476295662481452
1366.0, 0.0012572708026001701
1367.0, 0.0019407576807342645
1368.0, 0.00585485179507805
1369.0, 0.002070019429208411
1370.0, 0.003444297924777893
1371.0, 0.004562616123444747
1372.0, 0.0027850198313729957
1373.0, 0.001263823251615369
1374.0, 0.004852274186305725
1375.0, 0.003183147817380531
1376.0, 0.002767698173171729
1377.0, 0.0038299882365467174
1378.0, 0.004114115751254969
1379.0, 0.002171820070769184
1380.0, 0.003452863394462575
1381.0, 0.00793762029177346
1382.0, 0.005019208904638963
1383.0, 0.005919459867465219
1384.0, 0.009019788240899993
1385.0, 0.008271859341470362
1386.0, 0.005615603140724781
1387.0, 0.010212681443912365
1388.0, 0.009914484679769095
1389.0, 0.010020489157766762
1390.0, 0.011399206220154364
1391.0, 0.01241955137162567
1392.0, 0.01099470773891289
1393.0, 0.012188567931004387
1394.0, 0.017137072782421055
1395.0, 0.017277468791827965
1396.0, 0.01838372732671103
1397.0, 0.022048755946797057
1398.0, 0.02177847988093442
1399.0, 0.01727062538653044
1400.0, 0.02105182126733803
1401.0, 0.018621367124470656
1402.0, 0.017604149942209317
1403.0, 0.019505282609377398
1404.0, 0.01883002071979612
1405.0, 0.011700112897778264
1406.0, 0.013824243229648937
1407.0, 0.013232058369721043
1408.0, 0.009773276810369267
1409.0, 0.009599586390244374
1410.0, 0.013785682238699939
1411.0, 0.008225027091943662
1412.0, 0.007585382095811639
1413.0, 0.0103573778866893
1414.0, 0.008829519402088702
1415.0, 0.00899602265176496
1416.0, 0.013141690980674402
1417.0, 0.013521846123609762
1418.0, 0.005573590917420638
1419.0, 0.010483714486299926
1420.0, 0.012849954219134931
1421.0, 0.01086508924368596
1422.0, 0.009940034756171667
1423.0, 0.014404726739930387
1424.0, 0.011185435757142526
1425.0, 0.00865536529250029
1426.0, 0.017049216789522176
1427.0, 0.017607088651183177
1428.0, 0.014200745055336956
1429.0, 0.015317714279400166
1430.0, 0.01586966398082024
1431.0, 0.012940308162213907
1432.0, 0.01587881789665545
1433.0, 0.0174043020567262
1434.0, 0.015240804056562814
1435.0, 0.013900754991703996
1436.0, 0.019280058131786012
1437.0, 0.016343397678310986
1438.0, 0.014171626523056154
1439.0, 0.01562158966331424
1440.0, 0.013567430417044207
1441.0, 0.010919695188381871
1442.0, 0.013427925958145095
1443.0, 0.01787029981082428
1444.0, 0.010664753089324932
1445.0, 0.009491644464474628
1446.0, 0.011935737006290194
1447.0, 0.01178551759025906
1448.0, 0.009200637214689616
1449.0, 0.01091414804111162
1450.0, 0.010735868460798444
1451.0, 0.007655485693698887
1452.0, 0.00985886852341329
1453.0, 0.008761492496813237
1454.0, 0.005633048201175778
1455.0, 0.00675629392024483
1456.0, 0.012055754845827542
1457.0, 0.005992241502215482
1458.0, 0.007081541588799398
1459.0, 0.008766415299138394
1460.0, 0.006916477364745495
1461.0, 0.0051465187060138855
1462.0, 0.01007831259017728
1463.0, 0.004489240931522321
1464.0, 0.004901524392313598
1465.0, 0.008558126035605462
1466.0, 0.008366845712952894
1467.0, 0.005588474862024628
1468.0, 0.0056130760325318815
1469.0, 0.010520253497084936
1470.0, 0.004924638582245998
1471.0, 0.005987501212325054
1472.0, 0.008212547315698778
1473.0, 0.006998704255913634
1474.0, 0.004818522563986456
1475.0, 0.0076661826695636716
1476.0, 0.010933645913395943
1477.0, 0.003189693383520513
1478.0, 0.005835824066674445
1479.0, 0.006887619591094549
1480.0, 0.005022907142133198
1481.0, 0.005129909893354143
1482.0, 0.010229614684313763
1483.0, 0.0015262628859926339
1484.0, 0.0031202878181089285
1485.0, 0.007311662233099478
1486.0, 0.005320620567222309
1487.0, 0.003723854568831387
1488.0, 0.009311682647060528
1489.0, 0.005913141859505815
1490.0, 0.004273986499452554
1491.0, 0.006271678724652617
1492.0, 0.006796779684240894
1493.0, 0.005900771419921777
1494.0, 0.006412734254539333
1495.0, 0.008801930052834651
1496.0, 0.0004313145820290269
1497.0, 0.005371513690807209
1498.0, 0.008157662481290195
1499.0, 0.005458731262021721
1500.0, 0.004630663836267851
1501.0, 0.008044071241649178
1502.0, 0.006849786831116103
1503.0, 0.000713417607549372
1504.0, 0.006848885973128181
1505.0, 0.006236879127522373
1506.0, 0.0045832704707875205
1507.0, 0.005986053185585265
1508.0, 0.007952204205921095
1509.0, 0.0027944891905192916
1510.0, 0.005304463594853554
1511.0, 0.010869407870421979
1512.0, 0.00495485584489491
1513.0, 0.0030696187390513267
1514.0, 0.0075384380437715755
1515.0, 0.008690553076531198
1516.0, 0.0030188509144648827
1517.0, 0.009449439280968459
1518.0, 0.0062767315903018645
1519.0, 0.001983638064205142
1520.0, 2.4825473640425014e-06
1521, 0.0
1522, 0.0
1523, 0.0
1524, 0.0
1525, 0.0
1526, 0.0
1527, 0.0
1528, 0.0
1529, 0.0
1530, 0.0
1531, 0.0
1532, 0.0
1533, 0.0
1534, 0.0
1535, 0.0
1536, 0.0
1537, 0.0
1538, 0.0
1539, 0.0
1540, 0.0
1541, 0.0
1542, 0.0
1543, 0.0
1544, 0.0
1545, 0.0
1546, 0.0
1547, 0.0
1548, 0.0
1549, 0.0
1550, 0.0
1551, 0.0
1552, 0.0
1553, 0.0
1554, 0.0
1555, 0.0
1556, 0.0
1557, 0.0
1558, 0.0
1559, 0.0
1560, 0.0
1561, 0.0
1562, 0.0
1563, 0.0
1564, 0.0
1565, 0.0
1566, 0.0
1567, 0.0
1568, 0.0
1569, 0.0
1570, 0.0
1571, 0.0
1572, 0.0
1573, 0.0
1574, 0.0
1575, 0.0
1576, 0.0
1577, 0.0
1578, 0.0
1579, 0.0
1580, 0.0
1581, 0.0
1582, 0.0
1583, 0.0
1584, 0.0
1585, 0.0
1586, 0.0
1587, 0.0
1588, 0.0
1589, 0.0
1590, 0.0
1591, 0.0
1592, 0.0
1593, 0.0
1594, 0.0
1595, 0.0
1596, 0.0
1597, 0.0
1598, 0.0
1599, 0.0
