30, 0.0
31, 0.0
32, 0.0
33, 0.0
34, 0.0
35, 0.0
36, 0.0
37, 0.0
38, 0.0
39, 0.0
40, 0.0
41, 0.0
42, 0.0
43, 0.0
44, 0.0
45, 0.0
46, 0.0
47, 0.0
48, 0.0
49, 0.0
50, 0.0
51, 0.0
52, 0.0
53, 0.0
54, 0.0
55, 0.0
56, 0.0
57, 0.0
58, 0.0
59, 0.0
60, 0.0
61, 0.0
62, 0.0
63, 0.0
64, 0.0
65, 0.0
66, 0.0
67, 0.0
68, 0.0
69, 0.0
70, 0.0
71, 0.0
72, 0.0
73, 0.0
74, 0.0
75, 0.0
76, 0.0
77, 0.0
78, 0.0
79, 0.0
80, 0.0
81, 0.0
82, 0.0
83, 0.0
84, 0.0
85, 0.0
86, 0.0
87, 0.0
88, 0.0
89, 0.0
90, 0.0
91, 0.0
92.0, 0.010290628367629742
93.0, 0.023121669135460772
94.0, 0.03609765079021576
95.0, 0.03982946747876663
96.0, 0.04101987683638802
97.0, 0.038596227411668
98.0, 0.03089297682991348
99.0, 0.027611056483311004
100.0, 0.026339995123748194
101.0, 0.026156022471944287
102.0, 0.024003985932766245
103.0, 0.024006823800780366
104.0, 0.02214610771525758
105.0, 0.015827238203597306
106.0, 0.010956662045046578
107.0, 0.007501201094823224
108.0, 0.005640954248095081
109.0, 0.0064175525600766925
110.0, 0.013248839942261479
111.0, 0.02173825390312196
112.0, 0.03032999396166791
113.0, 0.04600044817572323
114.0, 0.0563971440455949
115.0, 0.06294186312071477
116.0, 0.06768377903586029
117.0, 0.06114853579025915
118.0, 0.05341620979638371
119.0, 0.04703536549283109
120.0, 0.03782276273954923
121.0, 0.028935823556705664
122.0, 0.02162037848022555
123.0, 0.018244046654828396
124.0, 0.014807123783766604
125.0, 0.011538421634823201
126.0, 0.008613814320487226
127.0, 0.007235211023476097
128.0, 0.005143254945851161
129.0, 0.0032774229584959036
130.0, 0.002595378810713493
131.0, 0.0019507508614785563
132.0, 0.0012463384189342977
133.0, 0.0006580258433936348
134.0, 0.0011076368638032455
135.0, 0.0012121115883151129
136.0, 0.0016522843336262843
137.0, 0.0028778813741614636
138.0, 0.0028734985243566305
139.0, 0.0027589871531228916
140.0, 0.0024439651911612754
141.0, 0.0015444304689575935
142.0, 0.0007591487267635908
143.0, 0.0003260772823371534
144.0, 0.0003881049077548924
145.0, 0.0018152837273876386
146.0, 0.0030796989082405384
147.0, 0.004598974120061567
148.0, 0.007090203784003467
149.0, 0.010177955395099605
150.0, 0.012741117971025385
151.0, 0.01496628874170737
152.0, 0.019848528227054088
153.0, 0.025021171441736014
154.0, 0.03141694373846188
155.0, 0.04006217202647007
156.0, 0.04940061500778002
157.0, 0.06027466297492787
158.0, 0.07291630097931538
159.0, 0.08837155563011467
160.0, 0.10307556896620902
161.0, 0.11852779721199415
162.0, 0.13523672692187302
163.0, 0.14444545196277817
164.0, 0.15242557406098461
165.0, 0.15617086354949333
166.0, 0.14938650284399602
167.0, 0.13615662617958726
168.0, 0.12029255818995568
169.0, 0.10262200232215982
170.0, 0.08454439906946042
171.0, 0.071812655984036
172.0, 0.06039683969759875
173.0, 0.047397608501643165
174.0, 0.04302352173707255
175.0, 0.03859598490678515
176.0, 0.034672102480869514
177.0, 0.03457743541330738
178.0, 0.03372734327399132
179.0, 0.03245470696881342
180.0, 0.030807434511298512
181.0, 0.02804047097987187
182.0, 0.02433274924195712
183.0, 0.020795671358642773
184.0, 0.018951979221981267
185.0, 0.015479254001138035
186.0, 0.01322779765857873
187.0, 0.012547608350663705
188.0, 0.013489149838815072
189.0, 0.013034172433591213
190.0, 0.013439438851314383
191.0, 0.01602036116598273
192.0, 0.01632079389445873
193.0, 0.01633428260626911
194.0, 0.015892098770450124
195.0, 0.01454763996117943
196.0, 0.011669695184206965
197.0, 0.009233696144064945
198.0, 0.007493683032830302
199.0, 0.005259862828327286
200.0, 0.004262559672456009
201.0, 0.0038150480901281373
202.0, 0.003512561918282262
203.0, 0.003331536576389487
204.0, 0.0037845320157579615
205.0, 0.004858299872735548
206.0, 0.0066101601877944045
207.0, 0.009690794734358264
208.0, 0.010927291993452224
209.0, 0.009909799462964186
210.0, 0.01178381421504255
211.0, 0.011914585726753557
212.0, 0.011733439655494074
213.0, 0.012426080748856502
214.0, 0.01144051587041228
215.0, 0.009630064639661632
216.0, 0.007865843492446905
217.0, 0.008484564198241399
218.0, 0.009491200967408863
219.0, 0.01034311416695581
220.0, 0.010936154498467715
221.0, 0.011959156820195447
222.0, 0.014806285573410821
223.0, 0.01903799757942652
224.0, 0.024511855484776558
225.0, 0.029078441777255052
226.0, 0.035248202371011284
227.0, 0.04246038110621426
228.0, 0.04896270233477451
229.0, 0.057444306270424066
230.0, 0.06411657404452298
231.0, 0.06816913792974004
232.0, 0.0728369926422308
233.0, 0.07273664874573045
234.0, 0.06958160131113258
235.0, 0.06426647834776689
236.0, 0.05680813191554341
237.0, 0.049286200833337845
238.0, 0.04196118979299879
239.0, 0.03529002677707781
240.0, 0.029497912132944396
241.0, 0.024288007889582058
242.0, 0.019950237065233273
243.0, 0.019165924601566738
244.0, 0.016487860824930763
245.0, 0.013720486417475926
246.0, 0.012033234903008306
247.0, 0.011781830450295992
248.0, 0.011034301002316796
249.0, 0.010582925008961883
250.0, 0.011985327462899554
251.0, 0.011491503476282125
252.0, 0.012755106592774273
253.0, 0.015361259990529678
254.0, 0.01415974419813516
255.0, 0.014387428681201289
256.0, 0.01401514763052434
257.0, 0.012141854937503666
258.0, 0.011609943170780497
259.0, 0.011012473634179006
260.0, 0.00984272076909244
261.0, 0.007372832945675896
262.0, 0.0071641332618360845
263.0, 0.005840057819417255
264.0, 0.003866906498111217
265.0, 0.003540789610082652
266.0, 0.004372406212629244
267.0, 0.004135443603030481
268.0, 0.0026543048187021535
269.0, 0.00483459486165552
270.0, 0.004354021410520513
271.0, 0.004368341700507618
272.0, 0.007195762942728229
273.0, 0.0058809490857992955
274.0, 0.005633927935169554
275.0, 0.006529628390438344
276.0, 0.008760540544121564
277.0, 0.01007786329836992
278.0, 0.011426991394437098
279.0, 0.012856175604940847
280.0, 0.013984304675707859
281.0, 0.015085213724403943
282.0, 0.015811121717076743
283.0, 0.016088383229771422
284.0, 0.017088302407887248
285.0, 0.017204593650989274
286.0, 0.016921544712877483
287.0, 0.016611558976917937
288.0, 0.01532860825490779
289.0, 0.013736949981787249
290.0, 0.012223632265933981
291.0, 0.011532541073898166
292.0, 0.010110943745671232
293.0, 0.008797123823530156
294.0, 0.007621659806746614
295.0, 0.0060992790429134245
296.0, 0.005894975784970895
297.0, 0.005945198241866359
298.0, 0.005765390032417915
299.0, 0.004178253290981747
300.0, 0.002794216664751411
301.0, 0.0020854751182821495
302.0, 0.002528872443669925
303.0, 0.0012854016587187734
304.0, 0.0009978619911488607
305.0, 0.0010502604483003
306.0, 0.00027045703471939716
307.0, 0.0004378812779316189
308.0, 0.0006449129047127537
309.0, 0.0007568681612016105
310.0, 0.0007230202550475589
311.0, 0.0007958670838184816
312.0, 0.0008811616034299855
313.0, 0.00088716942585543
314.0, 0.0002521675751742934
315.0, 0.0005501912344199059
316.0, 0.0007295760762574956
317.0, 0.0001408356495856412
318.0, 0.0007975699046422273
319.0, 0.0006779592260902967
320.0, 0.0003322107700530508
321.0, 0.00043409255343693253
322.0, 0.0008783994638232851
323.0, 0.0006610432817585022
324.0, 0.0002562827144041597
325.0, 0.0009752840924217214
326.0, 0.000670025347012312
327.0, 0.00032375972215349365
328.0, 0.00023010650420181587
329.0, 0.0009015063444696238
330.0, 0.0009142140847832659
331.0, 0.001049676123364786
332.0, 0.001510605959723205
333.0, 0.0010887970155895386
334.0, 0.0010314236767140833
335.0, 0.0010522048643283885
336.0, 0.0009638878397691676
337.0, 0.0023034879268915764
338.0, 0.0019297663902601023
339.0, 0.0015185090315494897
340.0, 0.0032525826623665825
341.0, 0.0022814107009012435
342.0, 0.0018576907030727608
343.0, 0.001875241503752587
344.0, 0.0016116798791567777
345.0, 0.0008006879173001775
346.0, 0.0005287430400287737
347.0, 0.0008267529338012879
348.0, 0.0010800137658536955
349.0, 0.0007803756984147226
350.0, 0.000889349085400585
351.0, 0.0015191584722150917
352.0, 0.0010044488157758835
353.0, 0.0006743141297094194
354.0, 0.0004390935099852848
355.0, 0.00031120920175062533
356.0, 0.0015633656211027492
357.0, 0.0013836860490407873
358.0, 0.000792033811576691
359.0, 0.0006775491440384513
360.0, 0.0009554158260795139
361.0, 0.0010771993179260184
362.0, 0.00109372235176983
363.0, 0.0010859134375318408
364.0, 0.0008627508489451176
365.0, 0.0009084257161980429
366.0, 0.0010061963670025377
367.0, 0.0005457916633307971
368.0, 0.0009227657630898654
369.0, 0.0010439693377878034
370.0, 0.0007687329886118043
371.0, 0.00025778112008427326
372.0, 7.233169697182496e-05
373.0, 4.304615865289635e-05
374.0, 0.00015262794283264506
375.0, 0.0005842954080750023
376.0, 0.0005911128809924554
377.0, 0.0008376479849838063
378.0, 0.0014907876905630754
379.0, 0.0007786929482613519
380.0, 0.0006717692787964319
381.0, 0.0010172727253581451
382.0, 0.0016996719643983936
383.0, 0.0010588621071797445
384.0, 0.0005635817818766719
385.0, 0.0005624829356519356
386.0, 0.0014375671860354436
387.0, 0.0006225096423309886
388.0, 0.0005203218185324374
389.0, 0.0008318378988203668
390.0, 0.0010712143266573748
391.0, 0.0011547132030095952
392.0, 0.0017137855517564892
393.0, 0.002037084336681951
394.0, 0.0005296501486979551
395.0, 0.0014238023111357153
396.0, 0.0019614792783296826
397.0, 0.0017804920020403243
398.0, 0.000867578952462097
399.0, 0.0012309080762339898
400.0, 0.0010436385755410748
401.0, 0.00029470863967146594
402.0, 0.0004919483772785285
403.0, 0.00029519570313273964
404.0, 0.0006045514221918843
405.0, 0.0014877589189058048
406.0, 0.0017164271119689749
407.0, 0.0015679524883439552
408.0, 0.0017705310037775938
409.0, 0.0023342971877438057
410.0, 0.0006307414222991661
411.0, 0.0014163118317780771
412.0, 0.0018905127891649795
413.0, 0.0007451045359335154
414.0, 0.0008037537203554273
415.0, 0.0014105002552678653
416.0, 0.0020853152897036785
417.0, 0.0024811126539306086
418.0, 0.001971780591046849
419.0, 0.00090324979010438
420.0, 0.00034578652181290945
421.0, 0.0012471995526421446
422.0, 0.0005859628894936998
423.0, 0.0002559250401050821
424.0, 0.0006761984593918638
425.0, 0.0023438242564610356
426.0, 0.0008008407870185692
427.0, 0.0011639581700985573
428.0, 0.0022476347198227527
429.0, 0.002283163162526137
430.0, 0.0025878340202850356
431.0, 0.003038298978521032
432.0, 0.003074918161095419
433.0, 0.0017577136578825281
434.0, 0.0032583148345457697
435.0, 0.0028178969575763805
436.0, 0.00132774499779571
437.0, 0.0012429973386497452
438.0, 0.0026581475700088435
439.0, 0.0027079359934799553
440.0, 0.0021556320376007526
441.0, 0.0034721646063241695
442.0, 0.003689286002912972
443.0, 0.003162470845719851
444.0, 0.0023895194922866044
445.0, 0.002552246850746575
446.0, 0.0019414662617237217
447.0, 0.001994189273173757
448.0, 0.002402931844273198
449.0, 0.001494139501906141
450.0, 0.0029658019990495095
451.0, 0.0028744874842290356
452.0, 0.0015704011418192535
453.0, 0.0029166047574661225
454.0, 0.0030474150438317615
455.0, 0.001918157696770683
456.0, 0.000490910192318988
457.0, 0.0024885968230853187
458.0, 0.002057612670860459
459.0, 0.0020350784780089003
460.0, 0.0030225111315874964
461.0, 0.00458386464382729
462.0, 0.00276036658928468
463.0, 0.00269720944034377
464.0, 0.004497236686795029
465.0, 0.002362199030880329
466.0, 0.003405719671619266
467.0, 0.0036383627286291774
468.0, 0.002519069112625978
469.0, 0.002942214913339677
470.0, 0.003705630246031803
471.0, 0.003796212191618806
472.0, 0.0034869490891032747
473.0, 0.005633916295356689
474.0, 0.004559058764237241
475.0, 0.0038540146692428784
476.0, 0.004328321054174618
477.0, 0.004474550826247226
478.0, 0.003944855455777548
479.0, 0.004366281722243764
480.0, 0.005497696832757609
481.0, 0.0035563873688095595
482.0, 0.003933081546693388
483.0, 0.005047183074371683
484.0, 0.006040551978735824
485.0, 0.0050698486322699795
486.0, 0.00403974332919546
487.0, 0.0040518313860454895
488.0, 0.005031848463613263
489.0, 0.005033259052335745
490.0, 0.004768872165236029
491.0, 0.004240878714728575
492.0, 0.003849863250608209
493.0, 0.0053822077176225855
494.0, 0.004691998576431116
495.0, 0.005118327530815187
496.0, 0.00645760320606726
497.0, 0.004081731527790678
498.0, 0.003718895766803491
499.0, 0.00489355446950196
500.0, 0.0063740978342984814
501.0, 0.003925880775367993
502.0, 0.00692318317386882
503.0, 0.010875533583704789
504.0, 0.014090363340221582
505.0, 0.014283360171110445
506.0, 0.018206121153632904
507.0, 0.01887826817251692
508.0, 0.015665575198478644
509.0, 0.010891095823498835
510.0, 0.008900403284737355
511.0, 0.008537642322578568
512.0, 0.00879702789765499
513.0, 0.007567416221200152
514.0, 0.007179602678674473
515.0, 0.0074701027726898975
516.0, 0.0077664338180426454
517.0, 0.006573568682817404
518.0, 0.008645128587101899
519.0, 0.009150352820179241
520.0, 0.008259448106904143
521.0, 0.007413529940341872
522.0, 0.009512552169798556
523.0, 0.009679238992715864
524.0, 0.008604694833443638
525.0, 0.00814622021713154
526.0, 0.00837264762024282
527.0, 0.008900886897214827
528.0, 0.009171901150074633
529.0, 0.008438048108412971
530.0, 0.0075682264186563075
531.0, 0.00757353846735346
532.0, 0.008229229567876114
533.0, 0.009235464630361102
534.0, 0.00770173439013268
535.0, 0.007616447960154699
536.0, 0.007240388066263201
537.0, 0.0050703805142701
538.0, 0.008164314800755917
539.0, 0.007936786241961645
540.0, 0.007236777406297013
541.0, 0.008024443735883874
542.0, 0.006579338314042711
543.0, 0.006564798058708041
544.0, 0.007603819376747894
545.0, 0.009184654233631507
546.0, 0.008326456989877103
547.0, 0.007797317049836423
548.0, 0.007272977239547187
549.0, 0.006706612835910806
550.0, 0.006789130447014114
551.0, 0.00869895970510649
552.0, 0.009094605296001477
553.0, 0.00772578436427024
554.0, 0.008891573933635502
555.0, 0.009627760166542992
556.0, 0.009732754986001126
557.0, 0.009934757695886785
558.0, 0.012818946780262958
559.0, 0.009568329179790953
560.0, 0.009503383528882064
561.0, 0.01176603800783208
562.0, 0.010339931435451631
563.0, 0.01048819345825417
564.0, 0.01174932770714048
565.0, 0.012383068474741542
566.0, 0.009482312162069283
567.0, 0.012290418298104061
568.0, 0.012985532462076984
569.0, 0.012487083786563187
570.0, 0.012492832626922584
571.0, 0.014582429147892439
572.0, 0.012659966848134923
573.0, 0.011960154592788552
574.0, 0.016758618015310155
575.0, 0.0153464337163874
576.0, 0.014892541067398122
577.0, 0.015531764206254777
578.0, 0.016864572295009487
579.0, 0.014126981481863301
580.0, 0.01604585025999864
581.0, 0.015976308936919804
582.0, 0.01271810560679517
583.0, 0.015731964513765146
584.0, 0.015157156125118958
585.0, 0.014247466779645324
586.0, 0.01411903853579638
587.0, 0.015374734755292292
588.0, 0.013896626211143362
589.0, 0.013343224104482635
590.0, 0.013636726105472638
591.0, 0.01317793737200905
592.0, 0.011580026018094164
593.0, 0.011587227140335743
594.0, 0.011975215663280869
595.0, 0.0106154375795817
596.0, 0.010652014951698931
597.0, 0.010312936934782446
598.0, 0.009401533383750145
599.0, 0.00791430266020998
600.0, 0.009343942151714748
601.0, 0.00949674197086031
602.0, 0.008985488995535518
603.0, 0.008374282209076796
604.0, 0.009186494468452459
605.0, 0.007784611509124327
606.0, 0.007380049701976269
607.0, 0.008272918112292433
608.0, 0.006210828783346906
609.0, 0.0068164724246725155
610.0, 0.007190856118597182
611.0, 0.006826482881341703
612.0, 0.0061401529823531574
613.0, 0.007352785852698272
614.0, 0.006340078868475773
615.0, 0.00519410586285129
616.0, 0.00792437250165549
617.0, 0.007639525209417698
618.0, 0.005424140488365919
619.0, 0.004278946224825654
620.0, 0.006759385237783502
621.0, 0.005715879694749002
622.0, 0.006398038156305888
623.0, 0.007100612950484332
624.0, 0.006837267694197249
625.0, 0.0057758507509165094
626.0, 0.00690301151441286
627.0, 0.00756847069324859
628.0, 0.0072484310753123124
629.0, 0.007296035445079967
630.0, 0.007177641587633509
631.0, 0.006682260630379776
632.0, 0.006351885144653338
633.0, 0.007339116998228357
634.0, 0.0044758464650733526
635.0, 0.004847879945536475
636.0, 0.005788511069655101
637.0, 0.0038098423670191997
638.0, 0.004251334914459807
639.0, 0.006260908845943633
640.0, 0.006621953114778062
641.0, 0.004183672219424789
642.0, 0.007381119156732788
643.0, 0.0068169782969814555
644.0, 0.006145080029378736
645.0, 0.006633726028077333
646.0, 0.007993872751565757
647.0, 0.006297854289201758
648.0, 0.006899647889171116
649.0, 0.00853650171950649
650.0, 0.006924231212205766
651.0, 0.007671063253003974
652.0, 0.008211087073139486
653.0, 0.007913546404718046
654.0, 0.006426085944589152
655.0, 0.007639677729333733
656.0, 0.006732040928185863
657.0, 0.006068727985496416
658.0, 0.006909344614798108
659.0, 0.008419452782386648
660.0, 0.007217512688397623
661.0, 0.007355407060617537
662.0, 0.008268326077913855
663.0, 0.004911870700741496
664.0, 0.007101763230125948
665.0, 0.00765759323430306
666.0, 0.006796052538689322
667.0, 0.0061405219178913666
668.0, 0.007866236451947395
669.0, 0.007215062137834057
670.0, 0.006444098098873925
671.0, 0.007184290357509269
672.0, 0.007609933415101379
673.0, 0.006439873637270393
674.0, 0.006965142353150925
675.0, 0.008850406495814322
676.0, 0.006147362719821627
677.0, 0.005821387746648474
678.0, 0.00574629705435069
679.0, 0.0053014773273049026
680.0, 0.004043995520576132
681.0, 0.00640480080573346
682.0, 0.006311998714774474
683.0, 0.005692629757712024
684.0, 0.006358659166489532
685.0, 0.007233640065587539
686.0, 0.0058227899135812715
687.0, 0.005396353270668863
688.0, 0.006336244183763483
689.0, 0.004613502407638401
690.0, 0.005564208582245846
691.0, 0.006531032146009135
692.0, 0.0062189794572779546
693.0, 0.0032385893146308414
694.0, 0.006070788888588755
695.0, 0.005344777634747781
696.0, 0.0038721246284461747
697.0, 0.004182052829777718
698.0, 0.003853685752970825
699.0, 0.0035791964499296103
700.0, 0.004481693620596924
701.0, 0.005765438460558429
702.0, 0.003007964947293932
703.0, 0.0019674137616952146
704.0, 0.0033546527529123744
705.0, 0.004955603975775332
706.0, 0.003213614841962081
707.0, 0.0039472547668431245
708.0, 0.0030557655032148723
709.0, 0.001625445112918043
710.0, 0.000918427775510257
711.0, 0.004094014704070972
712.0, 0.002343470485302435
713.0, 0.0017417458992467886
714.0, 0.0027129636474903305
715.0, 0.0010720056353583252
716.0, 0.0035787975146361296
717.0, 0.005561455790053562
718.0, 0.004979302185541651
719.0, 0.0005309597010295835
720.0, 0.0055057030998780475
721.0, 0.004109356002560932
722.0, 0.0025589950327088522
723.0, 0.003468141732656502
724.0, 0.0030362890141788306
725.0, 0.0010290679672419088
726.0, 0.0018104414085613404
727.0, 0.003609114036888605
728.0, 0.0015335694891964668
729.0, 0.0007030055781027473
730.0, 0.001772815583285397
731.0, 0.0020963804172983358
732.0, 0.0003115321629526052
733.0, 0.0034431948199522473
734.0, 0.001621752419786779
735.0, 0.0014019600863841985
736.0, 0.00322846421129784
737.0, 0.0024161095791115812
738.0, 0.001627820926412732
739.0, 0.002717640028101346
740.0, 0.0031276920239047363
741.0, 0.000218793127920136
742.0, 0.00045035554118054335
743.0, 0.0022059260956930737
744.0, 0.0022484568254126486
745.0, 0.000667606340413501
746.0, 0.003423051786943402
747.0, 0.0036081780701923286
748.0, 0.0020247094746710225
749.0, 0.0013090126353514444
750.0, 0.004790378770488634
751.0, 0.002190170283216562
752.0, 0.0017184522063889763
753.0, 0.00209622158906712
754.0, 0.002237792055797104
755.0, 0.0007289387807270595
756.0, 0.003073141476919749
757.0, 0.0031084685404080634
758.0, 0.0018136726289395507
759.0, 0.003023136068875054
760.0, 0.0008280613716625801
761.0, 0.0004354978023549554
762.0, 0.0013625732451871787
763.0, 0.0026840247512399085
764.0, 0.001415554134294895
765.0, 0.0022505557039023604
766.0, 0.001848372436975263
767.0, 0.0009683061502791509
768.0, 0.002637174466383834
769.0, 0.0037823859937935298
770.0, 0.0024470729627046935
771.0, 0.0017645298347913174
772.0, 0.0033127718408808653
773.0, 0.0011232718086534779
774.0, 0.0009381474627415508
775.0, 0.002635290603722789
776.0, 0.0041728951706478685
777.0, 0.001559850546106378
778.0, 0.001779935234946639
779.0, 0.0016080669819626527
780.0, 0.0010825757437141926
781.0, 0.0006125824331021686
782.0, 0.002110762207254529
783.0, 0.0011920653772106197
784.0, 0.0011391671399691317
785.0, 0.002132613520989547
786.0, 0.0027767883346942056
787.0, 0.0009488037556644086
788.0, 0.0022976438683057674
789.0, 0.003162909135992556
790.0, 0.0014804753143421053
791.0, 0.00228152162454226
792.0, 0.0036661142169660786
793.0, 0.0028543411389518737
794.0, 0.0015664688888610253
795.0, 0.004041600695862397
796.0, 0.0022320841008375983
797.0, 0.001002690520454366
798.0, 0.0018894123837138648
799.0, 0.004466093467196612
800.0, 0.0017637990690981015
801.0, 0.001463752424265418
802.0, 0.002007568670876081
803.0, 0.0020404349600919654
804.0, 0.00011958907998220166
805.0, 0.00443142656825944
806.0, 0.002726816228469548
807.0, 0.0017134758186497436
808.0, 0.00356051315073233
809.0, 0.0018482420211004126
810.0, 0.0013286211909829604
811.0, 0.0022950803704058415
812.0, 0.00295188480790772
813.0, 0.0013529429091611183
814.0, 0.003441860763246621
815.0, 0.003541381871952243
816.0, 0.002412088009717065
817.0, 0.0017982439846124685
818.0, 0.005702956499113903
819.0, 0.0037005143710400496
820.0, 0.00432671600890404
821.0, 0.004720545471912908
822.0, 0.0020657641859352163
823.0, 0.0016618826835081493
824.0, 0.003713394899817441
825.0, 0.004340790762334765
826.0, 0.003428830633457141
827.0, 0.0031297517658105257
828.0, 0.003929791744786067
829.0, 0.002463225318837699
830.0, 0.0025436909376053826
831.0, 0.005217824679097645
832.0, 0.0026765537044624995
833.0, 0.0014565259830658767
834.0, 0.0022927427376732766
835.0, 0.0031207116265573142
836.0, 0.0013348393848809708
837.0, 0.005572375410932492
838.0, 0.00344424318789718
839.0, 0.0018681907222565645
840.0, 0.0026096161557162263
841.0, 0.001773817227523327
842.0, 0.0015359501494967762
843.0, 0.002736372678380654
844.0, 0.0034504226201793383
845.0, 0.0023377074213833528
846.0, 0.002389127292034485
847.0, 0.0054315420663918305
848.0, 0.003978606895268548
849.0, 0.0010362218345025347
850.0, 0.004595054421305254
851.0, 0.003031214677065338
852.0, 0.002498335287843021
853.0, 0.004164347206313019
854.0, 0.006301058436677301
855.0, 0.0011204650954873769
856.0, 0.004669707524627716
857.0, 0.0065574738395692556
858.0, 0.005988899674415626
859.0, 0.004081373940608204
860.0, 0.006715884638813917
861.0, 0.0067583249746928
862.0, 0.006903938023206184
863.0, 0.00769780132788246
864.0, 0.008721699053292571
865.0, 0.005942222850333668
866.0, 0.00949998275912667
867.0, 0.010079779810592342
868.0, 0.0056006191740491686
869.0, 0.00630299255203991
870.0, 0.008795250401678997
871.0, 0.0076603764567547365
872.0, 0.007413255363922943
873.0, 0.01141058137647344
874.0, 0.00901457346100306
875.0, 0.008130083969944305
876.0, 0.0076671950359619235
877.0, 0.007281297284070943
878.0, 0.006855230681394913
879.0, 0.006305367647574135
880.0, 0.006327677889747366
881.0, 0.006028192347802772
882.0, 0.005673708894392368
883.0, 0.007134973052459775
884.0, 0.0038553605800813393
885.0, 0.0035765121881748364
886.0, 0.005817624130648015
887.0, 0.008262058533133108
888.0, 0.0033884655973410163
889.0, 0.006128438923108009
890.0, 0.0058732195632110315
891.0, 0.0038352136371683026
892.0, 0.003937930901453052
893.0, 0.007095439675103929
894.0, 0.005407301350208143
895.0, 0.006203302024221351
896.0, 0.008207260941163011
897.0, 0.004411884387269158
898.0, 0.005556642106962874
899.0, 0.006193530876243873
900.0, 0.004680506883611583
901.0, 0.0026465025973234513
902.0, 0.007730143477356656
903.0, 0.00575352813368177
904.0, 0.002821751874925493
905.0, 0.0033282359382423524
906.0, 0.007989732048592622
907.0, 0.0038710489001051386
908.0, 0.004646843925812708
909.0, 0.004880075346922069
910.0, 0.004048972426182055
911.0, 0.0031453290562460036
912.0, 0.00672138047337052
913.0, 0.0041216905975583
914.0, 0.003199956899874817
915.0, 0.0048247032056939415
916.0, 0.006119140436221061
917.0, 0.0028293592957421626
918.0, 0.004418850969680355
919.0, 0.004602194434933129
920.0, 0.0027113590395885898
921.0, 0.004625860599439496
922.0, 0.005825562505974977
923.0, 0.003851457434360447
924.0, 0.0030398416331489835
925.0, 0.004800380162607684
926.0, 0.0031906878231837263
927.0, 0.002295139695485244
928.0, 0.00400449074404863
929.0, 0.004594390513000662
930.0, 0.002055250239396838
931.0, 0.0054603829929222745
932.0, 0.0052440449584917025
933.0, 0.0026567181094543937
934.0, 0.0015148334204849907
935.0, 0.0051442948880034214
936.0, 0.004720316538688695
937.0, 0.00360026998230349
938.0, 0.0032936312381471843
939.0, 0.0034488597734010887
940.0, 0.0029082631106210647
941.0, 0.003365846577184579
942.0, 0.0031395722630612444
943.0, 0.0029723993556295967
944.0, 0.0031959329849471996
945.0, 0.003855724055631469
946.0, 0.001292083704660853
947.0, 0.0032517548592554736
948.0, 0.004856990113095011
949.0, 0.003703062309418765
950.0, 0.0003393839339304004
951.0, 0.0053731785464535735
952.0, 0.00394789947074196
953.0, 0.002254194235824584
954.0, 0.003220608223010287
955.0, 0.0014805344238034788
956.0, 0.0016861467671262763
957.0, 0.003283853959151529
958.0, 0.004089611789325588
959.0, 0.00307177523914586
960.0, 0.0029854176797875975
961.0, 0.004321294100708654
962.0, 0.0028743122223029516
963.0, 0.002451208856684971
964.0, 0.005422232089809204
965.0, 0.0024281203501156307
966.0, 0.001783360447676823
967.0, 0.0026145688215452718
968.0, 0.0028841241824759337
969.0, 0.0012950647662530778
970.0, 0.0030953250936412947
971.0, 0.0012552510031559445
972.0, 0.00051897748426975
973.0, 0.0019859792416679753
974.0, 0.004860283828901429
975.0, 0.0016905821044674203
976.0, 0.0008526051706432502
977.0, 0.0018684242788542603
978.0, 0.0028100785722959248
979.0, 0.0015791982528580513
980.0, 0.002712416348804216
981.0, 0.0021474554445537666
982.0, 0.0009979797153100967
983.0, 0.0010719634968869344
984.0, 0.004054108896460284
985.0, 0.0022569288024862576
986.0, 0.004210209181018127
987.0, 0.003712798058538043
988.0, 0.001191094326303582
989.0, 0.0008630907349290807
990.0, 0.004832876100562569
991.0, 0.002283967674584372
992.0, 0.0007355902175961518
993.0, 0.0019586523231193264
994.0, 0.003928209896388748
995.0, 0.0017840734792456572
996.0, 0.003533920687459791
997.0, 0.0033391510864500843
998.0, 0.0012415022781826675
999.0, 0.0014578702777660183
1000.0, 0.004563165130172741
1001.0, 0.0026852611959874155
1002.0, 0.00294821932448491
1003.0, 0.005296349222077707
1004.0, 0.004347715770333356
1005.0, 0.0014357575903077608
1006.0, 0.0038750687980894337
1007.0, 0.004415905200809123
1008.0, 0.0021692068273114285
1009.0, 0.001116916304467603
1010.0, 0.0032864779117540667
1011.0, 0.0014804537287252933
1012.0, 0.002057582618184559
1013.0, 0.004156944546527063
1014.0, 0.0018191105188929242
1015.0, 0.0014636416768095458
1016.0, 0.004757945706396885
1017.0, 0.004030323197786752
1018.0, 0.0013739427658256119
1019.0, 0.00519701115769696
1020.0, 0.005080637103686647
1021.0, 0.004580008164974811
1022.0, 0.005951377259130606
1023.0, 0.006877766718263993
1024.0, 0.0029018039863451467
1025.0, 0.006583504060030055
1026.0, 0.008348976367279824
1027.0, 0.006206120025700593
1028.0, 0.004137868798966163
1029.0, 0.008341541873454235
1030.0, 0.006522776128546039
1031.0, 0.004625285763429345
1032.0, 0.0055949170777764914
1033.0, 0.006351321023968936
1034.0, 0.0024612634138144007
1035.0, 0.006239104072659578
1036.0, 0.006012792274219029
1037.0, 0.004130582460591601
1038.0, 0.0034030265659076146
1039.0, 0.005832825449346366
1040.0, 0.005593246302107317
1041.0, 0.004952507027297869
1042.0, 0.007345738681896205
1043.0, 0.008185195115262705
1044.0, 0.0038475317490520968
1045.0, 0.009553164048635803
1046.0, 0.009915956574387475
1047.0, 0.006368676410905573
1048.0, 0.005647329031062922
1049.0, 0.01155607572294834
1050.0, 0.011829992679127913
1051.0, 0.013863047589670953
1052.0, 0.015936832535332762
1053.0, 0.015150301969991047
1054.0, 0.012031124948913539
1055.0, 0.01704358918407585
1056.0, 0.01338908021571617
1057.0, 0.013645517930650641
1058.0, 0.01723072449595302
1059.0, 0.020581887187010477
1060.0, 0.016927147695938286
1061.0, 0.024446485889547988
1062.0, 0.027247680835619285
1063.0, 0.030249503614015058
1064.0, 0.03809868583930927
1065.0, 0.05364214613616686
1066.0, 0.06399182499253113
1067.0, 0.09740624885071035
1068.0, 0.15844431794117803
1069.0, 0.2693948097984953
1070.0, 0.467655115102662
1071.0, 0.8068239803962767
1072.0, 0.9557585824509222
1073.0, 0.8789252750896952
1074.0, 0.6447831189144355
1075.0, 0.3846652427062056
1076.0, 0.2169937156953925
1077.0, 0.13554875647852052
1078.0, 0.08921829003512015
1079.0, 0.06003534946312774
1080.0, 0.041646248780003114
1081.0, 0.03789804472230928
1082.0, 0.02828016037820964
1083.0, 0.023593648091023475
1084.0, 0.022708190466835018
1085.0, 0.02168240856453965
1086.0, 0.015468777622731448
1087.0, 0.01693048763049898
1088.0, 0.01613105883347607
1089.0, 0.013608506760691794
1090.0, 0.011839121351498283
1091.0, 0.014738757927384938
1092.0, 0.009447037190089044
1093.0, 0.010583475192500472
1094.0, 0.013054765270501112
1095.0, 0.012369686121782108
1096.0, 0.0059964112618927715
1097.0, 0.009496681040203986
1098.0, 0.009380339312761702
1099.0, 0.007431937287911578
1100.0, 0.007089104378204718
1101.0, 0.010558214887877958
1102.0, 0.004877527229016992
1103.0, 0.007109368434026077
1104.0, 0.008188814623523905
1105.0, 0.006681157222710043
1106.0, 0.004770473321853199
1107.0, 0.010153894214962192
1108.0, 0.007630305092590921
1109.0, 0.004871283504614499
1110.0, 0.0060202026793488295
1111.0, 0.008825728040103956
1112.0, 0.0014359081450156146
1113.0, 0.005562195458736672
1114.0, 0.007076249193211454
1115.0, 0.004642287985816419
1116.0, 0.002283848915572361
1117.0, 0.006770506069755653
1118.0, 0.002907915044635543
1119.0, 0.0037925295756089856
1120.0, 0.00726727495004837
1121.0, 0.007800483627262635
1122.0, 0.0023185543571237538
1123.0, 0.006417455138047611
1124.0, 0.006355543871484809
1125.0, 0.0052651313283576286
1126.0, 0.006237533792894139
1127.0, 0.00825345544672354
1128.0, 0.0017301851985779635
1129.0, 0.00435337421031892
1130.0, 0.005569654604090593
1131.0, 0.004344901863836628
1132.0, 0.0031141572151027383
1133.0, 0.0064365886308657295
1134.0, 0.005398815872191461
1135.0, 0.002460638735075612
1136.0, 0.004564059396567483
1137.0, 0.006368046144402341
1138.0, 0.0015019789758096665
1139.0, 0.004440874419327321
1140.0, 0.005161072972797511
1141.0, 0.003537507369586198
1142.0, 0.0037793364387666817
1143.0, 0.006253352266055967
1144.0, 0.0028402535565570743
1145.0, 0.003997585979714962
1146.0, 0.005166883951165265
1147.0, 0.0046796605461315866
1148.0, 0.003786670102639544
1149.0, 0.00532828908083511
1150.0, 0.004124265454604566
1151.0, 0.0013518410281355608
1152.0, 0.004284750978430598
1153.0, 0.006559391100379333
1154.0, 0.002594558304221311
1155.0, 0.004091585617508692
1156.0, 0.006678814977686935
1157.0, 0.00433807812965568
1158.0, 0.0032298809819336026
1159.0, 0.005844609877929749
1160.0, 0.008313422408442581
1161.0, 0.0014731486324573453
1162.0, 0.006624136462417957
1163.0, 0.006114228084612057
1164.0, 0.0025965985562229144
1165.0, 0.005570828029513854
1166.0, 0.007462211529483729
1167.0, 0.0027096392928965133
1168.0, 0.0036124925563371835
1169.0, 0.005870530789684786
1170.0, 0.004944483535278092
1171.0, 0.0007706503700362268
1172.0, 0.006168415663743255
1173.0, 0.0027424425885603436
1174.0, 0.0018929651855386887
1175.0, 0.004915448851458696
1176.0, 0.006342478761032281
1177.0, 0.0011467779502092068
1178.0, 0.004516112625979716
1179.0, 0.0052931896201455775
1180.0, 0.0030940973803664346
1181.0, 0.0014011547728829594
1182.0, 0.006569038176133898
1183.0, 0.0015864032116997733
1184.0, 0.0010866530878632737
1185.0, 0.00356284713806099
1186.0, 0.0048090399054407955
1187.0, 0.0012602234270205348
1188.0, 0.003985975460877281
1189.0, 0.0061186360445316754
1190.0, 0.003265008726155332
1191.0, 0.0029935597806317084
1192.0, 0.006880449367460507
1193.0, 0.0005339175956645152
1194.0, 0.0015214126513476563
1195.0, 0.0048933155347377225
1196.0, 0.004470839284137622
1197.0, 0.0023333670233124594
1198.0, 0.004213385196760075
1199.0, 0.00501914320642058
1200.0, 0.0021421384337218185
1201.0, 0.005370904943651984
1202.0, 0.0062999988585034595
1203.0, 0.0021438160338975265
1204.0, 0.0043951413662809006
1205.0, 0.007102263629259271
1206.0, 0.002952140314997867
1207.0, 0.003557693409837498
1208.0, 0.006631072257404087
1209.0, 0.004674240398801256
1210.0, 0.0005404198142970958
1211.0, 0.0063049159408197965
1212.0, 0.005213482708040498
1213.0, 0.0032802283279617524
1214.0, 0.005005941674520689
1215.0, 0.00867146171857334
1216.0, 0.0029765154949158777
1217.0, 0.004893404639723408
1218.0, 0.007868638635722573
1219.0, 0.007099762917886899
1220.0, 0.0029756288989142756
1221.0, 0.008164615705344033
1222.0, 0.0063193936351226025
1223.0, 0.004220534992483438
1224.0, 0.005969747233763792
1225.0, 0.007573160103685311
1226.0, 0.0017066427100299816
1227.0, 0.0038819768385857595
1228.0, 0.005896332636274667
1229.0, 0.004548547904802793
1230.0, 0.0047903032800336994
1231.0, 0.007411931468455634
1232.0, 0.0040057282902435445
1233.0, 0.005868689581872948
1234.0, 0.008612935800730127
1235.0, 0.00627516587362627
1236.0, 0.004003140719227522
1237.0, 0.007300010837527251
1238.0, 0.004925806763887399
1239.0, 0.004283237601461699
1240.0, 0.006693913265851281
1241.0, 0.006912116644873474
1242.0, 0.0044785947914290376
1243.0, 0.0036792893139840086
1244.0, 0.007940679838135484
1245.0, 0.004965993107664164
1246.0, 0.0050606971473619936
1247.0, 0.00655300522903775
1248.0, 0.0061798283649677575
1249.0, 0.00286713962048122
1250.0, 0.007684710615016271
1251.0, 0.007127205650852638
1252.0, 0.003471603679774109
1253.0, 0.0034980728309722316
1254.0, 0.00899669879075321
1255.0, 0.003108974785790178
1256.0, 0.0048489395682234995
1257.0, 0.007868039026499157
1258.0, 0.005833988552464815
1259.0, 0.003745411789333818
1260.0, 0.009626183160755305
1261.0, 0.005394806872907203
1262.0, 0.004005496988909177
1263.0, 0.007672738023371971
1264.0, 0.007490254982325442
1265.0, 0.0036384464766981563
1266.0, 0.006611721869068079
1267.0, 0.009584841869185706
1268.0, 0.0035865499380133108
1269.0, 0.004367831722629863
1270.0, 0.00737119809132138
1271.0, 0.006499681313107686
1272.0, 0.0028184436485171336
1273.0, 0.008937722035737401
1274.0, 0.004712093367802603
1275.0, 0.004076438431725311
1276.0, 0.00712842804152736
1277.0, 0.00825923507437845
1278.0, 0.0029002326945199177
1279.0, 0.004777090487135001
1280.0, 0.005542566070512207
1281.0, 0.003530896652737649
1282.0, 0.003321565993869381
1283.0, 0.008100694146442102
1284.0, 0.0029192528362925476
1285.0, 0.002442041048286605
1286.0, 0.006068284730942804
1287.0, 0.00610831260993853
1288.0, 0.003441946803528773
1289.0, 0.004666796710635648
1290.0, 0.00671416498370689
1291.0, 0.002905304364870057
1292.0, 0.004426913150435843
1293.0, 0.005373843557931299
1294.0, 0.003099385981372473
1295.0, 0.001315089992990284
1296.0, 0.006331255534530946
1297.0, 0.0030235733556748185
1298.0, 0.003820050940403715
1299.0, 0.006469522982973724
1300.0, 0.006564563087011624
1301.0, 0.0021572676148494093
1302.0, 0.004389042244505309
1303.0, 0.004237871235273818
1304.0, 0.0030777160492328048
1305.0, 0.00425051915335921
1306.0, 0.006587191853686414
1307.0, 0.0024393860806995555
1308.0, 0.001510495064768351
1309.0, 0.006797509045109933
1310.0, 0.007169123946440532
1311.0, 0.006242956869294921
1312.0, 0.007586974055040631
1313.0, 0.006388443398569076
1314.0, 0.0021027189433526438
1315.0, 0.007301293509670396
1316.0, 0.005191063737153708
1317.0, 0.001142873557083204
1318.0, 0.0038391339907775353
1319.0, 0.011416075139097485
1320.0, 0.0022683648235815837
1321.0, 0.002976781415563301
1322.0, 0.005952976523732053
1323.0, 0.005342990274781237
1324.0, 0.0021207826217883334
1325.0, 0.008557679879165317
1326.0, 0.00422924757790974
1327.0, 0.001284519944874127
1328.0, 0.004537300162323699
1329.0, 0.006007570865443841
1330.0, 0.0005942041547194335
1331.0, 0.0002477252397900609
1332.0, 0.006197700310757612
1333.0, 0.0026878487389681866
1334.0, 0.00390719321568399
1335.0, 0.006784402244540273
1336.0, 0.004825459539053072
1337.0, 0.0006291694285630372
1338.0, 0.007849582006381115
1339.0, 0.004676666991192552
1340.0, 0.002944249531702985
1341.0, 0.0042520336581464745
1342.0, 0.005196357606010002
1343.0, 0.0018909067449030532
1344.0, 0.0026270872128263067
1345.0, 0.006678223889460882
1346.0, 0.0043327808364484926
1347.0, 0.004003055805894728
1348.0, 0.009162217333058605
1349.0, 0.003470318096920763
1350.0, 0.0015164804961765852
1351.0, 0.007442576370704934
1352.0, 0.004844756965251189
1353.0, 0.000843373464054866
1354.0, 0.0033580981621788002
1355.0, 0.008033157525350188
1356.0, 0.0018485060806772667
1357.0, 0.0036012187947790228
1358.0, 0.0059411461813268646
1359.0, 0.004743745242777669
1360.0, 0.0028036315641892353
1361.0, 0.008428521297853674
1362.0, 0.00392753689516243
1363.0, 0.003498400197229155
1364.0, 0.007338104742298462
1365.0, 0.006811985345115336
1366.0, 0.002635699228616871
1367.0, 0.00618323955599673
1368.0, 0.01347457772564281
1369.0, 0.004280549113171274
1370.0, 0.0052105330959095015
1371.0, 0.008416703346193577
1372.0, 0.007008159684748794
1373.0, 0.0027727453515448827
1374.0, 0.008560918964615619
1375.0, 0.004961711634142835
1376.0, 0.005189340954097034
1377.0, 0.007759420092443175
1378.0, 0.008572845056965771
1379.0, 0.006243392019279718
1380.0, 0.0105345773770665
1381.0, 0.01228847141460824
1382.0, 0.0068352414874287455
1383.0, 0.00999975548800202
1384.0, 0.015556618498590457
1385.0, 0.012668886253832935
1386.0, 0.009553471914477333
1387.0, 0.021011249103775408
1388.0, 0.014579408900737684
1389.0, 0.014815080473096749
1390.0, 0.02051045003621848
1391.0, 0.0217951357059795
1392.0, 0.014385960477611082
1393.0, 0.02321047567498596
1394.0, 0.028320984465498057
1395.0, 0.02603646031978675
1396.0, 0.027416810563578406
1397.0, 0.033204793544634334
1398.0, 0.030897887311534235
1399.0, 0.027318589889030295
1400.0, 0.032635741445627565
1401.0, 0.02704369256143576
1402.0, 0.023175705537807602
1403.0, 0.02472766466198202
1404.0, 0.024269687840201816
1405.0, 0.014091668876740935
1406.0, 0.018443806798482582
1407.0, 0.018214305947343187
1408.0, 0.011775540295717332
1409.0, 0.010286432668431952
1410.0, 0.016843597676225393
1411.0, 0.007464278978011338
1412.0, 0.008197618713084888
1413.0, 0.012713860780236739
1414.0, 0.009172398097802995
1415.0, 0.00765844013298625
1416.0, 0.012541129961609943
1417.0, 0.012753024102050946
1418.0, 0.005719664737441947
1419.0, 0.011806742828765628
1420.0, 0.011814776469072896
1421.0, 0.0077881331836306324
1422.0, 0.007587861431517422
1423.0, 0.014546084088016513
1424.0, 0.010755365109471195
1425.0, 0.004193718373141787
1426.0, 0.013231497852177341
1427.0, 0.012286142285028978
1428.0, 0.007903585793206876
1429.0, 0.012101367593929963
1430.0, 0.015481716370509796
1431.0, 0.007316769701976326
1432.0, 0.012793217301911682
1433.0, 0.015921018569697545
1434.0, 0.012668317781421216
1435.0, 0.010660377380020614
1436.0, 0.0190509553886177
1437.0, 0.011092627923585136
1438.0, 0.009018393287333256
1439.0, 0.014670170636056148
1440.0, 0.012476344669284935
1441.0, 0.008475089081337409
1442.0, 0.013699591439478576
1443.0, 0.01842721975070709
1444.0, 0.008374934915843839
1445.0, 0.01037349972170528
1446.0, 0.013695817427152307
1447.0, 0.011918860447295945
1448.0, 0.008816041629703505
1449.0, 0.013915087400755055
1450.0, 0.01161212025676604
1451.0, 0.007549061923688285
1452.0, 0.013388095729786942
1453.0, 0.010860305284795193
1454.0, 0.005672883353395381
1455.0, 0.011135955645509383
1456.0, 0.017711620940770077
1457.0, 0.006689167195101362
1458.0, 0.010001262487468715
1459.0, 0.012773150007383924
1460.0, 0.009957475613986681
1461.0, 0.008134460873486064
1462.0, 0.016198896550209542
1463.0, 0.007247373949915924
1464.0, 0.005956577773786599
1465.0, 0.011780750807910393
1466.0, 0.010788232917463678
1467.0, 0.006539620890337918
1468.0, 0.008243127705489546
1469.0, 0.013523804631979094
1470.0, 0.006456855119543331
1471.0, 0.009883821074563957
1472.0, 0.0127580454067591
1473.0, 0.008939920773914227
1474.0, 0.005597366057668555
1475.0, 0.012594376602863269
1476.0, 0.008953097825586339
1477.0, 0.0064222990017313115
1478.0, 0.011017708189964545
1479.0, 0.009824364179176611
1480.0, 0.0059933129950805585
1481.0, 0.007524277065224801
1482.0, 0.014791814345014956
1483.0, 0.00260658825161656
1484.0, 0.007005833890480306
1485.0, 0.009728132745073228
1486.0, 0.005656893043074071
1487.0, 0.005096733992376482
1488.0, 0.013961021349943514
1489.0, 0.00865306386527209
1490.0, 0.004641543340260622
1491.0, 0.010348231979008941
1492.0, 0.009524368721481791
1493.0, 0.006943038273815887
1494.0, 0.00865409701028831
1495.0, 0.012451634576913301
1496.0, 0.0033066062703999413
1497.0, 0.009941209192959977
1498.0, 0.011348197400887555
1499.0, 0.005685343031992834
1500.0, 0.005160992614797856
1501.0, 0.01220075680216326
1502.0, 0.01105770491785199
1503.0, 0.001543704346322449
1504.0, 0.010796164702121115
1505.0, 0.009713379900827965
1506.0, 0.005350710528088975
1507.0, 0.006665548915854686
1508.0, 0.011371635474626246
1509.0, 0.002949529453636957
1510.0, 0.005073183917466085
1511.0, 0.011958044100234499
1512.0, 0.006558760256933319
1513.0, 0.0058062620517265705
1514.0, 0.011322455445635472
1515.0, 0.010995437601237437
1516.0, 0.0003211155797667531
1517.0, 0.011110996888041392
1518.0, 0.007650763606789577
1519.0, 0.0024350777552687515
1520.0, 0.006547304332073902
1521.0, 0.010698385857972774
1522.0, 0.0005427237182570891
1523, 0.0
1524, 0.0
1525, 0.0
1526, 0.0
1527, 0.0
1528, 0.0
1529, 0.0
1530, 0.0
1531, 0.0
1532, 0.0
1533, 0.0
1534, 0.0
1535, 0.0
1536, 0.0
1537, 0.0
1538, 0.0
1539, 0.0
1540, 0.0
1541, 0.0
1542, 0.0
1543, 0.0
1544, 0.0
1545, 0.0
1546, 0.0
1547, 0.0
1548, 0.0
1549, 0.0
1550, 0.0
1551, 0.0
1552, 0.0
1553, 0.0
1554, 0.0
1555, 0.0
1556, 0.0
1557, 0.0
1558, 0.0
1559, 0.0
1560, 0.0
1561, 0.0
1562, 0.0
1563, 0.0
1564, 0.0
1565, 0.0
1566, 0.0
1567, 0.0
1568, 0.0
1569, 0.0
1570, 0.0
1571, 0.0
1572, 0.0
1573, 0.0
1574, 0.0
1575, 0.0
1576, 0.0
1577, 0.0
1578, 0.0
1579, 0.0
1580, 0.0
1581, 0.0
1582, 0.0
1583, 0.0
1584, 0.0
1585, 0.0
1586, 0.0
1587, 0.0
1588, 0.0
1589, 0.0
1590, 0.0
1591, 0.0
1592, 0.0
1593, 0.0
1594, 0.0
1595, 0.0
1596, 0.0
1597, 0.0
1598, 0.0
1599, 0.0
