30, 0.0
31, 0.0
32, 0.0
33, 0.0
34, 0.0
35, 0.0
36, 0.0
37, 0.0
38, 0.0
39, 0.0
40, 0.0
41, 0.0
42, 0.0
43, 0.0
44, 0.0
45, 0.0
46, 0.0
47, 0.0
48, 0.0
49, 0.0
50, 0.0
51, 0.0
52, 0.0
53, 0.0
54, 0.0
55, 0.0
56, 0.0
57, 0.0
58, 0.0
59, 0.0
60, 0.0
61, 0.0
62, 0.0
63, 0.0
64, 0.0
65, 0.0
66, 0.0
67, 0.0
68, 0.0
69, 0.0
70, 0.0
71, 0.0
72, 0.0
73, 0.0
74, 0.0
75, 0.0
76, 0.0
77, 0.0
78, 0.0
79, 0.0
80, 0.0
81, 0.0
82, 0.0
83, 0.0
84, 0.0
85, 0.0
86, 0.0
87, 0.0
88, 0.0
89, 0.0
90, 0.0
91, 0.0
92, 0.0
93.0, 0.00014818583125408326
94.0, 0.0018220621880425554
95.0, 0.002906599943880546
96.0, 0.002845389362260661
97.0, 0.003094883114553741
98.0, 0.0021113635143413492
99.0, 0.0011850381292795602
100.0, 0.0005845827756404161
101.0, 0.0001838910748862143
102.0, 0.0005261871044145712
103.0, 0.0010071804198484055
104.0, 0.003450929820215506
105.0, 0.005879211554672899
106.0, 0.009022281081233954
107.0, 0.01160299458789276
108.0, 0.013365283447521595
109.0, 0.014374153564468922
110.0, 0.014653392720562725
111.0, 0.015609043867925509
112.0, 0.017676052826377554
113.0, 0.021043637360088983
114.0, 0.02563464552847381
115.0, 0.029977543800340935
116.0, 0.035383567873508014
117.0, 0.04201629767250722
118.0, 0.04914625574450333
119.0, 0.06009560386917325
120.0, 0.07319588988457189
121.0, 0.08990381105379301
122.0, 0.11308511563443399
123.0, 0.14221881778802328
124.0, 0.18402757789683735
125.0, 0.23929421089458264
126.0, 0.29927656914461215
127.0, 0.33749135056619695
128.0, 0.3177863970798543
129.0, 0.2533253437967197
130.0, 0.1726618419373443
131.0, 0.11061678553000988
132.0, 0.07051588840257678
133.0, 0.04715194887000963
134.0, 0.033181553773071956
135.0, 0.024202633958445876
136.0, 0.018880767144282863
137.0, 0.01581289074981899
138.0, 0.013610601138292544
139.0, 0.011417439943832972
140.0, 0.010857724584356332
141.0, 0.010600322481641104
142.0, 0.00999214440224973
143.0, 0.008804169173082943
144.0, 0.0076051589420729005
145.0, 0.007258466979619778
146.0, 0.006967006117135119
147.0, 0.006016763218824615
148.0, 0.005608940128644855
149.0, 0.004095259839739382
150.0, 0.002898366585431398
151.0, 0.002375459014330575
152.0, 0.0010024103459925185
153.0, 8.207508221879337e-05
154.0, 9.46336199813232e-05
155.0, 0.0005579992553995845
156.0, 0.002396517864361411
157.0, 0.0011687997025466084
158.0, 0.0012164105029318362
159.0, 0.0017913170996093162
160.0, 0.0009162593929112334
161.0, 0.00018377590347045511
162.0, 0.0005418938776899598
163.0, 0.0015842163169059594
164.0, 0.003032545611762217
165.0, 0.003865180226308326
166.0, 0.005946935531109866
167.0, 0.007822617103176055
168.0, 0.009002443766837783
169.0, 0.010336604442777607
170.0, 0.011791020830150656
171.0, 0.014429193178663424
172.0, 0.016949204298979673
173.0, 0.018491802418226844
174.0, 0.020972595091144918
175.0, 0.024878595074715744
176.0, 0.028115322168565136
177.0, 0.0303354285672328
178.0, 0.03418487191476348
179.0, 0.04016585640382278
180.0, 0.04569655899121977
181.0, 0.0504894294776552
182.0, 0.055878596180564136
183.0, 0.06084446235865981
184.0, 0.0684168135012357
185.0, 0.07629213302309165
186.0, 0.08293779000539575
187.0, 0.09121102325925162
188.0, 0.10152904400825499
189.0, 0.1114753467401993
190.0, 0.1210543195404213
191.0, 0.13233599731386078
192.0, 0.14556421343020567
193.0, 0.15736015201967016
194.0, 0.1694200732827294
195.0, 0.18457975790303313
196.0, 0.19922343630040268
197.0, 0.2144563584216346
198.0, 0.2282437844755791
199.0, 0.24013601102828108
200.0, 0.2551840046997366
201.0, 0.26759750331142645
202.0, 0.276685807594291
203.0, 0.28263969805661904
204.0, 0.2854936138890514
205.0, 0.2834980552377811
206.0, 0.27855758821917903
207.0, 0.2705994675102189
208.0, 0.26003977439384873
209.0, 0.2503790124125835
210.0, 0.2388094485985268
211.0, 0.22497600440091856
212.0, 0.20953493724354988
213.0, 0.1939536189349308
214.0, 0.17844278683924159
215.0, 0.1622655367313933
216.0, 0.1469069185115483
217.0, 0.1343798646292937
218.0, 0.12340864150954724
219.0, 0.11192666193827289
220.0, 0.1010616585092016
221.0, 0.09192269379752732
222.0, 0.08397820642747035
223.0, 0.0766248565763688
224.0, 0.06998182493383512
225.0, 0.06366591917855521
226.0, 0.05765391385281831
227.0, 0.05285060537618891
228.0, 0.04842013804614602
229.0, 0.04448843966300969
230.0, 0.0410875622903044
231.0, 0.03784371009637498
232.0, 0.034607131718441285
233.0, 0.03166005878059822
234.0, 0.028792693378275978
235.0, 0.025977762832546856
236.0, 0.024240060142694263
237.0, 0.022754519065792355
238.0, 0.021707139368100595
239.0, 0.020720037761749802
240.0, 0.01870075197393193
241.0, 0.01812275649001462
242.0, 0.016912248330186275
243.0, 0.0155301414624843
244.0, 0.015151049821214733
245.0, 0.01506822536393485
246.0, 0.014518832270078934
247.0, 0.013582958672196353
248.0, 0.012745542825053996
249.0, 0.01238960684444051
250.0, 0.011814133990952436
251.0, 0.011306670694491518
252.0, 0.010777427620860442
253.0, 0.010421893190047889
254.0, 0.01117751948158541
255.0, 0.011630002552666696
256.0, 0.011411812343513416
257.0, 0.011098122157463038
258.0, 0.011644340683628145
259.0, 0.012957688641310966
260.0, 0.015238476680763934
261.0, 0.01809180205951979
262.0, 0.020597572896638973
263.0, 0.02182023520027791
264.0, 0.02102021547336952
265.0, 0.017657816492644605
266.0, 0.012923562228114029
267.0, 0.008573513671045807
268.0, 0.0058779338572458
269.0, 0.0038320513118992243
270.0, 0.003016889640482646
271.0, 0.0023936629875309107
272.0, 0.000878435810779294
273.0, 0.0016991670095936116
274.0, 0.001319122503357767
275.0, 0.0004800226342808526
276.0, 0.00015782264536315173
277.0, 8.21540425313442e-05
278.0, 0.0001625362609024541
279.0, 0.00018643119230482536
280.0, 0.00027864359708382294
281.0, 0.0004656801597312758
282.0, 0.00037225827826362025
283.0, 0.0005818234651178641
284.0, 0.0007825560254651501
285.0, 0.0005175750752395372
286.0, 6.8306383382004e-05
287.0, 0.00016343815279797714
288.0, 0.0005026204296393348
289.0, 0.0005973852561653692
290.0, 0.0005809942833484607
291.0, 0.0006626009904893756
292.0, 0.0006711686874893058
293.0, 0.00048786822365759887
294.0, 0.0002632596448881033
295.0, 0.00020067547915062956
296.0, 0.0004077066562352274
297.0, 0.0002458234820424928
298.0, 6.551627268156376e-05
299.0, 0.00026629832580995035
300.0, 0.0003536803826449462
301.0, 0.00013824290422904094
302.0, 0.00044388548670405237
303.0, 0.0004317985235794312
304.0, 5.7099094951737e-05
305.0, 0.00031556937145985054
306.0, 0.00048316678632322294
307.0, 0.0007270480817033273
308.0, 0.0007657764935931747
309.0, 0.0005236151331309174
310.0, 0.0006403816704916042
311.0, 0.0009955407347429098
312.0, 0.001030719558206041
313.0, 0.0010459091329729515
314.0, 0.0014163531920417805
315.0, 0.0015376794062878358
316.0, 0.00192314504272792
317.0, 0.0021528409032074195
318.0, 0.0023332211844522134
319.0, 0.002584910107159975
320.0, 0.002333061432167002
321.0, 0.0021659786925016422
322.0, 0.0023132085551879665
323.0, 0.0026353019588885376
324.0, 0.002814149005310398
325.0, 0.002314505035390472
326.0, 0.002650750392548916
327.0, 0.0029641148922071943
328.0, 0.0028295769544287317
329.0, 0.0026736638105753843
330.0, 0.003035406591902913
331.0, 0.0037347103165240344
332.0, 0.004301780597836502
333.0, 0.00447219401479773
334.0, 0.004390653687296388
335.0, 0.005473871896164256
336.0, 0.006841490386753959
337.0, 0.0074646224890738645
338.0, 0.0071408245615823904
339.0, 0.0073025997264935145
340.0, 0.008013296271755998
341.0, 0.008449960022094376
342.0, 0.008714525459894953
343.0, 0.009525689924887804
344.0, 0.011182906814248631
345.0, 0.012974662450926912
346.0, 0.01445584234121658
347.0, 0.01660712920638439
348.0, 0.019665677251212245
349.0, 0.022454336558199287
350.0, 0.027791628335295925
351.0, 0.035674593518064575
352.0, 0.0464377206272821
353.0, 0.05942165850444532
354.0, 0.07150256329456102
355.0, 0.07152162552221972
356.0, 0.057507108963215085
357.0, 0.037450037405787756
358.0, 0.020962846623396106
359.0, 0.011715257632204287
360.0, 0.007359109568498894
361.0, 0.005041935810792471
362.0, 0.0034307567145137508
363.0, 0.0023162909738008836
364.0, 0.0015005681426898847
365.0, 0.0011409050364289386
366.0, 0.0007676672444328136
367.0, 0.0004829279791563031
368.0, 0.00046194410346627005
369.0, 0.0001859070011665837
370.0, 3.751208635431182e-05
371.0, 5.074534531498287e-05
372.0, 0.00017593356043060044
373.0, 0.00028521859367535904
374.0, 3.112140857294295e-05
375.0, 0.00024246113475523477
376.0, 0.0008422260878692049
377.0, 0.0013144928459016883
378.0, 0.0010586149005163091
379.0, 0.0008894229824804384
380.0, 0.0011099361259302506
381.0, 0.0018987010080551104
382.0, 0.002739004527170877
383.0, 0.003274053795262293
384.0, 0.00421323153364732
385.0, 0.005347280951574203
386.0, 0.0069451293021651934
387.0, 0.008686409420567854
388.0, 0.010848234956475992
389.0, 0.01536512446100677
390.0, 0.020891148699320728
391.0, 0.02924610361008673
392.0, 0.03934923793222876
393.0, 0.04619365127287069
394.0, 0.042599999510493515
395.0, 0.030815924183113973
396.0, 0.021237599528956343
397.0, 0.01693108778530696
398.0, 0.016727885836968628
399.0, 0.019053099966028803
400.0, 0.023388065739871195
401.0, 0.024876128951553767
402.0, 0.021978832258386326
403.0, 0.015540681500811738
404.0, 0.00898487099302497
405.0, 0.004498029668901561
406.0, 0.0020494781390877777
407.0, 0.0010662091744135216
408.0, 0.00041814963680459857
409.0, 0.0006261784814314498
410.0, 0.0004513304126054006
411.0, 0.0008393633129426336
412.0, 0.0011069380656972734
413.0, 0.0008192277492082167
414.0, 0.0006076715342525639
415.0, 0.00041211337229031433
416.0, 6.113867920460686e-05
417.0, 0.00015848803865232015
418.0, 0.0005378785473864904
419.0, 0.0003545769349574778
420.0, 0.00010848783790577666
421.0, 6.257128918427925e-05
422.0, 5.163046405015208e-05
423.0, 6.25087555462981e-05
424.0, 0.000469077522974527
425.0, 0.0008800768786592929
426.0, 0.001328338173154119
427.0, 0.001975828802897434
428.0, 0.00255199284730128
429.0, 0.0029455172590205714
430.0, 0.003485974459678353
431.0, 0.003873693860320841
432.0, 0.004948114286851051
433.0, 0.006384327024815066
434.0, 0.0076332355693993804
435.0, 0.00864062077854879
436.0, 0.010536380563969385
437.0, 0.012883483075213323
438.0, 0.015926782743854447
439.0, 0.019507562884251973
440.0, 0.023191521381127723
441.0, 0.028428185764653578
442.0, 0.03509383568299865
443.0, 0.043426695199933314
444.0, 0.053701406327016706
445.0, 0.06602249508271557
446.0, 0.07991914585935155
447.0, 0.09436937999747938
448.0, 0.10796112681313438
449.0, 0.12220329250899821
450.0, 0.1375615567780859
451.0, 0.15251330461952375
452.0, 0.16962039183636907
453.0, 0.19196998263728832
454.0, 0.22263789074758902
455.0, 0.25985372723303934
456.0, 0.3014557205076404
457.0, 0.3610129377424299
458.0, 0.432215665505755
459.0, 0.5217068408801998
460.0, 0.6303757840487381
461.0, 0.7510041435722995
462.0, 0.8730095340084718
463.0, 0.968862589369966
464.0, 0.999773605287612
465.0, 0.9488779012876308
466.0, 0.833640705656916
467.0, 0.6870667033578463
468.0, 0.5490281790284934
469.0, 0.43422563707484074
470.0, 0.3445698374322609
471.0, 0.2773045836732015
472.0, 0.22746547176457999
473.0, 0.18694010204899725
474.0, 0.15659136312788152
475.0, 0.133681368157216
476.0, 0.11575437424721656
477.0, 0.10103724262530657
478.0, 0.08805264483991015
479.0, 0.07912532441860971
480.0, 0.07090986661020883
481.0, 0.06318640603365958
482.0, 0.056673027540292145
483.0, 0.05119701061236906
484.0, 0.04552604012249834
485.0, 0.04171380378521802
486.0, 0.03855714161893814
487.0, 0.0355796494526006
488.0, 0.03272694459946308
489.0, 0.02990478667961623
490.0, 0.0278866393845149
491.0, 0.025554981791998187
492.0, 0.023383871421224174
493.0, 0.02171076610292872
494.0, 0.020342659402669636
495.0, 0.018667940586171872
496.0, 0.017295764766150246
497.0, 0.01628962023055689
498.0, 0.015208188099802051
499.0, 0.014145729992866585
500.0, 0.013538689640805656
501.0, 0.012336788140583145
502.0, 0.011554308348165437
503.0, 0.010552347050738542
504.0, 0.009777517660304633
505.0, 0.009541917548439144
506.0, 0.00826993328969594
507.0, 0.007771817939344089
508.0, 0.007080081600314822
509.0, 0.006723347019594413
510.0, 0.006983103139595725
511.0, 0.007128621710699294
512.0, 0.00623002226173881
513.0, 0.005791744743080652
514.0, 0.005443225818610964
515.0, 0.005332194621825262
516.0, 0.005319117204798161
517.0, 0.00469257238974224
518.0, 0.005121849954150383
519.0, 0.004740207253229866
520.0, 0.003969037512071823
521.0, 0.003490437676739298
522.0, 0.003426933263526159
523.0, 0.003083277633553414
524.0, 0.0030434305673115634
525.0, 0.003046293280327126
526.0, 0.002961574424889718
527.0, 0.003295758840945034
528.0, 0.003987533047352624
529.0, 0.003194035858798756
530.0, 0.003941891227770707
531.0, 0.004545329216961335
532.0, 0.004785071146430732
533.0, 0.004791805281542234
534.0, 0.003927395773120491
535.0, 0.002893138815790777
536.0, 0.0024629076493822098
537.0, 0.0018773986410926815
538.0, 0.0015040234765667545
539.0, 0.0015890375085045431
540.0, 0.0008098821788895394
541.0, 0.0005474163817348218
542.0, 0.0009684182185430723
543.0, 0.0011240712438662854
544.0, 0.0010267726648111241
545.0, 0.0010314729227720633
546.0, 0.0007072715802027628
547.0, 0.0008548212989134787
548.0, 0.000926030642523786
549.0, 0.00039095757126287006
550.0, 0.00010213271973984466
551.0, 0.0004064308238868774
552.0, 0.00015921936497489289
553.0, 0.00027752003444141783
554.0, 0.0005189697117737969
555.0, 0.0005818460811046848
556.0, 0.0004932163019051691
557.0, 0.0002784349225018728
558.0, 0.00021292483749652005
559.0, 0.0002421898394282468
560.0, 0.0005039359672957608
561.0, 0.000586714290483355
562.0, 0.000504512435161086
563.0, 0.0005353358779142756
564.0, 0.00015267496788208743
565.0, 0.00028276391267511203
566.0, 0.00031900386068914733
567.0, 0.00011269871108059723
568.0, 5.7027862351563084e-05
569.0, 0.0002579145534533172
570.0, 0.0003143225178883611
571.0, 0.000214408306752589
572.0, 0.000279550242740176
573.0, 0.0004064076304014432
574.0, 0.0002254376535213094
575.0, 0.0004487543768334817
576.0, 0.000565080422393236
577.0, 0.0003386700540110735
578.0, 0.0002675934108202123
579.0, 0.00037156822849492563
580.0, 0.0005719737143405045
581.0, 0.0008423810483428817
582.0, 0.0008810112796325957
583.0, 0.0008474521684155964
584.0, 0.001244154126013975
585.0, 0.0015117664707468745
586.0, 0.0012138179380053325
587.0, 0.0009457917279603307
588.0, 0.0015315895449882753
589.0, 0.001275072076591931
590.0, 0.0012669333921454468
591.0, 0.0015905162687886612
592.0, 0.001626893513429267
593.0, 0.0011583644793649415
594.0, 0.0011970005614360569
595.0, 0.0014482584093799785
596.0, 0.0016341505749128413
597.0, 0.0014374291944153116
598.0, 0.001217840719047989
599.0, 0.0013161528255917654
600.0, 0.0012381468515728412
601.0, 0.0012074082258056798
602.0, 0.0010814030160112278
603.0, 0.001110372348764408
604.0, 0.0012425676389701229
605.0, 0.0013197651744818184
606.0, 0.0014908347636283252
607.0, 0.0013953650041808468
608.0, 0.001263680895239366
609.0, 0.0011110419017151911
610.0, 0.0011343111223513485
611.0, 0.0013951188880658746
612.0, 0.001485806191964203
613.0, 0.0011674446738218745
614.0, 0.000815529519299898
615.0, 0.0013443596853932526
616.0, 0.0015004991954209782
617.0, 0.0008566306638698215
618.0, 0.0008366291816762543
619.0, 0.0010929273171336237
620.0, 0.0011301185163284009
621.0, 0.001113291905443897
622.0, 0.0009653269228213958
623.0, 0.00039801582419501084
624.0, 0.0002738327780503574
625.0, 0.0007136608876080143
626.0, 0.0002668835756573358
627.0, 0.00023709551278561867
628.0, 0.0002613833721405877
629.0, 5.77851099898497e-05
630.0, 8.041704372955223e-05
631.0, 0.0006522010761747919
632.0, 0.0003511558369972745
633.0, 0.0004738072650731419
634.0, 0.0005426341873445675
635.0, 0.0006144208609063453
636.0, 0.0005334268104202399
637.0, 3.790865953230111e-05
638.0, 0.0004914088636305118
639.0, 0.0004901354007307764
640.0, 0.00011190243872846065
641.0, 0.00017840607011356606
642.0, 0.0006063547324013787
643.0, 0.0007752627399159648
644.0, 0.0007043318602379469
645.0, 0.0005821499908346372
646.0, 0.0006890338338377355
647.0, 0.0008408736395709218
648.0, 0.000701285692631636
649.0, 0.0004228324156228507
650.0, 0.00046688563478474246
651.0, 0.0005184491544535592
652.0, 0.0006786592176877755
653.0, 0.0004913978438803818
654.0, 0.0005007484157953773
655.0, 0.0006266577849997458
656.0, 0.0003740658978424181
657.0, 0.00038182377527068786
658.0, 0.00017042809283771782
659.0, 0.00029370214942740314
660.0, 0.000409975399530587
661.0, 0.0004089331568454797
662.0, 0.0003787209400805263
663.0, 0.0003001430408946001
664.0, 0.00015863795804976004
665.0, 1.4820168028032259e-05
666.0, 0.00012130111900144968
667.0, 0.00020052331005036942
668.0, 0.0001502008076993735
669.0, 6.454092213696164e-05
670.0, 2.3043549136241964e-05
671.0, 0.0002568459628403339
672.0, 0.00034576667274784285
673.0, 0.00031422854489258385
674.0, 0.0007371848068757978
675.0, 0.0012135487670667394
676.0, 0.001155725499991946
677.0, 0.0012132988528616492
678.0, 0.0014983606794479142
679.0, 0.0017842223391598237
680.0, 0.0021350555086841723
681.0, 0.0023422686309268964
682.0, 0.0023271485939923703
683.0, 0.002409696483956048
684.0, 0.002796201035627026
685.0, 0.0032034710672456702
686.0, 0.003323579949514062
687.0, 0.0038674068536024265
688.0, 0.0047647410213557985
689.0, 0.00561865232040437
690.0, 0.0066229415783169805
691.0, 0.008104128649486704
692.0, 0.009029319387673505
693.0, 0.010286121326253466
694.0, 0.01208035411286868
695.0, 0.013004844222377672
696.0, 0.012577132588076077
697.0, 0.011805273650259735
698.0, 0.010062754672499258
699.0, 0.008033462339791473
700.0, 0.006298765072943901
701.0, 0.004886752849514148
702.0, 0.0037655571469028606
703.0, 0.003080742823333787
704.0, 0.0026500217827360056
705.0, 0.00201257428675236
706.0, 0.0019446813182263751
707.0, 0.0016040265449987687
708.0, 0.00127555528003141
709.0, 0.0012843984921499581
710.0, 0.0013208617000538224
711.0, 0.0009316003424681674
712.0, 0.0011224990389969412
713.0, 0.0012711247906010185
714.0, 0.0009305611553333164
715.0, 0.0008604357839339902
716.0, 0.001007516645916653
717.0, 0.0007684332681883592
718.0, 0.000790252418119334
719.0, 0.0004284371842392914
720.0, 0.0003228951816352511
721.0, 0.0003417774764902427
722.0, 0.0002752544862837316
723.0, 0.00017319576975733156
724.0, 0.0002788066136035815
725.0, 0.0005721366597461154
726.0, 0.00027540509233076103
727.0, 0.00044998357527780303
728.0, 0.00022192493270634472
729.0, 4.0506812845752175e-05
730.0, 0.00027384220809860107
731.0, 0.0004227115790790202
732.0, 4.2061304298038023e-05
733.0, 0.000281072822960313
734.0, 0.0005718402583360128
735.0, 0.0003881144794467006
736.0, 0.00016198594278426067
737.0, 7.450415493914981e-05
738.0, 1.3294885283737104e-05
739.0, 3.419275118663698e-05
740.0, 0.0003351283763639667
741.0, 0.00025966749774740107
742.0, 0.00011435922487281207
743.0, 8.490557794703582e-05
744.0, 0.00013976901799860134
745.0, 0.00015435297132791525
746.0, 0.00012113761279418133
747.0, 0.00020365739279020126
748.0, 0.00013803366660294615
749.0, 0.0001475000070601868
750.0, 0.00014531973559956735
751.0, 0.0001946403445025896
752.0, 0.00023460455916913837
753.0, 0.0004293568763302824
754.0, 0.00023863900255883535
755.0, 8.505006973870498e-05
756.0, 0.00012576036872136642
757.0, 0.00016477980556281737
758.0, 0.00017350144924107325
759.0, 9.375946819670804e-05
760.0, 9.972878411644784e-05
761.0, 0.0001257952213825691
762.0, 0.00023784599878043296
763.0, 0.00030878721614295725
764.0, 0.00032019880478598715
765.0, 3.0744882332313185e-05
766.0, 0.00010690060116434812
767.0, 0.0003419782836941689
768.0, 0.0002148852464792896
769.0, 0.00021989508253498515
770.0, 0.0005946618593574291
771.0, 0.00018808995630739493
772.0, 0.0004097346977560429
773.0, 0.0007619528707829174
774.0, 0.000886983666629204
775.0, 0.0007797058813882518
776.0, 0.00033954973718114303
777.0, 0.000378377885455221
778.0, 0.0006762538721910459
779.0, 0.0008475933271879518
780.0, 0.0009064730393505516
781.0, 0.001222195722620033
782.0, 0.0017432059959812981
783.0, 0.0018270785015089318
784.0, 0.001384857415862402
785.0, 0.001826221332998563
786.0, 0.0022751124956491057
787.0, 0.0026510063320423012
788.0, 0.003273634777298843
789.0, 0.0037399076001660746
790.0, 0.003968935282928209
791.0, 0.004534428419122464
792.0, 0.0052337729288770545
793.0, 0.006121901260164795
794.0, 0.006547661061987241
795.0, 0.007201584979796395
796.0, 0.007342378360616042
797.0, 0.006979739497792028
798.0, 0.006643283413097607
799.0, 0.0063171393135018055
800.0, 0.006717038642256783
801.0, 0.006789529109640536
802.0, 0.006271759407859007
803.0, 0.007262415611654122
804.0, 0.008229411649714441
805.0, 0.008058619340557028
806.0, 0.007473763922156249
807.0, 0.0070076469649966
808.0, 0.006107845521065787
809.0, 0.0051069181282947145
810.0, 0.004525404690122988
811.0, 0.003536529126971427
812.0, 0.0028729202866691885
813.0, 0.0027525919216407767
814.0, 0.0023934950275913604
815.0, 0.0019530062529097955
816.0, 0.0015162090859258352
817.0, 0.0013240151684348295
818.0, 0.0012035431507243747
819.0, 0.0015936949903472644
820.0, 0.0014904115522788894
821.0, 0.0007949810609095177
822.0, 0.0007616023469670107
823.0, 0.0013595209993920508
824.0, 0.001179402048750612
825.0, 0.0013898317448703126
826.0, 0.0011938073423636189
827.0, 0.0009632905660341451
828.0, 0.0009282669935776466
829.0, 0.0009658373368562726
830.0, 0.0009187104622661293
831.0, 0.0008650272878494513
832.0, 0.0010769094198604826
833.0, 0.0008683535472212572
834.0, 0.0009993212584003704
835.0, 0.00107743590039783
836.0, 0.0013191424579757525
837.0, 0.0012276065085836665
838.0, 0.0008858951925048218
839.0, 0.0010437323722836992
840.0, 0.001157804530654906
841.0, 0.0008823395531274063
842.0, 0.0005074589991103012
843.0, 0.001234257864600987
844.0, 0.0014064891143841943
845.0, 0.0008886169186896174
846.0, 0.0007491458348760398
847.0, 0.0010492307666086758
848.0, 0.0005217784658083709
849.0, 0.0006684814558291951
850.0, 0.001125333587638823
851.0, 0.0008334083179795431
852.0, 0.0005788204688137209
853.0, 0.0006861607166523771
854.0, 0.0009300217403253278
855.0, 0.0008891541945349754
856.0, 0.000569736738026488
857.0, 0.001015778142357619
858.0, 0.00026829258535999246
859.0, 0.0003098841543549084
860.0, 0.0006743834919507332
861.0, 0.000630156471052607
862.0, 0.0005141243383625358
863.0, 0.0005917125837015018
864.0, 0.0005754108675576861
865.0, 0.00034703169037457807
866.0, 0.00032930409287865734
867.0, 7.411426124458071e-05
868.0, 9.655726149844702e-05
869.0, 8.029661166447832e-05
870.0, 0.00017020956530515712
871.0, 9.692930133436663e-05
872.0, 0.0005534084460142012
873.0, 7.924634407324699e-05
874.0, 0.0002494862306665247
875.0, 0.00010352706030733728
876.0, 2.8605343579414883e-05
877.0, 9.304349795065785e-05
878.0, 0.00018285243058758157
879.0, 5.241657352420412e-05
880.0, 0.00016930508328015476
881.0, 0.0003853369773322233
882.0, 0.00012893089520716103
883.0, 0.0004266402894080656
884.0, 0.00040893098406852936
885.0, 0.00024022740622674796
886.0, 0.000667292211013347
887.0, 0.00024085613452420816
888.0, 8.88511764259858e-05
889.0, 0.00041035258737259165
890.0, 0.0006646013188153665
891.0, 0.0007708088778578858
892.0, 0.0007235857395618252
893.0, 0.000522660132569221
894.0, 0.0005011436170753023
895.0, 0.0005047996204205129
896.0, 0.0004701877739482972
897.0, 0.0005498068422744051
898.0, 0.0005477281733708876
899.0, 0.00027756094436002377
900.0, 0.0002595322172132696
901.0, 0.0008525669349800629
902.0, 0.0004805948703320001
903.0, 0.0005571989962186367
904.0, 0.0006452387424847407
905.0, 0.0008495789717102253
906.0, 0.0008766710219851496
907.0, 0.0007901733715692594
908.0, 0.000660804071281914
909.0, 0.0006489374268471652
910.0, 0.0011503401805563259
911.0, 0.0015777813926600897
912.0, 0.0017888004423552075
913.0, 0.0015635285705691581
914.0, 0.0011757504707807596
915.0, 0.0012079128004458088
916.0, 0.0012161048470315857
917.0, 0.0011535532701289456
918.0, 0.0013984121295396773
919.0, 0.0013624235910042306
920.0, 0.0009757357842025263
921.0, 0.0011167378158224003
922.0, 0.001464006719990954
923.0, 0.000824567907330466
924.0, 0.0006718392156292687
925.0, 0.000680742160419302
926.0, 0.0005829552761439134
927.0, 0.000504993994678431
928.0, 0.0003274069404055641
929.0, 0.0002875571075523389
930.0, 0.0008371270772299247
931.0, 0.0006170392817859585
932.0, 0.0002492419616194463
933.0, 0.00018219558765898152
934.0, 0.000230093631172391
935.0, 0.00010802701737761789
936.0, 0.00012609329953678174
937.0, 0.00042838593748093597
938.0, 0.0005967435082477495
939.0, 0.0006010875198439608
940.0, 0.00019210233342631264
941.0, 0.00015802781274098544
942.0, 0.00043680442971156543
943.0, 0.00022814478563797184
944.0, 0.00031146012208149623
945.0, 0.00045625390409815506
946.0, 0.00041200740644931
947.0, 0.00023672275824986787
948.0, 0.00013187263801411333
949.0, 0.0007263995107393665
950.0, 0.00039733712124061753
951.0, 0.00017975568479646967
952.0, 0.00029515999248891573
953.0, 0.0005232859325690297
954.0, 0.0006423437493450745
955.0, 0.0005756803213856281
956.0, 0.00041472200264624647
957.0, 0.00041715925622896747
958.0, 0.00041313967339023396
959.0, 0.00018091195808858076
960.0, 0.0006002442369221604
961.0, 0.000558019606033854
962.0, 0.0005870920486894729
963.0, 0.0002838694063208524
964.0, 0.0003905799199805097
965.0, 0.00031691892128692464
966.0, 5.54976077372051e-05
967.0, 0.00027146454824957607
968.0, 0.0007785406558768918
969.0, 0.0005934972026247345
970.0, 0.00038824058540284223
971.0, 0.0001427763134855465
972.0, 0.00030150412801015555
973.0, 0.00016467452340237967
974.0, 0.00027127958222475276
975.0, 0.00037472695795684344
976.0, 8.044780594360287e-05
977.0, 9.724793765486807e-05
978.0, 0.0003842588340019951
979.0, 0.0005640934472408558
980.0, 0.0006328149617482355
981.0, 0.00011904610034072103
982.0, 0.0003525185515728556
983.0, 0.0001527968583058039
984.0, 0.00017775104264533054
985.0, 0.00013122783378559564
986.0, 0.00041211457802178033
987.0, 0.00043616284999901814
988.0, 0.0004458788002254471
989.0, 0.000264133491239756
990.0, 0.0001286119027620776
991.0, 0.0002879123380902133
992.0, 0.0006372529756908777
993.0, 0.0007755720895083777
994.0, 0.00024243554348131444
995.0, 0.00031935412746467504
996.0, 0.0006534709397163646
997.0, 0.0003993638266270496
998.0, 0.00024886653641634335
999.0, 0.00033792166972643136
1000.0, 0.00017175004047111845
1001.0, 0.0003846574260934856
1002.0, 0.0004476190644207069
1003.0, 0.0002977766963675712
1004.0, 4.391475316128688e-05
1005.0, 0.0004842338874888908
1006.0, 0.0005423700155386302
1007.0, 7.661500767614085e-05
1008.0, 6.541190793862156e-05
1009.0, 0.00042863874725388557
1010.0, 0.0005994523428135542
1011.0, 0.00041290272481676047
1012.0, 3.883688435520427e-05
1013.0, 0.00016137102111796035
1014.0, 5.0111969791786544e-05
1015.0, 0.0003422100188052927
1016.0, 0.0005811954996508359
1017.0, 0.0003954865523336379
1018.0, 0.000539416859123531
1019.0, 0.0009614328802048362
1020.0, 0.0008187395906283346
1021.0, 0.0006351260938624066
1022.0, 0.0008282380200176354
1023.0, 0.0007460127420957592
1024.0, 0.0009950506625267385
1025.0, 0.0007864256659212712
1026.0, 0.0006393064495635549
1027.0, 0.0006068488834065091
1028.0, 0.0009411712769430648
1029.0, 0.001161339086481073
1030.0, 0.0013579204547684595
1031.0, 0.0013825392137293158
1032.0, 0.0009737587160616959
1033.0, 0.00113419378735606
1034.0, 0.0013140031592595454
1035.0, 0.001363786881401709
1036.0, 0.0013946728239653426
1037.0, 0.0016011619087576835
1038.0, 0.0018792018399743356
1039.0, 0.002095746857242426
1040.0, 0.002272517661069635
1041.0, 0.0025981241237355993
1042.0, 0.0032735693626752232
1043.0, 0.003623496551832127
1044.0, 0.0035867723915840636
1045.0, 0.003422303518060881
1046.0, 0.0034700882802758764
1047.0, 0.0034824646783564017
1048.0, 0.002613300395472385
1049.0, 0.001965440043545359
1050.0, 0.0018865768497119434
1051.0, 0.00220500427465379
1052.0, 0.0018876211754832038
1053.0, 0.0022083602812609598
1054.0, 0.002266028005176772
1055.0, 0.0020458595245490792
1056.0, 0.0019064624638220336
1057.0, 0.0019876591448749737
1058.0, 0.0021981848624997836
1059.0, 0.0024816286599431275
1060.0, 0.002877987739186895
1061.0, 0.0032749236657638983
1062.0, 0.0033619450105972525
1063.0, 0.003911324563867435
1064.0, 0.004715289194749526
1065.0, 0.005038624209664783
1066.0, 0.004555629548241183
1067.0, 0.0037952180489699166
1068.0, 0.003561637776165133
1069.0, 0.002951811654373269
1070.0, 0.002727355700949107
1071.0, 0.0030525670460566454
1072.0, 0.002735329180057383
1073.0, 0.002402607505114607
1074.0, 0.0023402078712699806
1075.0, 0.002218738484550511
1076.0, 0.0019081719150191446
1077.0, 0.002679598071539491
1078.0, 0.002867214186419304
1079.0, 0.003044390316229234
1080.0, 0.0029658340966525597
1081.0, 0.003217054189685997
1082.0, 0.003742483893980635
1083.0, 0.003616344055009757
1084.0, 0.0028067992109977306
1085.0, 0.002159881962863961
1086.0, 0.0019090586266834746
1087.0, 0.001583703271433237
1088.0, 0.001073927097578486
1089.0, 0.0008272440762892492
1090.0, 0.0005592669677391977
1091.0, 0.000584725586582607
1092.0, 0.0003874583144444521
1093.0, 0.000582264506022279
1094.0, 0.0005497168163274391
1095.0, 0.0004935405213987403
1096.0, 0.0001805175215214475
1097.0, 0.0001918889767452307
1098.0, 0.00023014040250523855
1099.0, 0.00012922939875621985
1100.0, 0.0005453393785706015
1101.0, 0.00040839653801603005
1102.0, 2.5562160832031677e-05
1103.0, 0.0001776858631956049
1104.0, 0.0005032544258474593
1105.0, 0.00040993008914237065
1106.0, 0.0007769821875880231
1107.0, 0.0004964091877404497
1108.0, 0.00017736985763212374
1109.0, 0.00023995576481612566
1110.0, 0.00028611455081049825
1111.0, 0.0003466410101542994
1112.0, 0.0005348789052798814
1113.0, 0.00012307053941910294
1114.0, 0.00022771469852540403
1115.0, 8.509128021568535e-05
1116.0, 0.0001020632704401776
1117.0, 0.00029692167244516434
1118.0, 0.0004181286174245424
1119.0, 0.0005873204690007695
1120.0, 0.0006414037886230582
1121.0, 0.00010555028649276651
1122.0, 0.00014563330225478296
1123.0, 9.696234558272736e-05
1124.0, 0.000544656024665138
1125.0, 0.000789813497043409
1126.0, 0.0009737925009905778
1127.0, 0.0010175702245437171
1128.0, 0.0009078888505464251
1129.0, 0.0006234451628223803
1130.0, 0.0004455092150355867
1131.0, 0.0007225586791131474
1132.0, 0.0006904713417814226
1133.0, 0.0009112118370941395
1134.0, 0.0012617527071651026
1135.0, 0.0012615854733527287
1136.0, 0.0008090414844595237
1137.0, 0.0009411491479420689
1138.0, 0.001235961769351859
1139.0, 0.0013207243303224117
1140.0, 0.001507653222006647
1141.0, 0.0014910754168654657
1142.0, 0.0015525382801045218
1143.0, 0.0019964433651485512
1144.0, 0.0022472813796556614
1145.0, 0.002638277789263678
1146.0, 0.0035921975724565285
1147.0, 0.0038970291542687265
1148.0, 0.003955688116184949
1149.0, 0.004970303402188612
1150.0, 0.00599111410778464
1151.0, 0.006383251157169485
1152.0, 0.007485584430309512
1153.0, 0.008734944098470384
1154.0, 0.010172168901650775
1155.0, 0.011842060333571687
1156.0, 0.014097485932692366
1157.0, 0.016071274960959274
1158.0, 0.018789178098945564
1159.0, 0.020890178266839518
1160.0, 0.020996734216041573
1161.0, 0.020245422116363012
1162.0, 0.01847336078969985
1163.0, 0.015516459528156418
1164.0, 0.012215688425411243
1165.0, 0.009664498814930825
1166.0, 0.007453536088075012
1167.0, 0.005652916921464461
1168.0, 0.0047474665485793535
1169.0, 0.0037595612240832227
1170.0, 0.0031108651887378777
1171.0, 0.0026388603037591314
1172.0, 0.0020689167712121654
1173.0, 0.0016068874593570673
1174.0, 0.0009628964966868885
1175.0, 0.0006517073659034387
1176.0, 0.0004811945025950279
1177.0, 0.0005052920511262127
1178.0, 0.0009235533560242725
1179.0, 0.0006196209284988005
1180.0, 0.00041481982923984576
1181.0, 0.000992154514710354
1182.0, 0.0007292370937188189
1183.0, 0.0003893605125858009
1184.0, 0.000526166649454419
1185.0, 0.000688671055430165
1186.0, 0.0005225946787339547
1187.0, 0.0006010066576766553
1188.0, 0.0006439601153888997
1189.0, 0.0002893956394765198
1190.0, 5.940373880785747e-05
1191.0, 0.00042069976865526695
1192.0, 0.0002702836276894779
1193.0, 0.0002938376182616306
1194.0, 0.00042539784409971584
1195.0, 0.00036156032296679776
1196.0, 0.0002452791865293202
1197.0, 0.0001822958250716067
1198.0, 0.00011984028973687995
1199.0, 2.9848938177188663e-05
1200.0, 0.00018572607963008545
1201.0, 0.0005518724688311153
1202.0, 0.0004969878388924431
1203.0, 0.0002987017857606529
1204.0, 0.0001870468812470891
1205.0, 0.0003053934059129199
1206.0, 0.00027964575009815055
1207.0, 0.0002975132371712888
1208.0, 0.0003137783003785851
1209.0, 5.000333496535207e-05
1210.0, 3.873688947527337e-05
1211.0, 0.0002696672505071299
1212.0, 0.0003891093080412902
1213.0, 0.0001196200642516314
1214.0, 0.00017462995254768053
1215.0, 0.00012160988242187268
1216.0, 0.00019740220379068065
1217.0, 0.00025017806861766254
1218.0, 0.00042495248127151367
1219.0, 0.00035871954247231335
1220.0, 0.00022662598493950175
1221.0, 0.000291460389430574
1222.0, 0.00016362551693777143
1223.0, 0.00010571923503023244
1224.0, 0.0001984396472999306
1225.0, 0.00019813959494954935
1226.0, 0.0003715034451945208
1227.0, 0.0005920985665984692
1228.0, 0.0006777932241038452
1229.0, 0.00032805806234594654
1230.0, 0.0005134816891592158
1231.0, 0.000811487319848572
1232.0, 0.0008321112171157474
1233.0, 0.0006521079642955039
1234.0, 0.0005169523234869279
1235.0, 0.0006698930414820917
1236.0, 0.0007466772094251281
1237.0, 0.0008993703879974256
1238.0, 0.0008605366856080671
1239.0, 0.0005190634771716773
1240.0, 0.0003270125003968677
1241.0, 0.0003497688535225938
1242.0, 0.0003578188522043931
1243.0, 0.0002692009301360944
1244.0, 0.000482805583306852
1245.0, 0.00048622232996678726
1246.0, 0.0005918678383691228
1247.0, 0.0004185957687964437
1248.0, 0.00027023088284237315
1249.0, 0.0002949085949084714
1250.0, 9.513005746450312e-05
1251.0, 0.0004733461728220808
1252.0, 0.0003044459392572912
1253.0, 0.0002804561758291186
1254.0, 6.412001070001556e-05
1255.0, 0.0003385628322569637
1256.0, 0.0004691800256618179
1257.0, 0.0004815671100822835
1258.0, 0.0003660110591924083
1259.0, 0.00032915657800138486
1260.0, 0.00021210349439321154
1261.0, 0.00035646071748769736
1262.0, 0.0006544726357735312
1263.0, 0.0003989673078679975
1264.0, 4.2248255955132285e-05
1265.0, 7.118205155432943e-05
1266.0, 0.0003340911201971927
1267.0, 0.0006602633694182793
1268.0, 0.0005910372016786341
1269.0, 0.0002729796168174857
1270.0, 0.0001982424938843615
1271.0, 0.00024800478031767573
1272.0, 0.00040636545009339333
1273.0, 0.0005398157920582594
1274.0, 0.000517230030290293
1275.0, 0.00011208049074968541
1276.0, 0.0004330635540817495
1277.0, 0.00030787285179568547
1278.0, 0.00032341665852304695
1279.0, 0.0004295391679400722
1280.0, 7.940778882951133e-05
1281.0, 3.522926354444644e-05
1282.0, 0.00026302584436057897
1283.0, 0.00036966645410679226
1284.0, 0.00024993678309358057
1285.0, 0.00032555562471294863
1286.0, 4.574936474856871e-05
1287, 0.0
1288, 0.0
1289, 0.0
1290, 0.0
1291, 0.0
1292, 0.0
1293, 0.0
1294, 0.0
1295, 0.0
1296, 0.0
1297, 0.0
1298, 0.0
1299, 0.0
1300, 0.0
1301, 0.0
1302, 0.0
1303, 0.0
1304, 0.0
1305, 0.0
1306, 0.0
1307, 0.0
1308, 0.0
1309, 0.0
1310, 0.0
1311, 0.0
1312, 0.0
1313, 0.0
1314, 0.0
1315, 0.0
1316, 0.0
1317, 0.0
1318, 0.0
1319, 0.0
1320, 0.0
1321, 0.0
1322, 0.0
1323, 0.0
1324, 0.0
1325, 0.0
1326, 0.0
1327, 0.0
1328, 0.0
1329, 0.0
1330, 0.0
1331, 0.0
1332, 0.0
1333, 0.0
1334, 0.0
1335, 0.0
1336, 0.0
1337, 0.0
1338, 0.0
1339, 0.0
1340, 0.0
1341, 0.0
1342, 0.0
1343, 0.0
1344, 0.0
1345, 0.0
1346, 0.0
1347, 0.0
1348, 0.0
1349, 0.0
1350, 0.0
1351, 0.0
1352, 0.0
1353, 0.0
1354, 0.0
1355, 0.0
1356, 0.0
1357, 0.0
1358, 0.0
1359, 0.0
1360, 0.0
1361, 0.0
1362, 0.0
1363, 0.0
1364, 0.0
1365, 0.0
1366, 0.0
1367, 0.0
1368, 0.0
1369, 0.0
1370, 0.0
1371, 0.0
1372, 0.0
1373, 0.0
1374, 0.0
1375, 0.0
1376, 0.0
1377, 0.0
1378, 0.0
1379, 0.0
1380, 0.0
1381, 0.0
1382, 0.0
1383, 0.0
1384, 0.0
1385, 0.0
1386, 0.0
1387, 0.0
1388, 0.0
1389, 0.0
1390, 0.0
1391, 0.0
1392, 0.0
1393, 0.0
1394, 0.0
1395, 0.0
1396, 0.0
1397, 0.0
1398, 0.0
1399, 0.0
1400, 0.0
1401, 0.0
1402, 0.0
1403, 0.0
1404, 0.0
1405, 0.0
1406, 0.0
1407, 0.0
1408, 0.0
1409, 0.0
1410, 0.0
1411, 0.0
1412, 0.0
1413, 0.0
1414, 0.0
1415, 0.0
1416, 0.0
1417, 0.0
1418, 0.0
1419, 0.0
1420, 0.0
1421, 0.0
1422, 0.0
1423, 0.0
1424, 0.0
1425, 0.0
1426, 0.0
1427, 0.0
1428, 0.0
1429, 0.0
1430, 0.0
1431, 0.0
1432, 0.0
1433, 0.0
1434, 0.0
1435, 0.0
1436, 0.0
1437, 0.0
1438, 0.0
1439, 0.0
1440, 0.0
1441, 0.0
1442, 0.0
1443, 0.0
1444, 0.0
1445, 0.0
1446, 0.0
1447, 0.0
1448, 0.0
1449, 0.0
1450, 0.0
1451, 0.0
1452, 0.0
1453, 0.0
1454, 0.0
1455, 0.0
1456, 0.0
1457, 0.0
1458, 0.0
1459, 0.0
1460, 0.0
1461, 0.0
1462, 0.0
1463, 0.0
1464, 0.0
1465, 0.0
1466, 0.0
1467, 0.0
1468, 0.0
1469, 0.0
1470, 0.0
1471, 0.0
1472, 0.0
1473, 0.0
1474, 0.0
1475, 0.0
1476, 0.0
1477, 0.0
1478, 0.0
1479, 0.0
1480, 0.0
1481, 0.0
1482, 0.0
1483, 0.0
1484, 0.0
1485, 0.0
1486, 0.0
1487, 0.0
1488, 0.0
1489, 0.0
1490, 0.0
1491, 0.0
1492, 0.0
1493, 0.0
1494, 0.0
1495, 0.0
1496, 0.0
1497, 0.0
1498, 0.0
1499, 0.0
1500, 0.0
1501, 0.0
1502, 0.0
1503, 0.0
1504, 0.0
1505, 0.0
1506, 0.0
1507, 0.0
1508, 0.0
1509, 0.0
1510, 0.0
1511, 0.0
1512, 0.0
1513, 0.0
1514, 0.0
1515, 0.0
1516, 0.0
1517, 0.0
1518, 0.0
1519, 0.0
1520, 0.0
1521, 0.0
1522, 0.0
1523, 0.0
1524, 0.0
1525, 0.0
1526, 0.0
1527, 0.0
1528, 0.0
1529, 0.0
1530, 0.0
1531, 0.0
1532, 0.0
1533, 0.0
1534, 0.0
1535, 0.0
1536, 0.0
1537, 0.0
1538, 0.0
1539, 0.0
1540, 0.0
1541, 0.0
1542, 0.0
1543, 0.0
1544, 0.0
1545, 0.0
1546, 0.0
1547, 0.0
1548, 0.0
1549, 0.0
1550, 0.0
1551, 0.0
1552, 0.0
1553, 0.0
1554, 0.0
1555, 0.0
1556, 0.0
1557, 0.0
1558, 0.0
1559, 0.0
1560, 0.0
1561, 0.0
1562, 0.0
1563, 0.0
1564, 0.0
1565, 0.0
1566, 0.0
1567, 0.0
1568, 0.0
1569, 0.0
1570, 0.0
1571, 0.0
1572, 0.0
1573, 0.0
1574, 0.0
1575, 0.0
1576, 0.0
1577, 0.0
1578, 0.0
1579, 0.0
1580, 0.0
1581, 0.0
1582, 0.0
1583, 0.0
1584, 0.0
1585, 0.0
1586, 0.0
1587, 0.0
1588, 0.0
1589, 0.0
1590, 0.0
1591, 0.0
1592, 0.0
1593, 0.0
1594, 0.0
1595, 0.0
1596, 0.0
1597, 0.0
1598, 0.0
1599, 0.0
