30, 0.0
31, 0.0
32, 0.0
33, 0.0
34, 0.0
35, 0.0
36, 0.0
37, 0.0
38, 0.0
39, 0.0
40, 0.0
41, 0.0
42, 0.0
43, 0.0
44, 0.0
45, 0.0
46, 0.0
47, 0.0
48, 0.0
49, 0.0
50, 0.0
51, 0.0
52, 0.0
53, 0.0
54, 0.0
55, 0.0
56, 0.0
57, 0.0
58, 0.0
59, 0.0
60, 0.0
61, 0.0
62, 0.0
63, 0.0
64, 0.0
65, 0.0
66, 0.0
67, 0.0
68, 0.0
69, 0.0
70, 0.0
71, 0.0
72, 0.0
73, 0.0
74, 0.0
75, 0.0
76, 0.0
77, 0.0
78, 0.0
79, 0.0
80, 0.0
81, 0.0
82, 0.0
83, 0.0
84, 0.0
85, 0.0
86, 0.0
87, 0.0
88, 0.0
89, 0.0
90, 0.0
91, 0.0
92, 0.0
93, 0.0
94, 0.0
95, 0.0
96, 0.0
97, 0.0
98, 0.0
99, 0.0
100, 0.0
101, 0.0
102, 0.0
103, 0.0
104, 0.0
105, 0.0
106, 0.0
107, 0.0
108, 0.0
109, 0.0
110, 0.0
111, 0.0
112, 0.0
113, 0.0
114, 0.0
115, 0.0
116, 0.0
117, 0.0
118, 0.0
119, 0.0
120, 0.0
121, 0.0
122, 0.0
123, 0.0
124.0, 0.0003745446017462456
125.0, 0.007531380930663569
126.0, 0.01715476660735833
127.0, 0.027546288595071564
128.0, 0.03505502598238947
129.0, 0.039509807429843516
130.0, 0.04035846235084544
131.0, 0.037384273191097814
132.0, 0.034408051766009445
133.0, 0.028485127466905246
134.0, 0.021337732266447446
135.0, 0.015456782134599677
136.0, 0.010028707401953194
137.0, 0.006096776698075938
138.0, 0.004930942373075765
139.0, 0.0060791390641092595
140.0, 0.008289131863425357
141.0, 0.011589784893050825
142.0, 0.016643749692959026
143.0, 0.023299766100174434
144.0, 0.031049475785069808
145.0, 0.03891004387633351
146.0, 0.04722183040538145
147.0, 0.056987275405237715
148.0, 0.06839211724116862
149.0, 0.08041182134801864
150.0, 0.09063666514873053
151.0, 0.09650585928147311
152.0, 0.09549085219183896
153.0, 0.08507284210875722
154.0, 0.0706189814772553
155.0, 0.057441471092444824
156.0, 0.04671268569363377
157.0, 0.03795371059034772
158.0, 0.03227058751529453
159.0, 0.028948942290870246
160.0, 0.02815695655261966
161.0, 0.029230765567267
162.0, 0.031041084167943295
163.0, 0.03334652984276363
164.0, 0.036354532144516574
165.0, 0.039616202388231186
166.0, 0.0427068911486698
167.0, 0.04561757882795019
168.0, 0.04837979830017817
169.0, 0.05094881626995156
170.0, 0.05250877781598792
171.0, 0.05160957290291446
172.0, 0.04701329616065071
173.0, 0.04227486876418963
174.0, 0.03858997005952296
175.0, 0.03607714327614379
176.0, 0.03574666411724998
177.0, 0.03585517872666034
178.0, 0.03645668334850871
179.0, 0.037635810384387534
180.0, 0.03897826537977587
181.0, 0.04091562867386435
182.0, 0.042680880850299516
183.0, 0.04253494450216684
184.0, 0.04003050674424764
185.0, 0.038309448331388676
186.0, 0.034881922655142165
187.0, 0.0309316169289177
188.0, 0.027909771365646315
189.0, 0.026278268723504267
190.0, 0.02626148296403745
191.0, 0.027967710196335777
192.0, 0.03037252781463593
193.0, 0.03322852089531032
194.0, 0.03897462701211936
195.0, 0.046689415376280054
196.0, 0.054577600408521505
197.0, 0.06209520176081903
198.0, 0.07001420681727463
199.0, 0.07863108004285804
200.0, 0.08867267812872098
201.0, 0.09790798740057371
202.0, 0.10438120013823
203.0, 0.1094872681359453
204.0, 0.10779194816227444
205.0, 0.10157075333883762
206.0, 0.09203983624750951
207.0, 0.07948908476664959
208.0, 0.06566260327250846
209.0, 0.05492163451541335
210.0, 0.046513521032119705
211.0, 0.039049899111349616
212.0, 0.033323975697951216
213.0, 0.029068840297470797
214.0, 0.025755404104873317
215.0, 0.02346513702395619
216.0, 0.022107370468560476
217.0, 0.019984349076850566
218.0, 0.019340328230706028
219.0, 0.019328614229890444
220.0, 0.018996164806295582
221.0, 0.018122857819586294
222.0, 0.01821869406238991
223.0, 0.0185633958224725
224.0, 0.01824147865131265
225.0, 0.01788538094928378
226.0, 0.019740507538523033
227.0, 0.02093979282311212
228.0, 0.021212695065857125
229.0, 0.02219819668121175
230.0, 0.02523358040587809
231.0, 0.028457501364082552
232.0, 0.03064567729841322
233.0, 0.032260103797619365
234.0, 0.033874893977942584
235.0, 0.035504413928674414
236.0, 0.03528333041293263
237.0, 0.034613843651312017
238.0, 0.033822866071373026
239.0, 0.032407099871583855
240.0, 0.030183732344778554
241.0, 0.029754894055315114
242.0, 0.029662286630390527
243.0, 0.030146676031048373
244.0, 0.03185331122114165
245.0, 0.03304847249962319
246.0, 0.034618185556773894
247.0, 0.036330707684346986
248.0, 0.03761423642117789
249.0, 0.03772903462596547
250.0, 0.03568279249362832
251.0, 0.032040049306428085
252.0, 0.02768731353561802
253.0, 0.023162430012708086
254.0, 0.018566053277543387
255.0, 0.013298818903177946
256.0, 0.009938522055608794
257.0, 0.008007812692806838
258.0, 0.006244309299861027
259.0, 0.004423251696638723
260.0, 0.004068200149172665
261.0, 0.004316748379840392
262.0, 0.00454596956941779
263.0, 0.004802009218593224
264.0, 0.005825230429417749
265.0, 0.007377413453613424
266.0, 0.009236123121621474
267.0, 0.011282433567632333
268.0, 0.01369653758968044
269.0, 0.017080015109519724
270.0, 0.019880224152601936
271.0, 0.023873159711732227
272.0, 0.0286566934042284
273.0, 0.03262079108489728
274.0, 0.038281557147588845
275.0, 0.04430346304242041
276.0, 0.0502401950102439
277.0, 0.055778970389860544
278.0, 0.06052690255748399
279.0, 0.0673643030654861
280.0, 0.07339652990710345
281.0, 0.07823134670105704
282.0, 0.08267003456338837
283.0, 0.08747263753944742
284.0, 0.08997852496934383
285.0, 0.0898247478993717
286.0, 0.08673288491459949
287.0, 0.08051048556426559
288.0, 0.07203823584154405
289.0, 0.06545067903883398
290.0, 0.060504604865078825
291.0, 0.056624175270979626
292.0, 0.054445584366926016
293.0, 0.055310540472191604
294.0, 0.054618129356151145
295.0, 0.05560950835420136
296.0, 0.056809068953528045
297.0, 0.05520783790774125
298.0, 0.05757177091911996
299.0, 0.05810086783141982
300.0, 0.05657164564433548
301.0, 0.05492940971460456
302.0, 0.05524666918083492
303.0, 0.05706395577623268
304.0, 0.061570911061022374
305.0, 0.06861124863387563
306.0, 0.0787204629028948
307.0, 0.09203810986528212
308.0, 0.10512153289768043
309.0, 0.11674321050777811
310.0, 0.12543374242044722
311.0, 0.12962935321964825
312.0, 0.12765647758059964
313.0, 0.11890609750704272
314.0, 0.10390647745467128
315.0, 0.08747800501390444
316.0, 0.07243269926187781
317.0, 0.05971404991583769
318.0, 0.051728245317020166
319.0, 0.04750182624711662
320.0, 0.044450533145015854
321.0, 0.04181763909927049
322.0, 0.0401743223116569
323.0, 0.03939123602428265
324.0, 0.038617324502522365
325.0, 0.038001283754278276
326.0, 0.03662837813817954
327.0, 0.03330227114402224
328.0, 0.03368644313329144
329.0, 0.03432702536946746
330.0, 0.0350422424206995
331.0, 0.036173807611531814
332.0, 0.0378730950726429
333.0, 0.041494253066078256
334.0, 0.045538976902296
335.0, 0.05033771596925037
336.0, 0.055509048179446206
337.0, 0.06028117986791499
338.0, 0.06726524544753837
339.0, 0.07465809407004945
340.0, 0.08108081994597459
341.0, 0.08581457496625448
342.0, 0.08888338221904568
343.0, 0.09169049646744158
344.0, 0.089818667650144
345.0, 0.08446332086400483
346.0, 0.07615284217368971
347.0, 0.06513002076797623
348.0, 0.05538686412353594
349.0, 0.04741967413692359
350.0, 0.04017363944073137
351.0, 0.034575376341244655
352.0, 0.03147518435250873
353.0, 0.029685527234589865
354.0, 0.028960020469477307
355.0, 0.028180657011509912
356.0, 0.0277483503715444
357.0, 0.02815754113957286
358.0, 0.028600697988342718
359.0, 0.029101090664509884
360.0, 0.029045215317069845
361.0, 0.026974012523447125
362.0, 0.02333266750715679
363.0, 0.020837144152036684
364.0, 0.01910560836205339
365.0, 0.017084703027032792
366.0, 0.01474624802557437
367.0, 0.012173594811434981
368.0, 0.009396035463897017
369.0, 0.007332253330656346
370.0, 0.006682712301083928
371.0, 0.00580526157172901
372.0, 0.005030597137591841
373.0, 0.005720907807523764
374.0, 0.006411351516341701
375.0, 0.006111324573030051
376.0, 0.00678748487617335
377.0, 0.008494490873950926
378.0, 0.010306721725868002
379.0, 0.01305990126559874
380.0, 0.01620144377472627
381.0, 0.018273445130765606
382.0, 0.020412554733849102
383.0, 0.023754802085440212
384.0, 0.026917478040906523
385.0, 0.029233405243067445
386.0, 0.0317651792721889
387.0, 0.033405266444487554
388.0, 0.033201178413849085
389.0, 0.031404531653493765
390.0, 0.027710551614603673
391.0, 0.02474821441207893
392.0, 0.021532638819720017
393.0, 0.018293820075109244
394.0, 0.01698870065175409
395.0, 0.01643682943588588
396.0, 0.015486231109391565
397.0, 0.014597269924729504
398.0, 0.014728987393040863
399.0, 0.015584024326298265
400.0, 0.014997138365459186
401.0, 0.015365184728670486
402.0, 0.016772080916257894
403.0, 0.018163829809300397
404.0, 0.019174548022958836
405.0, 0.02063690654054594
406.0, 0.021778834388766002
407.0, 0.02191103330899002
408.0, 0.022496994642926003
409.0, 0.02317993062583758
410.0, 0.02186051713846359
411.0, 0.021465764185479415
412.0, 0.0208675768304398
413.0, 0.020534966191891144
414.0, 0.0197341538924762
415.0, 0.018474467235075363
416.0, 0.018943999541395688
417.0, 0.018365007331881993
418.0, 0.017951587551015013
419.0, 0.017095397173810572
420.0, 0.015971554174559158
421.0, 0.016255162245361898
422.0, 0.015515903122293766
423.0, 0.014808971341528452
424.0, 0.01447382246457304
425.0, 0.014072358620458999
426.0, 0.012841160616473127
427.0, 0.011024493628754338
428.0, 0.010545860651903903
429.0, 0.009009337939336096
430.0, 0.006810610915417848
431.0, 0.005100038518571942
432.0, 0.003473855969904834
433.0, 0.0015344739668855588
434.0, 0.00033898883863132495
435.0, 0.000775576966596115
436.0, 0.0015060348781830138
437.0, 0.0013994392317654345
438.0, 0.001785448303349754
439.0, 0.002716796430286043
440.0, 0.003070292610024088
441.0, 0.003408742007634761
442.0, 0.003643521418166433
443.0, 0.002711128983042361
444.0, 0.002422378017382375
445.0, 0.002730611173978452
446.0, 0.002334542315859109
447.0, 0.002075498061192951
448.0, 0.0025683825462828264
449.0, 0.00203580063982741
450.0, 0.0027046274568041564
451.0, 0.0031199175719342645
452.0, 0.0031438770026668795
453.0, 0.0032155650263335027
454.0, 0.0033318804857891877
455.0, 0.0034089284747247568
456.0, 0.003103177603117842
457.0, 0.0028551713229998128
458.0, 0.002846990893475492
459.0, 0.0029025517732593755
460.0, 0.00273524693456217
461.0, 0.0013707510772563189
462.0, 0.00025117276509242174
463.0, 5.010785460073712e-05
464.0, 0.00012819007714814153
465.0, 0.000680661895140142
466.0, 0.001213437445608477
467.0, 0.002793395427324416
468.0, 0.0038200522577329045
469.0, 0.004679631385764083
470.0, 0.005900266753439449
471.0, 0.006787667090271955
472.0, 0.0074546043354640976
473.0, 0.01028917521257151
474.0, 0.01295978963677633
475.0, 0.015542870587656504
476.0, 0.019024159324494843
477.0, 0.023032856868327675
478.0, 0.026437388414514856
479.0, 0.029926335991358938
480.0, 0.03318094095317472
481.0, 0.03587530434695251
482.0, 0.038103491576217896
483.0, 0.03973323666967992
484.0, 0.039869380239391475
485.0, 0.04102173349849768
486.0, 0.04234692546904488
487.0, 0.04233613164278204
488.0, 0.04112309521441465
489.0, 0.040012442894423794
490.0, 0.03878977114132228
491.0, 0.0368756218702371
492.0, 0.03351287010681748
493.0, 0.029571561154143278
494.0, 0.027057130727208972
495.0, 0.025081549521124742
496.0, 0.02285467141576273
497.0, 0.020504185964350233
498.0, 0.018465094173739142
499.0, 0.017320825718304664
500.0, 0.017107233115862767
501.0, 0.015506105869646444
502.0, 0.014663408326293679
503.0, 0.014325754836144459
504.0, 0.014566070777539561
505.0, 0.015305753313744673
506.0, 0.015594490007696348
507.0, 0.016560297828734236
508.0, 0.018324136084900775
509.0, 0.019592623320346895
510.0, 0.02003835316243729
511.0, 0.02002694943063209
512.0, 0.01938812248373446
513.0, 0.01866323067459151
514.0, 0.018715141225180688
515.0, 0.01767885030609111
516.0, 0.015749379832986236
517.0, 0.014638124691369225
518.0, 0.014622039080605238
519.0, 0.014331175805258247
520.0, 0.014241551720867572
521.0, 0.014053355368054146
522.0, 0.013828332741537117
523.0, 0.014357874224340223
524.0, 0.015580433804794524
525.0, 0.015161038418759756
526.0, 0.014772583013253892
527.0, 0.014261098336257747
528.0, 0.014218485622220056
529.0, 0.015162270523647759
530.0, 0.01475070329983718
531.0, 0.016289131086722818
532.0, 0.017193523652462156
533.0, 0.01826103013263011
534.0, 0.02042522329196696
535.0, 0.02275537297217917
536.0, 0.024298395451700646
537.0, 0.02607652262914012
538.0, 0.028576557312101614
539.0, 0.029932148833754817
540.0, 0.03067153570134564
541.0, 0.03198755317209084
542.0, 0.032133793554347485
543.0, 0.03361905395354911
544.0, 0.036425149211796105
545.0, 0.039121808622831995
546.0, 0.04188926957464757
547.0, 0.045079918451091626
548.0, 0.047043811905291236
549.0, 0.047741152105413395
550.0, 0.049231676952172225
551.0, 0.049526043200441836
552.0, 0.04826197668370371
553.0, 0.04610675789431675
554.0, 0.043208747917113016
555.0, 0.040586253166228846
556.0, 0.038021551451063056
557.0, 0.03417372144478442
558.0, 0.030049915339650197
559.0, 0.02680638392578252
560.0, 0.024122382081567584
561.0, 0.021888461421229202
562.0, 0.019294846408824368
563.0, 0.01695188609400161
564.0, 0.015534008815625477
565.0, 0.014390560855258791
566.0, 0.012566521240562293
567.0, 0.010997385211784371
568.0, 0.00960441037692154
569.0, 0.00879540423369645
570.0, 0.008275220860306786
571.0, 0.008319620703272822
572.0, 0.008692675021597143
573.0, 0.008464851910060653
574.0, 0.009492460280833196
575.0, 0.009531853148145508
576.0, 0.010046191981062992
577.0, 0.010472123218025098
578.0, 0.010568471281757842
579.0, 0.011523879137213484
580.0, 0.011963715934340305
581.0, 0.01294385221618005
582.0, 0.01435882842282393
583.0, 0.015308678688009558
584.0, 0.016081903617476894
585.0, 0.017219113236952677
586.0, 0.018003834932411228
587.0, 0.01926467616277207
588.0, 0.01971534371833956
589.0, 0.018386615983552443
590.0, 0.016680395792381775
591.0, 0.01592741709538347
592.0, 0.014909929913708642
593.0, 0.012433542627406431
594.0, 0.009976079424883624
595.0, 0.00823814088931213
596.0, 0.006219347629673334
597.0, 0.0041382243228751696
598.0, 0.0032841482334004866
599.0, 0.002214759804555101
600.0, 0.0004102710697972856
601.0, 0.00017503850476961703
602.0, 0.0006052396121524073
603.0, 0.0010565021972857933
604.0, 0.0011316039027946781
605.0, 0.0021087161166726616
606.0, 0.0022093185008264238
607.0, 0.002632480841053408
608.0, 0.0025364490935531783
609.0, 0.0019908830702839134
610.0, 0.0018241238106347622
611.0, 0.0026318105961961125
612.0, 0.003341634322758184
613.0, 0.0028848411210774653
614.0, 0.002438459640966949
615.0, 0.0023576428371554496
616.0, 0.002465807472513001
617.0, 0.0025486838864515215
618.0, 0.0025211314135418416
619.0, 0.0027738965251810983
620.0, 0.002524405020736134
621.0, 0.002368461516836507
622.0, 0.0025785587584563753
623.0, 0.00250225025839372
624.0, 0.0016687376479624452
625.0, 0.0012469223098431302
626.0, 0.0016811666829506194
627.0, 0.0011165863327412798
628.0, 0.0011371608429810562
629.0, 0.0018719810615104662
630.0, 0.0019584411192745963
631.0, 0.0006882976759582764
632.0, 0.00022206854841279056
633.0, 3.920911653984336e-05
634.0, 0.0008078079958150543
635.0, 0.0016619568513139
636.0, 0.0016783666197631884
637.0, 0.0019454344084442752
638.0, 0.0034771233969710415
639.0, 0.004089104532054824
640.0, 0.005541596641307909
641.0, 0.0066454358950507495
642.0, 0.007495961999345672
643.0, 0.008918450716511128
644.0, 0.010853466093556217
645.0, 0.01228333563618225
646.0, 0.012780662944060703
647.0, 0.014591638565449396
648.0, 0.015499659065725717
649.0, 0.016649913213286613
650.0, 0.018668158429613408
651.0, 0.020662488815207457
652.0, 0.02257367787139936
653.0, 0.024791203250040042
654.0, 0.02530544486223318
655.0, 0.026573001955177998
656.0, 0.027591475232771657
657.0, 0.026770254963528067
658.0, 0.02478365800034539
659.0, 0.022815184916187455
660.0, 0.020379910898656158
661.0, 0.017657894621500605
662.0, 0.01550785019418143
663.0, 0.012934093926860879
664.0, 0.01097546275203465
665.0, 0.010670786292370399
666.0, 0.009528002463185864
667.0, 0.008971074041871242
668.0, 0.00925022431319751
669.0, 0.009487122444409954
670.0, 0.009772260595307844
671.0, 0.010352991148587478
672.0, 0.011176109913302885
673.0, 0.012206985179517845
674.0, 0.013623382455286083
675.0, 0.015821280306861883
676.0, 0.016849444689802037
677.0, 0.01788856065840313
678.0, 0.019188134257795083
679.0, 0.020227853698518726
680.0, 0.022044515170639368
681.0, 0.02483906395605852
682.0, 0.027008149490872848
683.0, 0.029437317076698527
684.0, 0.0330250984578198
685.0, 0.03724379595609536
686.0, 0.041499843623222524
687.0, 0.04640299568854995
688.0, 0.05330054492390141
689.0, 0.05891456695125282
690.0, 0.06568117216505663
691.0, 0.07279567313545468
692.0, 0.07996540438201169
693.0, 0.08702431091386593
694.0, 0.09389911050012091
695.0, 0.10259793375235474
696.0, 0.10945804849042186
697.0, 0.11357432239389918
698.0, 0.11296653789804098
699.0, 0.1065246948259472
700.0, 0.09570495628294479
701.0, 0.08291772971060749
702.0, 0.0690465526663618
703.0, 0.05645973548649426
704.0, 0.04535980302795724
705.0, 0.0362971898594293
706.0, 0.030788288554381548
707.0, 0.027415453199810133
708.0, 0.0245377756020904
709.0, 0.023163473011235423
710.0, 0.022803238927983784
711.0, 0.02262615912026675
712.0, 0.02228929901236537
713.0, 0.02280071251820922
714.0, 0.024404524996846318
715.0, 0.025871862172445567
716.0, 0.02618234928155724
717.0, 0.027287619201722145
718.0, 0.024272274907819844
719.0, 0.021806846517007625
720.0, 0.01825098496575301
721.0, 0.014153530482596037
722.0, 0.010700327105194456
723.0, 0.007932667259579466
724.0, 0.005901537467514575
725.0, 0.0035206706394073604
726.0, 0.0018139840146997317
727.0, 0.0004287048518595381
728.0, 0.00039452289575959623
729.0, 0.0004766435736882303
730.0, 1.907699210969321e-05
731.0, 0.00045893431701911987
732.0, 0.0010949310310718757
733.0, 0.0004603126849380734
734.0, 0.00036429728487337703
735.0, 0.0008569350964643339
736.0, 0.0006990458828625382
737.0, 0.0001928591366499996
738.0, 9.738625879580506e-05
739.0, 0.0002823164240357203
740.0, 3.205625785521939e-05
741.0, 0.00045031975011100285
742.0, 0.0011705190478167636
743.0, 0.0018456427507686907
744.0, 0.002590177532137238
745.0, 0.00233661631367751
746.0, 0.0013464645029940838
747.0, 0.003454042213494778
748.0, 0.005623970106410558
749.0, 0.006692091343189229
750.0, 0.006969171072252482
751.0, 0.0077717550656161635
752.0, 0.008147280513495135
753.0, 0.007692600251085077
754.0, 0.007256479976522352
755.0, 0.007174170306290063
756.0, 0.007121074581070239
757.0, 0.006786287526199166
758.0, 0.006897462581064915
759.0, 0.008121266427304418
760.0, 0.009087389501326922
761.0, 0.01033576480579668
762.0, 0.012597825649288472
763.0, 0.013313636457986264
764.0, 0.015345167825470013
765.0, 0.016725795744179803
766.0, 0.01668603000914055
767.0, 0.01710118562795912
768.0, 0.017227985508556077
769.0, 0.01612622842634944
770.0, 0.014498135088407369
771.0, 0.01325683868869919
772.0, 0.012402807920163683
773.0, 0.012125020200944749
774.0, 0.011062214206572765
775.0, 0.011134015200322412
776.0, 0.01084088773869948
777.0, 0.009108180382502247
778.0, 0.0076900817492163535
779.0, 0.007705653013837579
780.0, 0.006782340816668985
781.0, 0.005973040818321954
782.0, 0.005615207547730613
783.0, 0.005860831555572551
784.0, 0.006301800705457971
785.0, 0.006752658081996498
786.0, 0.0070678295070892025
787.0, 0.006947033122516543
788.0, 0.007573714389975496
789.0, 0.009305309854743756
790.0, 0.009197769113902163
791.0, 0.010454511846610283
792.0, 0.012272631895408793
793.0, 0.013882321875201087
794.0, 0.015543125530218768
795.0, 0.017014191819366448
796.0, 0.019096373921654374
797.0, 0.02116774299276561
798.0, 0.023556733167278715
799.0, 0.02629058671554601
800.0, 0.030082146456372652
801.0, 0.03519245993626101
802.0, 0.04028363541152747
803.0, 0.04530606880796331
804.0, 0.05302797084046727
805.0, 0.06295476088650027
806.0, 0.0719335042679494
807.0, 0.08505200331497662
808.0, 0.10243736173124678
809.0, 0.12318916549153666
810.0, 0.1497356406092517
811.0, 0.1845930805209038
812.0, 0.22740935242725852
813.0, 0.2768606154134994
814.0, 0.33866915772213857
815.0, 0.415083224798345
816.0, 0.5013047357466303
817.0, 0.5956309370883891
818.0, 0.6975573793917722
819.0, 0.7982628535973637
820.0, 0.8857758065709788
821.0, 0.952217131498481
822.0, 0.9922546317553953
823.0, 0.99902656364152
824.0, 0.9735703253156599
825.0, 0.9354477669810948
826.0, 0.8959015948802388
827.0, 0.8589048591794969
828.0, 0.8257093186373203
829.0, 0.7975394820997227
830.0, 0.7734151900927688
831.0, 0.7475397137824171
832.0, 0.7222277583469846
833.0, 0.6847106569258449
834.0, 0.632982626119079
835.0, 0.5776441534615894
836.0, 0.515164703101799
837.0, 0.44772934338250786
838.0, 0.38493525087394675
839.0, 0.32442105131443044
840.0, 0.2737368918084747
841.0, 0.2260408725138408
842.0, 0.18897870454100504
843.0, 0.15728865555736607
844.0, 0.13152199199012962
845.0, 0.11233125083546787
846.0, 0.09627823938318027
847.0, 0.08144775983512054
848.0, 0.06952475516074291
849.0, 0.061063748486497114
850.0, 0.05476945351335545
851.0, 0.04829923426249051
852.0, 0.0436265348085243
853.0, 0.039682565334448625
854.0, 0.036896470166795835
855.0, 0.03500738922294735
856.0, 0.03265226103338728
857.0, 0.03062123224986711
858.0, 0.030334663166735124
859.0, 0.028973860102084668
860.0, 0.02668735016067955
861.0, 0.02472957501290857
862.0, 0.022763614937172154
863.0, 0.021411172123837047
864.0, 0.020469010160995976
865.0, 0.01937843071385812
866.0, 0.018321450187950263
867.0, 0.016533215643634885
868.0, 0.015181867447666102
869.0, 0.014557314134138783
870.0, 0.014625315744637097
871.0, 0.014086806430830974
872.0, 0.012797312009727073
873.0, 0.012393013347511786
874.0, 0.011644113667946756
875.0, 0.010190321738209038
876.0, 0.010482961287120198
877.0, 0.008914716457190015
878.0, 0.007916976047311385
879.0, 0.0071346142968872804
880.0, 0.0069455100473645014
881.0, 0.006643062327153261
882.0, 0.006574327208551119
883.0, 0.006811109977372893
884.0, 0.007378464434479414
885.0, 0.008919760438491362
886.0, 0.010612355307947588
887.0, 0.011120714435011158
888.0, 0.013200221073468124
889.0, 0.014770150036383323
890.0, 0.015680971065018052
891.0, 0.016120202203402576
892.0, 0.015848062855429324
893.0, 0.014204002658216303
894.0, 0.012319196967480857
895.0, 0.011695225453595928
896.0, 0.010827156623824894
897.0, 0.010669098817611593
898.0, 0.009804763616614956
899.0, 0.009483053926549034
900.0, 0.009975972701381787
901.0, 0.010022071140557889
902.0, 0.010785665503352719
903.0, 0.011334709011589684
904.0, 0.010680639675918422
905.0, 0.010776026563603536
906.0, 0.011331283426407206
907.0, 0.010767896837710563
908.0, 0.010240659745242384
909.0, 0.00852652172007267
910.0, 0.006774294223466489
911.0, 0.004454365119471644
912.0, 0.0026925968074911037
913.0, 0.0015925231651222928
914.0, 0.0003506563467062421
915.0, 0.0009692869008773456
916.0, 0.002781290749380461
917.0, 0.0032016348847537794
918.0, 0.0023188442589329086
919.0, 0.0024795425407214055
920.0, 0.002786858446696249
921.0, 0.0022080438660248567
922.0, 0.002477854568321944
923.0, 0.0025678860095414303
924.0, 0.0014335289511151882
925.0, 0.00025444770134654804
926.0, 0.0008351961864770622
927.0, 0.0016937652395163537
928.0, 0.003148144347873907
929.0, 0.004469050366376903
930.0, 0.007144103983220869
931.0, 0.00991200385703599
932.0, 0.013229080211520484
933.0, 0.014616349375599896
934.0, 0.01675937156591019
935.0, 0.01887066208806366
936.0, 0.02221759271412656
937.0, 0.023825052398667692
938.0, 0.025547440518521425
939.0, 0.024958699739160504
940.0, 0.02553085745800972
941.0, 0.024611616968445518
942.0, 0.021961393614372313
943.0, 0.021756788409968347
944.0, 0.022569646102041884
945.0, 0.02155551406538016
946.0, 0.021025587473603988
947.0, 0.021041418516859162
948.0, 0.02101376317472092
949.0, 0.020304890523352
950.0, 0.01961468837115274
951.0, 0.01897768642271999
952.0, 0.018281205725570796
953.0, 0.017370658749066854
954.0, 0.016650770584260424
955.0, 0.01614995088819615
956.0, 0.015473184792579114
957.0, 0.015130803703813967
958.0, 0.015389329758063943
959.0, 0.01493406481252963
960.0, 0.013966267352235632
961.0, 0.012882247436954016
962.0, 0.010226899856223076
963.0, 0.010497772302569167
964.0, 0.010227453010911984
965.0, 0.009706262077287676
966.0, 0.008685981278365576
967.0, 0.008725363889766401
968.0, 0.010263535057355546
969.0, 0.010736742081117974
970.0, 0.01052013802852738
971.0, 0.012544097429049841
972.0, 0.01307368148923305
973.0, 0.0146579206383779
974.0, 0.015106060198792386
975.0, 0.01546500352805852
976.0, 0.01608620279366619
977.0, 0.015897132806507078
978.0, 0.015041362963222792
979.0, 0.015047944201542292
980.0, 0.015216093990007567
981.0, 0.015049873929919407
982.0, 0.015983842661473468
983.0, 0.01641596000727641
984.0, 0.01766065509989403
985.0, 0.018579997374250964
986.0, 0.01965024763192393
987.0, 0.023009935770104344
988.0, 0.024278123921142432
989.0, 0.024766348768525192
990.0, 0.025648083057616677
991.0, 0.025865607218307073
992.0, 0.02677999311470213
993.0, 0.026991384132473987
994.0, 0.027388141842287873
995.0, 0.02804366390677392
996.0, 0.02836077507084337
997.0, 0.028863591067284772
998.0, 0.030308584089520186
999.0, 0.030809913952205528
1000.0, 0.03197244913844237
1001.0, 0.032383566541963525
1002.0, 0.032480004981762685
1003.0, 0.03284679611444551
1004.0, 0.033598362535852286
1005.0, 0.03346817935082218
1006.0, 0.0321783185743843
1007.0, 0.0323016234264242
1008.0, 0.03224479920884707
1009.0, 0.033984878926210035
1010.0, 0.03506244167090467
1011.0, 0.037366285695759484
1012.0, 0.04013546598578612
1013.0, 0.04322467151548745
1014.0, 0.046634845717962954
1015.0, 0.04778011236376063
1016.0, 0.04884530674504681
1017.0, 0.049450373180707274
1018.0, 0.04702344432966245
1019.0, 0.04358228887935111
1020.0, 0.039658425488388376
1021.0, 0.03424838634625962
1022.0, 0.028109098969891562
1023.0, 0.023893128436514945
1024.0, 0.018569014156966417
1025.0, 0.016359133287599893
1026.0, 0.014891616200642433
1027.0, 0.0135031653694945
1028.0, 0.01439981808903347
1029.0, 0.014491092355948091
1030.0, 0.014950462383346807
1031.0, 0.017527461888845478
1032.0, 0.01873290118548119
1033.0, 0.019325541310726002
1034.0, 0.019395774944253086
1035.0, 0.020835676139034313
1036.0, 0.02097587759412829
1037.0, 0.01977095902312229
1038.0, 0.018297722350427932
1039.0, 0.01688880466288438
1040.0, 0.015533546834438914
1041.0, 0.014098452649596692
1042.0, 0.01308772386991284
1043.0, 0.01300942656476492
1044.0, 0.012555857329894999
1045.0, 0.011722017438487928
1046.0, 0.012287454220798976
1047.0, 0.011806465100767998
1048.0, 0.012339841253360134
1049.0, 0.011660611287248808
1050.0, 0.010387396012093144
1051.0, 0.010511217977224156
1052.0, 0.009477290259365615
1053.0, 0.009116351774419862
1054.0, 0.009041220621981384
1055.0, 0.00937223492680383
1056.0, 0.00998488245247158
1057.0, 0.011032376946960193
1058.0, 0.011943499154029022
1059.0, 0.012678861681514176
1060.0, 0.013807363434083621
1061.0, 0.014036774904987578
1062.0, 0.0141350718355586
1063.0, 0.013686092043538364
1064.0, 0.01333136412213368
1065.0, 0.012255619664151982
1066.0, 0.010310302031359441
1067.0, 0.008817358108650057
1068.0, 0.00836976764929208
1069.0, 0.006401298574464485
1070.0, 0.005561612481260508
1071.0, 0.0051657016483514775
1072.0, 0.0035556925613010573
1073.0, 0.003367972566634212
1074.0, 0.003628959640916681
1075.0, 0.0028842286394154524
1076.0, 0.003756050652062821
1077.0, 0.003944765115725263
1078.0, 0.005083235614233637
1079.0, 0.004680746732748544
1080.0, 0.004775205670880929
1081.0, 0.00600542169903337
1082.0, 0.006884153642035905
1083.0, 0.006926558491120793
1084.0, 0.007445285879499071
1085.0, 0.008035439200951445
1086.0, 0.00793059518889776
1087.0, 0.008670654342814754
1088.0, 0.010044562686653677
1089.0, 0.011075551055857648
1090.0, 0.012110430513439163
1091.0, 0.012643378223654883
1092.0, 0.012999020292339947
1093.0, 0.01339610142885628
1094.0, 0.013249433167491616
1095.0, 0.011897953191528742
1096.0, 0.009784453190557476
1097.0, 0.007866767690061472
1098.0, 0.006102340859762514
1099.0, 0.0041196957008391615
1100.0, 0.0022874957918742537
1101.0, 0.0013914985646291448
1102.0, 0.0007513506651958752
1103.0, 0.0003485153642738088
1104.0, 0.0010232763668062026
1105.0, 0.0015186262578257823
1106.0, 0.0019699300438130248
1107.0, 0.001971794368827203
1108.0, 0.0019869834759236285
1109.0, 0.001970852145502531
1110.0, 0.001600310538969017
1111.0, 0.0015492703896431423
1112.0, 0.0017327541391022926
1113.0, 0.0018236894738920177
1114.0, 0.0013093358884107055
1115.0, 0.0009498261427503008
1116.0, 0.0014263709759631286
1117.0, 0.0007080370714723737
1118.0, 0.00019999465935923949
1119.0, 0.001583661340396614
1120.0, 0.002591723627403075
1121.0, 0.003469529215724755
1122.0, 0.004246756874592847
1123.0, 0.004289388992903605
1124.0, 0.005060129843151234
1125.0, 0.006319533220673571
1126.0, 0.006262666672541826
1127.0, 0.005793602394630171
1128.0, 0.005036602445595177
1129.0, 0.005039143257920258
1130.0, 0.004132851266367208
1131.0, 0.00493558570930041
1132.0, 0.005172141474708198
1133.0, 0.005543518860497166
1134.0, 0.006331797252887575
1135.0, 0.006151866811257672
1136.0, 0.005902370631163878
1137.0, 0.005688628068263094
1138.0, 0.00505100684441628
1139.0, 0.004466265720283152
1140.0, 0.004188956994216265
1141.0, 0.003317592029687182
1142.0, 0.0025036613876367967
1143.0, 0.0029079145295538796
1144.0, 0.002763274081179555
1145.0, 0.0016053603688213965
1146.0, 0.0015047939350473977
1147.0, 0.0015177651599811537
1148.0, 0.001159122094216471
1149.0, 0.00032755536023895514
1150.0, 0.0003207367518390705
1151.0, 0.0004748611715899476
1152.0, 0.0006399240193098594
1153.0, 0.00016907687412901688
1154.0, 8.99878480580295e-05
1155.0, 0.00023714679830110793
1156.0, 0.0003171042320456723
1157.0, 0.0002618953221056277
1158.0, 0.00048681533351144945
1159.0, 0.0002506175503608121
1160.0, 1.6135849224490202e-05
1161.0, 0.00028371905912825875
1162.0, 0.000486474961296558
1163.0, 0.00016999233051956755
1164.0, 9.50231240177376e-05
1165.0, 0.0002328501689261148
1166.0, 0.0005656326333062564
1167.0, 0.000217669559832538
1168.0, 0.00020859493887452043
1169.0, 0.00029048881274827345
1170.0, 0.0009311172337522948
1171.0, 0.0005503899787206913
1172.0, 0.00048736729204655095
1173.0, 0.0004959915610912009
1174.0, 0.0001374326912649217
1175.0, 0.0004993013851650864
1176.0, 0.0006746726865086918
1177.0, 0.0002896685834924729
1178.0, 0.0001540644791538685
1179.0, 7.94409611061724e-05
1180.0, 9.805750044798236e-05
1181.0, 0.00056874868046122
1182.0, 0.00030196670609024495
1183.0, 0.0001837177968900218
1184.0, 0.0005642747329082299
1185.0, 8.291386081753032e-05
1186.0, 0.00023043741550274514
1187.0, 0.0009665457150390339
1188.0, 0.00022226318922058386
1189.0, 0.0003048429908573232
1190.0, 0.001062824216112015
1191.0, 0.0005477898725802279
1192.0, 0.0004292635885995915
1193.0, 0.00021569271628541718
1194.0, 0.0001481287228035984
1195.0, 0.0005434778045108744
1196.0, 0.00034937247493903604
1197.0, 0.00044136932979132277
1198.0, 0.000637397675988328
1199.0, 0.000355536853652191
1200.0, 0.0003127818637628454
1201.0, 0.00012702037161782417
1202.0, 0.00048398576519644764
1203.0, 0.0005337474919004312
1204.0, 0.0005557688166388928
1205.0, 0.0005176158956672423
1206.0, 0.0005495526710464291
1207.0, 0.0002544019152364131
1208.0, 0.0007907471874225543
1209.0, 0.0007240915822371061
1210.0, 0.00028133378367230195
1211.0, 0.00014931402070938977
1212.0, 0.0006843829967692321
1213.0, 0.0005772712764311653
1214.0, 0.00032790988694068846
1215.0, 0.000805762240517376
1216.0, 0.00039126968963318224
1217.0, 4.5972776571993735e-05
1218.0, 0.00027127246871845915
1219.0, 0.0003304310344089085
1220.0, 0.0008013607267234634
1221.0, 0.00021038139460519657
1222.0, 0.0003377337653611581
1223.0, 0.0005408551897933678
1224.0, 0.0010726961264235337
1225.0, 0.00023499019941607027
1226.0, 0.00018437661183305236
1227.0, 0.00015711181391716805
1228.0, 3.3190876206722384e-05
1229.0, 0.001678427889419941
1230.0, 0.0009618953347974963
1231.0, 0.00022876548138797814
1232.0, 0.0008429157085189453
1233.0, 0.0009413990397270248
1234.0, 0.0005377746760014652
1235.0, 0.00043669509292639837
1236.0, 0.00015879247648774156
1237.0, 0.00038531370749676606
1238.0, 0.00020530903787702368
1239.0, 0.00010202966147337364
1240.0, 0.00011121113883934074
1241.0, 5.127226962002885e-05
1242.0, 4.4915974671666536e-05
1243.0, 0.00039617564807433337
1244.0, 0.00012361957340062423
1245.0, 0.0003370857158025032
1246.0, 0.0004760467593848479
1247.0, 0.0007685259056371707
1248.0, 0.0006645567653581465
1249.0, 0.00032248373449371784
1250.0, 6.121935188399004e-05
1251.0, 0.00015777827095407883
1252.0, 0.000608021290012588
1253.0, 0.00042073939775786793
1254.0, 0.00019277852917310597
1255.0, 5.139301470288413e-05
1256.0, 1.5862976737358347e-05
1257, 0.0
1258, 0.0
1259, 0.0
1260, 0.0
1261, 0.0
1262, 0.0
1263, 0.0
1264, 0.0
1265, 0.0
1266, 0.0
1267, 0.0
1268, 0.0
1269, 0.0
1270, 0.0
1271, 0.0
1272, 0.0
1273, 0.0
1274, 0.0
1275, 0.0
1276, 0.0
1277, 0.0
1278, 0.0
1279, 0.0
1280, 0.0
1281, 0.0
1282, 0.0
1283, 0.0
1284, 0.0
1285, 0.0
1286, 0.0
1287, 0.0
1288, 0.0
1289, 0.0
1290, 0.0
1291, 0.0
1292, 0.0
1293, 0.0
1294, 0.0
1295, 0.0
1296, 0.0
1297, 0.0
1298, 0.0
1299, 0.0
1300, 0.0
1301, 0.0
1302, 0.0
1303, 0.0
1304, 0.0
1305, 0.0
1306, 0.0
1307, 0.0
1308, 0.0
1309, 0.0
1310, 0.0
1311, 0.0
1312, 0.0
1313, 0.0
1314, 0.0
1315, 0.0
1316, 0.0
1317, 0.0
1318, 0.0
1319, 0.0
1320, 0.0
1321, 0.0
1322, 0.0
1323, 0.0
1324, 0.0
1325, 0.0
1326, 0.0
1327, 0.0
1328, 0.0
1329, 0.0
1330, 0.0
1331, 0.0
1332, 0.0
1333, 0.0
1334, 0.0
1335, 0.0
1336, 0.0
1337, 0.0
1338, 0.0
1339, 0.0
1340, 0.0
1341, 0.0
1342, 0.0
1343, 0.0
1344, 0.0
1345, 0.0
1346, 0.0
1347, 0.0
1348, 0.0
1349, 0.0
1350, 0.0
1351, 0.0
1352, 0.0
1353, 0.0
1354, 0.0
1355, 0.0
1356, 0.0
1357, 0.0
1358, 0.0
1359, 0.0
1360, 0.0
1361, 0.0
1362, 0.0
1363, 0.0
1364, 0.0
1365, 0.0
1366, 0.0
1367, 0.0
1368, 0.0
1369, 0.0
1370, 0.0
1371, 0.0
1372, 0.0
1373, 0.0
1374, 0.0
1375, 0.0
1376, 0.0
1377, 0.0
1378, 0.0
1379, 0.0
1380, 0.0
1381, 0.0
1382, 0.0
1383, 0.0
1384, 0.0
1385, 0.0
1386, 0.0
1387, 0.0
1388, 0.0
1389, 0.0
1390, 0.0
1391, 0.0
1392, 0.0
1393, 0.0
1394, 0.0
1395, 0.0
1396, 0.0
1397, 0.0
1398, 0.0
1399, 0.0
1400, 0.0
1401, 0.0
1402, 0.0
1403, 0.0
1404, 0.0
1405, 0.0
1406, 0.0
1407, 0.0
1408, 0.0
1409, 0.0
1410, 0.0
1411, 0.0
1412, 0.0
1413, 0.0
1414, 0.0
1415, 0.0
1416, 0.0
1417, 0.0
1418, 0.0
1419, 0.0
1420, 0.0
1421, 0.0
1422, 0.0
1423, 0.0
1424, 0.0
1425, 0.0
1426, 0.0
1427, 0.0
1428, 0.0
1429, 0.0
1430, 0.0
1431, 0.0
1432, 0.0
1433, 0.0
1434, 0.0
1435, 0.0
1436, 0.0
1437, 0.0
1438, 0.0
1439, 0.0
1440, 0.0
1441, 0.0
1442, 0.0
1443, 0.0
1444, 0.0
1445, 0.0
1446, 0.0
1447, 0.0
1448, 0.0
1449, 0.0
1450, 0.0
1451, 0.0
1452, 0.0
1453, 0.0
1454, 0.0
1455, 0.0
1456, 0.0
1457, 0.0
1458, 0.0
1459, 0.0
1460, 0.0
1461, 0.0
1462, 0.0
1463, 0.0
1464, 0.0
1465, 0.0
1466, 0.0
1467, 0.0
1468, 0.0
1469, 0.0
1470, 0.0
1471, 0.0
1472, 0.0
1473, 0.0
1474, 0.0
1475, 0.0
1476, 0.0
1477, 0.0
1478, 0.0
1479, 0.0
1480, 0.0
1481, 0.0
1482, 0.0
1483, 0.0
1484, 0.0
1485, 0.0
1486, 0.0
1487, 0.0
1488, 0.0
1489, 0.0
1490, 0.0
1491, 0.0
1492, 0.0
1493, 0.0
1494, 0.0
1495, 0.0
1496, 0.0
1497, 0.0
1498, 0.0
1499, 0.0
1500, 0.0
1501, 0.0
1502, 0.0
1503, 0.0
1504, 0.0
1505, 0.0
1506, 0.0
1507, 0.0
1508, 0.0
1509, 0.0
1510, 0.0
1511, 0.0
1512, 0.0
1513, 0.0
1514, 0.0
1515, 0.0
1516, 0.0
1517, 0.0
1518, 0.0
1519, 0.0
1520, 0.0
1521, 0.0
1522, 0.0
1523, 0.0
1524, 0.0
1525, 0.0
1526, 0.0
1527, 0.0
1528, 0.0
1529, 0.0
1530, 0.0
1531, 0.0
1532, 0.0
1533, 0.0
1534, 0.0
1535, 0.0
1536, 0.0
1537, 0.0
1538, 0.0
1539, 0.0
1540, 0.0
1541, 0.0
1542, 0.0
1543, 0.0
1544, 0.0
1545, 0.0
1546, 0.0
1547, 0.0
1548, 0.0
1549, 0.0
1550, 0.0
1551, 0.0
1552, 0.0
1553, 0.0
1554, 0.0
1555, 0.0
1556, 0.0
1557, 0.0
1558, 0.0
1559, 0.0
1560, 0.0
1561, 0.0
1562, 0.0
1563, 0.0
1564, 0.0
1565, 0.0
1566, 0.0
1567, 0.0
1568, 0.0
1569, 0.0
1570, 0.0
1571, 0.0
1572, 0.0
1573, 0.0
1574, 0.0
1575, 0.0
1576, 0.0
1577, 0.0
1578, 0.0
1579, 0.0
1580, 0.0
1581, 0.0
1582, 0.0
1583, 0.0
1584, 0.0
1585, 0.0
1586, 0.0
1587, 0.0
1588, 0.0
1589, 0.0
1590, 0.0
1591, 0.0
1592, 0.0
1593, 0.0
1594, 0.0
1595, 0.0
1596, 0.0
1597, 0.0
1598, 0.0
1599, 0.0
