30, 0.0
31, 0.0
32, 0.0
33, 0.0
34, 0.0
35, 0.0
36, 0.0
37, 0.0
38, 0.0
39, 0.0
40, 0.0
41, 0.0
42, 0.0
43, 0.0
44, 0.0
45, 0.0
46, 0.0
47, 0.0
48, 0.0
49, 0.0
50, 0.0
51, 0.0
52, 0.0
53, 0.0
54, 0.0
55, 0.0
56, 0.0
57, 0.0
58, 0.0
59, 0.0
60, 0.0
61, 0.0
62, 0.0
63, 0.0
64, 0.0
65, 0.0
66, 0.0
67, 0.0
68, 0.0
69, 0.0
70, 0.0
71, 0.0
72, 0.0
73, 0.0
74, 0.0
75, 0.0
76, 0.0
77, 0.0
78, 0.0
79, 0.0
80, 0.0
81, 0.0
82, 0.0
83, 0.0
84, 0.0
85, 0.0
86, 0.0
87, 0.0
88, 0.0
89, 0.0
90, 0.0
91, 0.0
92, 0.0
93, 0.0
94, 0.0
95, 0.0
96, 0.0
97, 0.0
98, 0.0
99, 0.0
100, 0.0
101, 0.0
102, 0.0
103, 0.0
104, 0.0
105, 0.0
106, 0.0
107, 0.0
108, 0.0
109, 0.0
110, 0.0
111, 0.0
112, 0.0
113, 0.0
114, 0.0
115, 0.0
116, 0.0
117, 0.0
118, 0.0
119.0, 0.00013002222372742716
120.0, 0.0007219344199301455
121.0, 0.0010082293973309652
122.0, 0.000496778555186697
123.0, 0.00011787186666836568
124.0, 0.0005300976086180774
125.0, 0.00029461259312530335
126.0, 0.000354092404300676
127.0, 0.0009718873149618257
128.0, 0.0013714365821832744
129.0, 0.0004868137496175205
130.0, 0.0017907228332982308
131.0, 0.0029545500307536525
132.0, 0.0033258147553229173
133.0, 0.0030426466986566113
134.0, 0.0010798631969135058
135.0, 0.0012771968950015884
136.0, 0.002518974382690023
137.0, 0.0039036954435064993
138.0, 0.004810653911021304
139.0, 0.005235078870584352
140.0, 0.004809924547553705
141.0, 0.0047421510446886235
142.0, 0.005615482335458201
143.0, 0.0062318094433792765
144.0, 0.004150840775380046
145.0, 0.004586940237619707
146.0, 0.006122612985305717
147.0, 0.007846409230176654
148.0, 0.008503120992934213
149.0, 0.007548685807867356
150.0, 0.007920756668785963
151.0, 0.009812709646942312
152.0, 0.010257218985924632
153.0, 0.010309882987225289
154.0, 0.011397247278577232
155.0, 0.014509829267206205
156.0, 0.013062077673406763
157.0, 0.01475447801687539
158.0, 0.018206118957082785
159.0, 0.021736232538212656
160.0, 0.024141926209780014
161.0, 0.028288309203982686
162.0, 0.030114724966493055
163.0, 0.03454123861148889
164.0, 0.039596269426517554
165.0, 0.04309096199910693
166.0, 0.04611290590103713
167.0, 0.048321641486277184
168.0, 0.0511275182944434
169.0, 0.05521565506194165
170.0, 0.060583918484133144
171.0, 0.06633065429771094
172.0, 0.06763627964599
173.0, 0.06863581578353688
174.0, 0.0688307255779144
175.0, 0.06756120165993207
176.0, 0.06416939051655313
177.0, 0.05795352001719457
178.0, 0.05069888299316047
179.0, 0.04398621662230464
180.0, 0.03777039923367273
181.0, 0.03200270375868906
182.0, 0.026772775812890972
183.0, 0.022390318155882005
184.0, 0.019844067225118937
185.0, 0.018953864177041008
186.0, 0.018157982885927057
187.0, 0.01635680019028103
188.0, 0.01575589129904212
189.0, 0.014194224869803639
190.0, 0.012904724173876584
191.0, 0.012199930315397168
192.0, 0.01179027349051266
193.0, 0.01095521656898138
194.0, 0.01119705981591719
195.0, 0.011055393828923756
196.0, 0.010532377672243607
197.0, 0.010037857738971747
198.0, 0.009774972565320172
199.0, 0.008746971239336272
200.0, 0.008818227928107441
201.0, 0.00922899911073699
202.0, 0.009327206864591537
203.0, 0.00881394453301008
204.0, 0.007788634151619318
205.0, 0.006222141523815088
206.0, 0.006989190948260235
207.0, 0.00692184990297387
208.0, 0.0066066001463174874
209.0, 0.007199214104486953
210.0, 0.007772384008530482
211.0, 0.00886700814448142
212.0, 0.009417615649337536
213.0, 0.009503611317943708
214.0, 0.009750937359027373
215.0, 0.010958884076453249
216.0, 0.01189443166999384
217.0, 0.0119159019873668
218.0, 0.012507652566134711
219.0, 0.013274485475609697
220.0, 0.013535767151566411
221.0, 0.013144498116916207
222.0, 0.016373542813140202
223.0, 0.018488115479694863
224.0, 0.01987584743095608
225.0, 0.020465488058001375
226.0, 0.019989736600401962
227.0, 0.019398379147910805
228.0, 0.016819784618731803
229.0, 0.014933435077592103
230.0, 0.014817424622164304
231.0, 0.015157671058834164
232.0, 0.01189939773684608
233.0, 0.012479559131244315
234.0, 0.011473028274604566
235.0, 0.010170181077599932
236.0, 0.009746521845588147
237.0, 0.010036628621746934
238.0, 0.006489956341239103
239.0, 0.006230759979156879
240.0, 0.009345387332654843
241.0, 0.009720900577184327
242.0, 0.007411778304243057
243.0, 0.008132316183762601
244.0, 0.0074228087897243835
245.0, 0.00836116163775873
246.0, 0.008112337614517545
247.0, 0.007786952959684353
248.0, 0.0081535403150629
249.0, 0.007242424864158352
250.0, 0.009040063958088455
251.0, 0.00971713781600862
252.0, 0.010310007394041783
253.0, 0.010643207245637358
254.0, 0.010449170900652905
255.0, 0.012233111971029961
256.0, 0.012514516186282573
257.0, 0.013807015139738438
258.0, 0.016143472322848428
259.0, 0.018931531838740114
260.0, 0.021077375390916267
261.0, 0.0189730882763904
262.0, 0.01797193471300793
263.0, 0.018286135502252696
264.0, 0.019405905394634257
265.0, 0.020469945095894553
266.0, 0.02048198640267653
267.0, 0.022462523208640967
268.0, 0.025437899819429455
269.0, 0.02820770667668345
270.0, 0.030805321491860504
271.0, 0.03395941974767218
272.0, 0.03844173781338597
273.0, 0.04168670667302542
274.0, 0.044618036607317925
275.0, 0.04984788933690971
276.0, 0.055490046443053546
277.0, 0.0575075505708654
278.0, 0.06697960773522763
279.0, 0.07114796086026842
280.0, 0.07775931165441419
281.0, 0.08525814437426396
282.0, 0.09211916611416104
283.0, 0.0996197788092879
284.0, 0.10647850296630654
285.0, 0.11221897557452873
286.0, 0.11883757056769674
287.0, 0.12575291837915306
288.0, 0.13184649640347096
289.0, 0.13706464705383997
290.0, 0.14066759685892816
291.0, 0.14258744435177503
292.0, 0.14304267445549154
293.0, 0.14255784226356139
294.0, 0.14122767797087277
295.0, 0.13682796323104163
296.0, 0.13578286573202117
297.0, 0.13012001050853111
298.0, 0.12266956055299297
299.0, 0.11407445926541168
300.0, 0.10294292452386498
301.0, 0.09351185645286948
302.0, 0.08286234261956442
303.0, 0.07255678445052152
304.0, 0.06367543509106693
305.0, 0.05604800887766622
306.0, 0.04847604335440938
307.0, 0.04521566939802337
308.0, 0.03870337755799825
309.0, 0.033629427427289166
310.0, 0.0305623492942516
311.0, 0.028068535167994464
312.0, 0.02366325228354988
313.0, 0.021934890441877908
314.0, 0.02019184410642719
315.0, 0.01735939043494559
316.0, 0.015287186867729917
317.0, 0.015258777714028398
318.0, 0.014540796723359246
319.0, 0.01395300098176839
320.0, 0.01396470578819431
321.0, 0.013587910898804342
322.0, 0.012230692257893232
323.0, 0.010432091441604435
324.0, 0.011345462693178227
325.0, 0.010700659584221454
326.0, 0.009396516902283844
327.0, 0.00912321533348183
328.0, 0.009447856246318276
329.0, 0.009193516852799892
330.0, 0.010427376584501696
331.0, 0.009638813857925905
332.0, 0.008648720724074873
333.0, 0.008771832334442835
334.0, 0.009051972882275057
335.0, 0.007684105079004734
336.0, 0.008190984433730382
337.0, 0.010793756789573113
338.0, 0.011476177537866795
339.0, 0.011573716210398042
340.0, 0.012093184006990937
341.0, 0.01288811404105516
342.0, 0.013555664368987698
343.0, 0.012261002477092496
344.0, 0.011219654987920902
345.0, 0.010445620734204207
346.0, 0.009838309833162175
347.0, 0.009613993954622608
348.0, 0.010345775018340402
349.0, 0.00931435423176075
350.0, 0.00974138989299507
351.0, 0.009692697324470806
352.0, 0.008619907847128593
353.0, 0.008601683205949735
354.0, 0.007727728202191933
355.0, 0.005813023891160272
356.0, 0.004539157452652856
357.0, 0.005209972021088357
358.0, 0.006581728584184298
359.0, 0.005001600486967456
360.0, 0.004354932640419756
361.0, 0.00346619044727185
362.0, 0.0026001108643951614
363.0, 0.002275696704883172
364.0, 0.002603489534883467
365.0, 0.003086824010257946
366.0, 0.0036015746361828757
367.0, 0.0034751604361184657
368.0, 0.003539483177921819
369.0, 0.0036641697759112416
370.0, 0.0035156136095567153
371.0, 0.0029518747995323346
372.0, 0.003228840438294356
373.0, 0.0022129327854156907
374.0, 0.0017572186166812777
375.0, 0.001141067563639916
376.0, 0.0008025385701421031
377.0, 0.0029169669477479097
378.0, 0.003008173328105925
379.0, 0.0025846081843907617
380.0, 0.0024010342105472036
381.0, 0.0020526364624054967
382.0, 0.0016108032577413906
383.0, 0.0019023441083935418
384.0, 0.0020894646042779936
385.0, 0.0009439299624235615
386.0, 0.0011739789119536855
387.0, 0.001385839059339377
388.0, 0.0008866456987647178
389.0, 0.0008553807519492344
390.0, 0.002531896507548575
391.0, 0.002421476022128879
392.0, 0.0023695295875320187
393.0, 0.0018601961749757424
394.0, 0.0008344437536176211
395.0, 0.0001144698332685846
396.0, 0.00036239929336762176
397.0, 0.0003063888512176704
398.0, 0.0005068447795317692
399.0, 0.0004521163181657983
400.0, 0.0003795350582704223
401.0, 0.0008769416556465458
402.0, 0.0001751734006966262
403.0, 0.000512057384994451
404.0, 0.0003677622304936474
405.0, 0.0003160383812740411
406.0, 0.0006499240453202758
407.0, 0.0011403433450809498
408.0, 0.0011540293538594443
409.0, 0.000809370224202638
410.0, 0.0007182913387549837
411.0, 0.0008693262726012991
412.0, 0.000756980533073205
413.0, 0.00019316287556788851
414.0, 0.0006585303879015534
415.0, 0.0005143421011808988
416.0, 0.0007668763035187311
417.0, 0.0005919047951129378
418.0, 0.00031503623131751195
419.0, 0.00037377869522740935
420.0, 0.0001363330469956746
421.0, 0.0017510875422481857
422.0, 0.0007111432499161717
423.0, 0.0003265248033710893
424.0, 0.0014370381360257999
425.0, 0.0025390370746082667
426.0, 0.0005738238462665165
427.0, 0.00024253587947170555
428.0, 0.0007865019043689694
429.0, 0.002518095857584278
430.0, 0.003082309357905604
431.0, 0.0016995125424201668
432.0, 0.00041490114565669744
433.0, 0.0010839291875361244
434.0, 0.0003966407545105781
435.0, 0.00039066535333373364
436.0, 0.0004105903648086175
437.0, 0.0003028918163993719
438.0, 0.0004992993348408446
439.0, 9.631890277500961e-05
440.0, 0.0014927057896120123
441.0, 0.0019640961334433486
442.0, 0.0017354794883883264
443.0, 0.0009816096136583906
444.0, 9.971664288644307e-05
445.0, 0.0005881980464281355
446.0, 0.0010770083693349844
447.0, 0.0008250873694032608
448.0, 0.0019202989499527974
449.0, 0.0021032445656131034
450.0, 0.000579085898564512
451.0, 0.002030479318005483
452.0, 0.0006443899471858313
453.0, 0.00075914845629966
454.0, 0.0008541718054307926
455.0, 0.001227486606208218
456.0, 0.00148269440821661
457.0, 0.00047504007972058623
458.0, 0.001403620351966067
459.0, 0.0012981291169133903
460.0, 0.003071104108437919
461.0, 0.00417771752175035
462.0, 0.0034361344535691124
463.0, 0.0017288625297365648
464.0, 0.0008409279474669572
465.0, 0.001251495259371507
466.0, 0.000511707081877108
467.0, 0.0003460778731926566
468.0, 0.0008472912317158682
469.0, 0.0013577242156917848
470.0, 0.0016575531506958002
471.0, 0.0023231047426565737
472.0, 0.0016677538946227983
473.0, 0.0026364573841859847
474.0, 0.002723923309497552
475.0, 0.00153537293691202
476.0, 0.0019708238842577244
477.0, 0.00052146848759115
478.0, 0.0036498162151579836
479.0, 0.0029858285761106824
480.0, 0.0021960084749077465
481.0, 0.002635051000016555
482.0, 0.002840460251444018
483.0, 0.0015002926616428064
484.0, 0.0009559906809024465
485.0, 0.002993745497159122
486.0, 0.002982952617779161
487.0, 0.0028309458136664555
488.0, 0.004099739193011762
489.0, 0.0037952323215671557
490.0, 0.001610057662345606
491.0, 0.0003506627912371734
492.0, 0.0008126227159006478
493.0, 0.0008673474607640088
494.0, 0.0007193029886776794
495.0, 0.002230046051037256
496.0, 0.0038531337583288068
497.0, 0.002256768317962326
498.0, 0.0020391089586288724
499.0, 0.0034022297733908567
500.0, 0.0035756551773742356
501.0, 0.0017569065372615707
502.0, 0.0023001288246740376
503.0, 0.0015243261351708976
504.0, 0.0034363579936366124
505.0, 0.003729684173057063
506.0, 0.0029718071663486765
507.0, 0.0017238257637884058
508.0, 0.0004706331010338994
509.0, 0.003702948202205375
510.0, 0.004623733163146013
511.0, 0.0020615262186118857
512.0, 0.00042112122804996747
513.0, 0.0014554819372923924
514.0, 0.0033468617690151567
515.0, 0.0018814679278151315
516.0, 0.0046208230400794515
517.0, 0.0042186894123956015
518.0, 0.0026513793254669946
519.0, 0.0018385837970592753
520.0, 0.0015402669596557934
521.0, 0.0005455742448949872
522.0, 0.001176106072735414
523.0, 0.0018709569347249975
524.0, 0.0024922130764238755
525.0, 0.002582351974820718
526.0, 0.002414822174584527
527.0, 0.0023546615823597642
528.0, 0.0023567566327069044
529.0, 0.0021966420287636342
530.0, 0.002267392207032783
531.0, 0.002315546345131347
532.0, 0.0026549757442924722
533.0, 0.003306438548913342
534.0, 0.004016415023900363
535.0, 0.004591179691770244
536.0, 0.0028605851578558782
537.0, 0.003157060872558421
538.0, 0.00342774065098337
539.0, 0.0027858048371162073
540.0, 0.002320410816404986
541.0, 0.003502862008154267
542.0, 0.0004745761578730688
543.0, 0.004054164136070413
544.0, 0.0033653161934605923
545.0, 0.0027375220326433048
546.0, 0.003239838144985881
547.0, 0.003215451761798136
548.0, 0.001313498088162882
549.0, 0.002284310492821749
550.0, 0.0021435608365845053
551.0, 0.00143112389052285
552.0, 0.0023070382214949174
553.0, 0.0037550548880655055
554.0, 0.0035714778495531444
555.0, 0.00430829979119016
556.0, 0.004110658892979333
557.0, 0.0038704614078488753
558.0, 0.003702647503785412
559.0, 0.0033424795283969917
560.0, 0.0029559002696331322
561.0, 0.0029953983905008337
562.0, 0.0022768388501670247
563.0, 0.0033710278388018843
564.0, 0.002553852950479209
565.0, 0.002603803592111081
566.0, 0.004562544515360138
567.0, 0.005574387887513346
568.0, 0.0005753528608670264
569.0, 0.0006851879867141493
570.0, 0.0012318752987737149
571.0, 0.0030796295229646936
572.0, 0.0027120972969444514
573.0, 0.0027441952767539622
574.0, 0.0053747339646030914
575.0, 0.003392693363531304
576.0, 0.003215188613729606
577.0, 0.0042601443314292395
578.0, 0.004421551283189126
579.0, 0.0028412695618821697
580.0, 0.0009303914643805961
581.0, 0.0006082857726317555
582.0, 0.0006651703652527862
583.0, 0.0002437118918823279
584.0, 0.0024514359097377258
585.0, 0.002787225259631371
586.0, 0.0025654391555055512
587.0, 0.0032217112964826678
588.0, 0.004204902595253481
589.0, 0.00425881449291193
590.0, 0.0020615513761588896
591.0, 0.002309805430943073
592.0, 0.0018006138066566954
593.0, 0.0019505497157115232
594.0, 0.00311346099561633
595.0, 0.002893821529874807
596.0, 0.00225914276130176
597.0, 0.0014531005466310214
598.0, 0.003810178277534841
599.0, 0.002375007782553783
600.0, 0.0015495697241964018
601.0, 0.003654076324506633
602.0, 0.002603712792012128
603.0, 0.0018099245274706415
604.0, 0.0030548044916944355
605.0, 0.0014002060524169297
606.0, 0.00028778062690419843
607.0, 0.00020908095704249722
608.0, 0.00030353724072807885
609.0, 0.0004954425979697997
610.0, 0.0008181783838935024
611.0, 0.0019164394831014608
612.0, 0.0014310530472244711
613.0, 0.0012815796048800733
614.0, 0.0009621273080639791
615.0, 2.1581096896481136e-05
616.0, 7.90256911176747e-05
617.0, 0.00023846655553154644
618.0, 0.002052295923301666
619.0, 0.003276910297049123
620.0, 0.0022327482469154006
621.0, 0.0016317088838964685
622.0, 0.002436510025312307
623.0, 0.0007950238399342835
624.0, 0.004250850760368988
625.0, 0.003963975803404618
626.0, 0.0035301460776800426
627.0, 0.00428217947155174
628.0, 0.005614340601069892
629.0, 0.00587623239007177
630.0, 0.004070851284377352
631.0, 0.0039704473714545765
632.0, 0.003949857739502098
633.0, 0.004137292171999759
634.0, 0.003001160035319217
635.0, 0.001780660186393396
636.0, 0.0017043803337214597
637.0, 0.001963202432885961
638.0, 0.0027730516602875854
639.0, 0.0025090584237861206
640.0, 0.0016712969436624865
641.0, 0.0017632781182467538
642.0, 0.002127748719060901
643.0, 0.0019264492956958775
644.0, 0.0015478710811317612
645.0, 0.00164218386154722
646.0, 0.0016056317251104553
647.0, 0.0017197700725422173
648.0, 0.002965160163208522
649.0, 0.0028515162818107368
650.0, 0.0022615267154054764
651.0, 0.004827544763566896
652.0, 0.0041661996022616795
653.0, 0.0023302843052671884
654.0, 0.0031280114884197083
655.0, 0.0031826339206119094
656.0, 0.0026764623867046294
657.0, 0.001915204069997594
658.0, 0.0013306704062006247
659.0, 0.004613300973932236
660.0, 0.0035233374054194086
661.0, 0.001106138152912114
662.0, 0.002232627551577831
663.0, 0.0027281534197055035
664.0, 0.001345930787845373
665.0, 0.0007328494208905457
666.0, 0.0021272151510452744
667.0, 0.0013859611452575775
668.0, 0.0037819599072207357
669.0, 0.0029175393463421496
670.0, 0.002898063947241335
671.0, 0.0033392404323229837
672.0, 0.002415988983431675
673.0, 0.00226144613214882
674.0, 0.0008119555585390044
675.0, 0.0061012895478504
676.0, 0.00540184997817555
677.0, 0.003900870251433408
678.0, 0.0035521641203577247
679.0, 0.002890688096212177
680.0, 0.0005524192929225616
681.0, 0.0006501723695223437
682.0, 0.00047858461724406375
683.0, 0.001841478938077328
684.0, 0.0027342340872957183
685.0, 0.003179434514754987
686.0, 0.0033068694066696346
687.0, 0.002685082588106966
688.0, 0.001205530023092965
689.0, 0.0029751279151325567
690.0, 0.004147566109585009
691.0, 0.0023500239203764566
692.0, 0.0027992314308845664
693.0, 0.0037307093428666175
694.0, 0.0026478527992433356
695.0, 0.004584989030781703
696.0, 0.002186404758812623
697.0, 0.0009162802245177024
698.0, 0.00027590078572384854
699.0, 0.0008050943148767578
700.0, 0.0013605312050979034
701.0, 0.0021446513989570844
702.0, 0.004301692947873854
703.0, 0.003170013168417035
704.0, 0.004688460182291713
705.0, 0.0055319071009522
706.0, 0.0046491024486048
707.0, 0.0053844327447460875
708.0, 0.006456415463974381
709.0, 0.005104985481758076
710.0, 0.004928116171360507
711.0, 0.00527727574413212
712.0, 0.005390930847377389
713.0, 0.00577268906417301
714.0, 0.0073444055183000175
715.0, 0.008362523225836341
716.0, 0.008558891233143313
717.0, 0.010446820399689666
718.0, 0.012927438464989288
719.0, 0.013851895351815639
720.0, 0.01195343991085621
721.0, 0.013113657643079688
722.0, 0.012039197514587024
723.0, 0.009796227331040939
724.0, 0.01115788538929667
725.0, 0.012639118032807118
726.0, 0.01107152725449872
727.0, 0.011678152984938663
728.0, 0.010050546308904312
729.0, 0.00944802620149803
730.0, 0.009546147771753982
731.0, 0.008888107601889196
732.0, 0.007656715485448137
733.0, 0.007413041453394306
734.0, 0.006783967733828957
735.0, 0.005823847354791416
736.0, 0.005694345764302004
737.0, 0.00523960121686608
738.0, 0.004758184140080702
739.0, 0.0047733205887291645
740.0, 0.004406327877868126
741.0, 0.005859810098610083
742.0, 0.0036164441027423484
743.0, 0.0038305265705644237
744.0, 0.0039119728774114374
745.0, 0.004682891400815266
746.0, 0.005420762183854902
747.0, 0.004284088284489225
748.0, 0.0031310140242128454
749.0, 0.0029907600881517
750.0, 0.0027731872341146438
751.0, 0.004963235667026673
752.0, 0.004811560714143992
753.0, 0.0037424520010830055
754.0, 0.004243776591975733
755.0, 0.005118178391936975
756.0, 0.003258662998513455
757.0, 0.002274795039356251
758.0, 0.00378488830244276
759.0, 0.0017281885063515968
760.0, 0.00028831187889383805
761.0, 0.0012226956532253527
762.0, 0.0028666373496090175
763.0, 0.003310799816280438
764.0, 0.0030333381356587906
765.0, 0.0055833864253517955
766.0, 0.005648056794395087
767.0, 0.004209009030961353
768.0, 0.002557964088230049
769.0, 0.002646178936369465
770.0, 0.004306085936574744
771.0, 0.0038470959827394966
772.0, 0.0024287239199262036
773.0, 0.003445639912406323
774.0, 0.0029280792553641913
775.0, 0.004827711675677685
776.0, 0.004802806945517296
777.0, 0.002423242085063125
778.0, 0.0018239422255113807
779.0, 0.0038236123392764217
780.0, 0.0018757324269221948
781.0, 0.0028637042790741573
782.0, 0.0036543735807688664
783.0, 0.002769834013083933
784.0, 0.0018484625877197131
785.0, 0.002115027850343553
786.0, 0.0027166045479773866
787.0, 0.001888389728657879
788.0, 0.001708483965557162
789.0, 0.002605813178370403
790.0, 0.0014750120723721458
791.0, 0.002774313995116362
792.0, 0.0031472879265092035
793.0, 0.0016911646198536487
794.0, 0.0017196939214652383
795.0, 0.0034324218845797087
796.0, 0.002562187402387216
797.0, 0.001821046712554784
798.0, 0.0008987570787505482
799.0, 0.0005074118512853318
800.0, 0.001070487244406751
801.0, 0.0017633530289652252
802.0, 0.0016029668716031737
803.0, 0.0014585489118067359
804.0, 0.002777688341178642
805.0, 0.0018505933180331256
806.0, 0.0011828992478263155
807.0, 0.0013960748780317588
808.0, 0.0022851532103942847
809.0, 0.0023498369643340823
810.0, 0.0009003557912583369
811.0, 0.00043347009366945005
812.0, 0.0027294382649195904
813.0, 0.0030202656802120168
814.0, 0.005009042525954232
815.0, 0.002827535926971242
816.0, 0.001378840804595435
817.0, 0.0032706225745935897
818.0, 0.004752091468731022
819.0, 0.0019252049032536884
820.0, 0.0041710657354543665
821.0, 0.0011159152190149146
822.0, 0.002142391912293406
823.0, 0.002560679353951777
824.0, 0.0013798114775585534
825.0, 0.0011718418104259163
826.0, 0.0025907113201594605
827.0, 0.0024211445961113513
828.0, 0.0027179095538189604
829.0, 0.0007918203540624326
830.0, 0.0014237608451724696
831.0, 0.0019255326565324705
832.0, 0.002772285408435001
833.0, 0.003671512285100875
834.0, 0.0032232144705109387
835.0, 0.0015595866615698136
836.0, 0.0032821443207442765
837.0, 0.0007407744894935137
838.0, 0.0029309570739295327
839.0, 0.002291385852274167
840.0, 0.0027746864831979905
841.0, 0.004014367312228834
842.0, 0.004215044938059608
843.0, 0.004025267300327159
844.0, 0.005900375055194727
845.0, 0.004190124925993601
846.0, 0.005468016021241908
847.0, 0.0032301942017680754
848.0, 0.0018426831895712325
849.0, 0.00123049541779477
850.0, 0.0014906142447170465
851.0, 0.0025690984696082253
852.0, 0.002734200959438307
853.0, 0.0018233869601990975
854.0, 0.0036350294269809555
855.0, 0.0034667574775421213
856.0, 0.0014742781086605787
857.0, 0.0029687384925656648
858.0, 0.004158323011204239
859.0, 0.0030866942401152593
860.0, 0.0035746379861065925
861.0, 0.004810696758481511
862.0, 0.004168871573295062
863.0, 0.004358667542872496
864.0, 0.004787275517656635
865.0, 0.0027538363540357356
866.0, 0.0015190592233518812
867.0, 0.0021224205915551762
868.0, 0.0032269706423838527
869.0, 0.004401366200008333
870.0, 0.003921731974557338
871.0, 0.0062463303548729735
872.0, 0.006657150391224097
873.0, 0.005879221442969176
874.0, 0.0036877972959643173
875.0, 0.0033103098405189227
876.0, 0.004703329306679699
877.0, 0.004471671231531959
878.0, 0.003753590578574712
879.0, 0.007634979943393724
880.0, 0.008091468090356858
881.0, 0.005110197693967996
882.0, 0.005957275590616279
883.0, 0.006716787152838207
884.0, 0.006695537647580085
885.0, 0.006145608693662756
886.0, 0.003880257341364634
887.0, 0.005397903296915458
888.0, 0.0013808989604941744
889.0, 0.004313118620010934
890.0, 0.004532563800899031
891.0, 0.003386686048474672
892.0, 0.0021176892686412007
893.0, 0.0016461992879600346
894.0, 0.001705683462301169
895.0, 0.0007675027447113816
896.0, 0.00013384588108887846
897.0, 0.0019271314649518716
898.0, 0.001756258618452068
899.0, 0.0019624221697323516
900.0, 0.0012875572116725939
901.0, 0.0012627081942879832
902.0, 0.0025024650961440894
903.0, 0.003226025246133534
904.0, 0.0021707613695320545
905.0, 0.0022001814168194247
906.0, 0.0014352303213702384
907.0, 0.000599252507355445
908.0, 0.0009455193634797058
909.0, 0.0008154066035525509
910.0, 0.0008909559847341782
911.0, 0.002188525420127341
912.0, 0.00416685906415293
913.0, 0.005072530928407922
914.0, 0.001724889335334654
915.0, 0.002856338180621749
916.0, 0.0025356739286367907
917.0, 0.0036179839723041074
918.0, 0.002907270948684801
919.0, 0.002344472781590722
920.0, 0.0020477671772817646
921.0, 0.00032125435968571165
922.0, 0.0012955991381239699
923.0, 0.0023326887121788934
924.0, 0.0021715798079011694
925.0, 0.00319360827829961
926.0, 0.003205591690035488
927.0, 0.0019436760499599959
928.0, 0.0015649215042452145
929.0, 0.0021063427634731876
930.0, 0.001734552293747978
931.0, 0.0011671754665818952
932.0, 0.001006188245158195
933.0, 0.0016440853551820934
934.0, 0.0014617639398178442
935.0, 0.0014595606367267637
936.0, 0.0022307712731175254
937.0, 0.003381154874370597
938.0, 0.004293971143639372
939.0, 0.0042528405905863
940.0, 0.002797284325165782
941.0, 0.0026168166427566098
942.0, 0.0033752490416801787
943.0, 0.002428839856114189
944.0, 0.003044127875466795
945.0, 0.002513866180034219
946.0, 0.0026762816916816364
947.0, 0.0025242700749676964
948.0, 0.0006280169188695175
949.0, 0.00047476005886500615
950.0, 0.0026408831954506115
951.0, 0.0033807821608740356
952.0, 0.0026555654829350296
953.0, 0.0009926699711423881
954.0, 0.0006333308167372569
955.0, 0.0004017511331001909
956.0, 8.524222243922186e-05
957.0, 0.0004181917039907273
958.0, 0.0011440651941735395
959.0, 0.001315854633970286
960.0, 0.0016971597235174943
961.0, 0.00215658908028195
962.0, 0.004104271165201236
963.0, 0.0021895915968923336
964.0, 0.0026555565975183346
965.0, 0.003017828789368114
966.0, 0.0020665163092783646
967.0, 0.0021262888535861038
968.0, 0.0006375602716302887
969.0, 0.0030471988759757165
970.0, 0.001815728714095688
971.0, 0.0010256555130501136
972.0, 0.0029951873985802685
973.0, 0.0029622090314752898
974.0, 0.0029719887125586337
975.0, 0.002818899327794703
976.0, 0.001483970542322995
977.0, 0.0010840288489770734
978.0, 0.0013474391097590863
979.0, 0.0011720334745556518
980.0, 0.0016877098932317025
981.0, 0.0025948668633679235
982.0, 0.003444186842102712
983.0, 0.0046341289644143396
984.0, 0.004543234836655627
985.0, 0.003031757231888718
986.0, 0.002421994899967058
987.0, 0.0037052750119889863
988.0, 0.003229542442419485
989.0, 0.0015523072506814228
990.0, 0.003387100344499076
991.0, 0.0017905075084813215
992.0, 0.003431956701085696
993.0, 0.004406731285721515
994.0, 0.0032305691443463933
995.0, 0.002033379463329699
996.0, 0.0016919647698785782
997.0, 0.001246201823362063
998.0, 0.002068883357893076
999.0, 0.0014788472706245745
1000.0, 0.003319712884319707
1001.0, 0.00224509308121658
1002.0, 0.0019411549437398014
1003.0, 0.002848376673929304
1004.0, 0.004152437600472997
1005.0, 0.005691454644734922
1006.0, 0.006260815268933685
1007.0, 0.0029901908860417332
1008.0, 0.004418590596670497
1009.0, 0.0024351356577120356
1010.0, 0.0024587990577297856
1011.0, 0.0035793275979484457
1012.0, 0.005184506257125785
1013.0, 0.00561458405549273
1014.0, 0.005804396805550875
1015.0, 0.005589176988336182
1016.0, 0.003969598335421964
1017.0, 0.006647513341247706
1018.0, 0.005272093458964712
1019.0, 0.004038667114708052
1020.0, 0.0050634654538676774
1021.0, 0.006276063164203117
1022.0, 0.005707404831700343
1023.0, 0.005689167468273302
1024.0, 0.006744856939862818
1025.0, 0.006518574161144319
1026.0, 0.005443405260786086
1027.0, 0.008930506821398964
1028.0, 0.008009852283266235
1029.0, 0.0060842492945117
1030.0, 0.007356631893473772
1031.0, 0.006360407637054645
1032.0, 0.0052129414314929885
1033.0, 0.00678777066335411
1034.0, 0.007713123324383118
1035.0, 0.006230236265557651
1036.0, 0.0054132053274360565
1037.0, 0.0054251580259357494
1038.0, 0.01164258519454232
1039.0, 0.004726899759605798
1040.0, 0.007453615971503349
1041.0, 0.00839102883215354
1042.0, 0.006838744014041578
1043.0, 0.006018748217162928
1044.0, 0.006696084767260228
1045.0, 0.008426817826545486
1046.0, 0.010621370203739898
1047.0, 0.011614497045686544
1048.0, 0.01137369913747569
1049.0, 0.00944519546049726
1050.0, 0.010465602054028593
1051.0, 0.010372248958182608
1052.0, 0.012469211866294266
1053.0, 0.013665950069273514
1054.0, 0.012514758778845038
1055.0, 0.011969567395909157
1056.0, 0.013033860646454344
1057.0, 0.012563012386016571
1058.0, 0.012443226984345267
1059.0, 0.015689651554182588
1060.0, 0.015697387527232952
1061.0, 0.017381542240024764
1062.0, 0.01962586563557994
1063.0, 0.021550048026488664
1064.0, 0.022882787490261583
1065.0, 0.024381686398122413
1066.0, 0.025219466224851435
1067.0, 0.025781812136656205
1068.0, 0.029326004609503124
1069.0, 0.029985170844135097
1070.0, 0.032103508119323644
1071.0, 0.04003186270262513
1072.0, 0.0396133473887907
1073.0, 0.04244650856546361
1074.0, 0.04834249301097309
1075.0, 0.050307751786166165
1076.0, 0.050896125077028787
1077.0, 0.05353048222710532
1078.0, 0.05698238899784415
1079.0, 0.06511052145760092
1080.0, 0.06900481158962096
1081.0, 0.08191759054911403
1082.0, 0.09610565037055013
1083.0, 0.1147283485273704
1084.0, 0.14227482970266173
1085.0, 0.1768931012565137
1086.0, 0.22124869217676593
1087.0, 0.28480613280744577
1088.0, 0.3689769859789778
1089.0, 0.4636277851862832
1090.0, 0.5650466668952059
1091.0, 0.6701053616966923
1092.0, 0.7860636565125905
1093.0, 0.8807348506167096
1094.0, 0.9557235201180573
1095.0, 0.9916275552698717
1096.0, 0.9741315013791297
1097.0, 0.8976478085689513
1098.0, 0.7761989854320326
1099.0, 0.631691736352174
1100.0, 0.48310868865529183
1101.0, 0.35365297209021423
1102.0, 0.25061517551239937
1103.0, 0.17905377150568977
1104.0, 0.12909905832685076
1105.0, 0.09882498570501559
1106.0, 0.07665244344257519
1107.0, 0.060406675261676576
1108.0, 0.04953812251020405
1109.0, 0.041845022349922434
1110.0, 0.0346346628794952
1111.0, 0.028262189647755922
1112.0, 0.025578781556551557
1113.0, 0.022317176820990377
1114.0, 0.021739968801372137
1115.0, 0.020475007043715954
1116.0, 0.01732244968111722
1117.0, 0.017405483662729322
1118.0, 0.015957604425807907
1119.0, 0.016477543215374958
1120.0, 0.0163522730862777
1121.0, 0.013997597757947197
1122.0, 0.012897467790237926
1123.0, 0.012768542115287279
1124.0, 0.011518553791721288
1125.0, 0.01193490304973862
1126.0, 0.011734201875794537
1127.0, 0.011433562245990594
1128.0, 0.010764229981606133
1129.0, 0.008924327207714664
1130.0, 0.0072199902465504805
1131.0, 0.004812746261403144
1132.0, 0.004223829941362384
1133.0, 0.004807900664517601
1134.0, 0.0037504637125020134
1135.0, 0.005606001633662467
1136.0, 0.0008065979622359208
1137.0, 0.004540924013910185
1138.0, 0.003615740445560728
1139.0, 0.0008704956850289669
1140.0, 0.0010111980978635324
1141.0, 0.004310759375099172
1142.0, 0.0029445491424446996
1143.0, 0.0024916355063936326
1144.0, 0.004210658094330161
1145.0, 0.0033025162316208776
1146.0, 0.002168216647760776
1147.0, 0.0030636481651845427
1148.0, 0.006964753586835081
1149.0, 0.002282063108682717
1150.0, 0.004773756458631439
1151.0, 0.0036387914106984494
1152.0, 0.0011502947497399295
1153.0, 0.0015147392697668484
1154.0, 0.0016944297116107477
1155.0, 0.0014068671728612375
1156.0, 0.0024104821276327007
1157.0, 0.003514465616029829
1158.0, 0.003156827393473074
1159.0, 0.0037652973558223576
1160.0, 0.0014524197971708497
1161.0, 0.0029241540442083427
1162.0, 0.0012094463427576234
1163.0, 0.0019805216185647396
1164.0, 0.001175656872343192
1165.0, 0.0008590329299393618
1166.0, 0.0015469590083103987
1167.0, 0.0021432896437931447
1168.0, 0.0026772780358203956
1169.0, 0.0028932605318126295
1170.0, 0.00197517665517992
1171.0, 0.0015499082472810284
1172.0, 0.0011623555074875226
1173.0, 0.002710085332284293
1174.0, 0.002429694951242537
1175.0, 0.0011279414791071796
1176.0, 0.00041382890429783614
1177.0, 0.001856886898349899
1178.0, 0.0010649837330979038
1179.0, 0.0021008705024117115
1180.0, 0.006282891724488
1181.0, 0.007829528002395366
1182.0, 0.004641318533372973
1183.0, 0.0023286073817859387
1184.0, 0.0013580296288966235
1185.0, 0.003332038838084599
1186.0, 0.001241669139985769
1187.0, 0.0014088972289218755
1188.0, 0.0014574505800315069
1189.0, 0.003179815779533149
1190.0, 0.0018047185662205323
1191.0, 0.0025187646753426396
1192.0, 0.002579058524197067
1193.0, 0.0021789966505559124
1194.0, 0.0038604298924626926
1195.0, 0.004016808727912484
1196.0, 0.002329392112583023
1197.0, 0.003355684021395491
1198.0, 0.0029010436976533863
1199.0, 0.0006637194766262995
1200.0, 0.002886789471000908
1201.0, 0.004540083325996594
1202.0, 0.0019157420482754125
1203.0, 0.002265788718418199
1204.0, 0.002143033272756503
1205.0, 0.0016116179342911376
1206.0, 0.0014074013583458668
1207.0, 0.0011002964740859144
1208.0, 0.002276492652199946
1209.0, 0.0033183128895641085
1210.0, 0.0007111884529744506
1211.0, 0.0018170390578166101
1212.0, 0.0016750392160660953
1213.0, 0.00048189843298866773
1214.0, 0.0013743603398671787
1215.0, 0.003195160228633314
1216.0, 0.003381216788889449
1217.0, 0.0030178271856969832
1218.0, 0.004054195445498225
1219.0, 0.0037848085009679197
1220.0, 0.0023062772376350846
1221.0, 0.0025672272126833202
1222.0, 0.0015175089412230816
1223.0, 0.0018730812681986317
1224.0, 0.0019744194661765295
1225.0, 0.0003658927115209944
1226.0, 0.0007736243175271352
1227.0, 0.0006724457348622811
1228.0, 0.0010901178491287712
1229.0, 0.0011860737067981267
1230.0, 0.0018184234252273776
1231.0, 0.00371637567708986
1232.0, 0.003462422125179353
1233.0, 0.0018958454591252838
1234.0, 0.0019667733861734697
1235.0, 0.002680897950400216
1236.0, 0.00570862266614512
1237.0, 0.004054913779791763
1238.0, 0.0011679984428585764
1239.0, 0.0017551348300318646
1240.0, 0.003921389835320169
1241.0, 0.0033322566171627775
1242.0, 0.003154746338966128
1243.0, 0.0016336831849166396
1244.0, 0.0015804972753987634
1245.0, 0.002913963898419803
1246.0, 0.002992226565579059
1247.0, 0.0028879361985297432
1248.0, 0.0038396459614530604
1249.0, 0.00332768336912256
1250.0, 0.0035097843094168703
1251.0, 0.004811813558590401
1252.0, 0.00018048386018852192
1253.0, 0.00460835277951829
1254.0, 0.004654145698718787
1255.0, 0.0010303812868891632
1256.0, 0.005319125350737872
1257.0, 0.004750386965072486
1258.0, 0.0026055737811354323
1259.0, 0.0019619957445722942
1260.0, 0.0011547727720158322
1261.0, 0.0010838747563807398
1262.0, 0.0033923716009530928
1263.0, 0.005101749004989111
1264.0, 0.004150780375101042
1265.0, 0.003489288898424939
1266.0, 0.0019267444237942872
1267.0, 0.0018218541601489695
1268.0, 0.0010765317426278702
1269.0, 0.0036042286284303938
1270.0, 0.0024587486029194862
1271.0, 0.002036779708893167
1272.0, 0.005142629378056801
1273.0, 0.0057213891249188005
1274.0, 0.002693694215379118
1275.0, 0.003176694036702057
1276.0, 0.006044301213245687
1277.0, 0.004565183136944751
1278.0, 0.0037968018333809526
1279.0, 0.007206523604774191
1280.0, 0.0057905330901549396
1281.0, 0.0024258512139980737
1282.0, 0.0017251424882057816
1283.0, 0.002607913660568354
1284.0, 0.0036643745727957607
1285.0, 0.0024908705456545255
1286.0, 0.0019096191602388241
1287.0, 0.0036928866706210433
1288.0, 0.004553728785006746
1289.0, 0.00449500809667074
1290.0, 0.003451991952561822
1291.0, 0.00238554006125316
1292.0, 0.001946002238288507
1293.0, 0.0003829982627897813
1294.0, 0.0013388706150251986
1295.0, 0.0013613468059301458
1296.0, 0.0012261119519283077
1297.0, 0.0011785873725854437
1298.0, 0.0018854802361652034
1299.0, 0.0025349545822993735
1300.0, 0.0011085971981321225
1301.0, 0.0017085074197897444
1302.0, 0.0010779214003978103
1303.0, 0.0013842074166139633
1304.0, 0.0015447630737259244
1305.0, 0.0013054788933284057
1306.0, 0.0021003110933409787
1307.0, 0.0020546452849423435
1308.0, 0.00020510220233768914
1309.0, 0.0011794660806143747
1310.0, 0.003562714955542771
1311.0, 0.00418242576567597
1312.0, 0.006386790455366598
1313.0, 0.0004222413760423555
1314.0, 0.00451990776041068
1315.0, 0.002098119293834409
1316.0, 0.004080950661017563
1317.0, 0.0014002209585724811
1318.0, 0.0002780069488469759
1319.0, 0.003079181926426918
1320.0, 0.003981943811505534
1321.0, 0.003900878537053542
1322.0, 0.00417154679989836
1323.0, 0.004073360674149505
1324.0, 0.004592260832274829
1325.0, 0.003058188550186185
1326.0, 0.0017412307996857554
1327.0, 0.008316440962510068
1328.0, 0.006779482909339151
1329.0, 0.004139884111375157
1330.0, 0.004020950209198688
1331.0, 0.0011854086789280503
1332.0, 0.004207822120440185
1333.0, 0.0027329200165353944
1334.0, 0.005292649172654385
1335.0, 0.0025159738291153826
1336.0, 0.0009187096923168733
1337.0, 0.001730241901372726
1338.0, 0.0016710747370498225
1339.0, 0.0022725254797642367
1340.0, 0.0035750590585942117
1341.0, 0.00295007957847862
1342.0, 0.0020557448224291816
1343.0, 0.0024618771956326163
1344.0, 0.003232560762973476
1345.0, 0.0038955168598957973
1346.0, 0.0028312503161290236
1347.0, 0.004338108335789692
1348.0, 0.001756254351484766
1349.0, 0.003392725245926406
1350.0, 0.00373439496427533
1351.0, 0.0031373585118782497
1352.0, 0.003274654338020688
1353.0, 0.002841215820798611
1354.0, 0.0030603259553347024
1355.0, 0.002549373428966023
1356.0, 0.0015047826745481449
1357.0, 0.0019719440119888064
1358.0, 0.0022403158138455826
1359.0, 0.0019155914541406347
1360.0, 0.0031475988102159023
1361.0, 0.004092322427095631
1362.0, 0.0033049561813876037
1363.0, 0.00021205859858667913
1364.0, 0.0014079051845942612
1365.0, 0.00551675935084254
1366.0, 0.002763743018945618
1367.0, 0.004205946005161741
1368.0, 0.005123737131014259
1369.0, 0.003040083023814866
1370.0, 0.0031996240479330628
1371.0, 0.001621400790398871
1372.0, 0.0013632520568395087
1373.0, 0.001534426964523503
1374.0, 0.001104661117470356
1375.0, 0.001430101387460993
1376.0, 0.0024020256362642057
1377.0, 0.004851192668688121
1378.0, 0.003096751395498113
1379.0, 0.003106453366269706
1380.0, 0.00404051626854356
1381.0, 0.0020067517923093824
1382.0, 0.00436392659927039
1383.0, 0.0011363350652706743
1384.0, 0.0007317019420771598
1385.0, 0.00207977585055384
1386.0, 0.0036717569208674456
1387.0, 0.002392922224666126
1388.0, 0.001980486519162018
1389.0, 0.0030837973246690387
1390.0, 0.0018482757588405723
1391.0, 0.0018181777236384543
1392.0, 0.003283520780409219
1393.0, 0.0024416504459621948
1394.0, 0.0007350464685546935
1395.0, 0.0011290634398080932
1396.0, 0.0029554146271503563
1397.0, 0.004262518452710265
1398.0, 0.0015225870140108768
1399.0, 0.0010168546972696621
1400.0, 0.0037441543893055526
1401.0, 0.0018671368259440373
1402.0, 0.004733885994113259
1403.0, 0.0016257101419486198
1404.0, 0.0022431195145864035
1405.0, 0.0054418370069551775
1406.0, 0.0037105969612713156
1407.0, 0.004579265219219875
1408.0, 0.0020871946871059604
1409.0, 0.0029421778120041326
1410.0, 0.004683355875652874
1411.0, 0.005660873720524117
1412.0, 0.005975499430916628
1413.0, 0.006377087180564881
1414.0, 0.0073990947668139025
1415.0, 0.00782384559174608
1416.0, 0.008377774093335528
1417.0, 0.007843206745908073
1418.0, 0.006031941924717786
1419.0, 0.006148084353176593
1420.0, 0.006772792793239524
1421.0, 0.006421748859764954
1422.0, 0.009266411962712997
1423.0, 0.006470782658877653
1424.0, 0.012590243643102341
1425.0, 0.007953466985041568
1426.0, 0.008550714334969648
1427.0, 0.01209327777924876
1428.0, 0.008983328596395924
1429.0, 0.010200401255885573
1430.0, 0.010760837477759157
1431.0, 0.011356567087544457
1432.0, 0.013338084559575502
1433.0, 0.013778050131629152
1434.0, 0.013900038093254881
1435.0, 0.016138788738743297
1436.0, 0.017196083576839737
1437.0, 0.01686463596143556
1438.0, 0.019565223662915833
1439.0, 0.019133865159062558
1440.0, 0.0186731810171962
1441.0, 0.022852312643848762
1442.0, 0.017704325224226214
1443.0, 0.01979066308298305
1444.0, 0.019613234608129363
1445.0, 0.011608610265528755
1446.0, 0.013941320627744832
1447.0, 0.010374140141081338
1448.0, 0.007961948500780221
1449.0, 0.011154951040239638
1450.0, 0.011591742757395574
1451.0, 0.00802496689950962
1452.0, 0.010899993280945248
1453.0, 0.01055219296810095
1454.0, 0.00811056633277736
1455.0, 0.005929318162636299
1456.0, 0.0036409930161376797
1457.0, 0.00424043655900945
1458.0, 0.00676864140200997
1459.0, 0.006672108815697398
1460.0, 0.004797788424881385
1461.0, 0.004576528556023236
1462.0, 0.004439995485260676
1463.0, 0.005276822284994228
1464.0, 0.0036087098851957686
1465.0, 0.005561385618956153
1466.0, 0.003085241428468781
1467.0, 0.009364452519102572
1468.0, 0.004517925519334104
1469.0, 0.002332751572958274
1470.0, 0.006445270769467144
1471.0, 0.0012659192624759471
1472.0, 0.004225594946633321
1473.0, 0.002893767879736517
1474.0, 0.0033056052633993857
1475.0, 0.0032887862189884005
1476.0, 0.0018920825345641666
1477.0, 0.0025996098948421506
1478.0, 0.003608968191246513
1479.0, 0.0036618806717834246
1480.0, 0.0036683383438365475
1481.0, 0.003870602791219055
1482.0, 0.003892221595351829
1483.0, 0.0033134842681722685
1484.0, 0.00250409535491003
1485.0, 0.0026184914400344396
1486.0, 0.0031418700080745347
1487.0, 0.0019995777928975256
1488.0, 0.0013451893026138768
1489.0, 0.003974580706750157
1490.0, 0.0006673090509110838
1491.0, 0.001963555310405974
1492.0, 0.0016315343824051432
1493.0, 0.0040363951256994655
1494.0, 0.0034435964696317373
1495.0, 0.003192168722660166
1496.0, 0.0006892373248480537
1497.0, 0.0006153902211239173
1498.0, 0.0008427928174556901
1499.0, 0.0003927217432275576
1500.0, 8.703350044655321e-05
1501.0, 0.000280643546814238
1502.0, 0.0003376904293892839
1503.0, 0.0011369415051179163
1504.0, 0.0012344826083111444
1505.0, 0.0024306623490189536
1506.0, 0.0022538139723490076
1507.0, 0.002272358755888295
1508.0, 0.0021263674809492714
1509.0, 0.003148953352124082
1510.0, 0.0038351374276299624
1511.0, 0.0018921066381525251
1512.0, 0.0029034998701216908
1513.0, 0.0030996245641015776
1514.0, 0.0049677266022586306
1515.0, 0.006528542030392148
1516.0, 0.005421688343904239
1517.0, 0.0014253923648022285
1518.0, 0.002948126182823038
1519.0, 0.003534596173519157
1520.0, 0.006396527785048156
1521.0, 0.007042938411947508
1522.0, 0.0062071627082784745
1523.0, 0.004738559449595369
1524.0, 0.00796245952433343
1525.0, 0.007006158248036511
1526.0, 0.009261348315904916
1527.0, 0.006843442653174223
1528.0, 0.004898556096857628
1529.0, 0.006060643954574956
1530.0, 0.007060245965580524
1531.0, 0.0032315286172276696
1532.0, 0.004880923056115444
1533.0, 0.0041756283741093995
1534.0, 0.004018985439087202
1535.0, 0.0037838987462655064
1536.0, 0.0014671439282339194
1537.0, 0.0012596924248017643
1538.0, 0.003254610016458671
1539.0, 0.0059910694631655145
1540.0, 0.004434183113119334
1541.0, 0.004027521387341387
1542.0, 0.006605557548595925
1543.0, 0.0022126271438623266
1544.0, 0.002646697859198061
1545.0, 0.004751978274981042
1546.0, 0.003671878672259937
1547.0, 0.0027094009117475705
1548.0, 0.002478493894490328
1549.0, 0.001233045987218095
1550.0, 0.003282861638196087
1551.0, 0.0057405767495138215
1552.0, 0.00899792457206011
1553.0, 0.0030459719450475027
1554.0, 0.002369887781749182
1555.0, 0.0043343874577227845
1556.0, 0.0012414123031189272
1557.0, 0.0031411370482371404
1558.0, 0.0025556063563699763
1559.0, 0.0013306682856909018
1560.0, 0.004131584160519337
1561.0, 0.0024939323327591053
1562.0, 0.00388474701033737
1563.0, 0.006756740935313693
1564.0, 0.008359008175694438
1565.0, 0.004903339800853057
1566.0, 0.005542293560854491
1567.0, 0.005552364494796337
1568.0, 0.0017682723327997005
1569.0, 0.0034860930917674144
1570.0, 0.005294277659050447
1571.0, 0.0048991296937307225
1572.0, 0.001967119138120803
1573, 0.0
1574, 0.0
1575, 0.0
1576, 0.0
1577, 0.0
1578, 0.0
1579, 0.0
1580, 0.0
1581, 0.0
1582, 0.0
1583, 0.0
1584, 0.0
1585, 0.0
1586, 0.0
1587, 0.0
1588, 0.0
1589, 0.0
1590, 0.0
1591, 0.0
1592, 0.0
1593, 0.0
1594, 0.0
1595, 0.0
1596, 0.0
1597, 0.0
1598, 0.0
1599, 0.0
