30, 0.0
31, 0.0
32, 0.0
33, 0.0
34, 0.0
35, 0.0
36, 0.0
37, 0.0
38, 0.0
39, 0.0
40, 0.0
41, 0.0
42, 0.0
43, 0.0
44, 0.0
45, 0.0
46, 0.0
47, 0.0
48, 0.0
49, 0.0
50, 0.0
51, 0.0
52, 0.0
53, 0.0
54, 0.0
55, 0.0
56, 0.0
57, 0.0
58, 0.0
59, 0.0
60, 0.0
61, 0.0
62, 0.0
63, 0.0
64, 0.0
65, 0.0
66, 0.0
67, 0.0
68, 0.0
69, 0.0
70, 0.0
71, 0.0
72, 0.0
73, 0.0
74, 0.0
75, 0.0
76, 0.0
77, 0.0
78, 0.0
79, 0.0
80, 0.0
81, 0.0
82, 0.0
83, 0.0
84, 0.0
85, 0.0
86, 0.0
87, 0.0
88, 0.0
89, 0.0
90, 0.0
91, 0.0
92, 0.0
93, 0.0
94, 0.0
95, 0.0
96, 0.0
97, 0.0
98, 0.0
99, 0.0
100, 0.0
101, 0.0
102, 0.0
103, 0.0
104, 0.0
105, 0.0
106, 0.0
107, 0.0
108, 0.0
109, 0.0
110, 0.0
111, 0.0
112, 0.0
113, 0.0
114, 0.0
115, 0.0
116, 0.0
117, 0.0
118, 0.0
119, 0.0
120, 0.0
121, 0.0
122, 0.0
123.0, 4.908243011137828e-05
124.0, 0.0006521095462164819
125.0, 0.00045560422920343333
126.0, 3.58201102945411e-05
127.0, 5.410357602857816e-05
128.0, 0.00025356348092989264
129.0, 0.0004901321293616948
130.0, 0.0005772334615674493
131.0, 0.0009154325178226388
132.0, 0.0016575813725078702
133.0, 0.0017508837151120706
134.0, 0.0019779368343936774
135.0, 0.002300219457583039
136.0, 0.0028355526240113806
137.0, 0.0036313384039961065
138.0, 0.0037969400190432856
139.0, 0.004191452463495893
140.0, 0.004846063025307001
141.0, 0.0048092457402745935
142.0, 0.004751788623359489
143.0, 0.004880683802480414
144.0, 0.005659597510258319
145.0, 0.007252859456038393
146.0, 0.00785605167543844
147.0, 0.00830725383656731
148.0, 0.0091836091516899
149.0, 0.010619083689614006
150.0, 0.012036230887983172
151.0, 0.014533753996727742
152.0, 0.016999745480098184
153.0, 0.0192482451516912
154.0, 0.022294390687610056
155.0, 0.025202855533319322
156.0, 0.028554253999503995
157.0, 0.031640361965423726
158.0, 0.033795856020629116
159.0, 0.037747582150856974
160.0, 0.04132286747347116
161.0, 0.04497624387565373
162.0, 0.04965354431539618
163.0, 0.055717609858950065
164.0, 0.06077452105040447
165.0, 0.06663727613828324
166.0, 0.07383928454600185
167.0, 0.08141131776359527
168.0, 0.09188578475135985
169.0, 0.10441054175648792
170.0, 0.1168069726724942
171.0, 0.1270783562727765
172.0, 0.13518139299159246
173.0, 0.13817085880933186
174.0, 0.13440840440048435
175.0, 0.12359570072026008
176.0, 0.10578321345996591
177.0, 0.08860570494981582
178.0, 0.07205268338041601
179.0, 0.05738589761863881
180.0, 0.047412323257093755
181.0, 0.03934260681375334
182.0, 0.03244797012358766
183.0, 0.026798418673169264
184.0, 0.022584053179643376
185.0, 0.019406906145755364
186.0, 0.01658813289608525
187.0, 0.01427883434849018
188.0, 0.012559837752278568
189.0, 0.01104936845454045
190.0, 0.009509302628465886
191.0, 0.008324369179275008
192.0, 0.0074422910934823176
193.0, 0.006574320744042617
194.0, 0.00606217660786302
195.0, 0.005195908782503748
196.0, 0.004316542786995334
197.0, 0.003906742556423877
198.0, 0.0037324688886092093
199.0, 0.0030381048430477464
200.0, 0.0023534458004128263
201.0, 0.0020230556713144643
202.0, 0.001948092877976464
203.0, 0.00160251428603797
204.0, 0.0010741449939307129
205.0, 0.0007404108774972918
206.0, 0.0008512259182019624
207.0, 0.0010453911802934767
208.0, 0.0006010607050374798
209.0, 0.00023793866973069905
210.0, 0.0002871006233648017
211.0, 0.00027376542623554803
212.0, 4.2493904982314044e-05
213.0, 0.00017847263433973715
214.0, 0.00018317576824986752
215.0, 8.132943439486188e-05
216.0, 0.000602590527577264
217.0, 0.0004927639431130716
218.0, 0.0002429372708182842
219.0, 0.00021082347979470433
220.0, 9.820351191733644e-05
221.0, 0.00012169938190554911
222.0, 0.00021443663329132233
223.0, 0.00029915777669242124
224.0, 0.00030067812594385075
225.0, 9.202746409559586e-05
226.0, 0.00039582189390548124
227.0, 0.0005490582942260198
228.0, 0.0002817124017775129
229.0, 0.00020442592222362212
230.0, 0.0003129960687734648
231.0, 0.00027461698763373563
232.0, 0.00019106333450352332
233.0, 0.00020402876258338346
234.0, 0.0002847578260061564
235.0, 0.00016321376585427228
236.0, 2.2779034392769553e-05
237.0, 0.0002824287065237219
238.0, 0.0008896237007224454
239.0, 0.001228115679432184
240.0, 0.0015913343879663672
241.0, 0.001956904135888888
242.0, 0.00218225473935071
243.0, 0.0024298594585131115
244.0, 0.003019471488523141
245.0, 0.003355384630859285
246.0, 0.00349741436472229
247.0, 0.004317696169298559
248.0, 0.00486577550075713
249.0, 0.005357060951437079
250.0, 0.005949680428694908
251.0, 0.006687127558744752
252.0, 0.007578985986906767
253.0, 0.008616445008730643
254.0, 0.009666777954818762
255.0, 0.010642084071538663
256.0, 0.011517777792593985
257.0, 0.012864560811016877
258.0, 0.014138742426446384
259.0, 0.015772412448749475
260.0, 0.017893844463572933
261.0, 0.019272136558369214
262.0, 0.020942899777023096
263.0, 0.02269954342018817
264.0, 0.025038046990564583
265.0, 0.028503341176678687
266.0, 0.03126443624029915
267.0, 0.03421679427844672
268.0, 0.0376996567195518
269.0, 0.04182301742971346
270.0, 0.04667949878820186
271.0, 0.05193774835239313
272.0, 0.05686719795858417
273.0, 0.06212191643852997
274.0, 0.06849945118479045
275.0, 0.07562001106813462
276.0, 0.08396978271476546
277.0, 0.09244853850886303
278.0, 0.10087625208528499
279.0, 0.11024814930502341
280.0, 0.12080762877124848
281.0, 0.12920460299579145
282.0, 0.1385599754143535
283.0, 0.15054879170791702
284.0, 0.16002217855968573
285.0, 0.1705261659544576
286.0, 0.18151468077320046
287.0, 0.1928034959452111
288.0, 0.20474270028889457
289.0, 0.2173386069354368
290.0, 0.22750014960257975
291.0, 0.23549524818803366
292.0, 0.2419621519725184
293.0, 0.24651784547497313
294.0, 0.24697217643135455
295.0, 0.24183306633300522
296.0, 0.23188351857229705
297.0, 0.21801908495810413
298.0, 0.20067835343795873
299.0, 0.18122504023618288
300.0, 0.1614083067613402
301.0, 0.14177013262255408
302.0, 0.12290284295598497
303.0, 0.10675189430286836
304.0, 0.09273750598192514
305.0, 0.08005942145370297
306.0, 0.06893390038261642
307.0, 0.060032708432663624
308.0, 0.05373115252016184
309.0, 0.046936210043647585
310.0, 0.040695505388178885
311.0, 0.0359377333066827
312.0, 0.032079518841077764
313.0, 0.02875381715621843
314.0, 0.025599471449038125
315.0, 0.022678720233480915
316.0, 0.02038458116747741
317.0, 0.019111715964312413
318.0, 0.01692793516370137
319.0, 0.015175275280290678
320.0, 0.013954168837477592
321.0, 0.012695329979055623
322.0, 0.012193297550646125
323.0, 0.011747554964417302
324.0, 0.011172729699990723
325.0, 0.010372440829372973
326.0, 0.00929141487906013
327.0, 0.009046518992955242
328.0, 0.00864744320655641
329.0, 0.007870781562073385
330.0, 0.007232410364088045
331.0, 0.007694972359044099
332.0, 0.007323314194854496
333.0, 0.0072755088374083475
334.0, 0.00744131574064527
335.0, 0.007341329775210226
336.0, 0.007024725320429378
337.0, 0.0068653566616973215
338.0, 0.006869502915190416
339.0, 0.006650603477292496
340.0, 0.005946903463387913
341.0, 0.0055651391162342
342.0, 0.005340276605993454
343.0, 0.004973161277161819
344.0, 0.004367721004767529
345.0, 0.0036536050980319422
346.0, 0.003084715258852837
347.0, 0.002841744488816994
348.0, 0.002637041145464839
349.0, 0.0021112105021150154
350.0, 0.0012571117966376538
351.0, 0.001484794029530701
352.0, 0.0014513043871082992
353.0, 0.0009465919527188433
354.0, 0.0004877857432988129
355.0, 0.0006236756027743842
356.0, 0.0003885793044244396
357.0, 0.00010534420769993215
358.0, 0.000138894133600607
359.0, 0.00031141451286558717
360.0, 7.554431322183265e-05
361.0, 0.00010576937587345063
362.0, 7.674333916066545e-05
363.0, 3.073259520758557e-05
364.0, 7.182168021970108e-05
365.0, 3.492095668424235e-05
366.0, 0.0002679286684865572
367.0, 0.00032751652712034404
368.0, 0.00015940618058821063
369.0, 2.5790422415191945e-05
370.0, 0.00025532010716826695
371.0, 0.0002646829060316067
372.0, 0.00016033674595157069
373.0, 0.0001936966897240229
374.0, 0.0003567232355168009
375.0, 7.053655476104751e-05
376.0, 2.324843680745847e-05
377.0, 5.4830697784898915e-05
378.0, 0.0002069775604013449
379.0, 0.0005095868344168941
380.0, 0.0002889789369164204
381.0, 8.243284600349553e-05
382.0, 5.519820575177228e-05
383.0, 0.0001374275816899675
384.0, 0.00012763472220630854
385.0, 2.1758757032873784e-05
386.0, 1.3776578186263488e-05
387.0, 0.00016122800713846638
388.0, 0.00026514195839586363
389.0, 7.107458577787555e-05
390.0, 1.8364360314240008e-05
391.0, 0.00013946360007868145
392.0, 0.0002833200691367699
393.0, 0.00018787876412409575
394.0, 9.34283022783511e-05
395.0, 0.0001472289283584812
396.0, 0.00011562921213503201
397.0, 4.0553120079887687e-05
398.0, 9.914599241073645e-05
399.0, 0.00020391784650714367
400.0, 0.0002980691487708118
401.0, 0.00020707423244940005
402.0, 0.00013487326763934697
403.0, 0.00017432279829562993
404.0, 0.0002754525376359674
405.0, 0.0001760969451467276
406.0, 0.0001662289615353517
407.0, 0.0004059589765294462
408.0, 0.0005275106892913354
409.0, 0.00017559001877094863
410.0, 0.0002964329268982492
411.0, 0.0003709470195085124
412.0, 0.0003007891206640631
413.0, 0.00036856561147105695
414.0, 0.0007086301474222856
415.0, 0.0007384810313099979
416.0, 0.0007132664623209004
417.0, 0.000616697093686595
418.0, 0.000573827459411823
419.0, 0.0007236982590078813
420.0, 0.0008562155733525078
421.0, 0.0005905109822727312
422.0, 0.0004736922810076797
423.0, 0.000653041500335097
424.0, 0.0008129510092567923
425.0, 0.0005455253527957666
426.0, 0.000661790954203109
427.0, 0.0007245527391814615
428.0, 0.0006521429896875164
429.0, 0.0006313827550776524
430.0, 0.0005647254857518451
431.0, 0.0003816146218319596
432.0, 0.0003504028134286415
433.0, 0.00043119870591933095
434.0, 0.0004818460754704598
435.0, 0.0006539330726244388
436.0, 0.0006514172211758831
437.0, 0.0004997575081294676
438.0, 0.00028832916122210325
439.0, 0.0002720542346371765
440.0, 0.0007116676174202545
441.0, 0.0004714667677762991
442.0, 0.0005459978541866889
443.0, 0.0006922288079061294
444.0, 0.0005810718100951197
445.0, 0.0004555024273771221
446.0, 0.00047341315165548635
447.0, 0.0003026918409598124
448.0, 0.00030158018352032884
449.0, 0.0005391378847130273
450.0, 0.0005893383880829521
451.0, 0.0005697497172699533
452.0, 0.0003677530597642628
453.0, 0.0002566994272766905
454.0, 0.00029656773463896394
455.0, 0.0003679843557787196
456.0, 0.0004984172175136597
457.0, 0.0002754641197549498
458.0, 0.00018708259993487712
459.0, 0.00031763811694412655
460.0, 0.0003592476753967772
461.0, 0.0001565421091123794
462.0, 0.00016201421393060634
463.0, 0.00016037832402754799
464.0, 0.0001299836202184608
465.0, 0.00014815354096953652
466.0, 0.00013193521444879657
467.0, 0.0002622632206496859
468.0, 0.00026276771879586
469.0, 0.0001125151451393459
470.0, 4.435848474543969e-05
471.0, 0.00039744532757145674
472.0, 0.0003559419876029203
473.0, 0.0004511769855235298
474.0, 0.0005191479468890027
475.0, 0.00040005324368833393
476.0, 0.0002406331585917668
477.0, 0.00023970796177471865
478.0, 0.0002897737901277632
479.0, 0.00033851967041251176
480.0, 0.00039033252426668867
481.0, 0.0004117626436143712
482.0, 0.00026422157659922873
483.0, 7.032926632954137e-05
484.0, 3.6407237237230476e-05
485.0, 0.00013992114783141003
486.0, 0.0002649510418190388
487.0, 0.000323856826672174
488.0, 0.00021670693688587449
489.0, 0.00018411033768335578
490.0, 0.0002785632702470551
491.0, 0.0004452588209003864
492.0, 0.0005077789517256892
493.0, 0.00014645419328023195
494.0, 5.439441730665287e-05
495.0, 0.0003138198783769309
496.0, 0.0004912913673368933
497.0, 0.00030956778914140404
498.0, 0.00019525008084155193
499.0, 0.0004130451631206044
500.0, 0.0002181349470401171
501.0, 3.7212660484609315e-05
502.0, 8.446486567353464e-05
503.0, 2.1136383933894214e-05
504.0, 0.00011268771077625285
505.0, 0.00034802940570179803
506.0, 0.0002171819822652153
507.0, 8.888408803504411e-05
508.0, 0.0001610724855135212
509.0, 0.0003165750443531623
510.0, 0.00040417105915057717
511.0, 0.0002198806421688578
512.0, 7.271511658335321e-06
513.0, 0.00010193451049351109
514.0, 0.0004180337685967234
515.0, 0.00016569817566406103
516.0, 0.00022049612160273993
517.0, 0.00027003955829959267
518.0, 4.90988832354408e-05
519.0, 0.00010181769274876847
520.0, 0.00021921123372693716
521.0, 0.0001886925020095455
522.0, 8.738598766918281e-05
523.0, 0.00017852147014335576
524.0, 0.00013939269547981052
525.0, 0.000549616533361142
526.0, 0.0003323814522810274
527.0, 0.00033452169426596124
528.0, 0.00027309170025063194
529.0, 0.00011644891714508848
530.0, 0.0007518243867719268
531.0, 0.00032763007674508894
532.0, 0.0001709210127237729
533.0, 0.0003381068032451194
534.0, 0.0004785605417543961
535.0, 0.000497402530905566
536.0, 0.0003896857122389671
537.0, 0.00017814425947753132
538.0, 0.0002547432743289114
539.0, 0.0003830718909874315
540.0, 0.00036183066624987265
541.0, 0.0005041334665615086
542.0, 0.00033230376861563484
543.0, 0.0004736332188256413
544.0, 0.0005883443291612296
545.0, 0.0005159355157812827
546.0, 0.00048224942700180617
547.0, 0.0003966193791128059
548.0, 0.0006052391852881716
549.0, 0.0005130378871557315
550.0, 0.0002750228269789434
551.0, 0.00024452428567336575
552.0, 0.00046036832603487294
553.0, 0.000574551168916063
554.0, 0.0007801122132497754
555.0, 0.0007852012227821047
556.0, 0.0004726288181150073
557.0, 0.0002092671965953478
558.0, 0.0004999948784285041
559.0, 0.0005353619756933914
560.0, 0.0005780576930365765
561.0, 0.0005371624335059593
562.0, 0.0004111452944196989
563.0, 0.00045239454245596226
564.0, 0.00040803496737943935
565.0, 0.0008477014448144319
566.0, 0.0008223209720959945
567.0, 0.0005322306417210422
568.0, 0.0005147160206181695
569.0, 0.0004656449772080389
570.0, 0.0006530392598372562
571.0, 0.0007097785829022243
572.0, 0.0005012945182777239
573.0, 0.0004381079720515653
574.0, 0.0007333652564805163
575.0, 0.0006901858699124633
576.0, 0.0005319353855371806
577.0, 0.0006197836197839644
578.0, 0.000499464713720531
579.0, 0.00016710938913447947
580.0, 0.0003333862866175127
581.0, 0.0004265224074255403
582.0, 0.00025382681634349635
583.0, 0.00038179957445878875
584.0, 0.0005930950910402272
585.0, 0.0005396532396106173
586.0, 0.000596415598711478
587.0, 0.0004129302305230352
588.0, 0.00043680601552715983
589.0, 0.0004185218635417635
590.0, 0.00038347061240078076
591.0, 0.0005045568045030666
592.0, 0.0004646555050539628
593.0, 0.0003965194427159115
594.0, 0.0004902400022468676
595.0, 0.0004143387409071955
596.0, 0.00026136235752412127
597.0, 0.0004427067538164932
598.0, 0.00036930086087595926
599.0, 0.00021588222676722254
600.0, 0.0002546972249904239
601.0, 0.0002614311680845001
602.0, 0.00026893580879535164
603.0, 0.0005865865693850861
604.0, 0.00016668162369345518
605.0, 0.0001220766621761516
606.0, 9.168468293772478e-05
607.0, 8.335578242535957e-05
608.0, 0.00020987245598010098
609.0, 0.00018628616788581625
610.0, 0.0004367578174915326
611.0, 0.00029359879003528654
612.0, 0.00017358480422867463
613.0, 0.00010327528514621007
614.0, 3.892222609698338e-05
615.0, 0.0003480163793376862
616.0, 0.00014125587085567825
617.0, 9.259528297342473e-05
618.0, 3.5175677319319556e-05
619.0, 0.00016736710581700457
620.0, 3.161922071578729e-05
621.0, 0.0005131985032768171
622.0, 0.000284166362696472
623.0, 2.9107230500335803e-05
624.0, 4.06376161383848e-05
625.0, 0.00013485863494626716
626.0, 9.247396512579877e-05
627.0, 3.3009692439186524e-05
628.0, 0.00015901760333396163
629.0, 0.0001825362978328312
630.0, 0.0003638566781664993
631.0, 0.0001195744098046517
632.0, 9.872036878927828e-05
633.0, 0.0002725332698999256
634.0, 0.00020849758953547597
635.0, 0.00016946435331040828
636.0, 0.00021001204701958385
637.0, 0.00013731316250840218
638.0, 6.917260649638554e-05
639.0, 0.00012753895958157835
640.0, 0.0005107991124752856
641.0, 0.00016575331769144266
642.0, 0.000162008365513626
643.0, 3.445975493244206e-05
644.0, 1.1405642794128233e-05
645.0, 2.5606707184640212e-05
646.0, 1.0039450034013244e-05
647.0, 0.00010100637898840769
648.0, 0.00010833801683025115
649.0, 1.0700875097121502e-05
650.0, 0.00010309054905291087
651.0, 0.0002877567308665617
652.0, 0.0002940833377947651
653.0, 0.00012120531919364019
654.0, 0.00011876340600753167
655.0, 0.0003042665504958882
656.0, 0.00032838529730793033
657.0, 3.181333226654637e-05
658.0, 0.00022847065373823055
659.0, 0.0003482149706136708
660.0, 0.0003493232077650906
661.0, 0.00031108686137154947
662.0, 0.00030074629261137454
663.0, 0.000566392734507804
664.0, 0.0004531175889522005
665.0, 0.00043133319444063915
666.0, 0.0003083636527846221
667.0, 0.00013513913007003357
668.0, 0.0002150614761113015
669.0, 0.00032385711155609914
670.0, 0.0006718085534853775
671.0, 0.0007872439557326048
672.0, 0.0004622688112201232
673.0, 0.00034582367101981104
674.0, 0.0007248942455089067
675.0, 0.0004918558382539729
676.0, 0.0007056847702403334
677.0, 0.0008418984844165967
678.0, 0.0007573753051372777
679.0, 0.0007892705456004708
680.0, 0.0010659376202463353
681.0, 0.0010901450837649475
682.0, 0.0011019418801906326
683.0, 0.001279359482096507
684.0, 0.0012501455193241664
685.0, 0.0011595297530944183
686.0, 0.001247383530859247
687.0, 0.0014624482985794549
688.0, 0.0016676592593987283
689.0, 0.0016772504508386044
690.0, 0.0016586133852447703
691.0, 0.0017891113173074819
692.0, 0.0019456979527140174
693.0, 0.001963904658006307
694.0, 0.0022175876547457602
695.0, 0.00297205406573608
696.0, 0.003200349933310284
697.0, 0.0033979028927433245
698.0, 0.003870821753314079
699.0, 0.004490011595232181
700.0, 0.005549008954356102
701.0, 0.006038410027536914
702.0, 0.007098209538886836
703.0, 0.008339746904239833
704.0, 0.0094043931391235
705.0, 0.0105746036552547
706.0, 0.012431703783817952
707.0, 0.015015713042357824
708.0, 0.017533034741414568
709.0, 0.0198713456687132
710.0, 0.02268480876896229
711.0, 0.02590145872828936
712.0, 0.028782321764557455
713.0, 0.03198186703582665
714.0, 0.035942370209163514
715.0, 0.03927575984873407
716.0, 0.04257659924092325
717.0, 0.046529020416811596
718.0, 0.05089043367488609
719.0, 0.05435780714011893
720.0, 0.056098137396722925
721.0, 0.05819602888510519
722.0, 0.05840061609480044
723.0, 0.05606708537946819
724.0, 0.052441297683091796
725.0, 0.047858913487716634
726.0, 0.041211208379668796
727.0, 0.03512095283435335
728.0, 0.02955410367806347
729.0, 0.024562619740334784
730.0, 0.02056479991562765
731.0, 0.01737396779299828
732.0, 0.014122816550261425
733.0, 0.011746516992636912
734.0, 0.009982376153988535
735.0, 0.008419983865139298
736.0, 0.006839742991270116
737.0, 0.005667512660680304
738.0, 0.0053830157549191555
739.0, 0.0046113585694748434
740.0, 0.0035000571248685304
741.0, 0.003077285751181987
742.0, 0.002898531441442725
743.0, 0.00251453496445782
744.0, 0.0021234121434183357
745.0, 0.0020119136696287016
746.0, 0.0016882512918577866
747.0, 0.0017298311880109794
748.0, 0.0015330326903866699
749.0, 0.0012536305780974887
750.0, 0.0012700909867077372
751.0, 0.0012220836732190715
752.0, 0.0007265584728503596
753.0, 0.0007035190120847984
754.0, 0.0007156240488258175
755.0, 0.0005451290470392228
756.0, 0.00043720225613021196
757.0, 0.0005082180529010917
758.0, 0.000334933995177103
759.0, 0.000299418890730433
760.0, 0.0005291414682569763
761.0, 0.00036561884758774896
762.0, 0.00010843901935099242
763.0, 4.660821666984542e-05
764.0, 2.1627169635747697e-05
765.0, 0.00031581738327497586
766.0, 0.00031564002450803726
767.0, 0.00021012489614306284
768.0, 0.0003126550068587926
769.0, 0.0003872946727713673
770.0, 0.0002838614198845515
771.0, 0.00029099902279504163
772.0, 0.00015253378092106175
773.0, 0.0001162497126301218
774.0, 8.294304476005717e-05
775.0, 0.00015463632239963156
776.0, 0.00042991932755925675
777.0, 0.00036076918795716696
778.0, 0.00012911290163345563
779.0, 6.710322500843168e-06
780.0, 3.3651597630584465e-05
781.0, 0.00016769768038834554
782.0, 0.00017890154739080708
783.0, 3.736790849613208e-05
784.0, 9.80281420842119e-05
785.0, 6.978542636717285e-05
786.0, 8.427980192331085e-05
787.0, 0.0003338339311341479
788.0, 0.00017222921963452195
789.0, 0.0003052073022553091
790.0, 0.0001850613620726097
791.0, 1.982194650105009e-05
792.0, 9.759377699608778e-05
793.0, 0.00017870927893622323
794.0, 0.0001632070150534524
795.0, 0.0002038684511114258
796.0, 0.0002494197023269834
797.0, 0.00017450611732935218
798.0, 2.122500918922286e-05
799.0, 5.16064956279395e-05
800.0, 0.00018579995769287878
801.0, 0.00017313289245111753
802.0, 0.0002513546788259055
803.0, 0.00010699009580074958
804.0, 0.00010130140481861004
805.0, 0.00020994927893549907
806.0, 7.693521444358833e-05
807.0, 9.118807505622254e-05
808.0, 0.0001792328168377201
809.0, 0.00022896349509652977
810.0, 0.0002788375268007882
811.0, 0.0002412365841529829
812.0, 4.648443939419149e-05
813.0, 0.00016458051587258556
814.0, 0.00012354955174845094
815.0, 5.457001347912553e-05
816.0, 0.0002658509319503402
817.0, 0.00043804122362614453
818.0, 0.00024513692377441896
819.0, 0.0003085824327914312
820.0, 5.486687082413377e-05
821.0, 0.00022639315780177964
822.0, 0.000418714736696381
823.0, 0.0005226045769978923
824.0, 0.00032213606441778967
825.0, 5.147396831085725e-05
826.0, 0.0002454504463979692
827.0, 0.00038176105435959283
828.0, 0.00044654729299487846
829.0, 0.0003538600646290212
830.0, 0.0003342031474872973
831.0, 0.0004093754850180247
832.0, 0.0003764014260386906
833.0, 0.0002575438068129359
834.0, 0.0003706828221120077
835.0, 0.00027487101354998236
836.0, 0.00015606053449662976
837.0, 0.00023668409879117443
838.0, 0.00020036446357561322
839.0, 0.00017166048468893313
840.0, 0.0003737225494415709
841.0, 0.00024994793576592675
842.0, 0.00010962450417915245
843.0, 4.1200322373051544e-05
844.0, 0.00016885347544148276
845.0, 0.00041664694949007983
846.0, 0.00038873291525794157
847.0, 0.00019604821838708933
848.0, 0.00016149025485790981
849.0, 0.00014926216183802618
850.0, 0.0003729538776284584
851.0, 0.0004026683597584222
852.0, 0.00033082132555505597
853.0, 0.00022475702262990345
854.0, 0.00023350694759620959
855.0, 0.0004264330424058945
856.0, 0.00033774855065204086
857.0, 0.0003634984139731471
858.0, 0.0003225702600571503
859.0, 0.00022442538850730767
860.0, 0.00035514103066187046
861.0, 0.0006401851959188215
862.0, 0.0007560707034160735
863.0, 0.0007780832684728579
864.0, 0.0009345587138492159
865.0, 0.0006634096163865973
866.0, 0.0008186964509694181
867.0, 0.0010331387744687394
868.0, 0.001330504850367498
869.0, 0.0018331831637873235
870.0, 0.002051322747805343
871.0, 0.002209762361345114
872.0, 0.002510043001162769
873.0, 0.0026675390559457533
874.0, 0.002508616057024619
875.0, 0.0024424182962014315
876.0, 0.002296695985057111
877.0, 0.0017551122618157942
878.0, 0.0017185116567706709
879.0, 0.002047381266664173
880.0, 0.001963798665277899
881.0, 0.0019051022288395468
882.0, 0.001962609701466349
883.0, 0.001807450002580022
884.0, 0.001382363677490575
885.0, 0.001033749568833507
886.0, 0.0007925162418984528
887.0, 0.000515140789300517
888.0, 0.0006342117833167695
889.0, 0.0004271991838090114
890.0, 0.0003353161657036569
891.0, 0.00043618840036173195
892.0, 0.0003414052280335536
893.0, 0.000318920735373971
894.0, 0.00032016643260307894
895.0, 0.00030276283229526893
896.0, 0.000348282295386595
897.0, 0.00027043702255309416
898.0, 0.00019775987954828413
899.0, 0.00032159859325605505
900.0, 0.0004259753579936451
901.0, 0.00015867743174443488
902.0, 0.00020448864161746444
903.0, 0.00034996898677939423
904.0, 0.0005280308833852242
905.0, 0.0004590732988485789
906.0, 0.00024211537398777558
907.0, 0.00021648945264838
908.0, 0.00039033536886786535
909.0, 0.0004277749702306312
910.0, 0.0004037570232757032
911.0, 0.0004277972139948435
912.0, 0.0003213218810893155
913.0, 0.0003279289650194098
914.0, 0.0005142911924233718
915.0, 0.0005814599503444963
916.0, 0.00035143532209054606
917.0, 0.00037196350682579477
918.0, 0.0001546445770298404
919.0, 0.0001527083765878007
920.0, 0.0003886075486968748
921.0, 0.00028052935103322165
922.0, 0.00014919222437914895
923.0, 0.00034849232677763473
924.0, 0.00025754295776402513
925.0, 0.0002866961038165987
926.0, 0.00020746416577554683
927.0, 0.0005506100205755647
928.0, 0.0007157503113417907
929.0, 0.0005256562484163659
930.0, 0.0002816735793393382
931.0, 0.00024677338761155607
932.0, 0.000370450014254883
933.0, 0.0005293492551066415
934.0, 0.0008173342236450179
935.0, 0.0007578576071552147
936.0, 0.000522057560895836
937.0, 0.0004682317258927119
938.0, 0.0005526758413711702
939.0, 0.0004924989454664423
940.0, 0.0002874144843509122
941.0, 0.0005510839174761886
942.0, 0.0005719747671681636
943.0, 0.00047219281562710635
944.0, 0.0006492829346061745
945.0, 0.0005105351929124583
946.0, 0.00022943275410729558
947.0, 0.00028702579787679924
948.0, 0.00038965635834362625
949.0, 0.0003233870374796385
950.0, 0.0006433897345350897
951.0, 0.0006982628035240239
952.0, 0.0006163292010702062
953.0, 0.0004690224588625936
954.0, 0.0004464785034001846
955.0, 0.00047214393132448456
956.0, 0.00032312204836001067
957.0, 0.00032154938993789807
958.0, 0.0004296813416638379
959.0, 0.0004250031205986379
960.0, 0.0005276213416983043
961.0, 0.00037963876308392137
962.0, 0.00013056953712691464
963.0, 9.312115140053171e-05
964.0, 0.00028522092202774895
965.0, 0.0005470089860310047
966.0, 0.00038045003265776327
967.0, 0.000488111955001421
968.0, 0.0003931308320198876
969.0, 0.0002652737522723656
970.0, 2.493408392173645e-05
971.0, 0.00011628223587243737
972.0, 6.040771828498395e-05
973.0, 0.00018421968584488987
974.0, 0.00014271916172172724
975.0, 0.0002347452194744544
976.0, 0.00041029565545916836
977.0, 0.00011225419486178465
978.0, 6.0328068913424855e-05
979.0, 3.489862030489967e-05
980.0, 1.9580766528307664e-05
981.0, 3.5357598288879045e-05
982.0, 0.00015148289183558367
983.0, 3.096599534068203e-05
984.0, 0.0001025006961374081
985.0, 1.5496950703425756e-05
986.0, 3.489286792906863e-05
987.0, 8.243736046371168e-06
988.0, 0.00016246739443290806
989.0, 0.00037429993577892313
990.0, 0.00027270413014653637
991.0, 0.0002680341505663721
992.0, 0.00012748012548439156
993.0, 0.00018468626569659373
994.0, 0.0004006763788174002
995.0, 0.0003470275444731149
996.0, 9.968460034264726e-05
997.0, 2.089205510645058e-05
998.0, 0.00014375477063329278
999.0, 0.000198592181579275
1000.0, 5.884961768791669e-05
1001.0, 0.0002527393196673101
1002.0, 8.134883021449543e-05
1003.0, 0.00017203709027671717
1004.0, 0.0002540220259854375
1005.0, 8.212493226056057e-05
1006.0, 0.00014756008935660868
1007.0, 0.00014245169885716838
1008.0, 0.00010208098427018115
1009.0, 0.00023463711755639208
1010.0, 0.00018764049614081874
1011.0, 0.00020457956382810753
1012.0, 0.0001773834236517124
1013.0, 0.0004401890340212856
1014.0, 0.0005561304590488671
1015.0, 0.00046177070878653095
1016.0, 0.0006381098535999851
1017.0, 0.0007519126576248917
1018.0, 0.0007295002377833761
1019.0, 0.0008865537972175048
1020.0, 0.0010620811891916134
1021.0, 0.0011269466834758538
1022.0, 0.0011484659208005333
1023.0, 0.001208623934958169
1024.0, 0.0014530457300634067
1025.0, 0.0017358624095786185
1026.0, 0.0016171792815572938
1027.0, 0.0021078324845744266
1028.0, 0.002217158845701606
1029.0, 0.0021439075939214468
1030.0, 0.0020615620619483673
1031.0, 0.00224876524166886
1032.0, 0.0024461017019212156
1033.0, 0.002446198907098933
1034.0, 0.0026292656494905065
1035.0, 0.0031204628278596546
1036.0, 0.003390969629950868
1037.0, 0.003414045812219005
1038.0, 0.003568181633716057
1039.0, 0.0037426857159707535
1040.0, 0.003952885486459959
1041.0, 0.004130528716221782
1042.0, 0.004423829365579173
1043.0, 0.004676416297485047
1044.0, 0.004631613478739511
1045.0, 0.005110937398684173
1046.0, 0.00554882797993054
1047.0, 0.005711940915006842
1048.0, 0.006039724509637023
1049.0, 0.0062684816478062585
1050.0, 0.00648084017393159
1051.0, 0.007115852822546136
1052.0, 0.007899590119656116
1053.0, 0.008141349127611377
1054.0, 0.008126432815379463
1055.0, 0.008933706007872374
1056.0, 0.0098609057576864
1057.0, 0.01002453450891983
1058.0, 0.011018187102344637
1059.0, 0.012345369679132382
1060.0, 0.012914776286231635
1061.0, 0.013576105066554475
1062.0, 0.014939227755437384
1063.0, 0.016229206191809818
1064.0, 0.017884671142850403
1065.0, 0.01940354228294488
1066.0, 0.021615498350473474
1067.0, 0.023173010270225565
1068.0, 0.02598887820085887
1069.0, 0.028473964025192634
1070.0, 0.031597232029512805
1071.0, 0.0357742967308078
1072.0, 0.03951136513912194
1073.0, 0.04393231125629428
1074.0, 0.049007362918508914
1075.0, 0.05550105528391829
1076.0, 0.06355040819378459
1077.0, 0.07337055697527148
1078.0, 0.08501324583818701
1079.0, 0.09927352532012414
1080.0, 0.11831204296527753
1081.0, 0.14225843750559086
1082.0, 0.17093418304688282
1083.0, 0.20667779778477302
1084.0, 0.24615750536548747
1085.0, 0.29132818620705575
1086.0, 0.3435123287264914
1087.0, 0.3960234006221691
1088.0, 0.4561722636972134
1089.0, 0.5237618319979034
1090.0, 0.5993959368737873
1091.0, 0.6870091077253897
1092.0, 0.7845844777805496
1093.0, 0.8845541168350673
1094.0, 0.9675718562779739
1095.0, 0.9975615515396775
1096.0, 0.9465247821284914
1097.0, 0.822051143334935
1098.0, 0.6560680761397757
1099.0, 0.4879618862993153
1100.0, 0.3474978788071471
1101.0, 0.24378422415165105
1102.0, 0.1715268290877949
1103.0, 0.12290803455244009
1104.0, 0.09086332622800718
1105.0, 0.06862137516967153
1106.0, 0.05342761219694473
1107.0, 0.042387192526184524
1108.0, 0.03392219927052958
1109.0, 0.027812571920768386
1110.0, 0.023217159160527426
1111.0, 0.019596449035538695
1112.0, 0.016769386010733488
1113.0, 0.01401614791826842
1114.0, 0.011851109018346852
1115.0, 0.010847045369376777
1116.0, 0.00900692089758319
1117.0, 0.007795176267442044
1118.0, 0.0069638003146530614
1119.0, 0.006610126920407608
1120.0, 0.005553333758314693
1121.0, 0.004570590127235183
1122.0, 0.004323941753618737
1123.0, 0.0036932978024332664
1124.0, 0.0029171229386357445
1125.0, 0.0026748741399782996
1126.0, 0.0026904296116858797
1127.0, 0.0019307352160006016
1128.0, 0.0016250665297246442
1129.0, 0.001721538993159089
1130.0, 0.0016806735676136943
1131.0, 0.001481531420859189
1132.0, 0.001043925864186719
1133.0, 0.0007100008887334054
1134.0, 0.0008611638793563862
1135.0, 0.0005356602348844044
1136.0, 0.0006091002809576486
1137.0, 0.00040244501565710314
1138.0, 0.0007334967451664212
1139.0, 0.00022664042999962592
1140.0, 7.87456715698796e-05
1141.0, 6.614738692791334e-05
1142.0, 0.00021791850711442507
1143.0, 7.57881382802794e-05
1144.0, 0.0004070195184055946
1145.0, 0.0002804065239794056
1146.0, 3.079770581720398e-05
1147.0, 0.0001483765330374012
1148.0, 0.00023494812879042251
1149.0, 0.00031899911647615553
1150.0, 0.0001324357290505802
1151.0, 0.00016874101287551216
1152.0, 0.00014086293510149356
1153.0, 0.00012651410820288322
1154.0, 0.00012367719285418584
1155.0, 0.00022124511638382436
1156.0, 0.0002022486924971121
1157.0, 0.000171681285452217
1158.0, 0.00021894251555396998
1159.0, 0.00012764108087034867
1160.0, 0.0003501224020339973
1161.0, 6.50218795688263e-05
1162.0, 0.00028572820432213404
1163.0, 8.552391410915331e-05
1164.0, 0.00013890269536209613
1165.0, 0.00010843053946926126
1166.0, 8.053845109268623e-05
1167.0, 5.52224603567282e-05
1168.0, 0.00022707806793288983
1169.0, 5.885873958358899e-05
1170.0, 0.00031232305866877804
1171.0, 0.0002176033598378008
1172.0, 0.0005788459936824509
1173.0, 0.0008453758651497576
1174.0, 0.00032880865705723304
1175.0, 6.905101745492597e-05
1176.0, 0.00014908451695519175
1177.0, 0.0003848224690865737
1178.0, 0.0005325310054207554
1179.0, 0.0003867542139727707
1180.0, 0.0007666521548089712
1181.0, 0.00040669904455281625
1182.0, 0.0006718509655769041
1183.0, 0.00039090514416792915
1184.0, 0.00034655724242729514
1185.0, 0.0006964384914862655
1186.0, 0.0006257003612786563
1187.0, 0.0005999191234549622
1188.0, 0.0006490622653905803
1189.0, 0.0007209712179514143
1190.0, 0.0007528805963748936
1191.0, 0.0005719429571272493
1192.0, 0.0009413535414306281
1193.0, 0.0007227243586711016
1194.0, 0.0005366212548211206
1195.0, 0.00043199810024187183
1196.0, 0.0003058470343158003
1197.0, 0.000728717825970715
1198.0, 0.0006852533827044825
1199.0, 0.0007208042144663064
1200.0, 0.0008151373811822114
1201.0, 0.0007538590189592146
1202.0, 0.0006885048222026116
1203.0, 0.0007168566693625496
1204.0, 0.001030797667738589
1205.0, 0.0009362635439821296
1206.0, 0.0006239307322512144
1207.0, 0.0005576905178175786
1208.0, 0.000771616810374445
1209.0, 0.0008023263552067025
1210.0, 0.0006901492839100796
1211.0, 0.00038084648068496525
1212.0, 0.00041032398280235066
1213.0, 0.0003912791789519155
1214.0, 0.0004225971308416402
1215.0, 0.0008568609921193088
1216.0, 0.0006185831554796567
1217.0, 0.0006234341431328194
1218.0, 0.00046055582659668045
1219.0, 0.0003150259782293062
1220.0, 0.00026666846574971973
1221.0, 0.0003882232820840051
1222.0, 0.00029943421975275924
1223.0, 0.00043062033747555124
1224.0, 0.0003608187753424289
1225.0, 0.000440444770748388
1226.0, 0.0006242409633406286
1227.0, 0.000499558728791727
1228.0, 0.000476426555865165
1229.0, 0.0006768822720181068
1230.0, 0.0006091618023559323
1231.0, 0.000426538508000356
1232.0, 0.0002415568131483463
1233.0, 0.0005006356697454768
1234.0, 0.0003288473395461099
1235.0, 0.0005217373817278741
1236.0, 0.0007562066384165788
1237.0, 0.00039266733718135367
1238.0, 0.0003242924196257878
1239.0, 0.0005274319178944072
1240.0, 0.0005369119078460924
1241.0, 0.0004658637551692798
1242.0, 0.0002181358825062055
1243.0, 0.0005027780236979003
1244.0, 0.0005630558714630072
1245.0, 0.000672448225849976
1246.0, 0.0005362056029798921
1247.0, 0.00026107194255300416
1248.0, 2.531472516072284e-05
1249.0, 0.00027839069179617085
1250.0, 0.00016016365510998452
1251.0, 4.4123587418556164e-05
1252.0, 0.00038784924586314273
1253.0, 0.0006711641752847409
1254.0, 0.0004969607345080168
1255.0, 0.00015881165252973703
1256.0, 1.2219159122909943e-05
1257.0, 4.0617728996367985e-05
1258.0, 7.004023856094284e-05
1259.0, 0.0004336918771122216
1260.0, 0.0002063416188204484
1261.0, 0.0003290547092417493
1262.0, 0.00013756170217293432
1263.0, 0.0002927385758841393
1264.0, 0.0005914721890622325
1265.0, 0.0003102086768627917
1266.0, 0.0002070279260211147
1267.0, 0.00018760524000920625
1268.0, 7.570726037012827e-05
1269.0, 9.395163158911992e-05
1270.0, 8.505647390846699e-05
1271.0, 0.0005617698824804868
1272.0, 0.0005229441874014298
1273.0, 0.00035198585040744154
1274.0, 0.00036923587528625443
1275.0, 0.0004214344585832901
1276.0, 0.00040881123384454353
1277.0, 0.0004569248085806247
1278.0, 0.00022359031246038278
1279.0, 0.0003021718698881453
1280.0, 0.0003481688104319764
1281.0, 0.00014262677357269182
1282.0, 4.6408076835578725e-05
1283.0, 5.499177469128711e-05
1284.0, 3.563393836455369e-05
1285, 0.0
1286, 0.0
1287, 0.0
1288, 0.0
1289, 0.0
1290, 0.0
1291, 0.0
1292, 0.0
1293, 0.0
1294, 0.0
1295, 0.0
1296, 0.0
1297, 0.0
1298, 0.0
1299, 0.0
1300, 0.0
1301, 0.0
1302, 0.0
1303, 0.0
1304, 0.0
1305, 0.0
1306, 0.0
1307, 0.0
1308, 0.0
1309, 0.0
1310, 0.0
1311, 0.0
1312, 0.0
1313, 0.0
1314, 0.0
1315, 0.0
1316, 0.0
1317, 0.0
1318, 0.0
1319, 0.0
1320, 0.0
1321, 0.0
1322, 0.0
1323, 0.0
1324, 0.0
1325, 0.0
1326, 0.0
1327, 0.0
1328, 0.0
1329, 0.0
1330, 0.0
1331, 0.0
1332, 0.0
1333, 0.0
1334, 0.0
1335, 0.0
1336, 0.0
1337, 0.0
1338, 0.0
1339, 0.0
1340, 0.0
1341, 0.0
1342, 0.0
1343, 0.0
1344, 0.0
1345, 0.0
1346, 0.0
1347, 0.0
1348, 0.0
1349, 0.0
1350, 0.0
1351, 0.0
1352, 0.0
1353, 0.0
1354, 0.0
1355, 0.0
1356, 0.0
1357, 0.0
1358, 0.0
1359, 0.0
1360, 0.0
1361, 0.0
1362, 0.0
1363, 0.0
1364, 0.0
1365, 0.0
1366, 0.0
1367, 0.0
1368, 0.0
1369, 0.0
1370, 0.0
1371, 0.0
1372, 0.0
1373, 0.0
1374, 0.0
1375, 0.0
1376, 0.0
1377, 0.0
1378, 0.0
1379, 0.0
1380, 0.0
1381, 0.0
1382, 0.0
1383, 0.0
1384, 0.0
1385, 0.0
1386, 0.0
1387, 0.0
1388, 0.0
1389, 0.0
1390, 0.0
1391, 0.0
1392, 0.0
1393, 0.0
1394, 0.0
1395, 0.0
1396, 0.0
1397, 0.0
1398, 0.0
1399, 0.0
1400, 0.0
1401, 0.0
1402, 0.0
1403, 0.0
1404, 0.0
1405, 0.0
1406, 0.0
1407, 0.0
1408, 0.0
1409, 0.0
1410, 0.0
1411, 0.0
1412, 0.0
1413, 0.0
1414, 0.0
1415, 0.0
1416, 0.0
1417, 0.0
1418, 0.0
1419, 0.0
1420, 0.0
1421, 0.0
1422, 0.0
1423, 0.0
1424, 0.0
1425, 0.0
1426, 0.0
1427, 0.0
1428, 0.0
1429, 0.0
1430, 0.0
1431, 0.0
1432, 0.0
1433, 0.0
1434, 0.0
1435, 0.0
1436, 0.0
1437, 0.0
1438, 0.0
1439, 0.0
1440, 0.0
1441, 0.0
1442, 0.0
1443, 0.0
1444, 0.0
1445, 0.0
1446, 0.0
1447, 0.0
1448, 0.0
1449, 0.0
1450, 0.0
1451, 0.0
1452, 0.0
1453, 0.0
1454, 0.0
1455, 0.0
1456, 0.0
1457, 0.0
1458, 0.0
1459, 0.0
1460, 0.0
1461, 0.0
1462, 0.0
1463, 0.0
1464, 0.0
1465, 0.0
1466, 0.0
1467, 0.0
1468, 0.0
1469, 0.0
1470, 0.0
1471, 0.0
1472, 0.0
1473, 0.0
1474, 0.0
1475, 0.0
1476, 0.0
1477, 0.0
1478, 0.0
1479, 0.0
1480, 0.0
1481, 0.0
1482, 0.0
1483, 0.0
1484, 0.0
1485, 0.0
1486, 0.0
1487, 0.0
1488, 0.0
1489, 0.0
1490, 0.0
1491, 0.0
1492, 0.0
1493, 0.0
1494, 0.0
1495, 0.0
1496, 0.0
1497, 0.0
1498, 0.0
1499, 0.0
1500, 0.0
1501, 0.0
1502, 0.0
1503, 0.0
1504, 0.0
1505, 0.0
1506, 0.0
1507, 0.0
1508, 0.0
1509, 0.0
1510, 0.0
1511, 0.0
1512, 0.0
1513, 0.0
1514, 0.0
1515, 0.0
1516, 0.0
1517, 0.0
1518, 0.0
1519, 0.0
1520, 0.0
1521, 0.0
1522, 0.0
1523, 0.0
1524, 0.0
1525, 0.0
1526, 0.0
1527, 0.0
1528, 0.0
1529, 0.0
1530, 0.0
1531, 0.0
1532, 0.0
1533, 0.0
1534, 0.0
1535, 0.0
1536, 0.0
1537, 0.0
1538, 0.0
1539, 0.0
1540, 0.0
1541, 0.0
1542, 0.0
1543, 0.0
1544, 0.0
1545, 0.0
1546, 0.0
1547, 0.0
1548, 0.0
1549, 0.0
1550, 0.0
1551, 0.0
1552, 0.0
1553, 0.0
1554, 0.0
1555, 0.0
1556, 0.0
1557, 0.0
1558, 0.0
1559, 0.0
1560, 0.0
1561, 0.0
1562, 0.0
1563, 0.0
1564, 0.0
1565, 0.0
1566, 0.0
1567, 0.0
1568, 0.0
1569, 0.0
1570, 0.0
1571, 0.0
1572, 0.0
1573, 0.0
1574, 0.0
1575, 0.0
1576, 0.0
1577, 0.0
1578, 0.0
1579, 0.0
1580, 0.0
1581, 0.0
1582, 0.0
1583, 0.0
1584, 0.0
1585, 0.0
1586, 0.0
1587, 0.0
1588, 0.0
1589, 0.0
1590, 0.0
1591, 0.0
1592, 0.0
1593, 0.0
1594, 0.0
1595, 0.0
1596, 0.0
1597, 0.0
1598, 0.0
1599, 0.0
