30, 0.0
31, 0.0
32, 0.0
33, 0.0
34, 0.0
35, 0.0
36, 0.0
37, 0.0
38, 0.0
39, 0.0
40, 0.0
41, 0.0
42, 0.0
43, 0.0
44, 0.0
45, 0.0
46, 0.0
47, 0.0
48, 0.0
49, 0.0
50, 0.0
51, 0.0
52, 0.0
53, 0.0
54, 0.0
55, 0.0
56, 0.0
57, 0.0
58, 0.0
59, 0.0
60, 0.0
61, 0.0
62, 0.0
63, 0.0
64, 0.0
65, 0.0
66, 0.0
67, 0.0
68, 0.0
69, 0.0
70, 0.0
71, 0.0
72, 0.0
73, 0.0
74, 0.0
75, 0.0
76, 0.0
77, 0.0
78, 0.0
79, 0.0
80, 0.0
81, 0.0
82, 0.0
83, 0.0
84, 0.0
85, 0.0
86, 0.0
87, 0.0
88, 0.0
89, 0.0
90, 0.0
91, 0.0
92, 0.0
93, 0.0
94, 0.0
95, 0.0
96, 0.0
97, 0.0
98, 0.0
99, 0.0
100, 0.0
101, 0.0
102, 0.0
103, 0.0
104, 0.0
105, 0.0
106, 0.0
107, 0.0
108, 0.0
109, 0.0
110, 0.0
111, 0.0
112, 0.0
113, 0.0
114, 0.0
115, 0.0
116, 0.0
117, 0.0
118, 0.0
119, 0.0
120, 0.0
121, 0.0
122, 0.0
123, 0.0
124, 0.0
125, 0.0
126, 0.0
127, 0.0
128, 0.0
129, 0.0
130, 0.0
131, 0.0
132, 0.0
133, 0.0
134, 0.0
135, 0.0
136, 0.0
137, 0.0
138, 0.0
139, 0.0
140, 0.0
141, 0.0
142, 0.0
143, 0.0
144, 0.0
145, 0.0
146, 0.0
147, 0.0
148, 0.0
149, 0.0
150, 0.0
151, 0.0
152, 0.0
153, 0.0
154, 0.0
155, 0.0
156, 0.0
157, 0.0
158, 0.0
159, 0.0
160, 0.0
161, 0.0
162, 0.0
163, 0.0
164, 0.0
165.0, 0.0009318471394749459
166.0, 0.005862255284845214
167.0, 0.002589209940368052
168.0, 0.0007123434355939299
169.0, 0.0034435582920691312
170.0, 0.009159162488721432
171.0, 0.012633507439139494
172.0, 0.012262235150316719
173.0, 0.006415062540867224
174.0, 0.004933853644720003
175.0, 0.0055846883082780905
176.0, 0.004502610697343104
177.0, 0.004607201363287822
178.0, 0.007195710567056567
179.0, 0.007121640792325342
180.0, 0.008817553607848515
181.0, 0.010238620779486542
182.0, 0.0035551025189942114
183.0, 0.007324662936539933
184.0, 0.009856616866050648
185.0, 0.013323423491580338
186.0, 0.01582402655578509
187.0, 0.016134857388056714
188.0, 0.02031723841158072
189.0, 0.019651263076008688
190.0, 0.019619100254842623
191.0, 0.022468882549971998
192.0, 0.02760694215460788
193.0, 0.031639752982262175
194.0, 0.030519323868281305
195.0, 0.03221997393477072
196.0, 0.03403342643368338
197.0, 0.03506108598838065
198.0, 0.03526496117473594
199.0, 0.03505451192320347
200.0, 0.03999768129877708
201.0, 0.04593560931580736
202.0, 0.04589549573510483
203.0, 0.03883958513416944
204.0, 0.030223664708683276
205.0, 0.022460675296883132
206.0, 0.012688986230031077
207.0, 0.006199453723579239
208.0, 0.004222227848863283
209.0, 0.005139746839408885
210.0, 0.0037612411563812966
211.0, 0.004969210808769445
212.0, 0.0059955687334155615
213.0, 0.005752317858975746
214.0, 0.005081204107779497
215.0, 0.0057619953395241135
216.0, 0.0027352486497698478
217.0, 0.0013851257655910028
218.0, 0.0008590198624261407
219.0, 0.0005780060497087728
220.0, 0.00038269690337512267
221.0, 0.0009033333463661607
222.0, 0.0021840970268412288
223.0, 0.002743394231220763
224.0, 0.003110075683644683
225.0, 0.003055411249182628
226.0, 0.001985547599404636
227.0, 0.0004055952831704009
228.0, 0.000586983737261873
229.0, 0.0015324035090102232
230.0, 0.0018791250300802785
231.0, 0.002019160527399399
232.0, 0.004785197094572765
233.0, 0.0011450944010081424
234.0, 0.0010007194223648503
235.0, 0.001292195969347329
236.0, 0.0014647619112109793
237.0, 0.001675274155862474
238.0, 0.0002637478123998702
239.0, 0.003812038274280379
240.0, 0.005020311342208049
241.0, 0.004727296011915333
242.0, 0.004221544411588815
243.0, 0.00450719102721043
244.0, 0.007735031259069247
245.0, 0.008751337298041046
246.0, 0.008495753051127484
247.0, 0.008264646604594118
248.0, 0.008602466166060587
249.0, 0.008356754973271345
250.0, 0.01571182802760044
251.0, 0.018877392161491674
252.0, 0.018859236627212145
253.0, 0.020238989794431176
254.0, 0.026329270353676156
255.0, 0.027549103529006733
256.0, 0.03346105908971133
257.0, 0.049672276447492926
258.0, 0.058459912859804244
259.0, 0.05639766234381716
260.0, 0.057311298675982975
261.0, 0.06117838552741978
262.0, 0.05085523805368499
263.0, 0.046102252259538276
264.0, 0.04669499542817448
265.0, 0.04733710788005283
266.0, 0.04432505406786201
267.0, 0.04083923700728202
268.0, 0.03760108607472211
269.0, 0.035562335365786055
270.0, 0.0344688762546375
271.0, 0.03334322659339716
272.0, 0.030985915273648412
273.0, 0.030211688565547845
274.0, 0.02894733798071372
275.0, 0.027901729236812115
276.0, 0.02681562967713599
277.0, 0.0247374433504935
278.0, 0.023655887964175875
279.0, 0.021642405591962986
280.0, 0.021828165000620285
281.0, 0.022387570219002343
282.0, 0.022732624556203437
283.0, 0.02521661491906859
284.0, 0.023401802610060876
285.0, 0.0238228391116446
286.0, 0.024193565515859942
287.0, 0.024524022293367777
288.0, 0.02584036513068748
289.0, 0.029451268176390606
290.0, 0.026010680481511044
291.0, 0.03037266806721255
292.0, 0.028913076509613635
293.0, 0.025472585016868606
294.0, 0.029554953422643124
295.0, 0.03024493635013057
296.0, 0.030581783263578022
297.0, 0.03125283319182761
298.0, 0.030639464076108718
299.0, 0.029009850859316212
300.0, 0.02806907954523789
301.0, 0.026769237398362886
302.0, 0.02660066711323313
303.0, 0.026699314387867795
304.0, 0.027024303630539724
305.0, 0.02751668790926225
306.0, 0.02796286698773503
307.0, 0.028518476388928203
308.0, 0.02825029123591673
309.0, 0.027641172840505046
310.0, 0.026782106768024783
311.0, 0.02526069530159339
312.0, 0.02217048292581717
313.0, 0.021928096932533597
314.0, 0.02206260319708462
315.0, 0.021047810276701367
316.0, 0.0206582991809995
317.0, 0.02180163513587674
318.0, 0.020354945098870106
319.0, 0.022772992863238133
320.0, 0.025380605730148616
321.0, 0.027200915947816363
322.0, 0.028483718646789755
323.0, 0.030466379055101352
324.0, 0.03537699104889415
325.0, 0.03779843554048873
326.0, 0.04215937195343727
327.0, 0.0468420747962684
328.0, 0.049352181408814005
329.0, 0.04899277164906272
330.0, 0.05345589284418191
331.0, 0.054566568391162674
332.0, 0.05466596049707319
333.0, 0.05596236114709951
334.0, 0.059420161989641826
335.0, 0.0646863039090479
336.0, 0.07064468902734478
337.0, 0.0702837551321392
338.0, 0.07399050025248108
339.0, 0.07617660249324615
340.0, 0.07549059088622617
341.0, 0.07557995294879008
342.0, 0.07021331218745254
343.0, 0.06213314878807926
344.0, 0.057319349161533174
345.0, 0.05379290250422256
346.0, 0.05020964909738235
347.0, 0.04738544315652327
348.0, 0.04461288660504606
349.0, 0.042362648812330754
350.0, 0.03976038075648146
351.0, 0.03862089298493906
352.0, 0.038940006807334386
353.0, 0.038068385055473185
354.0, 0.035573394170922486
355.0, 0.03217276027721093
356.0, 0.02980528737121488
357.0, 0.02640990951253815
358.0, 0.022508816996142742
359.0, 0.022291595979146726
360.0, 0.020466384984593095
361.0, 0.019327231369660747
362.0, 0.01923341996046544
363.0, 0.018420170618295695
364.0, 0.016657259834293
365.0, 0.01607154691685423
366.0, 0.013267425039567975
367.0, 0.012598602529524537
368.0, 0.011260256778638301
369.0, 0.008339146557043268
370.0, 0.006339679849185417
371.0, 0.010224209383577989
372.0, 0.009247977913917077
373.0, 0.013668640842182127
374.0, 0.01809335065724718
375.0, 0.01950514555887063
376.0, 0.016616950894114343
377.0, 0.010243971038628159
378.0, 0.00674699808732212
379.0, 0.00782068412609517
380.0, 0.007230437020705904
381.0, 0.00561923893605594
382.0, 0.003957224521778053
383.0, 0.0017436506189423746
384.0, 0.0007375551343009129
385.0, 0.0032113577196316656
386.0, 0.0031801132849403383
387.0, 0.0021201007305617628
388.0, 0.002208398873832812
389.0, 0.003810689417767901
390.0, 0.002293751143953662
391.0, 0.004435825678250692
392.0, 0.004267892476347163
393.0, 0.002331615472574827
394.0, 0.0011296473617712485
395.0, 0.0027966442837061047
396.0, 0.003270917279114716
397.0, 0.006564582250928183
398.0, 0.00815563352830797
399.0, 0.00991658905323266
400.0, 0.013429457147874068
401.0, 0.018722683353098662
402.0, 0.024325740771366552
403.0, 0.028323407443122072
404.0, 0.035647825596690434
405.0, 0.047950144719808976
406.0, 0.06507492867618794
407.0, 0.08641773768095984
408.0, 0.11429034358914483
409.0, 0.14573498082154945
410.0, 0.19400233652209553
411.0, 0.2466127760236508
412.0, 0.27265301973723083
413.0, 0.24563089815894593
414.0, 0.17783234963121994
415.0, 0.11256097324552963
416.0, 0.0773299243081836
417.0, 0.05477455644757384
418.0, 0.03887536826553326
419.0, 0.029196213318800394
420.0, 0.022564001427126546
421.0, 0.01830094025692991
422.0, 0.015851664012247312
423.0, 0.012292572880096041
424.0, 0.010048994922862235
425.0, 0.01060537883322065
426.0, 0.010646449057493134
427.0, 0.009430221490292616
428.0, 0.010402383315155521
429.0, 0.010595180833891132
430.0, 0.010172290861811428
431.0, 0.010476501171721298
432.0, 0.012691151444711288
433.0, 0.01430793524229928
434.0, 0.01272786396745143
435.0, 0.013340093455997244
436.0, 0.013939334254496227
437.0, 0.013362679483907456
438.0, 0.012567068057360523
439.0, 0.012142398540607474
440.0, 0.01028389815155265
441.0, 0.011185501096355289
442.0, 0.011965489764718187
443.0, 0.013272841526297272
444.0, 0.016762879917649177
445.0, 0.019379299118934906
446.0, 0.0202387204532278
447.0, 0.02510961058566345
448.0, 0.02853730531486857
449.0, 0.03223320516867296
450.0, 0.037497269210573135
451.0, 0.03974830580989337
452.0, 0.04982488874023197
453.0, 0.057518982862660654
454.0, 0.0675770312838299
455.0, 0.07734237310660037
456.0, 0.08653583061736687
457.0, 0.0990619869285899
458.0, 0.1117465639827188
459.0, 0.12271523271022178
460.0, 0.1392911697244725
461.0, 0.15648532238975582
462.0, 0.17624900984420427
463.0, 0.20549223274434725
464.0, 0.24488931465378821
465.0, 0.2961873823842552
466.0, 0.3635353377604709
467.0, 0.44770331021704945
468.0, 0.5555570883788874
469.0, 0.6870822668581601
470.0, 0.8236773545794521
471.0, 0.9447258677896838
472.0, 0.9894910048293432
473.0, 0.961918331788365
474.0, 0.8706912972494913
475.0, 0.737964110576467
476.0, 0.5967733247086467
477.0, 0.4729485019990928
478.0, 0.37720644212327714
479.0, 0.3021266985149716
480.0, 0.24394848784751366
481.0, 0.19795750846082327
482.0, 0.16110981062817084
483.0, 0.13673694964116428
484.0, 0.11532003888255736
485.0, 0.0982560196613633
486.0, 0.08682063046143941
487.0, 0.07569876084412075
488.0, 0.06415669908850728
489.0, 0.06034886983122684
490.0, 0.05055038378074947
491.0, 0.04584732779388193
492.0, 0.04232449129789023
493.0, 0.040088226447931224
494.0, 0.03801417523559417
495.0, 0.03420984597801911
496.0, 0.030077181197794553
497.0, 0.026370787965318446
498.0, 0.023482326494159673
499.0, 0.020590893064611142
500.0, 0.01850709277099645
501.0, 0.017568163187331443
502.0, 0.016261960505277402
503.0, 0.019473335200339174
504.0, 0.016987472121653985
505.0, 0.016169583741852563
506.0, 0.01759838968561798
507.0, 0.018168906932870738
508.0, 0.015161342324204626
509.0, 0.014944772740072288
510.0, 0.013606671121282093
511.0, 0.014059749419650847
512.0, 0.014894893389429998
513.0, 0.01565724442508217
514.0, 0.016610498445774762
515.0, 0.018005203307473183
516.0, 0.01797202320761138
517.0, 0.0174962961223559
518.0, 0.015495832423815959
519.0, 0.01462646004678112
520.0, 0.014967224517140146
521.0, 0.014112376996023778
522.0, 0.011823063228401536
523.0, 0.014758770290107918
524.0, 0.015217287026277301
525.0, 0.014393234780479169
526.0, 0.013576551158805161
527.0, 0.013497177259668399
528.0, 0.01401536816556229
529.0, 0.013444280874720344
530.0, 0.013240658722999352
531.0, 0.01360484170793113
532.0, 0.013570550111993181
533.0, 0.012797538295191986
534.0, 0.012143637229710989
535.0, 0.013787376222259949
536.0, 0.0156578203641695
537.0, 0.017291932931530928
538.0, 0.013730279605009813
539.0, 0.012704900551929367
540.0, 0.014716050621823759
541.0, 0.010885487605082305
542.0, 0.014781781341996808
543.0, 0.01343839214553083
544.0, 0.014871278762352233
545.0, 0.017424313856662474
546.0, 0.01713848202710975
547.0, 0.013923513308779903
548.0, 0.015071835377628186
549.0, 0.01696575492552626
550.0, 0.01807549525802532
551.0, 0.0184608181748886
552.0, 0.01839358874835379
553.0, 0.017773810944456875
554.0, 0.01662752356996169
555.0, 0.016263216124680884
556.0, 0.01423834045433452
557.0, 0.013940523000414859
558.0, 0.014603786595988398
559.0, 0.014760225851645152
560.0, 0.014848753809493367
561.0, 0.016428662274536564
562.0, 0.01493380996871591
563.0, 0.014403418967848598
564.0, 0.014857384306388862
565.0, 0.01460847108714156
566.0, 0.013647871450772946
567.0, 0.013606982707690847
568.0, 0.01606179371495501
569.0, 0.013340911552847272
570.0, 0.011011681146585085
571.0, 0.01379663017520273
572.0, 0.014375086347969118
573.0, 0.012658017697104928
574.0, 0.012352968323159323
575.0, 0.012447995924462598
576.0, 0.01432533133137005
577.0, 0.012345330256182055
578.0, 0.01104702545397284
579.0, 0.008552468993404642
580.0, 0.005656451126145819
581.0, 0.005019757784002787
582.0, 0.004994747499813412
583.0, 0.0062339154096578515
584.0, 0.002714647261983366
585.0, 0.0036503793936389704
586.0, 0.006975947094500732
587.0, 0.006941515451103997
588.0, 0.0022691031516211607
589.0, 0.0072844792462674664
590.0, 0.006954545345909881
591.0, 0.006478584613598813
592.0, 0.006359869677927499
593.0, 0.005899299312068884
594.0, 0.0052310152160395754
595.0, 0.005452143585519911
596.0, 0.005255130337130369
597.0, 0.007359062180381553
598.0, 0.006734551525755737
599.0, 0.006682799775030056
600.0, 0.007969634821361786
601.0, 0.008793495923909314
602.0, 0.006981477869608105
603.0, 0.006713312932791743
604.0, 0.006543481058839333
605.0, 0.003978944548164711
606.0, 0.005038478878324828
607.0, 0.006516713294341942
608.0, 0.005230905037056985
609.0, 0.004604255763893079
610.0, 0.0025425374601294633
611.0, 0.0042437843494988695
612.0, 0.001921782049029791
613.0, 0.0007503904549184338
614.0, 0.001427245431938766
615.0, 0.0016818046694705678
616.0, 0.00036125486358539935
617.0, 0.0019665686508340066
618.0, 0.00044765405862510544
619.0, 7.565193023679663e-05
620.0, 0.0019384525846615484
621.0, 0.0026302000697814316
622.0, 0.0007326416155579379
623.0, 0.0008821634311730838
624.0, 0.0038475841444092058
625.0, 0.0026874248848348615
626.0, 0.002795869732749657
627.0, 0.001485369771325218
628.0, 0.0002453267302986957
629.0, 0.0006222467399403875
630.0, 0.0007173042648975472
631.0, 0.002721940685096382
632.0, 0.0014129852770353533
633.0, 0.0004822770273539222
634.0, 0.0002538469050475862
635.0, 0.0007915833519631545
636.0, 0.0018118459591495001
637.0, 0.0026830151082641073
638.0, 0.0036226118071313843
639.0, 0.002087003588463544
640.0, 0.0038562623636850518
641.0, 0.004163835801789051
642.0, 0.003524321752622687
643.0, 0.002815376292064062
644.0, 0.0009012104091034196
645.0, 0.00260685539964069
646.0, 0.0016616035758770995
647.0, 0.0016940887041104187
648.0, 0.003098299526933025
649.0, 0.0035184223584323847
650.0, 0.0027343169787213675
651.0, 0.003075779360993036
652.0, 0.0027447384960878575
653.0, 0.0030983861959439068
654.0, 0.003132802026060916
655.0, 0.0029312335821315427
656.0, 0.0025560913102666096
657.0, 0.002092171102918417
658.0, 0.0018532225207462168
659.0, 0.002617491496348968
660.0, 0.0015136681804292162
661.0, 0.004802722754637882
662.0, 0.0039810480037729004
663.0, 0.004005495973875051
664.0, 0.004042368242592958
665.0, 0.0012886119297916968
666.0, 0.004021786984821746
667.0, 0.0022648033825753058
668.0, 0.004140986155094526
669.0, 0.002598556021353525
670.0, 0.0022080564613737408
671.0, 0.0037282422362409024
672.0, 0.0038907729918857712
673.0, 0.000521855177816638
674.0, 0.0016715024771577342
675.0, 0.0006936540301982018
676.0, 0.0017112248187717322
677.0, 0.0019704337088284943
678.0, 0.00237620260350823
679.0, 0.003717357918929375
680.0, 0.004036566818846899
681.0, 0.002046877690969346
682.0, 0.0006394722009854395
683.0, 0.0030664478572335866
684.0, 0.0036156448843210694
685.0, 0.0022679160656421016
686.0, 0.0011373255118438644
687.0, 0.0014828820231967193
688.0, 0.002194152217320714
689.0, 0.0007402739869642176
690.0, 0.003922559533518235
691.0, 0.0027955106291632586
692.0, 0.0009976605507672522
693.0, 0.0007724831717242711
694.0, 0.0015824728333930147
695.0, 0.0029334774911955134
696.0, 0.004277214621859023
697.0, 0.0012716300623441515
698.0, 0.002108620527840104
699.0, 0.0016981872792245555
700.0, 0.0014179871632846084
701.0, 0.002165666374843335
702.0, 0.0017234617390141785
703.0, 0.004315790426658759
704.0, 0.000949676288076838
705.0, 0.0004429902953439697
706.0, 0.0008178325843604974
707.0, 0.0012637134593250182
708.0, 0.0012505067778988002
709.0, 0.0008849501175305753
710.0, 0.001404407453239975
711.0, 0.0015243404893278522
712.0, 0.0018318688784246917
713.0, 0.0009583817847996713
714.0, 0.000622884993458962
715.0, 0.0005545905855972183
716.0, 0.0007390658626644813
717.0, 0.0018899116183193798
718.0, 0.00018674450862287935
719.0, 3.369434759667836e-05
720.0, 0.0016291931832553763
721.0, 0.0023782901541793975
722.0, 0.002225524055079237
723.0, 0.002323507289987444
724.0, 0.0028807534324556197
725.0, 0.001946957944788556
726.0, 0.0017495192419999285
727.0, 0.004363590030349571
728.0, 0.0023039295647367345
729.0, 0.0018330930264538472
730.0, 0.001888839736254231
731.0, 0.0013172044446138963
732.0, 0.0020780294915603674
733.0, 0.0005307184415494629
734.0, 0.003488272368333694
735.0, 0.0022770234197943004
736.0, 0.0007956588449136459
737.0, 0.003064454509814145
738.0, 0.004587632373271315
739.0, 0.001789799229923939
740.0, 0.0014093970746913806
741.0, 0.003923187212856326
742.0, 0.00445875848766432
743.0, 0.005903980184556262
744.0, 0.005525119511810928
745.0, 0.0027853458120353385
746.0, 0.001215434125737941
747.0, 0.00357375948691471
748.0, 0.0043799942696574334
749.0, 0.0007048914162025458
750.0, 0.002252292834979544
751.0, 0.003041664106287149
752.0, 0.002847101356064467
753.0, 0.0030243717196054842
754.0, 0.003683861205501299
755.0, 0.003253837445235612
756.0, 0.0013577359538234058
757.0, 0.0019648414977677916
758.0, 0.001974952172295338
759.0, 0.002323780939273711
760.0, 0.003331012011462267
761.0, 0.005094973941693728
762.0, 0.005411594027186205
763.0, 0.0017631299265123569
764.0, 0.003953358657619698
765.0, 0.0010674975004071033
766.0, 0.000784320937021724
767.0, 0.00348711050404177
768.0, 0.0036766584079337586
769.0, 0.0018865759754852563
770.0, 0.0015544118631465977
771.0, 0.0018282343197564158
772.0, 0.005076279230395794
773.0, 0.004611407873596837
774.0, 0.0027172250472540307
775.0, 0.0018537103909215646
776.0, 0.002759594385475628
777.0, 0.003148092695131834
778.0, 0.001721877795296609
779.0, 0.002163400996667488
780.0, 0.0020957594410019966
781.0, 0.0031554297079806203
782.0, 0.0018575783854299535
783.0, 0.001695871823459872
784.0, 0.0025255181443238064
785.0, 0.003483986461580689
786.0, 0.003711706809659237
787.0, 0.001878015400603688
788.0, 0.005468120312261409
789.0, 0.003465378796486805
790.0, 0.002421508086597866
791.0, 0.00254888710823977
792.0, 0.0026150856389006803
793.0, 0.003530386604892697
794.0, 0.007145764442205883
795.0, 0.011340083461706237
796.0, 0.006090748489216584
797.0, 0.001386632573921093
798.0, 0.0027865373631720033
799.0, 0.006626652828680812
800.0, 0.00787125729000385
801.0, 0.007410052113266843
802.0, 0.008392563186964538
803.0, 0.007629581686792021
804.0, 0.007813398585815383
805.0, 0.009271203832026963
806.0, 0.007060590138691213
807.0, 0.006803572018636941
808.0, 0.007730860847474676
809.0, 0.009197376945556881
810.0, 0.010720569722512752
811.0, 0.00895878158850668
812.0, 0.009947416136068988
813.0, 0.00925130085145354
814.0, 0.0069721979952684044
815.0, 0.0077726229328693094
816.0, 0.009155968371053992
817.0, 0.009307595253900073
818.0, 0.008150143644910249
819.0, 0.005714411239514257
820.0, 0.008596570466263677
821.0, 0.00939038149810877
822.0, 0.0076384415314123795
823.0, 0.010110769951666099
824.0, 0.011683125591620276
825.0, 0.012085399504128076
826.0, 0.012567320980583324
827.0, 0.010077736909602283
828.0, 0.007303811121102273
829.0, 0.008409956141884783
830.0, 0.008141216485912088
831.0, 0.007030581516579883
832.0, 0.006749799562006481
833.0, 0.005934418160043386
834.0, 0.004201817467176148
835.0, 0.0035774191335874225
836.0, 0.003727894352157579
837.0, 0.009779327635939424
838.0, 0.006216921881767533
839.0, 0.007321198055078118
840.0, 0.007917679434726163
841.0, 0.006721421079246285
842.0, 0.005953350472179059
843.0, 0.0069515853249131
844.0, 0.00787472950212521
845.0, 0.008830599113827848
846.0, 0.010627348299401611
847.0, 0.006321890265974189
848.0, 0.00454807154071251
849.0, 0.004688959219690629
850.0, 0.004895650028847683
851.0, 0.00421900831156554
852.0, 0.0025527511869973497
853.0, 0.00485033717592669
854.0, 0.001013809286369112
855.0, 0.000976953932720835
856.0, 0.00341927563193617
857.0, 0.0029297193218498973
858.0, 0.001656664046378057
859.0, 0.0013745985478455832
860.0, 0.0009140818625147766
861.0, 0.0030598247255210704
862.0, 0.001258551368479316
863.0, 0.0004982058753011308
864.0, 0.0008439468164881164
865.0, 0.0006258218655554783
866.0, 0.0015190011914410716
867.0, 0.0025321258347761216
868.0, 0.0024373431264236595
869.0, 0.0034756856965489215
870.0, 0.0052757708608276044
871.0, 0.002048548868062133
872.0, 0.0011878384314682837
873.0, 0.0019339413868592107
874.0, 0.0010708917717006554
875.0, 0.0007736196227736828
876.0, 0.0013500846607024447
877.0, 0.00045466968849352596
878.0, 0.00018226073597471884
879.0, 0.0007880787945513206
880.0, 0.0003950574517591527
881.0, 0.00022922095165436054
882.0, 0.002324392487907657
883.0, 0.0031064745748525763
884.0, 0.0026251721090818406
885.0, 0.0023053547220384463
886.0, 0.001962005448862401
887.0, 0.0036730282969668435
888.0, 0.002760361974868712
889.0, 0.001737159918031721
890.0, 0.0021375611776794663
891.0, 0.0020186985850526125
892.0, 0.0017609475103022815
893.0, 0.002808288783219594
894.0, 0.004431584024021316
895.0, 0.0036714276557277205
896.0, 0.0026518861106479847
897.0, 0.0049191590977673266
898.0, 0.005186736171097118
899.0, 0.002777774447998973
900.0, 0.004611425463793786
901.0, 0.006717168761881785
902.0, 0.007675170670094022
903.0, 0.01005836746719717
904.0, 0.010859337591897068
905.0, 0.00877580632927926
906.0, 0.009281348479633297
907.0, 0.011963768076049897
908.0, 0.013532947322644115
909.0, 0.011582050582819851
910.0, 0.010874118857915924
911.0, 0.013764006054615023
912.0, 0.015942573295510312
913.0, 0.014295435679120148
914.0, 0.020160117605779175
915.0, 0.015952288568080134
916.0, 0.014039090824683681
917.0, 0.016556095545665925
918.0, 0.016921248188651365
919.0, 0.01805565853075875
920.0, 0.021142973294493824
921.0, 0.022981156890568774
922.0, 0.02596117899628028
923.0, 0.025080397800134237
924.0, 0.02624680284740282
925.0, 0.02826069472084503
926.0, 0.02593262199612583
927.0, 0.025230154989995847
928.0, 0.025231587795114384
929.0, 0.024063462230193275
930.0, 0.022641888463551793
931.0, 0.02056912814727039
932.0, 0.020181316207005983
933.0, 0.014020737816566039
934.0, 0.016014417688262523
935.0, 0.014074928900054243
936.0, 0.013930187662061024
937.0, 0.01474529508662037
938.0, 0.014810021689073267
939.0, 0.014923590302572695
940.0, 0.013789448202208985
941.0, 0.009183051947825953
942.0, 0.012436793849779389
943.0, 0.010428295764394564
944.0, 0.008530213981053678
945.0, 0.009001211795906556
946.0, 0.008061644678767344
947.0, 0.0068945818102269275
948.0, 0.008087079208348683
949.0, 0.00854048851882617
950.0, 0.009255728090886043
951.0, 0.008943041230444596
952.0, 0.009014834260031445
953.0, 0.00715663073110343
954.0, 0.007504028771531002
955.0, 0.007924316390180222
956.0, 0.009556859506233117
957.0, 0.012565015248190153
958.0, 0.012162450090112503
959.0, 0.007947988954427969
960.0, 0.012676949813421656
961.0, 0.009328389467087446
962.0, 0.010820822594247013
963.0, 0.009209935521265545
964.0, 0.00872123419323666
965.0, 0.012103779567016623
966.0, 0.014733898994084525
967.0, 0.012678366374196325
968.0, 0.011425175756180711
969.0, 0.010540013045171395
970.0, 0.010175020914231305
971.0, 0.00990409040193608
972.0, 0.01140731160626566
973.0, 0.009638684659357976
974.0, 0.00879970947224175
975.0, 0.010224019338428847
976.0, 0.010713314858950575
977.0, 0.009624382574629154
978.0, 0.010842543700284294
979.0, 0.00945097213049047
980.0, 0.012976317535780182
981.0, 0.008120232536047838
982.0, 0.009499515801931317
983.0, 0.01034372852416709
984.0, 0.008619629388850289
985.0, 0.008918241257359561
986.0, 0.011796388342099253
987.0, 0.011332259672175602
988.0, 0.013299208426070611
989.0, 0.013893198925812068
990.0, 0.01437215765301258
991.0, 0.011595203540595738
992.0, 0.011005053524241363
993.0, 0.011031926421463827
994.0, 0.009917862313452968
995.0, 0.009224762985835234
996.0, 0.010766796347958888
997.0, 0.011989819759625141
998.0, 0.009716551617333579
999.0, 0.01150835759580199
1000.0, 0.011672212442930555
1001.0, 0.010703928846988692
1002.0, 0.010595389289373624
1003.0, 0.011877663801573195
1004.0, 0.010678175777268099
1005.0, 0.007586758654197529
1006.0, 0.008449791165339482
1007.0, 0.009779236889301837
1008.0, 0.006877067755325051
1009.0, 0.0070465213740729315
1010.0, 0.008361194070497667
1011.0, 0.00556992409376943
1012.0, 0.004069534387079315
1013.0, 0.005252239152771125
1014.0, 0.007179782632391079
1015.0, 0.008042245930447915
1016.0, 0.008060394462986654
1017.0, 0.009057741388108559
1018.0, 0.010655933180846882
1019.0, 0.007930624004857235
1020.0, 0.007713338652370778
1021.0, 0.005624967525084745
1022.0, 0.003628380090481568
1023.0, 0.005983607587376627
1024.0, 0.008253432134426012
1025.0, 0.007845106209547214
1026.0, 0.009157996007182648
1027.0, 0.008016076221254147
1028.0, 0.008882318000967292
1029.0, 0.008107054356463389
1030.0, 0.007968780293204499
1031.0, 0.00827841132138217
1032.0, 0.00811533517594907
1033.0, 0.008604812169724786
1034.0, 0.008681737221717003
1035.0, 0.00803904519314237
1036.0, 0.00827420275157921
1037.0, 0.00814302335027132
1038.0, 0.007011913422773402
1039.0, 0.008069487397920582
1040.0, 0.008029430990440343
1041.0, 0.007503270909957269
1042.0, 0.008972203052835179
1043.0, 0.008305411561047128
1044.0, 0.0071636136902417605
1045.0, 0.007428884356190897
1046.0, 0.006611035008616503
1047.0, 0.0045307937388455455
1048.0, 0.007425562862173828
1049.0, 0.007324456419246062
1050.0, 0.005360520438699222
1051.0, 0.009877638395566568
1052.0, 0.010330151512535343
1053.0, 0.009866544598975513
1054.0, 0.010220111860995267
1055.0, 0.009837623107298908
1056.0, 0.00916675068835314
1057.0, 0.010737392264622166
1058.0, 0.011881774831983691
1059.0, 0.009355537282092517
1060.0, 0.010092335369165711
1061.0, 0.008261911613113728
1062.0, 0.00855345015144656
1063.0, 0.01186028774292811
1064.0, 0.011417907386298106
1065.0, 0.0116229716995454
1066.0, 0.013109126530608911
1067.0, 0.01017987634536907
1068.0, 0.008142079955151581
1069.0, 0.01232869032898438
1070.0, 0.013430363724463225
1071.0, 0.012529034260164466
1072.0, 0.01241981804525185
1073.0, 0.01165968883115728
1074.0, 0.010857937193577364
1075.0, 0.011777742885038647
1076.0, 0.011152723912834747
1077.0, 0.00842805348677019
1078.0, 0.007748387857482328
1079.0, 0.007928659149791092
1080.0, 0.011955698763183736
1081.0, 0.007053522467854845
1082.0, 0.008596177543858764
1083.0, 0.01029111954696805
1084.0, 0.01007499544579112
1085.0, 0.009876708791541873
1086.0, 0.009679241332197405
1087.0, 0.008899341849004871
1088.0, 0.008536476180080728
1089.0, 0.008905216269769641
1090.0, 0.008140165831830963
1091.0, 0.013405285165183094
1092.0, 0.011357054791744961
1093.0, 0.013498952866325093
1094.0, 0.00947680294497086
1095.0, 0.007900015110529466
1096.0, 0.010011484631163609
1097.0, 0.00934918171445916
1098.0, 0.009491526469807578
1099.0, 0.011976990711284663
1100.0, 0.00928031639963518
1101.0, 0.007310969147483086
1102.0, 0.010174226211749748
1103.0, 0.010993937518102822
1104.0, 0.007982575577897614
1105.0, 0.010849556107674685
1106.0, 0.010929529902300424
1107.0, 0.009293321664659595
1108.0, 0.007757127434915706
1109.0, 0.007356948691789419
1110.0, 0.009570085848807072
1111.0, 0.012379729127727408
1112.0, 0.010010475346405341
1113.0, 0.010622962705062204
1114.0, 0.012183815239790044
1115.0, 0.009718739523033475
1116.0, 0.012396845039037924
1117.0, 0.013203553523517875
1118.0, 0.012185164199672104
1119.0, 0.012229080778880054
1120.0, 0.012999473173707352
1121.0, 0.01288146023478109
1122.0, 0.011983378773442351
1123.0, 0.011408070871695541
1124.0, 0.01138769273833035
1125.0, 0.009249336268871615
1126.0, 0.010162591098949035
1127.0, 0.010626054843645793
1128.0, 0.007735436020441496
1129.0, 0.009382144653458744
1130.0, 0.01014764264336654
1131.0, 0.006115912863402974
1132.0, 0.0019713845318041516
1133.0, 0.0023854638540695794
1134.0, 0.004487898245431669
1135.0, 0.004238823851592654
1136.0, 0.005031005740165314
1137.0, 0.005639049350480039
1138.0, 0.006693775958625576
1139.0, 0.005149112452016545
1140.0, 0.003869221628062001
1141.0, 0.0018983586347303969
1142.0, 0.0025262761588872563
1143.0, 0.003014304135614001
1144.0, 0.0016549990846113803
1145.0, 0.0013524787211736293
1146.0, 0.0029318543516584352
1147.0, 0.0029779153565400703
1148.0, 0.0016565735914458053
1149.0, 0.003715240528771711
1150.0, 0.0036553512457707976
1151.0, 0.006997253805594506
1152.0, 0.003384981300954549
1153.0, 0.0006981080373647014
1154.0, 0.0028734282152013636
1155.0, 0.0029008435018115213
1156.0, 0.00257879518959491
1157.0, 0.005016101552414894
1158.0, 0.003212301698098991
1159.0, 0.0016793087724269766
1160.0, 0.0013523120260160995
1161.0, 0.0015064632884673756
1162.0, 0.0014013581046029703
1163.0, 0.0009647796727271454
1164.0, 0.002551930141447108
1165.0, 0.0037668478838508808
1166.0, 0.0048914660716198035
1167.0, 0.003629912774495574
1168.0, 0.0022356089523519994
1169.0, 0.0027014944111874105
1170.0, 0.00185170434436869
1171.0, 0.0009732519763692793
1172.0, 0.0004615440873049476
1173.0, 0.00035225267426156753
1174.0, 0.0024309222839461854
1175.0, 0.0033742493485128086
1176.0, 0.00083803313697327
1177.0, 9.66547546939006e-06
1178.0, 0.0033688692105804975
1179.0, 0.003453046991749526
1180.0, 0.0009086567478013385
1181.0, 0.0009659514089625249
1182.0, 0.0018073409124903302
1183.0, 0.0006270753574149891
1184.0, 0.0017618337591448294
1185.0, 0.0006463375863463351
1186.0, 0.0035563231427817917
1187.0, 0.0016353585150135947
1188.0, 0.0011526312715625828
1189.0, 0.001534076259932929
1190.0, 0.001256869179528124
1191.0, 0.0014747290335776783
1192.0, 0.002283163018527454
1193.0, 0.003828872173693087
1194.0, 0.003847190732519853
1195.0, 0.0007903278176965229
1196.0, 0.0003779895189663738
1197.0, 0.001339465032372698
1198.0, 0.004135829086092797
1199.0, 0.0013512208908143587
1200.0, 0.00031226344756920627
1201.0, 0.0009694790254522281
1202.0, 0.0006633847885898889
1203.0, 0.0007136004356634143
1204.0, 0.0008923602514553346
1205.0, 0.0010312144927278712
1206.0, 0.0017566103186648111
1207.0, 0.0019270879353454479
1208.0, 0.0011234349433981356
1209.0, 0.002403045251494065
1210.0, 0.0006578023706710833
1211.0, 0.001241619457956838
1212.0, 0.003032949634368709
1213.0, 0.0012321329258776156
1214.0, 0.0020075259649069478
1215.0, 0.0006628546152008862
1216.0, 4.1869109629781275e-05
1217.0, 5.517576428800797e-05
1218.0, 0.001561290421722407
1219.0, 0.00204023767527222
1220.0, 0.0007493552438599772
1221.0, 0.0006879001898734198
1222.0, 0.0004697353968901322
1223.0, 0.0005294844096350249
1224.0, 0.00016882926045252872
1225.0, 0.00013411750403457447
1226.0, 0.004318005483930397
1227.0, 0.0011612504762720775
1228.0, 0.004811733452743258
1229.0, 0.002235525943487081
1230.0, 0.00263088667751391
1231.0, 0.002067495883253956
1232.0, 0.00162559314910483
1233.0, 0.0021261748329782486
1234.0, 0.0007230910544115858
1235.0, 0.0010647670511786742
1236.0, 0.0029084100717783256
1237.0, 0.004686043642651487
1238.0, 0.0033827072495102462
1239.0, 0.0034198189018743294
1240.0, 0.0014159672243175734
1241.0, 0.00030555206578077254
1242.0, 0.0025231374298422646
1243.0, 0.0011716699153188751
1244.0, 0.0017978543054415037
1245.0, 0.0024409175681447156
1246.0, 0.00220242808169399
1247.0, 0.0017336362506655556
1248.0, 0.0011681025456980504
1249.0, 0.0018211576335294185
1250.0, 0.0005007067825962783
1251.0, 0.0024593776696857058
1252.0, 0.002492433791422257
1253.0, 0.0024427619371283414
1254.0, 0.0017476293659340748
1255.0, 0.0018592680421942991
1256.0, 0.002264144505822717
1257.0, 0.0024888196208666486
1258.0, 0.0026455975385717124
1259.0, 0.002351715702610608
1260.0, 0.002201199944876458
1261.0, 0.00149238137199384
1262.0, 0.00040933405046974044
1263.0, 0.0006829247409511147
1264.0, 0.00018897506777109781
1265.0, 0.00042582536941782566
1266.0, 0.002095423759461648
1267.0, 0.007471552045544191
1268.0, 0.005255443677326895
1269.0, 0.0014420165631042086
1270.0, 0.002381873915923162
1271.0, 0.003208358599764269
1272.0, 0.0043966242165230955
1273.0, 0.003933328727358161
1274.0, 0.0028527631624176595
1275.0, 0.0035900956309430285
1276.0, 0.003816470645162725
1277.0, 0.0019470250310360195
1278.0, 0.0018736912768094391
1279.0, 0.0022198795173428753
1280.0, 0.0023410672765953712
1281.0, 0.0010844835804970686
1282.0, 0.0007107068171546
1283.0, 0.002805412487773211
1284.0, 0.004614809401279968
1285.0, 0.0023058500855033296
1286.0, 0.002880515845054389
1287.0, 0.0018591850391922403
1288.0, 0.0022427919104667927
1289.0, 0.0016709096607925244
1290.0, 0.0024961451823140002
1291.0, 0.005491900393906009
1292.0, 0.005697868159466442
1293.0, 0.0041400039512555055
1294.0, 0.0019378481442084727
1295.0, 0.004999142215679986
1296.0, 0.005519200652879065
1297.0, 0.006281213684443462
1298.0, 0.0008580530643883654
1299.0, 0.0005808842175826667
1300.0, 0.002189313010952906
1301.0, 0.002868057011156578
1302.0, 0.003016231085118044
1303.0, 0.004405886842308482
1304.0, 0.003759200701060799
1305.0, 0.003081620300776658
1306.0, 0.0047874248188301246
1307.0, 0.005240704251715906
1308.0, 0.003383765405262056
1309.0, 0.004547539228160834
1310.0, 0.0079298779172637
1311.0, 0.006768737759449782
1312.0, 0.005811683480608495
1313.0, 0.0022763657403654398
1314.0, 0.0031440778675391277
1315.0, 0.004395332859778263
1316.0, 0.006952882307502291
1317.0, 0.006830943366067001
1318.0, 0.0043438517063221875
1319.0, 0.004234103779118874
1320.0, 0.005338978014952595
1321.0, 0.004872146450494084
1322.0, 0.004472713275106832
1323.0, 0.0049317704883821084
1324.0, 0.005073249844642658
1325.0, 0.006357321545978579
1326.0, 0.006338695578656243
1327.0, 0.005726621288323485
1328.0, 0.0035960802608791037
1329.0, 0.0018850883267638025
1330.0, 0.0007419774050258294
1331.0, 0.00696824086144158
1332.0, 0.00481161941520034
1333.0, 0.005729688113356936
1334.0, 0.002383710375424632
1335.0, 0.0011201060810604613
1336.0, 0.0017476269301186982
1337.0, 0.0034201212347658764
1338.0, 0.005571021613025265
1339.0, 0.006312538068659483
1340.0, 0.005672589019765835
1341.0, 0.0047726529476510605
1342.0, 0.003237588305104749
1343.0, 0.0024668059299005995
1344.0, 0.0034400019846476163
1345.0, 0.005323999180576291
1346.0, 0.004602082574882009
1347.0, 0.005378088521269621
1348.0, 0.004740507550136258
1349.0, 0.0037560717419601597
1350.0, 0.002185022499298131
1351.0, 0.0016581476342673997
1352.0, 0.002349615290414041
1353.0, 0.0035422659284557387
1354.0, 0.0028683904781027377
1355.0, 0.0027928464577333476
1356.0, 0.0022896733089756024
1357.0, 0.0013115598051654962
1358.0, 0.0036786564639906703
1359.0, 0.004134053302713432
1360.0, 0.00260566751647889
1361.0, 0.0034665534022645214
1362.0, 0.001645041558444955
1363.0, 0.0024299451595632786
1364.0, 0.005167250306156004
1365.0, 0.003268462462295569
1366.0, 0.002922820000767851
1367.0, 0.004240261851589509
1368.0, 0.0030076516619212176
1369.0, 0.0032755136155650315
1370.0, 0.0026640722905279923
1371.0, 0.0030753068605346924
1372.0, 0.0022258675097290574
1373.0, 0.0009850205859040888
1374.0, 0.0042559414406945035
1375.0, 0.0074997754466095
1376.0, 0.006143961359851041
1377.0, 0.007027041047548478
1378.0, 0.006888601756755424
1379.0, 0.005442724360223578
1380.0, 0.007396637299471688
1381.0, 0.0008602021585160384
1382.0, 0.006567352541598102
1383.0, 0.0018472120726754021
1384.0, 0.0034072364180227827
1385.0, 0.0024910058207871914
1386.0, 0.0028360606590141736
1387.0, 0.005416191274859686
1388.0, 0.004871627795860115
1389.0, 0.005520254140081592
1390.0, 0.004276988130311003
1391.0, 0.004599815015246519
1392.0, 0.007654202163883002
1393.0, 0.007125676930812137
1394.0, 0.004299731283293722
1395.0, 0.0034252346711616116
1396.0, 0.0018638603151308708
1397.0, 0.00325016225375462
1398.0, 0.004281444635065428
1399.0, 0.005601635469089513
1400.0, 0.00329775746870881
1401.0, 0.004139094570193031
1402.0, 0.0033014445444349725
1403.0, 0.003616481381785225
1404.0, 0.005292869841248271
1405.0, 0.0038154506978009426
1406.0, 0.0061313093044088485
1407.0, 0.0030269544736948586
1408.0, 0.001195569233551274
1409.0, 0.0016969111946593697
1410.0, 0.0037423208698002188
1411.0, 0.006061724385134316
1412.0, 0.005294503439244224
1413.0, 0.00405509440352193
1414.0, 0.005084463456362
1415.0, 0.003702322615138099
1416.0, 0.0012108292046976216
1417.0, 0.002723255156850772
1418.0, 0.0015589856596718186
1419.0, 0.003182724864966791
1420.0, 0.00222188428281416
1421.0, 0.004101523957606481
1422.0, 0.0019404173600875785
1423.0, 0.003575604095365367
1424.0, 0.004015174525759817
1425.0, 0.0050997274806662725
1426.0, 0.0041771609942131555
1427.0, 0.005666053599685936
1428.0, 0.0030534217388635864
1429.0, 0.0037306989519019285
1430.0, 0.005787280088743233
1431.0, 0.006069452839886151
1432.0, 0.007426145081342383
1433.0, 0.008626732870952204
1434.0, 0.0085843938741903
1435.0, 0.008483741224332852
1436.0, 0.007705403692820337
1437.0, 0.00834247335208229
1438.0, 0.010779626102559918
1439.0, 0.009618311933124046
1440.0, 0.00942398104341515
1441.0, 0.01091285207591123
1442.0, 0.01009668990741798
1443.0, 0.01111718423499289
1444.0, 0.009483025192048007
1445.0, 0.009843659873302081
1446.0, 0.010323435609708293
1447.0, 0.008276143008661469
1448.0, 0.010713233655417589
1449.0, 0.011187134200833804
1450.0, 0.011054764208657088
1451.0, 0.011272798340636447
1452.0, 0.011365958813531335
1453.0, 0.008192435044193914
1454.0, 0.009618090319212206
1455.0, 0.011278333390600968
1456.0, 0.013091376066117474
1457.0, 0.013567524113854814
1458.0, 0.011257718095312758
1459.0, 0.011387135338106476
1460.0, 0.010430314267785703
1461.0, 0.01088213057336462
1462.0, 0.009390188139239893
1463.0, 0.010790204655106866
1464.0, 0.010941537022119535
1465.0, 0.008046281588849529
1466.0, 0.006727895754253461
1467.0, 0.010065251634892632
1468.0, 0.0011350304775036742
1469.0, 0.004373009085861385
1470.0, 0.005388481014196444
1471.0, 0.009436419181008337
1472.0, 0.006123193948144064
1473.0, 0.008027208841825822
1474.0, 0.006486805682082037
1475.0, 0.005939099712208722
1476.0, 0.005381600293046476
1477.0, 0.005024940132263761
1478.0, 0.004855653882551657
1479.0, 0.005166139809990397
1480.0, 0.005277383840782429
1481.0, 0.005427013366039611
1482.0, 0.006661778842447187
1483.0, 0.005827245702443719
1484.0, 0.002929815337375169
1485.0, 0.0037955721715313942
1486.0, 0.004828462535527123
1487.0, 0.0028699298232969265
1488.0, 0.00250291837987105
1489.0, 0.0019673990708665434
1490.0, 0.004855351946745532
1491.0, 0.002663705198569317
1492.0, 0.004724804395797159
1493.0, 0.007895466759308585
1494.0, 0.0051836717201081935
1495.0, 0.0020136654684919622
1496.0, 0.0030261001511213987
1497.0, 0.002694623274350652
1498.0, 0.004012900701367456
1499.0, 0.0025225312923936784
1500.0, 0.00256881731849091
1501.0, 0.003359221886345043
1502.0, 0.0030029659779266258
1503.0, 0.00199604006074021
1504.0, 0.002138404115187336
1505.0, 0.0035124464336196556
1506.0, 0.006425712520655585
1507.0, 0.003944518801963069
1508.0, 0.0033334944884017364
1509.0, 0.004691669212370241
1510.0, 0.0020970054939632886
1511.0, 0.0017906790529808286
1512.0, 0.0014584599218702707
1513.0, 0.0016870436411844934
1514.0, 0.0014066561328291854
1515.0, 0.0037973244689895004
1516.0, 0.005549829824862217
1517.0, 0.007382048458454425
1518.0, 0.003132324517478273
1519.0, 0.002347572715026041
1520.0, 0.0029619558671277924
1521.0, 0.0042459639788550736
1522.0, 0.001005418719816719
1523.0, 0.0025730722201788275
1524.0, 0.005886633320953194
1525.0, 0.0016844335008765641
1526.0, 0.00235495086379847
1527.0, 0.006036918363272329
1528.0, 0.007206181966303652
1529.0, 0.006938497501976844
1530.0, 0.0052930253790578205
1531.0, 0.0048117987928731915
1532.0, 0.004603101490253545
1533.0, 0.0029458950960160233
1534.0, 0.002822360477808116
1535.0, 0.0045278614859745716
1536.0, 0.004616837749529151
1537.0, 0.005273643307911199
1538.0, 0.0067413373480093245
1539.0, 0.006549246016952966
1540.0, 0.006477015512030753
1541.0, 0.006944750441218776
1542.0, 0.004817305015780784
1543.0, 0.0023970031313954657
1544.0, 0.0035651047378608275
1545.0, 0.005463542216930665
1546.0, 0.0060982644251719505
1547.0, 0.002481167315285436
1548.0, 0.004665232507918805
1549.0, 0.007576000752217186
1550.0, 0.006114077434099046
1551.0, 0.009239978228984624
1552.0, 0.010738892547157975
1553.0, 0.012929700119990076
1554.0, 0.012300404804898529
1555.0, 0.011410961651599022
1556.0, 0.010649293132252134
1557.0, 0.006093500628434228
1558.0, 0.006219602362543293
1559.0, 0.00165113958931575
1560.0, 0.002386055230749235
1561.0, 0.004148717629022763
1562.0, 0.004961056346802845
1563.0, 0.0013851001851338796
1564.0, 0.0038570929589606313
1565.0, 0.004219380656220507
1566.0, 0.0026309108803876232
1567.0, 0.005193292491701712
1568.0, 0.0028784721943064307
1569.0, 0.002344478851431747
1570.0, 0.004115480681451987
1571.0, 0.0049038023615711095
1572.0, 0.0021106488679784106
1573, 0.0
1574, 0.0
1575, 0.0
1576, 0.0
1577, 0.0
1578, 0.0
1579, 0.0
1580, 0.0
1581, 0.0
1582, 0.0
1583, 0.0
1584, 0.0
1585, 0.0
1586, 0.0
1587, 0.0
1588, 0.0
1589, 0.0
1590, 0.0
1591, 0.0
1592, 0.0
1593, 0.0
1594, 0.0
1595, 0.0
1596, 0.0
1597, 0.0
1598, 0.0
1599, 0.0
