30, 0.0
31, 0.0
32, 0.0
33, 0.0
34, 0.0
35, 0.0
36, 0.0
37, 0.0
38, 0.0
39, 0.0
40, 0.0
41, 0.0
42, 0.0
43, 0.0
44, 0.0
45, 0.0
46, 0.0
47, 0.0
48, 0.0
49, 0.0
50, 0.0
51, 0.0
52, 0.0
53, 0.0
54, 0.0
55, 0.0
56, 0.0
57, 0.0
58, 0.0
59, 0.0
60, 0.0
61, 0.0
62, 0.0
63, 0.0
64, 0.0
65, 0.0
66, 0.0
67, 0.0
68, 0.0
69, 0.0
70, 0.0
71, 0.0
72, 0.0
73, 0.0
74, 0.0
75, 0.0
76, 0.0
77, 0.0
78, 0.0
79, 0.0
80, 0.0
81, 0.0
82, 0.0
83, 0.0
84, 0.0
85, 0.0
86, 0.0
87, 0.0
88, 0.0
89, 0.0
90, 0.0
91, 0.0
92, 0.0
93, 0.0
94, 0.0
95, 0.0
96, 0.0
97, 0.0
98, 0.0
99, 0.0
100, 0.0
101, 0.0
102, 0.0
103, 0.0
104, 0.0
105, 0.0
106, 0.0
107, 0.0
108, 0.0
109, 0.0
110, 0.0
111, 0.0
112, 0.0
113, 0.0
114, 0.0
115, 0.0
116, 0.0
117, 0.0
118, 0.0
119, 0.0
120, 0.0
121, 0.0
122, 0.0
123, 0.0
124, 0.0
125, 0.0
126, 0.0
127, 0.0
128, 0.0
129, 0.0
130, 0.0
131, 0.0
132, 0.0
133, 0.0
134, 0.0
135, 0.0
136, 0.0
137, 0.0
138, 0.0
139, 0.0
140, 0.0
141, 0.0
142, 0.0
143, 0.0
144, 0.0
145, 0.0
146, 0.0
147, 0.0
148, 0.0
149, 0.0
150, 0.0
151, 0.0
152, 0.0
153, 0.0
154, 0.0
155, 0.0
156, 0.0
157, 0.0
158, 0.0
159, 0.0
160, 0.0
161, 0.0
162, 0.0
163, 0.0
164, 0.0
165, 0.0
166, 0.0
167, 0.0
168, 0.0
169, 0.0
170.0, 0.0005218468877367796
171.0, 0.002740168636794072
172.0, 0.002657488549364128
173.0, 0.0025691971058478687
174.0, 0.0022972206632662947
175.0, 0.0015371569506436307
176.0, 0.0002827659055059538
177.0, 0.0028230638684034175
178.0, 0.007121916048833586
179.0, 0.00770271127569688
180.0, 0.007830387985617545
181.0, 0.010923508021973248
182.0, 0.008438072582124093
183.0, 0.009929967634033834
184.0, 0.014207785473158867
185.0, 0.017660306730782997
186.0, 0.01962757557165956
187.0, 0.025505911114804148
188.0, 0.025076438437946148
189.0, 0.02443225984070888
190.0, 0.02556877017789458
191.0, 0.028324808612309134
192.0, 0.030552687053086145
193.0, 0.02677959893153691
194.0, 0.030024925735129736
195.0, 0.03049888856919755
196.0, 0.02917392163231872
197.0, 0.02926246114725632
198.0, 0.025839914759560916
199.0, 0.026314468154875727
200.0, 0.026814538387351212
201.0, 0.02744398874870647
202.0, 0.02796744013124239
203.0, 0.02669049182573998
204.0, 0.019782848048905864
205.0, 0.011630621443638299
206.0, 0.004776642855014924
207.0, 0.0010207437783447835
208.0, 0.0009662471825813389
209.0, 0.0005066085596033643
210.0, 0.00036953671120412566
211.0, 0.0006825489771573924
212.0, 0.001027269977245219
213.0, 0.0011740731998269409
214.0, 0.0019553347119702497
215.0, 0.0008909480690453752
216.0, 0.0007553164159622706
217.0, 0.0008419899242382533
218.0, 0.0006317409819978459
219.0, 0.00026288525581050453
220.0, 0.0021640266751170975
221.0, 0.0042991173150519
222.0, 0.0046245117686377415
223.0, 0.003467836794770772
224.0, 0.002661878942425641
225.0, 0.005861074226621596
226.0, 0.0033417024645405894
227.0, 0.0041582364160380894
228.0, 0.004540345003566116
229.0, 0.003063447928391777
230.0, 0.004564016615654204
231.0, 0.0033639593108132837
232.0, 0.0019772287127481202
233.0, 0.0023401078865351145
234.0, 0.0035110069157262163
235.0, 0.003293021326730215
236.0, 0.001923193296614503
237.0, 0.001603756420861026
238.0, 0.002630871804502548
239.0, 0.003999958855136571
240.0, 0.004207806967874509
241.0, 0.0014828530802070844
242.0, 0.004243673198237128
243.0, 0.0038928228134320598
244.0, 0.003929588124965937
245.0, 0.005142723395945062
246.0, 0.006608191231313564
247.0, 0.008462361458491049
248.0, 0.008037221083908539
249.0, 0.01082355200418248
250.0, 0.012665877805902573
251.0, 0.01156395637326363
252.0, 0.012225242843171545
253.0, 0.01343364861668819
254.0, 0.012693340919297452
255.0, 0.013221557446464624
256.0, 0.013896360283346114
257.0, 0.012750646832808393
258.0, 0.01688686914197788
259.0, 0.016418578573541762
260.0, 0.014196185748941093
261.0, 0.013636824618099902
262.0, 0.013221303733153406
263.0, 0.004996618356581094
264.0, 0.0021188193397308546
265.0, 0.0006704865667482082
266.0, 0.0012518063457266555
267.0, 0.0016798999446341035
268.0, 0.0004030921776698763
269.0, 0.0029770765636687345
270.0, 0.001954166598358143
271.0, 0.003482458765391357
272.0, 0.003698141454294819
273.0, 0.00197251897372486
274.0, 0.0019028297071494646
275.0, 0.002593899443822496
276.0, 0.0018978947770061263
277.0, 0.0020110163715034175
278.0, 0.0038859364427896934
279.0, 0.006433960721329735
280.0, 0.00491394457817187
281.0, 0.007280007750015482
282.0, 0.009718202050498045
283.0, 0.011509549178516106
284.0, 0.012736009171502893
285.0, 0.013944238501075042
286.0, 0.015441588513718737
287.0, 0.019548050771092368
288.0, 0.023625351126614746
289.0, 0.025486477598557034
290.0, 0.02580344051767594
291.0, 0.028724033986356878
292.0, 0.03440602471022114
293.0, 0.03585444129768424
294.0, 0.03908594412484724
295.0, 0.0446624181669691
296.0, 0.05037975905568084
297.0, 0.052594661925930694
298.0, 0.05497988811606559
299.0, 0.061042637731715685
300.0, 0.06707255054518468
301.0, 0.07198802801795821
302.0, 0.0768173627822039
303.0, 0.08147537171291158
304.0, 0.08842491810055508
305.0, 0.09364725740347189
306.0, 0.10016482315659127
307.0, 0.10835635113855649
308.0, 0.11435739113914065
309.0, 0.121116534692619
310.0, 0.1299550547677881
311.0, 0.1385667301844146
312.0, 0.1468956648808487
313.0, 0.15586488050271463
314.0, 0.166812564269064
315.0, 0.17304710679625016
316.0, 0.18140692105165818
317.0, 0.19316331880671603
318.0, 0.20558196496404132
319.0, 0.21521038665499356
320.0, 0.223549003955708
321.0, 0.23517145750565877
322.0, 0.2466477265442053
323.0, 0.2597960052005703
324.0, 0.27016093757144466
325.0, 0.27214225602743114
326.0, 0.2876660596645307
327.0, 0.2966877120415991
328.0, 0.302487538746009
329.0, 0.310516927575899
330.0, 0.3194151168043573
331.0, 0.3203273588367504
332.0, 0.31965004772459243
333.0, 0.31868356643076856
334.0, 0.31977450323616724
335.0, 0.32134326251595074
336.0, 0.32052823751073783
337.0, 0.314798533002776
338.0, 0.3142715514049471
339.0, 0.3085450615784277
340.0, 0.30399760367838635
341.0, 0.30141708025503705
342.0, 0.29801154991185996
343.0, 0.28850210226279255
344.0, 0.2877172047104742
345.0, 0.2868978080083706
346.0, 0.2846817504387949
347.0, 0.2787245402173943
348.0, 0.26957519863513585
349.0, 0.2685286430171884
350.0, 0.26464461912604154
351.0, 0.26161036306383967
352.0, 0.25987321672812036
353.0, 0.258781709126107
354.0, 0.257497019321757
355.0, 0.2570368759611376
356.0, 0.2531552530511606
357.0, 0.24776362405571886
358.0, 0.2449319475197639
359.0, 0.2445758552761253
360.0, 0.24290233973526848
361.0, 0.23621131201317594
362.0, 0.2386894588203009
363.0, 0.23420733369550234
364.0, 0.23052368910612325
365.0, 0.2295098159552999
366.0, 0.22523590012158584
367.0, 0.2201715807801847
368.0, 0.21775117696165444
369.0, 0.21479711021558082
370.0, 0.2124337318527659
371.0, 0.21061208169080436
372.0, 0.20785728616834814
373.0, 0.20761469391441922
374.0, 0.2053954997095468
375.0, 0.20499774048369063
376.0, 0.20661931853625756
377.0, 0.2085785608074215
378.0, 0.2085460544245605
379.0, 0.20933395354865253
380.0, 0.2104236993694035
381.0, 0.21361624545671354
382.0, 0.21783257957068888
383.0, 0.22271721739580008
384.0, 0.22910962725990086
385.0, 0.23394948582642913
386.0, 0.23888541241137065
387.0, 0.24651366073538505
388.0, 0.2529393467821247
389.0, 0.2580242606931819
390.0, 0.26655851795165575
391.0, 0.27312048751628926
392.0, 0.2823821019269616
393.0, 0.2844625419732949
394.0, 0.28432788368021994
395.0, 0.28467987255195604
396.0, 0.2823962952500524
397.0, 0.2777201605196251
398.0, 0.26991242035452706
399.0, 0.257305264914865
400.0, 0.2434901556352792
401.0, 0.22890272837594722
402.0, 0.2108673791227364
403.0, 0.19596463956350973
404.0, 0.18003146308999074
405.0, 0.16256946419486207
406.0, 0.14592578190359726
407.0, 0.132421293775745
408.0, 0.12212418333014242
409.0, 0.10616312501731676
410.0, 0.09293276665478367
411.0, 0.08472129442978943
412.0, 0.07489868797981554
413.0, 0.06508593375618468
414.0, 0.06090226856310203
415.0, 0.051734267851926946
416.0, 0.04403033507094651
417.0, 0.040311568762646216
418.0, 0.03589286117862835
419.0, 0.0312340173400765
420.0, 0.0290439612242132
421.0, 0.026066506717186053
422.0, 0.02452970999780077
423.0, 0.019302325902711265
424.0, 0.016341489879501646
425.0, 0.01612189466026591
426.0, 0.015617999395320367
427.0, 0.012084527368267031
428.0, 0.01350228637824277
429.0, 0.012633416770419957
430.0, 0.010808328809546915
431.0, 0.009356679971800388
432.0, 0.008315989532656415
433.0, 0.005765620978854946
434.0, 0.00576001026249596
435.0, 0.004486464786324943
436.0, 0.003366742491069727
437.0, 0.0030791744903290405
438.0, 0.002910079231842351
439.0, 0.001224243031928278
440.0, 0.002222660257296591
441.0, 0.001744181462464892
442.0, 0.000816692300235458
443.0, 0.00034502776165928835
444.0, 0.00038613237547929194
445.0, 0.000512463707353221
446.0, 0.0023084188304751917
447.0, 0.0012406835342962906
448.0, 0.00159091368573744
449.0, 0.0023337938105457705
450.0, 0.002445579278385892
451.0, 0.0018242954161342127
452.0, 0.0017589994687452063
453.0, 0.0006203990774849778
454.0, 0.00029746959247898045
455.0, 0.001383946810399454
456.0, 0.0030837242039221096
457.0, 0.004647306984685385
458.0, 0.006545377875041412
459.0, 0.0050145279744455585
460.0, 0.008597497919405504
461.0, 0.010039176940589721
462.0, 0.009471866038575097
463.0, 0.010434353968676724
464.0, 0.015641583919056082
465.0, 0.01249558015950634
466.0, 0.017537932677289453
467.0, 0.0179842324583415
468.0, 0.018270954309185117
469.0, 0.01932798190342062
470.0, 0.01816711075191433
471.0, 0.015742219723624672
472.0, 0.017697739675098238
473.0, 0.018861271267234123
474.0, 0.019285321046549942
475.0, 0.02036310911751609
476.0, 0.02189787660504691
477.0, 0.020133239688831607
478.0, 0.019247293481925744
479.0, 0.020519084020658468
480.0, 0.020426009816883955
481.0, 0.020589800848980457
482.0, 0.021882988711468748
483.0, 0.022705292457332965
484.0, 0.02148494482540206
485.0, 0.02136593687526177
486.0, 0.02251178641321197
487.0, 0.02338551819844054
488.0, 0.023754201595047986
489.0, 0.024637965047093688
490.0, 0.027454987953809292
491.0, 0.028017276382234946
492.0, 0.02838839727317591
493.0, 0.029826869315365465
494.0, 0.0308095558731136
495.0, 0.031145520386647384
496.0, 0.03309298065847359
497.0, 0.03365253768316356
498.0, 0.036583954788997404
499.0, 0.03966332211995864
500.0, 0.04221358306344096
501.0, 0.04503061283490015
502.0, 0.04917134704612417
503.0, 0.05378878976700537
504.0, 0.058491974677656794
505.0, 0.06120963217389357
506.0, 0.06575886815310576
507.0, 0.07088327644900114
508.0, 0.07442066138821918
509.0, 0.07607264411664715
510.0, 0.07689312127080056
511.0, 0.07917338169373808
512.0, 0.0792739307831531
513.0, 0.07950763960584278
514.0, 0.08017320339760409
515.0, 0.07990546998717835
516.0, 0.07860844240383562
517.0, 0.07897871683921168
518.0, 0.07813820723652645
519.0, 0.07766823349516848
520.0, 0.07956556196444252
521.0, 0.08275560239916363
522.0, 0.08365952455785507
523.0, 0.08623311389760646
524.0, 0.09041757183272296
525.0, 0.09197884242571579
526.0, 0.09204865524452652
527.0, 0.09450963609538797
528.0, 0.10027274548096883
529.0, 0.10238903792111335
530.0, 0.1043607873793942
531.0, 0.108986423568546
532.0, 0.11137998701739785
533.0, 0.11256864071541822
534.0, 0.11413573844922534
535.0, 0.11619246529910952
536.0, 0.11689082673287715
537.0, 0.11780375261873507
538.0, 0.11847460382948173
539.0, 0.11865347058417709
540.0, 0.11835568970758714
541.0, 0.11769928910381502
542.0, 0.11681903025808622
543.0, 0.11613731031449809
544.0, 0.11535951408619709
545.0, 0.11391632433396215
546.0, 0.1127757630609328
547.0, 0.1114409807261879
548.0, 0.10929800143211696
549.0, 0.1075918378257723
550.0, 0.10613019359332393
551.0, 0.10367213778715972
552.0, 0.10201965954596003
553.0, 0.10053946744120312
554.0, 0.09894683704814376
555.0, 0.09744121705183723
556.0, 0.09524025364334197
557.0, 0.09397147101588349
558.0, 0.09398195560761474
559.0, 0.09208861506577683
560.0, 0.0904550582309393
561.0, 0.09060129155003015
562.0, 0.09051225431358419
563.0, 0.08581774609638373
564.0, 0.08518018404572454
565.0, 0.08478909634225598
566.0, 0.08288093768301018
567.0, 0.08057998513732985
568.0, 0.07927239348881283
569.0, 0.07848764024682046
570.0, 0.0760702677698389
571.0, 0.07334284080510263
572.0, 0.07224716394237737
573.0, 0.07057982417361519
574.0, 0.06770094919826124
575.0, 0.06444260907082823
576.0, 0.06193338461750534
577.0, 0.06080999342581516
578.0, 0.05901030898003593
579.0, 0.05540519034155027
580.0, 0.052133645382595406
581.0, 0.05031410929524703
582.0, 0.0485395982457306
583.0, 0.04321662805954019
584.0, 0.04052694876908972
585.0, 0.0353635100022719
586.0, 0.03361186509469579
587.0, 0.03047436096923374
588.0, 0.026704909454055455
589.0, 0.025293994646989334
590.0, 0.020283248102805258
591.0, 0.01819444376409494
592.0, 0.017010897930082806
593.0, 0.01362178606621485
594.0, 0.009781133266376826
595.0, 0.006531101752294029
596.0, 0.003398679899754941
597.0, 0.0004112038480513993
598.0, 0.0012113130523911536
599.0, 0.0005269423175568887
600.0, 0.0013689061364132657
601.0, 0.0029734396515287915
602.0, 0.004098454675782779
603.0, 0.004429489811710469
604.0, 0.004712294362523594
605.0, 0.0024490601880281715
606.0, 0.003401490355786866
607.0, 0.0016336122367904646
608.0, 0.00080719511458444
609.0, 0.0013135351985019443
610.0, 0.0008418298535677121
611.0, 0.0035338337826829377
612.0, 0.0037941543261399485
613.0, 0.0036955526704354675
614.0, 0.0066283839042028045
615.0, 0.00847055551890941
616.0, 0.008755341214408963
617.0, 0.01034995530375868
618.0, 0.012332898022925502
619.0, 0.014847578368997538
620.0, 0.015907055710937104
621.0, 0.018174364245232544
622.0, 0.020633786642094365
623.0, 0.02201051530044041
624.0, 0.0228935155197968
625.0, 0.02644814616087332
626.0, 0.029216367886633992
627.0, 0.032292425062520225
628.0, 0.036293349216543605
629.0, 0.039711640540962205
630.0, 0.043064307750191474
631.0, 0.04740454171628033
632.0, 0.051634249804131095
633.0, 0.05689757053205141
634.0, 0.06316955366300575
635.0, 0.06816827162518106
636.0, 0.07367757641320215
637.0, 0.0811056638832468
638.0, 0.08941489823389315
639.0, 0.0955958498644197
640.0, 0.10329358441497638
641.0, 0.1149338856200084
642.0, 0.12467354905151996
643.0, 0.13648680106307093
644.0, 0.15125936174977558
645.0, 0.16718609673150145
646.0, 0.1827907037568918
647.0, 0.20203970723095344
648.0, 0.21967481186726967
649.0, 0.24378829952063075
650.0, 0.26904762426501927
651.0, 0.2958004826792879
652.0, 0.32615191320269865
653.0, 0.36067425882032356
654.0, 0.3975569538263996
655.0, 0.4404576415140879
656.0, 0.49137973081470754
657.0, 0.5398812873785991
658.0, 0.5887288557297381
659.0, 0.6437893552271561
660.0, 0.7046794463114019
661.0, 0.7606183279213597
662.0, 0.8265693975076246
663.0, 0.8732307908472137
664.0, 0.923062003992755
665.0, 0.9632970404695879
666.0, 0.9871733545795567
667.0, 0.9973890134148592
668.0, 0.997278359266598
669.0, 0.9727590733800912
670.0, 0.9392437664089298
671.0, 0.8964568562850289
672.0, 0.8420257274427178
673.0, 0.7811816088448861
674.0, 0.7185084808297538
675.0, 0.6558055424852799
676.0, 0.5992692306327151
677.0, 0.5463887995053758
678.0, 0.4925906261173564
679.0, 0.4452394855033684
680.0, 0.4018615599780108
681.0, 0.3617303135105657
682.0, 0.32668412998458757
683.0, 0.29662310733977415
684.0, 0.2660140971440451
685.0, 0.2422254249258188
686.0, 0.2197697603417752
687.0, 0.19932283692576597
688.0, 0.18095985793173394
689.0, 0.1642542911946661
690.0, 0.14935513289416455
691.0, 0.13801889227540007
692.0, 0.12659585233323997
693.0, 0.1152569994432498
694.0, 0.1073407188946842
695.0, 0.0988591760580606
696.0, 0.09122765804543408
697.0, 0.08676565517265408
698.0, 0.07878922093640776
699.0, 0.07143733386670065
700.0, 0.06856119513424633
701.0, 0.06300004405706851
702.0, 0.05875086687545556
703.0, 0.056080333417493224
704.0, 0.05363503975270543
705.0, 0.051189091176359766
706.0, 0.0490242461541266
707.0, 0.04449116260299364
708.0, 0.03947402723744097
709.0, 0.037722398622756004
710.0, 0.03558629408359377
711.0, 0.03315879976515283
712.0, 0.03110299956660659
713.0, 0.026214050326633112
714.0, 0.028488456713907526
715.0, 0.025764562071541087
716.0, 0.021633481801354954
717.0, 0.02008960054470967
718.0, 0.01793203438364008
719.0, 0.014891168349213078
720.0, 0.013730745451206925
721.0, 0.01114571488571854
722.0, 0.012302638839346378
723.0, 0.006733249029333879
724.0, 0.005990846782303641
725.0, 0.004824611137075599
726.0, 0.002612765282075272
727.0, 0.0011870150624124717
728.0, 0.0006977610132777238
729.0, 0.0017660703661754023
730.0, 0.002509104139542574
731.0, 0.003094249020147713
732.0, 0.0038841647480944287
733.0, 0.004383264346513596
734.0, 0.0045170646500695055
735.0, 0.00500420295942926
736.0, 0.006450867715419515
737.0, 0.005959754500103752
738.0, 0.007454872722297286
739.0, 0.007498824114512353
740.0, 0.00930669127589958
741.0, 0.011053520359800348
742.0, 0.011421136748917532
743.0, 0.01087200842302498
744.0, 0.009788956082041224
745.0, 0.008814883287723195
746.0, 0.008497774722508325
747.0, 0.00957675317400421
748.0, 0.009128726613437875
749.0, 0.008470606704284844
750.0, 0.008708572671144565
751.0, 0.008829717862486361
752.0, 0.007505273068350599
753.0, 0.005239913682191616
754.0, 0.004022162248789235
755.0, 0.003747169105907557
756.0, 0.0020346638071823534
757.0, 0.0014000541189629504
758.0, 0.0017992039008168956
759.0, 0.0005840875117317691
760.0, 0.000794189372178774
761.0, 0.00208815939728772
762.0, 0.003854755396199126
763.0, 0.00512473704645312
764.0, 0.004482206523897103
765.0, 0.0045540893797144264
766.0, 0.00598228880835075
767.0, 0.006449344155634345
768.0, 0.006980990836419371
769.0, 0.009408226392044824
770.0, 0.008453989703353029
771.0, 0.010100716028380934
772.0, 0.01069398300582426
773.0, 0.009823690420527217
774.0, 0.009776643302553137
775.0, 0.0113524275968577
776.0, 0.01074825767581521
777.0, 0.013545637918634897
778.0, 0.013005426955637394
779.0, 0.014883354983230186
780.0, 0.016771393419527315
781.0, 0.017095268864819903
782.0, 0.01695723878731239
783.0, 0.01756449086996008
784.0, 0.01635371181403014
785.0, 0.016131233079867913
786.0, 0.017650555572184666
787.0, 0.01750872757184824
788.0, 0.017801012914784774
789.0, 0.01782986502813641
790.0, 0.018186761915620613
791.0, 0.020074233508814
792.0, 0.021172201800695425
793.0, 0.023097072052669847
794.0, 0.021753470139564343
795.0, 0.022531189893543916
796.0, 0.0224043551355494
797.0, 0.02276492594507435
798.0, 0.02367027324692821
799.0, 0.024249833961007262
800.0, 0.02576031712544329
801.0, 0.025039915332416094
802.0, 0.026409818148653848
803.0, 0.025392322146811974
804.0, 0.026941838984213096
805.0, 0.028200602920493416
806.0, 0.029324176338832646
807.0, 0.03162633020932393
808.0, 0.032715563978266714
809.0, 0.030516003515640596
810.0, 0.031486248497851706
811.0, 0.03153344570090252
812.0, 0.03393330432856817
813.0, 0.03481956028363753
814.0, 0.035237654820433284
815.0, 0.03673953578587581
816.0, 0.037873984091633346
817.0, 0.03851708640092757
818.0, 0.036665340520774824
819.0, 0.03830266492643802
820.0, 0.037672807045878304
821.0, 0.03711125822618071
822.0, 0.03737076328240658
823.0, 0.0373437213337581
824.0, 0.036440732849745465
825.0, 0.03624306558131591
826.0, 0.036276003546513017
827.0, 0.03615813701364293
828.0, 0.036168238174897026
829.0, 0.03632585168014947
830.0, 0.03605980105828729
831.0, 0.03569092591887661
832.0, 0.034873663526784976
833.0, 0.032928241416056554
834.0, 0.03390938209821063
835.0, 0.03246515416120041
836.0, 0.030833240420222268
837.0, 0.031807592297176
838.0, 0.03219530752594526
839.0, 0.031136050008269578
840.0, 0.029464017428308575
841.0, 0.028397788017931455
842.0, 0.02889163783659219
843.0, 0.028335433003837826
844.0, 0.027696208350253836
845.0, 0.029181168325110723
846.0, 0.02975484400174557
847.0, 0.030191152977545415
848.0, 0.031037082684639908
849.0, 0.03239760950640295
850.0, 0.03448184276442328
851.0, 0.0362919369073252
852.0, 0.040109510214917994
853.0, 0.042877082820229506
854.0, 0.04469384603979531
855.0, 0.04862877918715337
856.0, 0.0533580842509339
857.0, 0.057188543106731354
858.0, 0.06059985251910136
859.0, 0.06473691060407298
860.0, 0.06709184324791291
861.0, 0.07131468660891366
862.0, 0.07535967964821581
863.0, 0.07744600522800717
864.0, 0.08251819821458654
865.0, 0.08743182101522057
866.0, 0.08879362105553557
867.0, 0.08881288974095303
868.0, 0.09008577196012132
869.0, 0.08887897699896954
870.0, 0.08763193233431485
871.0, 0.0888018558574535
872.0, 0.08800929822261545
873.0, 0.0869254956214522
874.0, 0.08607258861530173
875.0, 0.08470350235285043
876.0, 0.08320085730099766
877.0, 0.08259935298432065
878.0, 0.07732230336177469
879.0, 0.07703339751724858
880.0, 0.07311702376306105
881.0, 0.06814567778347722
882.0, 0.06751639040256101
883.0, 0.06832370785300015
884.0, 0.06646176464104848
885.0, 0.06441527971600741
886.0, 0.06267069937841763
887.0, 0.061368850563383384
888.0, 0.05995988455662446
889.0, 0.0586837269167493
890.0, 0.05859507334106875
891.0, 0.05702939416738637
892.0, 0.05553239146185653
893.0, 0.055712119728629904
894.0, 0.055145004123162936
895.0, 0.0574877190151461
896.0, 0.05641199325340977
897.0, 0.05547337793721221
898.0, 0.055214093422701234
899.0, 0.053158455522333774
900.0, 0.05247187899377683
901.0, 0.052449185226618726
902.0, 0.0512994992871045
903.0, 0.051728524972833756
904.0, 0.053781491499178116
905.0, 0.04951638354943303
906.0, 0.05171135489873928
907.0, 0.053714926226275043
908.0, 0.05386763443495025
909.0, 0.051854767274093154
910.0, 0.050020881801271566
911.0, 0.05050495043516147
912.0, 0.05194190672423201
913.0, 0.05131531206272775
914.0, 0.054073353924092286
915.0, 0.05216961503371278
916.0, 0.05574401731268656
917.0, 0.054244426486792056
918.0, 0.05349071103711466
919.0, 0.05445117435596661
920.0, 0.05451704875792454
921.0, 0.055552566193475254
922.0, 0.05914931494459398
923.0, 0.05563872662677131
924.0, 0.056605682458105246
925.0, 0.05830778053448929
926.0, 0.06109832256503149
927.0, 0.06157540724612495
928.0, 0.06154158191403959
929.0, 0.06213460657803173
930.0, 0.06195130674613844
931.0, 0.06288084841674595
932.0, 0.0632629242890843
933.0, 0.06360356944366034
934.0, 0.0646921096552734
935.0, 0.06503228029256626
936.0, 0.06470731599412546
937.0, 0.06491552625693249
938.0, 0.06593600762731806
939.0, 0.06718647075311432
940.0, 0.06800908883080066
941.0, 0.06640691340605251
942.0, 0.0692732909289297
943.0, 0.06960688799397374
944.0, 0.06842983425550075
945.0, 0.07025663267500776
946.0, 0.07219158076128732
947.0, 0.07224407601583312
948.0, 0.07321471672661907
949.0, 0.07676261519285842
950.0, 0.07620730829975193
951.0, 0.0785965279735475
952.0, 0.0855630032531266
953.0, 0.08695264067480074
954.0, 0.08843658070705297
955.0, 0.09064298816404803
956.0, 0.09278817951640524
957.0, 0.09478190170204297
958.0, 0.0965322822509017
959.0, 0.09806110459589609
960.0, 0.10380529752333015
961.0, 0.10456306387227242
962.0, 0.10809102075440802
963.0, 0.11605011479632892
964.0, 0.11813700116293714
965.0, 0.12041030872044378
966.0, 0.12265221670826679
967.0, 0.12433720974751743
968.0, 0.12952608979369662
969.0, 0.13442792404861093
970.0, 0.13913090203820624
971.0, 0.1417289698007432
972.0, 0.1476287641980416
973.0, 0.15353714534798268
974.0, 0.15919321726697028
975.0, 0.16600161050905268
976.0, 0.17266922949005822
977.0, 0.17806266881561725
978.0, 0.18410447780090453
979.0, 0.19110874194139446
980.0, 0.19986110360695128
981.0, 0.20798863463558337
982.0, 0.2156402652079603
983.0, 0.2269637528258925
984.0, 0.23854626117509514
985.0, 0.2503604622864439
986.0, 0.2639819035566638
987.0, 0.27857119401126124
988.0, 0.29255190691851046
989.0, 0.3102040467421973
990.0, 0.3309685478743367
991.0, 0.34503734350775694
992.0, 0.365655624385554
993.0, 0.39076055785815317
994.0, 0.4118525538484776
995.0, 0.4339782303326259
996.0, 0.4603464537756365
997.0, 0.48633546954943263
998.0, 0.5105551507629457
999.0, 0.5367833697114129
1000.0, 0.5614581981731261
1001.0, 0.5793250820281557
1002.0, 0.6044233843784174
1003.0, 0.6223095198578225
1004.0, 0.6349360796581277
1005.0, 0.643109014816615
1006.0, 0.6487380386432591
1007.0, 0.6513970295733192
1008.0, 0.6443035179284441
1009.0, 0.6316350127075213
1010.0, 0.6195774991352369
1011.0, 0.5925863188089819
1012.0, 0.5680921889368897
1013.0, 0.539445428938492
1014.0, 0.508742024984842
1015.0, 0.47701912768881105
1016.0, 0.4455597663089345
1017.0, 0.4144554462092548
1018.0, 0.3823211129197826
1019.0, 0.3543599246578532
1020.0, 0.32780187955552903
1021.0, 0.30302017356472605
1022.0, 0.28372082102392765
1023.0, 0.2643615540763372
1024.0, 0.2473173786901018
1025.0, 0.23075065672720918
1026.0, 0.21760246134730765
1027.0, 0.20711501728737997
1028.0, 0.1936630293673172
1029.0, 0.18596885358326007
1030.0, 0.1781800852203508
1031.0, 0.17146392133513547
1032.0, 0.1643489983234701
1033.0, 0.15732793417439464
1034.0, 0.1516613711706
1035.0, 0.14652331919010145
1036.0, 0.14199128155706162
1037.0, 0.13799886326412839
1038.0, 0.13402839156057014
1039.0, 0.13067569157118958
1040.0, 0.1270125954173934
1041.0, 0.12226710663864304
1042.0, 0.1205965739853842
1043.0, 0.1154615899506515
1044.0, 0.11147039765663758
1045.0, 0.10857813123501639
1046.0, 0.10664700551609073
1047.0, 0.10254550471488645
1048.0, 0.09737832365700781
1049.0, 0.09588603046148916
1050.0, 0.08894110854312072
1051.0, 0.086874717457147
1052.0, 0.08533895100941019
1053.0, 0.08000356057707102
1054.0, 0.07766108835877374
1055.0, 0.07389204276167526
1056.0, 0.0699463172935036
1057.0, 0.068816240249314
1058.0, 0.06818784966580495
1059.0, 0.06513408031079233
1060.0, 0.06279932982930046
1061.0, 0.05877425376128439
1062.0, 0.057378185738108614
1063.0, 0.05576361401644849
1064.0, 0.05662814156013384
1065.0, 0.05470075043440116
1066.0, 0.05259787659290514
1067.0, 0.051302921142043614
1068.0, 0.05031075838003999
1069.0, 0.04930191996223883
1070.0, 0.04797692470298806
1071.0, 0.04628993234218869
1072.0, 0.04767520047630263
1073.0, 0.04685099277972814
1074.0, 0.046484435223037614
1075.0, 0.04420784834260759
1076.0, 0.04345885960345672
1077.0, 0.04379571321463294
1078.0, 0.042979122895173485
1079.0, 0.04277118077659755
1080.0, 0.042713344638813294
1081.0, 0.03984423378075088
1082.0, 0.03936095405175862
1083.0, 0.03934133995102964
1084.0, 0.038405897347493965
1085.0, 0.03861746062440724
1086.0, 0.03926154385929664
1087.0, 0.03936248153424835
1088.0, 0.04021164298286101
1089.0, 0.04160969802334196
1090.0, 0.0418276398057117
1091.0, 0.040794957945663866
1092.0, 0.03952470342444585
1093.0, 0.03696292775623693
1094.0, 0.03709748240114532
1095.0, 0.039760869702650185
1096.0, 0.03745444634885072
1097.0, 0.03823973074647978
1098.0, 0.03749372715214474
1099.0, 0.037358155972168086
1100.0, 0.037051649922225025
1101.0, 0.03624812032870392
1102.0, 0.03581027631896902
1103.0, 0.035528637834245674
1104.0, 0.03474949896888947
1105.0, 0.0349348329040623
1106.0, 0.03556005370150189
1107.0, 0.03467202587708821
1108.0, 0.035537346753919015
1109.0, 0.03550540637258364
1110.0, 0.03492136916360917
1111.0, 0.034985753418607886
1112.0, 0.034941047076063846
1113.0, 0.0348202870354303
1114.0, 0.034992522252824704
1115.0, 0.034146084842643774
1116.0, 0.03381686493704521
1117.0, 0.03436722697862734
1118.0, 0.03321972561817863
1119.0, 0.032867120356609054
1120.0, 0.03183427557531371
1121.0, 0.030940795102693423
1122.0, 0.02913135711851758
1123.0, 0.028497120683409347
1124.0, 0.027452363957289054
1125.0, 0.02489077286335794
1126.0, 0.023335259197606754
1127.0, 0.020908578603139806
1128.0, 0.019023061369616394
1129.0, 0.01643853882214731
1130.0, 0.01731139022584705
1131.0, 0.014254901151067341
1132.0, 0.013260244548250087
1133.0, 0.013182678207971886
1134.0, 0.010571411797382744
1135.0, 0.008251334643033738
1136.0, 0.007512333004289016
1137.0, 0.006441083211629983
1138.0, 0.005325454891366456
1139.0, 0.003074270020727297
1140.0, 0.001447012471506853
1141.0, 0.00022111872196829252
1142.0, 0.0013154676750961247
1143.0, 0.0004133531868929729
1144.0, 0.00048274884250889855
1145.0, 0.002095189020148534
1146.0, 0.0022627415765492987
1147.0, 0.0018653668644488988
1148.0, 0.003123622621588127
1149.0, 0.0042260932331604295
1150.0, 0.003000952704039944
1151.0, 0.004028734190061633
1152.0, 0.005556187229767705
1153.0, 0.00582890945329325
1154.0, 0.005629555210528787
1155.0, 0.005619627176621635
1156.0, 0.004900624090294561
1157.0, 0.004816774068933702
1158.0, 0.00407591965533872
1159.0, 0.003790575207490193
1160.0, 0.004341011210008796
1161.0, 0.004453722467009377
1162.0, 0.0048290458772873145
1163.0, 0.004398215416491347
1164.0, 0.0024427060385982056
1165.0, 0.0028571613168121707
1166.0, 0.004360582907059385
1167.0, 0.004162257120462586
1168.0, 0.005267960644602077
1169.0, 0.005623480496910909
1170.0, 0.004528634978296012
1171.0, 0.003462112656684521
1172.0, 0.0036134015367782716
1173.0, 0.003981741291353313
1174.0, 0.003485416513117699
1175.0, 0.0037437801683468217
1176.0, 0.0019024888863778471
1177.0, 0.003592399360538028
1178.0, 0.0018100106043481418
1179.0, 0.0029461073482338097
1180.0, 0.0023918155736566086
1181.0, 0.002231074791554955
1182.0, 0.0022784073299790104
1183.0, 0.0017245220475527892
1184.0, 0.0019335246739346499
1185.0, 0.002096737703684126
1186.0, 0.0005336622651612362
1187.0, 0.0009220730226521715
1188.0, 0.0008063121860348505
1189.0, 0.001345702507893428
1190.0, 0.00012992500064369595
1191.0, 0.0003257292422146447
1192.0, 0.00028887834794432424
1193.0, 0.0005777031637727508
1194.0, 0.000810033899081386
1195.0, 0.0017968406376112956
1196.0, 0.0015800019134633663
1197.0, 0.0010434652231619131
1198.0, 0.0018700976055808594
1199.0, 0.001313491144840037
1200.0, 0.0008432638137125916
1201.0, 0.003712547161391207
1202.0, 0.001777021993948235
1203.0, 0.0018877978688517415
1204.0, 0.002481359276854629
1205.0, 0.003013912814878589
1206.0, 0.0028922579272738177
1207.0, 0.0026559916352181996
1208.0, 0.00450506198262778
1209.0, 0.0056719784808869165
1210.0, 0.005396833437247803
1211.0, 0.005675073247931391
1212.0, 0.005051591994152869
1213.0, 0.0057272108454070395
1214.0, 0.004735139593587091
1215.0, 0.0035226670235542572
1216.0, 0.005869620194608714
1217.0, 0.00680695735375889
1218.0, 0.006655371012300988
1219.0, 0.006247098588341742
1220.0, 0.006223031263461735
1221.0, 0.007511528516881462
1222.0, 0.007635313288373491
1223.0, 0.006239944449609196
1224.0, 0.0058345997966716715
1225.0, 0.0065379548011672076
1226.0, 0.00859326450392641
1227.0, 0.00896743210935399
1228.0, 0.010750060540500924
1229.0, 0.008070775606681218
1230.0, 0.007894537420728364
1231.0, 0.009390459653098916
1232.0, 0.009811369371454493
1233.0, 0.010259061852189758
1234.0, 0.010399670368270152
1235.0, 0.009616516025110045
1236.0, 0.00901766035338488
1237.0, 0.009816598624724643
1238.0, 0.010750195365546677
1239.0, 0.010301764841634439
1240.0, 0.011858381226560097
1241.0, 0.013023121980820476
1242.0, 0.01061962456798999
1243.0, 0.013087173801393064
1244.0, 0.010987994933848687
1245.0, 0.012624680721321621
1246.0, 0.01242418735836473
1247.0, 0.013402285027838162
1248.0, 0.013841672968093927
1249.0, 0.013428508972893941
1250.0, 0.013453450871713502
1251.0, 0.013251198580359865
1252.0, 0.013407197556455225
1253.0, 0.013887469806245582
1254.0, 0.013714017034170823
1255.0, 0.013821205882907991
1256.0, 0.01406968173449048
1257.0, 0.014332845775576518
1258.0, 0.014470698961978282
1259.0, 0.013511538135092106
1260.0, 0.01472245248468232
1261.0, 0.015706142689197324
1262.0, 0.015468784397611053
1263.0, 0.014473674932198914
1264.0, 0.014168816957991175
1265.0, 0.015165243874677001
1266.0, 0.014985729316786552
1267.0, 0.014871931243576384
1268.0, 0.017331210253041997
1269.0, 0.016196299482656606
1270.0, 0.01732949282891421
1271.0, 0.016147202085896477
1272.0, 0.01672338046344656
1273.0, 0.017041571198277882
1274.0, 0.016450771322054646
1275.0, 0.017053174841945126
1276.0, 0.017564569844759608
1277.0, 0.016260635600613905
1278.0, 0.01585062207016775
1279.0, 0.01737995816770605
1280.0, 0.01673426525562402
1281.0, 0.016297188897581315
1282.0, 0.01692977841781992
1283.0, 0.016735942564798593
1284.0, 0.014789183811781688
1285.0, 0.014568505756676791
1286.0, 0.01497306076400179
1287.0, 0.014664768048642907
1288.0, 0.015358619794759637
1289.0, 0.015956338427013297
1290.0, 0.016481769066818763
1291.0, 0.016160642763618876
1292.0, 0.015465330734458662
1293.0, 0.014943805435535928
1294.0, 0.014996538169730959
1295.0, 0.017696179703005858
1296.0, 0.015548912773039832
1297.0, 0.013962764811729804
1298.0, 0.015693224837120393
1299.0, 0.01376691232276043
1300.0, 0.016491559109197147
1301.0, 0.015561543917369577
1302.0, 0.014324556442018443
1303.0, 0.013763934782910252
1304.0, 0.013577347496486933
1305.0, 0.014015231691966393
1306.0, 0.014396622203615645
1307.0, 0.0137382134572705
1308.0, 0.013676028576929091
1309.0, 0.01467204991648455
1310.0, 0.012279295100769378
1311.0, 0.011686687862302984
1312.0, 0.010967060089764974
1313.0, 0.011252256378476735
1314.0, 0.0112033719806852
1315.0, 0.012634676548280216
1316.0, 0.012471660046943585
1317.0, 0.011838377891804853
1318.0, 0.012047844841491106
1319.0, 0.011572037887483344
1320.0, 0.011828217835026791
1321.0, 0.012476120435648943
1322.0, 0.01188620369166253
1323.0, 0.01088791019988346
1324.0, 0.010670129770575498
1325.0, 0.010573923695790945
1326.0, 0.010671164041642592
1327.0, 0.010882597022532128
1328.0, 0.011584043712596446
1329.0, 0.012650767685371215
1330.0, 0.01109251245967107
1331.0, 0.012455549817505542
1332.0, 0.01289948581957171
1333.0, 0.011680422096152221
1334.0, 0.011404151173038196
1335.0, 0.010607432095435106
1336.0, 0.011054520607117809
1337.0, 0.011857282759654354
1338.0, 0.011482871583842499
1339.0, 0.01178461292522808
1340.0, 0.011824137582678553
1341.0, 0.011901163669320971
1342.0, 0.01336415109559228
1343.0, 0.012358285573021576
1344.0, 0.013265150086106247
1345.0, 0.01372115744685975
1346.0, 0.012212953348430953
1347.0, 0.012065531502852295
1348.0, 0.0110271664273693
1349.0, 0.011404502364908465
1350.0, 0.012028347592487706
1351.0, 0.011389988856464386
1352.0, 0.010616028912318594
1353.0, 0.010663275823852401
1354.0, 0.011085219163441249
1355.0, 0.011322881390054619
1356.0, 0.011325639923952734
1357.0, 0.011847570815659228
1358.0, 0.011583763016304736
1359.0, 0.011561590717732084
1360.0, 0.010904611131717134
1361.0, 0.011469578454400005
1362.0, 0.010748026427604992
1363.0, 0.010701838750129424
1364.0, 0.0108474001388438
1365.0, 0.010902668061978513
1366.0, 0.010850953524314961
1367.0, 0.009742985812710693
1368.0, 0.009547566768820896
1369.0, 0.0099536585322363
1370.0, 0.009273975433448598
1371.0, 0.008851783229447355
1372.0, 0.009152180293443555
1373.0, 0.008286629778746911
1374.0, 0.008578393535145373
1375.0, 0.008962638187646334
1376.0, 0.00911029257077095
1377.0, 0.008951000638389902
1378.0, 0.007894269889518642
1379.0, 0.008455947102496456
1380.0, 0.0078040945484369835
1381.0, 0.00833884759882787
1382.0, 0.009248897181689338
1383.0, 0.008473801656160377
1384.0, 0.008750130375790076
1385.0, 0.009230027257475251
1386.0, 0.009558537246600968
1387.0, 0.009769572059334349
1388.0, 0.008542248827000777
1389.0, 0.008026044497364795
1390.0, 0.008443271951312732
1391.0, 0.006606660347724816
1392.0, 0.008884518470756725
1393.0, 0.00611491669759103
1394.0, 0.00828806355614682
1395.0, 0.00498923516880519
1396.0, 0.006093549846378307
1397.0, 0.006219490895606827
1398.0, 0.007248849343376348
1399.0, 0.006416428038290158
1400.0, 0.007262229744128509
1401.0, 0.006946652957542457
1402.0, 0.008814014753110904
1403.0, 0.010109756868953422
1404.0, 0.008643291127817948
1405.0, 0.007994039048346502
1406.0, 0.007139758150165939
1407.0, 0.006245282058175861
1408.0, 0.005412541264268717
1409.0, 0.005681758813743987
1410.0, 0.0066208608224574824
1411.0, 0.006078529500155356
1412.0, 0.006237581702500611
1413.0, 0.0053112581963937824
1414.0, 0.0061644236587336575
1415.0, 0.005574191221243052
1416.0, 0.005716376058619248
1417.0, 0.005174657155128358
1418.0, 0.00497045187323179
1419.0, 0.005865135255530754
1420.0, 0.005247566672450478
1421.0, 0.0054091255977129415
1422.0, 0.0058771024977788055
1423.0, 0.004801623392231353
1424.0, 0.004870151075278019
1425.0, 0.004318864641424185
1426.0, 0.006215560873553501
1427.0, 0.00467001334620531
1428.0, 0.005786927866966283
1429.0, 0.005825633712054515
1430.0, 0.007150760503407046
1431.0, 0.004798412709351906
1432.0, 0.006203753459886104
1433.0, 0.006254608723003727
1434.0, 0.0048141993210801875
1435.0, 0.0054108458312706
1436.0, 0.006438835487898046
1437.0, 0.005669864008440978
1438.0, 0.005196297510792897
1439.0, 0.006112606734082957
1440.0, 0.0061615259518912795
1441.0, 0.005363901369582042
1442.0, 0.005926983032055747
1443.0, 0.006179859968596334
1444.0, 0.004509375275750315
1445.0, 0.0050472113549808115
1446.0, 0.006296184222408319
1447.0, 0.004428641730497558
1448.0, 0.003715435042970191
1449.0, 0.004586644807108596
1450.0, 0.005096784545590235
1451.0, 0.003457452398684162
1452.0, 0.004587831460811572
1453.0, 0.004551873947474118
1454.0, 0.004243075581164136
1455.0, 0.004293123632541932
1456.0, 0.0042628883975379395
1457.0, 0.004016193972015914
1458.0, 0.0036820234617357113
1459.0, 0.003604654639500603
1460.0, 0.003266929476984584
1461.0, 0.0026994258671050528
1462.0, 0.002753088378458761
1463.0, 0.0028898988880615697
1464.0, 0.0034407937823488026
1465.0, 0.0025898094780024594
1466.0, 0.003348347325527252
1467.0, 0.00326641500650091
1468.0, 0.0017774491253459168
1469.0, 0.002543904639011516
1470.0, 0.003954586850555176
1471.0, 0.004324243747777254
1472.0, 0.004223487968596374
1473.0, 0.004333858315565888
1474.0, 0.0031664610417513374
1475.0, 0.0028901041432959737
1476.0, 0.00217895920827078
1477.0, 0.0009099152208047019
1478.0, 0.0018092578231223772
1479.0, 0.0021168211336261068
1480.0, 0.0013837097173517695
1481.0, 0.0014560983426757674
1482.0, 0.0012698559251208307
1483.0, 0.0025535361827610944
1484.0, 0.0023899270810474856
1485.0, 0.0020976074595057217
1486.0, 0.001550739961427569
1487.0, 0.0023840488627760925
1488.0, 0.0033018827304642125
1489.0, 0.0015788430033894605
1490.0, 0.0011530967544983145
1491.0, 0.003289602670664479
1492.0, 0.0014607580508356668
1493.0, 0.0023248631295836133
1494.0, 0.002931204296337941
1495.0, 0.002388396459603206
1496.0, 0.0034361273213650034
1497.0, 0.00233597979401972
1498.0, 0.0012057936121797164
1499.0, 0.00157969469998644
1500.0, 0.0016166382749638125
1501.0, 0.0016891279001556225
1502.0, 0.0022211033554983706
1503.0, 0.0018709346169450238
1504.0, 0.0015506153568864039
1505.0, 0.001743090302794576
1506.0, 0.0007613674346612796
1507.0, 0.0017948905420168723
1508.0, 0.00192801500691284
1509.0, 0.0016731273451102433
1510.0, 0.0004363636133880213
1511.0, 0.0009390218639810793
1512.0, 0.0002516775635928761
1513.0, 0.0008981548569321923
1514.0, 0.0011634453659537215
1515.0, 0.002682196259336059
1516.0, 0.0030773560507093047
1517.0, 0.0022995776837084134
1518.0, 0.0007022637652535854
1519.0, 0.0021669000816345757
1520.0, 0.002625554276494565
1521.0, 0.0017585738461812807
1522.0, 0.0020013400055668195
1523.0, 0.00190848354996647
1524.0, 0.0014426851926709506
1525.0, 0.001805381236375578
1526.0, 0.0018975039282994452
1527.0, 0.0017974463036093515
1528.0, 0.0009976774863092019
1529.0, 0.0020417680396738742
1530.0, 0.0010073024211964881
1531.0, 0.002843019168775592
1532.0, 0.0004886235897254138
1533.0, 0.000723736588736329
1534.0, 0.002510774435242811
1535.0, 0.0019393133183245625
1536.0, 0.001999536605722173
1537.0, 0.001010617094020577
1538.0, 0.001057320235571285
1539.0, 0.0012857445839343786
1540.0, 0.0023551384756072716
1541.0, 0.0024801842964893364
1542.0, 0.002065788827037204
1543.0, 0.0014769416633976559
1544.0, 0.0005454035429551903
1545.0, 0.001276837811552996
1546.0, 0.0014908847196608507
1547.0, 0.0009753846510347585
1548.0, 0.002441981422624639
1549.0, 0.0031498696812657695
1550.0, 0.002309804558284464
1551.0, 0.0005899292900651282
1552.0, 0.0014273832324064805
1553.0, 0.0010253291371933812
1554.0, 0.0008585215236710744
1555.0, 0.0022336880066002357
1556.0, 0.00022671565438311416
1557.0, 0.001466476939675998
1558.0, 0.0015255752035623384
1559.0, 0.0022337689684381536
1560.0, 0.001494986364626
1561.0, 0.0006248125619982549
1562.0, 0.0014192928289475412
1563.0, 0.0017414957211305858
1564.0, 0.0006999085321338405
1565.0, 9.289221854882993e-05
1566, 0.0
1567, 0.0
1568, 0.0
1569, 0.0
1570, 0.0
1571, 0.0
1572, 0.0
1573, 0.0
1574, 0.0
1575, 0.0
1576, 0.0
1577, 0.0
1578, 0.0
1579, 0.0
1580, 0.0
1581, 0.0
1582, 0.0
1583, 0.0
1584, 0.0
1585, 0.0
1586, 0.0
1587, 0.0
1588, 0.0
1589, 0.0
1590, 0.0
1591, 0.0
1592, 0.0
1593, 0.0
1594, 0.0
1595, 0.0
1596, 0.0
1597, 0.0
1598, 0.0
1599, 0.0
