30, 0.0
31, 0.0
32, 0.0
33, 0.0
34, 0.0
35, 0.0
36, 0.0
37, 0.0
38, 0.0
39, 0.0
40, 0.0
41, 0.0
42, 0.0
43, 0.0
44, 0.0
45, 0.0
46, 0.0
47, 0.0
48, 0.0
49, 0.0
50, 0.0
51, 0.0
52, 0.0
53, 0.0
54, 0.0
55, 0.0
56, 0.0
57, 0.0
58, 0.0
59, 0.0
60, 0.0
61, 0.0
62, 0.0
63, 0.0
64, 0.0
65, 0.0
66, 0.0
67, 0.0
68, 0.0
69, 0.0
70, 0.0
71, 0.0
72, 0.0
73, 0.0
74, 0.0
75, 0.0
76, 0.0
77, 0.0
78, 0.0
79, 0.0
80, 0.0
81, 0.0
82, 0.0
83, 0.0
84, 0.0
85, 0.0
86, 0.0
87, 0.0
88, 0.0
89, 0.0
90, 0.0
91, 0.0
92, 0.0
93, 0.0
94, 0.0
95, 0.0
96, 0.0
97, 0.0
98, 0.0
99, 0.0
100, 0.0
101, 0.0
102, 0.0
103, 0.0
104, 0.0
105, 0.0
106, 0.0
107, 0.0
108, 0.0
109, 0.0
110, 0.0
111, 0.0
112, 0.0
113, 0.0
114, 0.0
115, 0.0
116.0, 0.00046483013346358573
117.0, 0.0014257008094320876
118.0, 0.0018810259405837653
119.0, 0.0006815477436263335
120.0, 0.0001733983464758238
121.0, 0.0002575801305861559
122.0, 0.000884540278637003
123.0, 0.002226095139771441
124.0, 0.0026849964882957266
125.0, 0.002086800529698728
126.0, 0.0022954554066262657
127.0, 0.00327993538822073
128.0, 0.003784437049901491
129.0, 0.004975832056237766
130.0, 0.0060828824119255115
131.0, 0.006919688255386867
132.0, 0.007356337410687979
133.0, 0.0074971016647630605
134.0, 0.008521683396884729
135.0, 0.009570911998424145
136.0, 0.00929302098858432
137.0, 0.008617519495323212
138.0, 0.008365443447043973
139.0, 0.007805771346138312
140.0, 0.006939599441510769
141.0, 0.005760817134385023
142.0, 0.004520891210848612
143.0, 0.0031533698121457513
144.0, 0.0011521265602245452
145.0, 0.0003214225078421357
146.0, 0.000422466358834446
147.0, 0.0012028314753500832
148.0, 0.001625102339574793
149.0, 0.0004707257811641846
150.0, 0.00011097668317121954
151.0, 0.00033504884658629456
152.0, 0.00035886278042008185
153.0, 0.00026532777821923275
154.0, 0.0004784323733193996
155.0, 0.001647532562488036
156.0, 0.0011418251112100234
157.0, 0.0006469987385901831
158.0, 0.0008893667915302677
159.0, 0.0020488348388997477
160.0, 0.0035742149017028643
161.0, 0.003440919120145234
162.0, 0.003652124467610981
163.0, 0.004991843503974454
164.0, 0.006844536079121871
165.0, 0.007654496923981969
166.0, 0.009551789188761643
167.0, 0.010500347344441944
168.0, 0.011077238720800377
169.0, 0.012592542478875967
170.0, 0.01579620491490387
171.0, 0.017700148837832004
172.0, 0.018651912324427714
173.0, 0.0210170368698298
174.0, 0.022860329956695555
175.0, 0.023244932234647794
176.0, 0.024315170826035147
177.0, 0.025414575927053797
178.0, 0.02337017799489499
179.0, 0.021414212273764395
180.0, 0.01952384059634381
181.0, 0.015344188751852051
182.0, 0.012433577961245364
183.0, 0.010727831044442068
184.0, 0.00902254103687786
185.0, 0.007718290021719364
186.0, 0.007330384900958843
187.0, 0.006954987072180526
188.0, 0.007625598646011284
189.0, 0.007408736691193772
190.0, 0.007112218372764459
191.0, 0.0070772711743776456
192.0, 0.006619777899522434
193.0, 0.006862162329074531
194.0, 0.007049799399830743
195.0, 0.007105402294442034
196.0, 0.006952662814841056
197.0, 0.006672362491655738
198.0, 0.007283645869582323
199.0, 0.007230302531611133
200.0, 0.00757178224536664
201.0, 0.007553551110404321
202.0, 0.007109091130581894
203.0, 0.008241929527552637
204.0, 0.005338554286413234
205.0, 0.003915753004435491
206.0, 0.002943145871416227
207.0, 0.0023095326773985587
208.0, 0.0025841734885025374
209.0, 0.002457375033717324
210.0, 0.0029276018800305863
211.0, 0.0032479920504273306
212.0, 0.00341054316696257
213.0, 0.0035097407920979757
214.0, 0.0033566835740869885
215.0, 0.00414037129345019
216.0, 0.004262342276818804
217.0, 0.004685207127082448
218.0, 0.0055280755316790085
219.0, 0.006128073093796746
220.0, 0.007956612624122356
221.0, 0.010855702549938662
222.0, 0.012807731403065334
223.0, 0.01466505683456602
224.0, 0.01760361601968304
225.0, 0.021023851522700806
226.0, 0.02340696202635712
227.0, 0.02821452817325288
228.0, 0.03283983872759937
229.0, 0.03690016552633914
230.0, 0.04217839811587792
231.0, 0.044054828739458464
232.0, 0.04605956350820683
233.0, 0.046446366668019524
234.0, 0.044867900575725324
235.0, 0.04184864309539102
236.0, 0.038829560153327045
237.0, 0.03551598279063293
238.0, 0.031238706235658126
239.0, 0.02813065518323074
240.0, 0.02616425555825446
241.0, 0.023584211050830414
242.0, 0.022901214777793628
243.0, 0.02195475193555086
244.0, 0.02145987732106644
245.0, 0.02155726515328257
246.0, 0.021829288054890688
247.0, 0.021019697092467312
248.0, 0.021498868194502512
249.0, 0.02139633941475913
250.0, 0.021154602433946512
251.0, 0.020954132570047412
252.0, 0.0207429213642566
253.0, 0.020709366404916208
254.0, 0.02049001522381312
255.0, 0.020329108431928946
256.0, 0.02048630134285938
257.0, 0.020903625458233807
258.0, 0.02102554770550533
259.0, 0.021091682282510744
260.0, 0.02080134215639818
261.0, 0.019091950806679813
262.0, 0.017441831210689433
263.0, 0.017345748073968336
264.0, 0.015038265392850908
265.0, 0.015666313350023952
266.0, 0.014523754172761503
267.0, 0.014317344583463862
268.0, 0.015232746923845518
269.0, 0.01412220410130547
270.0, 0.012619382614254129
271.0, 0.012197591498629222
272.0, 0.013498305734316441
273.0, 0.01397749565961948
274.0, 0.01256356514397471
275.0, 0.013762421538709829
276.0, 0.013275949178858198
277.0, 0.012975316278705773
278.0, 0.01276797472279262
279.0, 0.012734702172517336
280.0, 0.013014914098466506
281.0, 0.013325986893420955
282.0, 0.013699142245699882
283.0, 0.014384564945749318
284.0, 0.014946886231370561
285.0, 0.015385873291133995
286.0, 0.016252619271725884
287.0, 0.016476834621503313
288.0, 0.017275441216770056
289.0, 0.017614153863737117
290.0, 0.01842159005796014
291.0, 0.020093438320757308
292.0, 0.020438856071051153
293.0, 0.02227771536117392
294.0, 0.02379082474560299
295.0, 0.025026083767334197
296.0, 0.027053430112308288
297.0, 0.03053067060378661
298.0, 0.03195514851562256
299.0, 0.034474327482908886
300.0, 0.03884159264580696
301.0, 0.04361225643315745
302.0, 0.04852274464550835
303.0, 0.05445206719421216
304.0, 0.058815778258240727
305.0, 0.06450346289043189
306.0, 0.0726785753822595
307.0, 0.08225027096129231
308.0, 0.09154958947446117
309.0, 0.09924631808490239
310.0, 0.1102504658136685
311.0, 0.12295523067372116
312.0, 0.13677289610282692
313.0, 0.15124880194636983
314.0, 0.1655855934586425
315.0, 0.17801950605542227
316.0, 0.19492479835804477
317.0, 0.2055948821626841
318.0, 0.2167443891964688
319.0, 0.2263122682650414
320.0, 0.22891282789296974
321.0, 0.2301767759153483
322.0, 0.22338528028003532
323.0, 0.21456900755808037
324.0, 0.20434013460197528
325.0, 0.1915451191086468
326.0, 0.1747568866132873
327.0, 0.15811667738109061
328.0, 0.14281599790915278
329.0, 0.13005572507406868
330.0, 0.11844536325315147
331.0, 0.10720756714436067
332.0, 0.09710760292557935
333.0, 0.09017534123117327
334.0, 0.0835531532695955
335.0, 0.07842836949268613
336.0, 0.07398131926139483
337.0, 0.06979514650526342
338.0, 0.06698219569430644
339.0, 0.06380564761411098
340.0, 0.060113940166644966
341.0, 0.05892929799242982
342.0, 0.05869251290993562
343.0, 0.05786922389485776
344.0, 0.058810843759774634
345.0, 0.057381241058375096
346.0, 0.05582943418470489
347.0, 0.05540921256456762
348.0, 0.05540755945834666
349.0, 0.05555646439920256
350.0, 0.05946737466719379
351.0, 0.05714155512700078
352.0, 0.05634926149122125
353.0, 0.05473720507104122
354.0, 0.05216617209294277
355.0, 0.04983854142179273
356.0, 0.04804258846200474
357.0, 0.04426350151510075
358.0, 0.04185619025043752
359.0, 0.03890186277682195
360.0, 0.03622466189130514
361.0, 0.035104671089877464
362.0, 0.029951846358854194
363.0, 0.028514099003366426
364.0, 0.026775628966271562
365.0, 0.024235765051347547
366.0, 0.021894512703246667
367.0, 0.021063409999683664
368.0, 0.020394611536892558
369.0, 0.019342498825845204
370.0, 0.018413857009449374
371.0, 0.017634371407184192
372.0, 0.016703647504955673
373.0, 0.015286745968959755
374.0, 0.013945536346487665
375.0, 0.015230673351677052
376.0, 0.015334849977769781
377.0, 0.01434808185191338
378.0, 0.013551364432970074
379.0, 0.01400648218902083
380.0, 0.012664585810039134
381.0, 0.012122707692825717
382.0, 0.013263565848191305
383.0, 0.01320341393707919
384.0, 0.012413617848675179
385.0, 0.013376842286868128
386.0, 0.01130524109456772
387.0, 0.011597141539007944
388.0, 0.010961097462419253
389.0, 0.009884053481562176
390.0, 0.009345987985385109
391.0, 0.009912251565619841
392.0, 0.010289446071978707
393.0, 0.008085996404457263
394.0, 0.0065406294297271845
395.0, 0.005734670130074537
396.0, 0.005262020917371257
397.0, 0.0046674944363027495
398.0, 0.0037109485852470717
399.0, 0.0028489711528138653
400.0, 0.001877011783191316
401.0, 0.0013351221322725696
402.0, 0.000995634674123285
403.0, 0.00038138772431080135
404.0, 0.00042984012252301606
405.0, 0.0004919546382837618
406.0, 0.0002974713695874497
407.0, 0.00042211099187287323
408.0, 0.0007067724608838817
409.0, 0.0006817731650981883
410.0, 0.0005727554008816135
411.0, 0.0004068920530954349
412.0, 0.00064085088823743
413.0, 0.0006116595041217971
414.0, 0.00039058610082776156
415.0, 0.00032976166301035
416.0, 0.0003304005377370046
417.0, 0.00010880461854903031
418.0, 0.0006142277454817767
419.0, 0.0005861794657642321
420.0, 0.000754240250964858
421.0, 0.0016204270363457695
422.0, 0.0014058525756604167
423.0, 0.001573452185537332
424.0, 0.0010424191257652233
425.0, 0.0005844304816989323
426.0, 0.0003455171293326621
427.0, 0.00033606631436671505
428.0, 0.0006461560217279796
429.0, 0.0001235293360280246
430.0, 0.0005500257988864956
431.0, 0.0003489420965683478
432.0, 0.00035733460087134823
433.0, 0.0008862541130181258
434.0, 0.0009587421948284423
435.0, 0.0007847249082586791
436.0, 0.0003577060531555853
437.0, 0.0004056122774668216
438.0, 0.0004709878993564278
439.0, 0.00035260776398166727
440.0, 0.0003451249616075821
441.0, 0.001004224331082043
442.0, 0.0003779471275017827
443.0, 0.00012174562155341874
444.0, 7.505392663462994e-05
445.0, 5.405288087186973e-05
446.0, 0.0002245167540623407
447.0, 0.0014590496515483884
448.0, 0.0019273664056593325
449.0, 0.0012516331420386376
450.0, 0.00098354359036461
451.0, 0.0007415029759246101
452.0, 7.841840144394251e-05
453.0, 0.0002195286985918168
454.0, 0.00013954633436358917
455.0, 0.0004946009004729019
456.0, 0.0009613439522491178
457.0, 0.00141677001035462
458.0, 0.0016644198931631761
459.0, 0.0013741739795278141
460.0, 0.0003687466068539349
461.0, 0.0005132632987743678
462.0, 0.00036565515194639134
463.0, 0.0005917860518394223
464.0, 0.0009258647534474568
465.0, 0.0004705723392133156
466.0, 0.00027457101671171804
467.0, 0.0006049860522491778
468.0, 0.0002628683076091128
469.0, 0.00023897423712104454
470.0, 0.00033970734085150877
471.0, 8.741546956363155e-05
472.0, 6.93078203375432e-05
473.0, 0.00027054126099022705
474.0, 0.00028232402643299097
475.0, 0.0004266335873281251
476.0, 0.0005276150244718163
477.0, 0.00047526339180560984
478.0, 0.0004938701949481815
479.0, 0.0009372393766951463
480.0, 0.0013548821481479444
481.0, 0.002110024982089963
482.0, 0.0024085296716798606
483.0, 0.0022209229687356227
484.0, 0.002395576363005969
485.0, 0.004012912637673385
486.0, 0.004802540866713528
487.0, 0.005611676089739387
488.0, 0.007217426635041607
489.0, 0.008813466087054527
490.0, 0.009869902815159225
491.0, 0.011685609695896769
492.0, 0.015134376567567893
493.0, 0.017769216629479737
494.0, 0.021804649314642634
495.0, 0.026654859980697315
496.0, 0.03196482093744447
497.0, 0.03851719997702174
498.0, 0.048024587348476595
499.0, 0.05659878074449762
500.0, 0.06445471789093149
501.0, 0.07300293454606108
502.0, 0.0797450138416235
503.0, 0.08260966986134338
504.0, 0.08484727763650075
505.0, 0.08181957910885129
506.0, 0.07571928005551802
507.0, 0.06760864570345329
508.0, 0.05861212966814787
509.0, 0.049629354005801894
510.0, 0.04130606243069329
511.0, 0.034775788415051155
512.0, 0.030373421150841493
513.0, 0.026305579410553653
514.0, 0.023234098457371784
515.0, 0.021057651336023345
516.0, 0.019312326570417735
517.0, 0.01794557619182324
518.0, 0.016354453715582248
519.0, 0.01586027231314717
520.0, 0.015167175908631087
521.0, 0.014505676867373167
522.0, 0.01419783837673208
523.0, 0.014234840464060238
524.0, 0.014624182400278121
525.0, 0.015236852280173704
526.0, 0.015429703631564144
527.0, 0.015586198219266632
528.0, 0.01588678205753032
529.0, 0.016236454592964442
530.0, 0.01633365400671853
531.0, 0.015957879864454193
532.0, 0.015532263018851368
533.0, 0.014960574677288004
534.0, 0.014798167990088807
535.0, 0.014783324427274614
536.0, 0.01448801781456905
537.0, 0.015330469180013353
538.0, 0.013972727431297885
539.0, 0.01422646567161836
540.0, 0.014710856886222206
541.0, 0.014128928396668416
542.0, 0.012958345799706629
543.0, 0.013219557065713643
544.0, 0.013376429220812234
545.0, 0.012623633015308083
546.0, 0.012571787722109063
547.0, 0.013067303782856313
548.0, 0.013600461535249665
549.0, 0.013575865176296189
550.0, 0.012670041457478055
551.0, 0.014111976824723291
552.0, 0.013538205288929168
553.0, 0.01313963503480783
554.0, 0.013184906636275643
555.0, 0.0132099362982619
556.0, 0.012927063438358678
557.0, 0.01334592796743626
558.0, 0.011795902377396679
559.0, 0.012406890859183952
560.0, 0.012271421572409463
561.0, 0.012163429723137715
562.0, 0.012423055296180497
563.0, 0.011879933726422992
564.0, 0.012141775654950107
565.0, 0.0122834010923319
566.0, 0.01206989106325245
567.0, 0.01227262733879866
568.0, 0.012355396489682965
569.0, 0.011859009951971903
570.0, 0.011496375830923692
571.0, 0.011910886056840812
572.0, 0.0106367113133149
573.0, 0.010453086772691755
574.0, 0.010227506946598283
575.0, 0.009164106008710309
576.0, 0.007955117804344727
577.0, 0.008652640077124546
578.0, 0.007444308241082019
579.0, 0.007086104167364535
580.0, 0.00686576099372183
581.0, 0.0061737127057540754
582.0, 0.005532044140407157
583.0, 0.005365504304041853
584.0, 0.003829197638909168
585.0, 0.003381200984669152
586.0, 0.003740265094188538
587.0, 0.00358139070177733
588.0, 0.0030576851510514132
589.0, 0.0024841392994310366
590.0, 0.001900837550318619
591.0, 0.0012310585810732147
592.0, 0.0013703528905857632
593.0, 0.0015196683133929943
594.0, 0.0010844820587673097
595.0, 0.0008089601936454569
596.0, 0.001150448968210894
597.0, 0.0015795495437624354
598.0, 0.0008511249175601576
599.0, 0.001570747233791267
600.0, 0.0014999460679515815
601.0, 0.0019024907272853161
602.0, 0.002316053449845447
603.0, 0.002456099499439413
604.0, 0.0027482760103787573
605.0, 0.0025566897070396113
606.0, 0.003353067449232375
607.0, 0.003520698858543819
608.0, 0.0038631817679273713
609.0, 0.004455268212917401
610.0, 0.005067202796726683
611.0, 0.00558095849600809
612.0, 0.006195235412104328
613.0, 0.007042058327048067
614.0, 0.007344820527649865
615.0, 0.007408312468515875
616.0, 0.00781062908658593
617.0, 0.008632179397130598
618.0, 0.00951532231397334
619.0, 0.011207882412134315
620.0, 0.012874568525284302
621.0, 0.01358467912619374
622.0, 0.01456855114626687
623.0, 0.015453793199881065
624.0, 0.01648823063950253
625.0, 0.01854625161565836
626.0, 0.019157781483246046
627.0, 0.021057450722711014
628.0, 0.022730208311475243
629.0, 0.024264890401313317
630.0, 0.026330721581616794
631.0, 0.029041940701521784
632.0, 0.03137828772222732
633.0, 0.031291194933394766
634.0, 0.034314014134331175
635.0, 0.03695299595396997
636.0, 0.03915693595363802
637.0, 0.041992932049608744
638.0, 0.045366137022853754
639.0, 0.04828187681937675
640.0, 0.051446602445923646
641.0, 0.05589281860418087
642.0, 0.061247984038903976
643.0, 0.06690137396570027
644.0, 0.0732810063099945
645.0, 0.08014542712771049
646.0, 0.08791720252888392
647.0, 0.10004694067747523
648.0, 0.11200572395787609
649.0, 0.12481615766701748
650.0, 0.14244914966207936
651.0, 0.16291976106956685
652.0, 0.18684419563587687
653.0, 0.21678905380616037
654.0, 0.25337745029869724
655.0, 0.2947031570233255
656.0, 0.3459533773332824
657.0, 0.4018531639853843
658.0, 0.4656399382828408
659.0, 0.5362931940255063
660.0, 0.6100367003072912
661.0, 0.6827740247432605
662.0, 0.7446701459145346
663.0, 0.7995455022225
664.0, 0.8268977558644373
665.0, 0.8340365854620636
666.0, 0.8145188776697657
667.0, 0.767660220061326
668.0, 0.7048123495975146
669.0, 0.6270886978340855
670.0, 0.5439853664208867
671.0, 0.4651647399333139
672.0, 0.3936024073644652
673.0, 0.3317920700229324
674.0, 0.2807116863747683
675.0, 0.2387211607299663
676.0, 0.20143236180964522
677.0, 0.17219904425957966
678.0, 0.1477030026989151
679.0, 0.12771261207717952
680.0, 0.11154180568335927
681.0, 0.09796088296690945
682.0, 0.08604353814584967
683.0, 0.07587263785426998
684.0, 0.06800215557191143
685.0, 0.06074185402081281
686.0, 0.05405063362683322
687.0, 0.04867800362042718
688.0, 0.044511498414945554
689.0, 0.04115848446413323
690.0, 0.038088516835185875
691.0, 0.033910271934265324
692.0, 0.03089763924443892
693.0, 0.028911545614762203
694.0, 0.02778708371642049
695.0, 0.025331562236390093
696.0, 0.022687125707488164
697.0, 0.021608958369317203
698.0, 0.019663664640311163
699.0, 0.01823756086475033
700.0, 0.016095355363052198
701.0, 0.015455996815668446
702.0, 0.014903833842261236
703.0, 0.01399330043343864
704.0, 0.013201511625758286
705.0, 0.012670477429167345
706.0, 0.01036672315158704
707.0, 0.009416721224509898
708.0, 0.009324996351129917
709.0, 0.008579341925733619
710.0, 0.008141287918847107
711.0, 0.0077116308281969664
712.0, 0.006646139334593747
713.0, 0.006345303835824585
714.0, 0.006317191853084828
715.0, 0.005455154585238553
716.0, 0.005113685574010493
717.0, 0.004346055224936785
718.0, 0.0038675942535920686
719.0, 0.0038649951822937387
720.0, 0.003478506090699348
721.0, 0.003529817004392956
722.0, 0.003843388418252754
723.0, 0.00300130376863735
724.0, 0.0021790830069185773
725.0, 0.0017890753640085063
726.0, 0.0012513654657428112
727.0, 0.0008291758738625204
728.0, 0.0019446889782516997
729.0, 0.0002107935438715044
730.0, 0.001813386540154325
731.0, 0.001144211695730006
732.0, 0.0007362517746384406
733.0, 0.0008223341617536219
734.0, 0.0010208237860229326
735.0, 0.001070816215219262
736.0, 0.00048515192945778864
737.0, 0.0002798767938194909
738.0, 0.0005291117778664096
739.0, 0.00034532168539300884
740.0, 0.00010346966372583159
741.0, 0.00022010660529083798
742.0, 0.00039726134953804314
743.0, 0.00012239215210730538
744.0, 0.0004422937400611431
745.0, 0.00042027769064604756
746.0, 0.0008476029353985596
747.0, 0.0008198189365328538
748.0, 0.00042915506346140027
749.0, 0.0001845358499824099
750.0, 0.00021511809232383752
751.0, 0.00010302853969020255
752.0, 0.00014787764500616266
753.0, 0.0010831889725254722
754.0, 0.0011316876681004345
755.0, 0.0011731339149374008
756.0, 0.0007921522137332513
757.0, 0.0005648834982179183
758.0, 0.0007421547101220053
759.0, 3.0316626279877377e-05
760.0, 0.0001367871607235544
761.0, 5.356900749437196e-05
762.0, 0.0005530598652132484
763.0, 0.00045020844731891743
764.0, 0.00020649160213575402
765.0, 0.00042257042482702744
766.0, 0.0009073395770530751
767.0, 0.0007932287541501308
768.0, 0.00035142325047225336
769.0, 0.0007065691282119408
770.0, 0.0007995079645997088
771.0, 0.0011873253983984303
772.0, 0.0009240415393652997
773.0, 0.0002790766396566576
774.0, 0.0003673842691896373
775.0, 0.0008203077133197413
776.0, 0.0004543624738025829
777.0, 0.00028874970171408076
778.0, 0.0008981248181479312
779.0, 0.0007696302080278944
780.0, 0.0006643995178168531
781.0, 0.0006732725014319871
782.0, 0.0003337381698390838
783.0, 0.000620475875590749
784.0, 0.0009754885585106956
785.0, 0.0004176624190820831
786.0, 0.0004421368931367609
787.0, 0.0005539310186117929
788.0, 0.00036683298809130093
789.0, 0.00019861720571502778
790.0, 0.0005391692666214482
791.0, 0.001088966443692929
792.0, 0.0009761750688277297
793.0, 0.0008178774785824794
794.0, 0.001054774820836637
795.0, 0.00070446277275474
796.0, 0.00029457309078729377
797.0, 0.0003052668294773428
798.0, 0.000763011561878629
799.0, 0.0014885142383744216
800.0, 0.0010310185304068516
801.0, 0.0010303680881999606
802.0, 0.0011671067731421963
803.0, 0.0010131131799121804
804.0, 0.000974163650298006
805.0, 0.0008644495738876291
806.0, 0.0006248881128326253
807.0, 0.0008820687930232087
808.0, 0.00033712186089763867
809.0, 0.0002301787285662392
810.0, 0.0002699964584282143
811.0, 0.0011969391668711223
812.0, 0.0017002387186807627
813.0, 0.002152933268348354
814.0, 0.003515504281632757
815.0, 0.005108520791907474
816.0, 0.004438103093171028
817.0, 0.004788034245012119
818.0, 0.00584301821055263
819.0, 0.005211359840792207
820.0, 0.0062012272213612715
821.0, 0.007284636743871722
822.0, 0.007118617839486451
823.0, 0.007028933135540035
824.0, 0.006853128430508736
825.0, 0.007082858368589293
826.0, 0.0060922786079629105
827.0, 0.005591741613804397
828.0, 0.004778557189476182
829.0, 0.00412269156993833
830.0, 0.0037004947287675584
831.0, 0.003399870240419422
832.0, 0.003812598112876239
833.0, 0.003483109336697947
834.0, 0.0024206206876409616
835.0, 0.0026662153710251125
836.0, 0.0025517443127817904
837.0, 0.0017561190689239419
838.0, 0.0012444067329602693
839.0, 0.0010802555060382658
840.0, 0.0003236946924667776
841.0, 0.0007921514629081193
842.0, 0.0011595178997888399
843.0, 0.0006565324474010002
844.0, 0.0008949984219094626
845.0, 0.0014176412434659634
846.0, 0.001208026193713062
847.0, 0.0005414784752365473
848.0, 0.0007715000741479477
849.0, 0.002230127075350442
850.0, 0.002355852535531351
851.0, 0.0023183921360414852
852.0, 0.0027653764545377342
853.0, 0.0036473641615196602
854.0, 0.004271822035156639
855.0, 0.004235834428015149
856.0, 0.004355826255726762
857.0, 0.0057326682075042705
858.0, 0.006684751661513833
859.0, 0.005597411598846311
860.0, 0.005629690666829175
861.0, 0.006741061452385788
862.0, 0.007402707831443172
863.0, 0.007760361307623558
864.0, 0.008526001420681717
865.0, 0.0093169009888192
866.0, 0.008742400699880963
867.0, 0.008330074780587232
868.0, 0.009081264247019168
869.0, 0.010585983582101846
870.0, 0.010748830148561062
871.0, 0.01127239039135227
872.0, 0.011981247206208967
873.0, 0.012116866634104839
874.0, 0.012169006814554855
875.0, 0.013122210509916958
876.0, 0.013292405769190555
877.0, 0.014101366739038765
878.0, 0.014558469573325844
879.0, 0.015201355381473125
880.0, 0.015745748792225314
881.0, 0.016171270924023415
882.0, 0.016565523282262625
883.0, 0.016848663081888
884.0, 0.017215927212417183
885.0, 0.0175698728689584
886.0, 0.017594599898899277
887.0, 0.017751788082283983
888.0, 0.01759894204987972
889.0, 0.01722928342103026
890.0, 0.01684949492003213
891.0, 0.01669710415796994
892.0, 0.01674315734187025
893.0, 0.015890641104487086
894.0, 0.016439091619649862
895.0, 0.01683949319722017
896.0, 0.016444525173812268
897.0, 0.016384839401468867
898.0, 0.016248065021946416
899.0, 0.015860166828611744
900.0, 0.015509670062625455
901.0, 0.015030211756341186
902.0, 0.01400221242545203
903.0, 0.013971501466855102
904.0, 0.012469105293610741
905.0, 0.013039618564019922
906.0, 0.012644793373572591
907.0, 0.011701060954716937
908.0, 0.011560252736825252
909.0, 0.011738551468981498
910.0, 0.010684285192879015
911.0, 0.010045450929653038
912.0, 0.01162336771632932
913.0, 0.00994492268868152
914.0, 0.010801584891464842
915.0, 0.010538824182280646
916.0, 0.01035934414888037
917.0, 0.010437816560044257
918.0, 0.010176296774246243
919.0, 0.010477809433140535
920.0, 0.009736909717140575
921.0, 0.010725126889344894
922.0, 0.011718585697298996
923.0, 0.011214482977820874
924.0, 0.011434985171876457
925.0, 0.011303455642015011
926.0, 0.010740400258023397
927.0, 0.010599189550022618
928.0, 0.010830363642361937
929.0, 0.011027312964206669
930.0, 0.01127676732917704
931.0, 0.010845581455144457
932.0, 0.009956282627269736
933.0, 0.009868350980042125
934.0, 0.009479769252648724
935.0, 0.009081127124817234
936.0, 0.008436584627759928
937.0, 0.007338127935111093
938.0, 0.008579682057485053
939.0, 0.007262129283158989
940.0, 0.00890043008906222
941.0, 0.00686632704056186
942.0, 0.007602532326782696
943.0, 0.007745855733920362
944.0, 0.007115824248296387
945.0, 0.00705416289060861
946.0, 0.007475138186343049
947.0, 0.007667704758159049
948.0, 0.00851173936388523
949.0, 0.009194885747504416
950.0, 0.009679514247148729
951.0, 0.010630212963349508
952.0, 0.012131109047783613
953.0, 0.012023615143148956
954.0, 0.012271168426938137
955.0, 0.013774919836327013
956.0, 0.013794839637401553
957.0, 0.01471677704502859
958.0, 0.015818788833928395
959.0, 0.014919688490586345
960.0, 0.0158341197323135
961.0, 0.016266941109041193
962.0, 0.015844334614367326
963.0, 0.01541104714760166
964.0, 0.016060951549326078
965.0, 0.017643813754246385
966.0, 0.018505896745092655
967.0, 0.018824815603288594
968.0, 0.020979883689696367
969.0, 0.020028776171765347
970.0, 0.020285711234571346
971.0, 0.021151841577753492
972.0, 0.02186080701785372
973.0, 0.022825735776026194
974.0, 0.0241008515873259
975.0, 0.024975577075698623
976.0, 0.025916944663263518
977.0, 0.027828838910750258
978.0, 0.029266182108868694
979.0, 0.03139441609519957
980.0, 0.031944966966713305
981.0, 0.03298291561891589
982.0, 0.035181317909935866
983.0, 0.03760861401895282
984.0, 0.039900951482150004
985.0, 0.042557437884721425
986.0, 0.044657559304963484
987.0, 0.049296307358175646
988.0, 0.05317611067112132
989.0, 0.057326303375787944
990.0, 0.06295781349592838
991.0, 0.06943119354488854
992.0, 0.07526496228694693
993.0, 0.0831136382514668
994.0, 0.09441180627465545
995.0, 0.10500384828603905
996.0, 0.11655400632868557
997.0, 0.13380767078706432
998.0, 0.15182846113931353
999.0, 0.1737418420203211
1000.0, 0.19977034170261432
1001.0, 0.23359824528905615
1002.0, 0.272516648655438
1003.0, 0.3181599356292767
1004.0, 0.3764796198709369
1005.0, 0.4481826570962444
1006.0, 0.5297401859861532
1007.0, 0.6199421128272082
1008.0, 0.7211643195064019
1009.0, 0.8200601673053053
1010.0, 0.9026732626762801
1011.0, 0.9643609757627442
1012.0, 0.9943182745535093
1013.0, 0.9829319078481328
1014.0, 0.9285407771843895
1015.0, 0.8380799924449268
1016.0, 0.7265818567440524
1017.0, 0.6104544241992784
1018.0, 0.5013220150707399
1019.0, 0.4085023146267714
1020.0, 0.33681485642015174
1021.0, 0.2828543591162322
1022.0, 0.24070548148535006
1023.0, 0.207581560482714
1024.0, 0.18151429390046375
1025.0, 0.1595403747279047
1026.0, 0.1420747534769517
1027.0, 0.1279770877988052
1028.0, 0.11658300738819019
1029.0, 0.10679220128429397
1030.0, 0.09867689481003607
1031.0, 0.09282343614660095
1032.0, 0.08756897150564558
1033.0, 0.08341594159186963
1034.0, 0.08057027777300246
1035.0, 0.07780815791346196
1036.0, 0.07548648028953753
1037.0, 0.07274378676698465
1038.0, 0.07085154512169631
1039.0, 0.06729164884672821
1040.0, 0.0667392905860347
1041.0, 0.06565002136628029
1042.0, 0.06399118995514444
1043.0, 0.0616290044401244
1044.0, 0.05847069514596327
1045.0, 0.05582421279055826
1046.0, 0.054437194507574574
1047.0, 0.05099853199379546
1048.0, 0.048995846011652154
1049.0, 0.04570976035718438
1050.0, 0.04354172435480256
1051.0, 0.04056785457319361
1052.0, 0.03909760294752863
1053.0, 0.037308924917823005
1054.0, 0.03507619692748769
1055.0, 0.03294457620543337
1056.0, 0.030850536954727607
1057.0, 0.029956774470234954
1058.0, 0.029099971768489972
1059.0, 0.027188737134266346
1060.0, 0.025570940500972788
1061.0, 0.0251861529728702
1062.0, 0.02394476476023214
1063.0, 0.02271996985865541
1064.0, 0.021916274398331416
1065.0, 0.021219593814259228
1066.0, 0.020237595912001825
1067.0, 0.018995262731946565
1068.0, 0.017980377882717103
1069.0, 0.017043953548142383
1070.0, 0.016694055806729835
1071.0, 0.015679572169490015
1072.0, 0.016343845208743043
1073.0, 0.016708689839004285
1074.0, 0.017076832400161772
1075.0, 0.015326366078033967
1076.0, 0.013991089882717628
1077.0, 0.014539186537473704
1078.0, 0.01343505043202912
1079.0, 0.013319181965862742
1080.0, 0.013848394625437832
1081.0, 0.014346172277082157
1082.0, 0.014720002313292692
1083.0, 0.014805944298559946
1084.0, 0.013558943640494245
1085.0, 0.013350740764402144
1086.0, 0.013222427994627587
1087.0, 0.013523377325015946
1088.0, 0.01383659470151793
1089.0, 0.012547257230117227
1090.0, 0.013527354743066246
1091.0, 0.013380627003280212
1092.0, 0.01308885777710198
1093.0, 0.011856892889128858
1094.0, 0.011847775182170709
1095.0, 0.012138952295811651
1096.0, 0.011738794511170476
1097.0, 0.011335073619009815
1098.0, 0.011078948232120979
1099.0, 0.010768655881737133
1100.0, 0.010512008886612254
1101.0, 0.009802440351502961
1102.0, 0.008798814185760822
1103.0, 0.0111236198128158
1104.0, 0.009750923022406415
1105.0, 0.010509704954736425
1106.0, 0.009675602178520312
1107.0, 0.008706870069926978
1108.0, 0.008662285155450469
1109.0, 0.009144145484824524
1110.0, 0.009358600896099812
1111.0, 0.009080321026820142
1112.0, 0.008752012844627295
1113.0, 0.00887225693488136
1114.0, 0.00867479123282245
1115.0, 0.009043984934675429
1116.0, 0.008057781531675844
1117.0, 0.007019617797556951
1118.0, 0.007199914504955326
1119.0, 0.007137143763877493
1120.0, 0.0076146324376748014
1121.0, 0.00799253108152886
1122.0, 0.00775520320620348
1123.0, 0.008188246393483282
1124.0, 0.008497198981972848
1125.0, 0.008266121961111761
1126.0, 0.008511018101967534
1127.0, 0.007916548378813377
1128.0, 0.007608540973596896
1129.0, 0.007334906395017397
1130.0, 0.006759651915199939
1131.0, 0.006398801264786641
1132.0, 0.0064906961252859715
1133.0, 0.006399622825034181
1134.0, 0.005962210688229196
1135.0, 0.006014423571540559
1136.0, 0.006322096631942435
1137.0, 0.00573500232544466
1138.0, 0.004485997217674772
1139.0, 0.004078564370590599
1140.0, 0.004319472538472577
1141.0, 0.0043450687781452415
1142.0, 0.0027926100694565838
1143.0, 0.0022858467280975074
1144.0, 0.002536341253166378
1145.0, 0.0023617708464136493
1146.0, 0.0025022978593528733
1147.0, 0.0031098320842172147
1148.0, 0.0022363052483150136
1149.0, 0.0012543233475119455
1150.0, 0.0011849958643833384
1151.0, 0.0015158862771196956
1152.0, 0.0005561683237145672
1153.0, 0.0010895521688030763
1154.0, 0.0014087837937862685
1155.0, 0.0006549111937630362
1156.0, 0.0002726067336541637
1157.0, 0.0003476536279224545
1158.0, 0.0003510110568129256
1159.0, 0.0007277426246788034
1160.0, 0.0004890528669639778
1161.0, 0.0004457264217717769
1162.0, 0.0011954750988723698
1163.0, 0.00039994966673380096
1164.0, 0.0006099812684303055
1165.0, 0.0006198121853341527
1166.0, 0.00024038586320251315
1167.0, 0.00020656708145937595
1168.0, 0.0005359453570890306
1169.0, 0.0004838770992289915
1170.0, 0.0004275548152195098
1171.0, 0.0009475497430015058
1172.0, 0.0008052753931186825
1173.0, 0.0005001952217499614
1174.0, 0.0010580289139915586
1175.0, 0.0002792739283313124
1176.0, 0.0006917583626628659
1177.0, 0.000614860666721988
1178.0, 0.0003306965552899358
1179.0, 0.0006172468509348703
1180.0, 0.0005519048696477449
1181.0, 0.0005895516534682801
1182.0, 0.0006904184293770996
1183.0, 0.0004064835185686782
1184.0, 0.0005277157355532211
1185.0, 0.0009574164080147128
1186.0, 0.00040710388234519183
1187.0, 0.0004592930609521033
1188.0, 0.0006990933355967526
1189.0, 0.00016277000494737364
1190.0, 0.0011158521423952673
1191.0, 0.000990288231336073
1192.0, 0.00038658724630043966
1193.0, 0.00034215479007205666
1194.0, 0.00038866019196532854
1195.0, 0.00022156684609817197
1196.0, 0.0003443645959329256
1197.0, 0.0006040333796588073
1198.0, 0.0003710756370837331
1199.0, 0.0005633199591521849
1200.0, 0.0007084368571110492
1201.0, 0.0002566876572300008
1202.0, 5.660783541925402e-05
1203.0, 0.0005212160204338147
1204.0, 0.0008371256994991195
1205.0, 0.0006439063588430595
1206.0, 0.0006395223871484314
1207.0, 0.00046958201803119624
1208.0, 0.00010688539293473648
1209.0, 0.0003002372255353538
1210.0, 0.0007210462158515265
1211.0, 0.0004341953306093388
1212.0, 0.0005819667580318423
1213.0, 3.204384083235954e-05
1214.0, 0.00039274931113281533
1215.0, 9.369247347335474e-05
1216.0, 0.0007300563100297894
1217.0, 0.001081823947483201
1218.0, 0.0017947949417403209
1219.0, 0.0022403716559031644
1220.0, 0.0013642497044499182
1221.0, 0.0013895679276507132
1222.0, 0.0022232780312424648
1223.0, 0.0012551309097923223
1224.0, 0.0007335662191625622
1225.0, 0.0013246340559299203
1226.0, 0.0008725934910694192
1227.0, 0.0025580657470070877
1228.0, 0.0011210710958891965
1229.0, 0.0011877800813570078
1230.0, 0.0017391728725024728
1231.0, 0.0010615361462755516
1232.0, 0.0012568547316179803
1233.0, 0.0008852111475230645
1234.0, 0.00037830818719467615
1235.0, 0.0008091545183560375
1236.0, 0.001259726779440205
1237.0, 0.001005077924566479
1238.0, 0.0011744388930204706
1239.0, 0.0023836184625735547
1240.0, 0.002492621945797765
1241.0, 0.002167467525657928
1242.0, 0.0023291195969661386
1243.0, 0.002034177638203485
1244.0, 0.0025554381690925353
1245.0, 0.0022976394065691483
1246.0, 0.002555508876310102
1247.0, 0.0030388008383904716
1248.0, 0.0029173771378402254
1249.0, 0.0026955612387742542
1250.0, 0.002617845760008081
1251.0, 0.002270862446028829
1252.0, 0.002332590176435155
1253.0, 0.002307423782557036
1254.0, 0.0022832006629053456
1255.0, 0.00227336470297797
1256.0, 0.0021355326795080495
1257.0, 0.002915674992610841
1258.0, 0.002815163365178875
1259.0, 0.002188080879364578
1260.0, 0.0030765213637097668
1261.0, 0.0030892948248849262
1262.0, 0.003078612822464955
1263.0, 0.003386468955621877
1264.0, 0.003418996430794932
1265.0, 0.003379450844329014
1266.0, 0.002855780903874465
1267.0, 0.0026929233042755564
1268.0, 0.0027247021551655456
1269.0, 0.0028331965339599514
1270.0, 0.0024348990371213927
1271.0, 0.0026578887675878186
1272.0, 0.0021237972386106713
1273.0, 0.002637336114084806
1274.0, 0.003645208800054884
1275.0, 0.003633677880951207
1276.0, 0.00310554784884314
1277.0, 0.0026460607215705485
1278.0, 0.0023723451094975856
1279.0, 0.0023434947805226584
1280.0, 0.0026151480992894238
1281.0, 0.0030861385912889496
1282.0, 0.0032535827170019267
1283.0, 0.003551275832003298
1284.0, 0.003947514476057056
1285.0, 0.0022812511467691565
1286.0, 0.0029468700427025237
1287.0, 0.0028762657586885333
1288.0, 0.001971271413525222
1289.0, 0.002893360484033756
1290.0, 0.0032027729510970913
1291.0, 0.0032476109838532083
1292.0, 0.0034149717633217363
1293.0, 0.003599162813018964
1294.0, 0.003682744253764962
1295.0, 0.0035622342511569924
1296.0, 0.0033995332315382935
1297.0, 0.003028201591784874
1298.0, 0.0031078077191336656
1299.0, 0.0024618460070227758
1300.0, 0.0023719642835146855
1301.0, 0.002477339279233986
1302.0, 0.0024731297480076334
1303.0, 0.002595555514342018
1304.0, 0.0031037503983255203
1305.0, 0.002985539773954508
1306.0, 0.00290880682305284
1307.0, 0.0027867735658308026
1308.0, 0.0029069281539152426
1309.0, 0.0028606329731002194
1310.0, 0.0023444330758230747
1311.0, 0.0022801287614310404
1312.0, 0.0027116318411013513
1313.0, 0.0031549964124324113
1314.0, 0.003259833273055413
1315.0, 0.002562781980243098
1316.0, 0.0027734801868740735
1317.0, 0.003191431151024024
1318.0, 0.0025641895843757415
1319.0, 0.0026082903690563455
1320.0, 0.0024186488777051037
1321.0, 0.0023643392654000045
1322.0, 0.0027205116709716503
1323.0, 0.003956169225193353
1324.0, 0.004039711184947434
1325.0, 0.0032448944265990954
1326.0, 0.002492547826445131
1327.0, 0.002307606183652825
1328.0, 0.003948094829585764
1329.0, 0.0033543741433325683
1330.0, 0.003656170347036217
1331.0, 0.002634761963680199
1332.0, 0.003059445779997649
1333.0, 0.0034020420373507827
1334.0, 0.004142090215095676
1335.0, 0.004005622381998515
1336.0, 0.0037776806936508514
1337.0, 0.003596950747735456
1338.0, 0.0034388564482319096
1339.0, 0.0033474566807923413
1340.0, 0.0031739750531506205
1341.0, 0.0024427670294651363
1342.0, 0.0025315765156778704
1343.0, 0.002934573405665194
1344.0, 0.0019474383474915036
1345.0, 0.002221106546858555
1346.0, 0.00294380804275407
1347.0, 0.003396559157810516
1348.0, 0.003163156924871161
1349.0, 0.003012574022060197
1350.0, 0.0023668448336974625
1351.0, 0.003441930507594285
1352.0, 0.003754615183978996
1353.0, 0.0030867651307599064
1354.0, 0.0022145889405909614
1355.0, 0.0029940957083646105
1356.0, 0.0027816487280235133
1357.0, 0.0028498587096204577
1358.0, 0.002782380086900316
1359.0, 0.002302257846145614
1360.0, 0.0021903971252750405
1361.0, 0.0024954897429016795
1362.0, 0.0030258615781891744
1363.0, 0.0022327986659035366
1364.0, 0.002712286463032664
1365.0, 0.0031387749137291093
1366.0, 0.0017846668263516192
1367.0, 0.0022540571017835033
1368.0, 0.002301560991340272
1369.0, 0.0033880059475986904
1370.0, 0.0027330948363701235
1371.0, 0.0019993283034890146
1372.0, 0.0025449633061887284
1373.0, 0.002559354354906081
1374.0, 0.0019995234901079347
1375.0, 0.0022278971269777967
1376.0, 0.002757371631220176
1377.0, 0.002378218935653404
1378.0, 0.0021382046682028237
1379.0, 0.002448665901219593
1380.0, 0.0017349755874349114
1381.0, 0.0015744942423605093
1382.0, 0.0026482944452310034
1383.0, 0.0026405817773841917
1384.0, 0.003250238122963326
1385.0, 0.0019676888182777025
1386.0, 0.0015257486183924902
1387.0, 0.0014934633761939566
1388.0, 0.001186552434553129
1389.0, 0.0016573768601400663
1390.0, 0.0012839446540454285
1391.0, 0.0010527890568591167
1392.0, 0.0006147089765239897
1393.0, 0.0005775573230126179
1394.0, 0.001313968871778565
1395.0, 0.00177490630223635
1396.0, 0.0017592815046645796
1397.0, 0.0022964735162746405
1398.0, 0.0026783942016259544
1399.0, 0.0021274065632784747
1400.0, 0.0022340549643455453
1401.0, 0.0012825421994579257
1402.0, 0.0018370178814742992
1403.0, 0.0021520058007810103
1404.0, 0.0026636654402717188
1405.0, 0.001942603969146515
1406.0, 0.0008669401075161421
1407.0, 0.002084689830517759
1408.0, 0.0014001004212490103
1409.0, 0.0002971654866600632
1410.0, 0.0007161274264185966
1411.0, 0.00036525730527687465
1412.0, 9.155149423085468e-05
1413.0, 0.0004098455895766531
1414.0, 0.0011867571226598637
1415.0, 0.001239154391408663
1416.0, 0.0008172310533904306
1417.0, 0.0009771529402668186
1418.0, 0.0008196619732838106
1419.0, 0.0005513948348589853
1420.0, 0.0015561859042031018
1421.0, 0.0011537716857626518
1422.0, 0.0002669634975221083
1423.0, 0.0009386828979206437
1424.0, 0.0004918030048291263
1425.0, 0.0020682580856529837
1426.0, 0.0010823084642130245
1427.0, 0.0010934044242383453
1428.0, 0.0013024919942070385
1429.0, 0.0008584895237676714
1430.0, 0.0008155044063292902
1431.0, 0.0008653977516697932
1432.0, 0.0007589781310418787
1433.0, 0.000623606241033545
1434.0, 0.0008125742523704304
1435.0, 0.0011842925229293552
1436.0, 0.0011265156688680781
1437.0, 0.0010423382650131278
1438.0, 0.001088203786042875
1439.0, 0.0007883261352620587
1440.0, 0.000735949808346964
1441.0, 0.0007682703881686645
1442.0, 0.0007965025536863741
1443.0, 0.0009970877362633556
1444.0, 0.0012720995661020188
1445.0, 0.0022545167556696833
1446.0, 0.0016081297807940776
1447.0, 0.0014415513492889924
1448.0, 0.0015483958139181665
1449.0, 0.0006078769342247974
1450.0, 0.0009094059420613781
1451.0, 0.0009314751902130449
1452.0, 0.00034678235538986545
1453.0, 0.00048022536269420234
1454.0, 0.0010227922834791408
1455.0, 0.0007478856937004575
1456.0, 0.0006271826352287871
1457.0, 0.0009628719667911742
1458.0, 0.0007932281297714424
1459.0, 0.0010893025858093029
1460.0, 0.0014688485287320905
1461.0, 0.0006087984618735934
1462.0, 0.0003733278721494872
1463.0, 0.0005357129744433902
1464.0, 0.000178081430563748
1465.0, 0.0005730694932030615
1466.0, 0.0015143975785228189
1467.0, 0.0014968512309605638
1468.0, 0.0016811507429586557
1469.0, 0.0012834506270656295
1470.0, 0.001927413221955515
1471.0, 0.0010287487513891132
1472.0, 0.0015208603821002498
1473.0, 0.0007405200354443956
1474.0, 0.0009986654262473138
1475.0, 0.00034280491940050234
1476.0, 0.0005817093114591163
1477.0, 0.0006159701177582454
1478.0, 0.0006205945036652769
1479.0, 0.000773460166297016
1480.0, 0.0007056108773659259
1481.0, 0.00034453348519929627
1482.0, 0.0004827974122752911
1483.0, 0.0012187233303688086
1484.0, 0.00136442273770421
1485.0, 0.0010101059463471392
1486.0, 0.0007883513997514597
1487.0, 0.00035915953363835915
1488.0, 0.0010570907230289836
1489.0, 0.0006225782330031701
1490.0, 0.0005732992260180604
1491.0, 0.0012665165199294357
1492.0, 0.0006961845238366489
1493.0, 0.0010165419415600018
1494.0, 0.0007210571654267712
1495.0, 0.0003453291130355066
1496.0, 0.0010073095875987675
1497.0, 0.0008341361476604992
1498.0, 0.0015428165747371607
1499.0, 0.001479745407176504
1500.0, 0.001014435403847889
1501.0, 0.0012891768456176407
1502.0, 0.001315042232503095
1503.0, 0.0009857110387321993
1504.0, 0.0007718975850030849
1505.0, 0.0010256643909135877
1506.0, 0.000880664934598248
1507.0, 0.000954545587107904
1508.0, 0.0011176022523309219
1509.0, 0.0007743443377412915
1510.0, 0.0013357738891039005
1511.0, 0.0018012976267422348
1512.0, 0.0009605218922129153
1513.0, 0.001279906085589223
1514.0, 0.0005208056715028594
1515.0, 0.00014543786871343563
1516.0, 0.0003936493627603483
1517.0, 0.0007761113807901912
1518.0, 0.0007353763454777532
1519.0, 0.0013031968698653713
1520.0, 0.0015838799038582793
1521.0, 0.0012779125488268245
1522.0, 0.0006096062897537798
1523.0, 0.0007933596352269853
1524.0, 0.001324267478876949
1525.0, 0.000575323755786358
1526.0, 0.0013526966703899784
1527.0, 0.0010141610545365556
1528.0, 0.0005648377112325114
1529.0, 0.0010710156616210375
1530.0, 0.0011404497676808791
1531.0, 0.0008071030121250764
1532.0, 0.0006363180193741543
1533.0, 0.0008976955063399902
1534.0, 0.000527350567444487
1535.0, 0.0005705699195777355
1536.0, 0.000882307986360985
1537.0, 0.0009442696200642836
1538.0, 0.0012720878844716412
1539.0, 0.0012440307735699172
1540.0, 0.0007805868989955557
1541.0, 0.0009108380397904784
1542.0, 0.0016373008356706023
1543.0, 0.0008778596237549198
1544.0, 0.0013041728180837196
1545.0, 0.0004266767247201103
1546.0, 0.0008476455899348348
1547.0, 0.001344475338387461
1548.0, 0.0016014147245178726
1549.0, 0.0013578286965871223
1550.0, 0.0019547051419626362
1551.0, 0.0016566234944918614
1552.0, 0.0021831260669843994
1553.0, 0.002074145254238301
1554.0, 0.0026094902457251623
1555.0, 0.001989770593733851
1556.0, 0.0019482365316053026
1557.0, 0.0017057691261455768
1558.0, 0.0006502479878522955
1559.0, 0.0008741947322901938
1560.0, 0.001119120653336295
1561.0, 0.0003505811376813006
1562.0, 0.0006146088668436263
1563.0, 0.0003281225417106119
1564, 0.0
1565, 0.0
1566, 0.0
1567, 0.0
1568, 0.0
1569, 0.0
1570, 0.0
1571, 0.0
1572, 0.0
1573, 0.0
1574, 0.0
1575, 0.0
1576, 0.0
1577, 0.0
1578, 0.0
1579, 0.0
1580, 0.0
1581, 0.0
1582, 0.0
1583, 0.0
1584, 0.0
1585, 0.0
1586, 0.0
1587, 0.0
1588, 0.0
1589, 0.0
1590, 0.0
1591, 0.0
1592, 0.0
1593, 0.0
1594, 0.0
1595, 0.0
1596, 0.0
1597, 0.0
1598, 0.0
1599, 0.0
