30, 0.0
31, 0.0
32, 0.0
33, 0.0
34, 0.0
35, 0.0
36, 0.0
37, 0.0
38, 0.0
39, 0.0
40, 0.0
41, 0.0
42, 0.0
43, 0.0
44, 0.0
45, 0.0
46, 0.0
47, 0.0
48, 0.0
49, 0.0
50, 0.0
51, 0.0
52, 0.0
53, 0.0
54, 0.0
55, 0.0
56, 0.0
57, 0.0
58, 0.0
59, 0.0
60, 0.0
61, 0.0
62, 0.0
63, 0.0
64, 0.0
65, 0.0
66, 0.0
67, 0.0
68, 0.0
69, 0.0
70, 0.0
71, 0.0
72, 0.0
73, 0.0
74, 0.0
75, 0.0
76, 0.0
77, 0.0
78, 0.0
79, 0.0
80, 0.0
81, 0.0
82, 0.0
83, 0.0
84, 0.0
85, 0.0
86, 0.0
87, 0.0
88, 0.0
89, 0.0
90, 0.0
91, 0.0
92, 0.0
93, 0.0
94, 0.0
95, 0.0
96, 0.0
97, 0.0
98, 0.0
99, 0.0
100, 0.0
101, 0.0
102, 0.0
103, 0.0
104, 0.0
105, 0.0
106, 0.0
107, 0.0
108, 0.0
109, 0.0
110, 0.0
111, 0.0
112, 0.0
113, 0.0
114, 0.0
115, 0.0
116, 0.0
117, 0.0
118, 0.0
119, 0.0
120, 0.0
121, 0.0
122, 0.0
123, 0.0
124, 0.0
125, 0.0
126, 0.0
127, 0.0
128, 0.0
129, 0.0
130, 0.0
131, 0.0
132, 0.0
133, 0.0
134.0, 0.00046077727272915057
135.0, 0.011306441470157398
136.0, 0.038621591455567754
137.0, 0.07577279517537769
138.0, 0.12042143076041255
139.0, 0.17129858876173587
140.0, 0.2088244821797765
141.0, 0.21863181908539014
142.0, 0.1912280786245737
143.0, 0.1356155066887422
144.0, 0.08456595963753707
145.0, 0.04966709779479759
146.0, 0.030233425078184814
147.0, 0.024881161404685326
148.0, 0.02772395232852983
149.0, 0.033328608432949186
150.0, 0.040174139533124056
151.0, 0.052598282718552276
152.0, 0.05554457153470959
153.0, 0.05663995187808976
154.0, 0.055821047480704475
155.0, 0.05477696981438889
156.0, 0.05167911766771868
157.0, 0.05037773880727416
158.0, 0.04825993404252362
159.0, 0.04188868610922731
160.0, 0.03471153139075922
161.0, 0.03149604103704414
162.0, 0.030928935079367788
163.0, 0.030852882701526196
164.0, 0.030482785677203413
165.0, 0.03134891343432139
166.0, 0.03009953757721938
167.0, 0.0269664687883616
168.0, 0.02582300461440514
169.0, 0.02766801092567153
170.0, 0.030886225366559623
171.0, 0.03495038540538924
172.0, 0.03920449987142518
173.0, 0.04192708638536139
174.0, 0.04181720842260085
175.0, 0.04154667741965398
176.0, 0.04223659685600296
177.0, 0.04343672181709478
178.0, 0.04381304763196818
179.0, 0.0444404370364225
180.0, 0.04598176133840219
181.0, 0.048262118820201365
182.0, 0.050769364004030364
183.0, 0.044239298353938944
184.0, 0.031670150262318626
185.0, 0.021566703141093168
186.0, 0.016441268737742407
187.0, 0.012239529796263528
188.0, 0.009920358114145083
189.0, 0.010504405212212823
190.0, 0.012683241229930137
191.0, 0.014580009428986233
192.0, 0.01824491923394362
193.0, 0.02314654061100388
194.0, 0.026815795698025273
195.0, 0.032346577935175716
196.0, 0.03595644058566912
197.0, 0.03223441782883488
198.0, 0.020819709995751244
199.0, 0.010089658014539234
200.0, 0.0017513856549961917
201.0, 0.002999122209631652
202.0, 0.002676388089555415
203.0, 0.004272567657123431
204.0, 0.007280774329578883
205.0, 0.008331941156109534
206.0, 0.008342015328918715
207.0, 0.009207272610585208
208.0, 0.0096991350546359
209.0, 0.007995097495828756
210.0, 0.006500758912453685
211.0, 0.005891265134088839
212.0, 0.0038956180080967195
213.0, 0.0012063790824044648
214.0, 0.00174386511832239
215.0, 0.0037325783641740796
216.0, 0.004768532433826745
217.0, 0.009318712355333521
218.0, 0.009168749825802522
219.0, 0.010338965353002634
220.0, 0.014953697858965534
221.0, 0.015314428318371681
222.0, 0.018003433515296798
223.0, 0.02356207176477737
224.0, 0.029057593238798196
225.0, 0.032349993673589324
226.0, 0.039918718240851706
227.0, 0.04801189305625169
228.0, 0.05850583415083989
229.0, 0.06968487565360325
230.0, 0.07356178268008005
231.0, 0.0721780700877784
232.0, 0.061933756208605605
233.0, 0.04901290321603805
234.0, 0.04184316453380119
235.0, 0.032428839175260044
236.0, 0.02665692397945
237.0, 0.02391213000201603
238.0, 0.02224845155947015
239.0, 0.020557968001030838
240.0, 0.020237377954672783
241.0, 0.02000200847163125
242.0, 0.01952839687566069
243.0, 0.01919489278082211
244.0, 0.018925884801077417
245.0, 0.02018477432314446
246.0, 0.021158778388757852
247.0, 0.022031197211071205
248.0, 0.025987597953296308
249.0, 0.027643556914993424
250.0, 0.030568525643718016
251.0, 0.035613569478502895
252.0, 0.041439658932334644
253.0, 0.0460284854793884
254.0, 0.05296198402665323
255.0, 0.0573510131586644
256.0, 0.0559574256406009
257.0, 0.04932307024094905
258.0, 0.03723307776381142
259.0, 0.027244059104748117
260.0, 0.020112698520779505
261.0, 0.014142163412500866
262.0, 0.011510809363157005
263.0, 0.007460359873581464
264.0, 0.004540917511641743
265.0, 0.003400522128850999
266.0, 0.0019346183973230893
267.0, 0.0004434587523413558
268.0, 0.0008592485680052836
269.0, 0.0012705228806966658
270.0, 0.00067863781780598
271.0, 0.0020291344546863464
272.0, 0.0022834673316269524
273.0, 0.001799142957542859
274.0, 0.0017232011221433364
275.0, 0.0019506353771653975
276.0, 0.00020986822633365623
277.0, 0.0005235786489389151
278.0, 0.0022644191226394686
279.0, 0.0030697760035404155
280.0, 0.0022013858174250753
281.0, 0.0023421238518206745
282.0, 0.004044691166646132
283.0, 0.006590381988416769
284.0, 0.007738726219435661
285.0, 0.003746895660246878
286.0, 0.0008088463256564928
287.0, 0.0010451651187194163
288.0, 0.0012834834424011753
289.0, 0.0002921496277606912
290.0, 0.0007835179903005516
291.0, 0.000909099393902227
292.0, 0.0009522508781155825
293.0, 0.0018102983857401387
294.0, 0.0036016682835958674
295.0, 0.005906081806692352
296.0, 0.010481946365173262
297.0, 0.015334373187665737
298.0, 0.019227797893785988
299.0, 0.02553133024234179
300.0, 0.028644501480593755
301.0, 0.03421290812210244
302.0, 0.042362436399401265
303.0, 0.0488643248084679
304.0, 0.05332086826691799
305.0, 0.06029453520272757
306.0, 0.0676225720362645
307.0, 0.07381083546792624
308.0, 0.08069874721277669
309.0, 0.09059761032255964
310.0, 0.10171503317640548
311.0, 0.11295853370212405
312.0, 0.12433323763720865
313.0, 0.13653496498791262
314.0, 0.14946377136929592
315.0, 0.1613849126928615
316.0, 0.1741048530022536
317.0, 0.19011847398079978
318.0, 0.20913785544265326
319.0, 0.22839728553891075
320.0, 0.2528081210770919
321.0, 0.28006573317926203
322.0, 0.30217342797832036
323.0, 0.31833534626478244
324.0, 0.32482311777198825
325.0, 0.3166199260646828
326.0, 0.29335056678114974
327.0, 0.25832208433558024
328.0, 0.21599833842428828
329.0, 0.1781411331391674
330.0, 0.14556836512693055
331.0, 0.11702435640883055
332.0, 0.09515661692789845
333.0, 0.07587537489125212
334.0, 0.05985597948546001
335.0, 0.04780335219122779
336.0, 0.0395372015954715
337.0, 0.033664460499883156
338.0, 0.02743790985564073
339.0, 0.02437012011992895
340.0, 0.023712855456364163
341.0, 0.021939382275162303
342.0, 0.0205498932907346
343.0, 0.021406437349389733
344.0, 0.023466575667587298
345.0, 0.02553260489525074
346.0, 0.028234236199342788
347.0, 0.035228886199502187
348.0, 0.0431281357802024
349.0, 0.05002460320697473
350.0, 0.05679045021713274
351.0, 0.0654820123141813
352.0, 0.07575672390843305
353.0, 0.08798089983254752
354.0, 0.10146678601153969
355.0, 0.1151324422620357
356.0, 0.12804906955761877
357.0, 0.13502128792144089
358.0, 0.1387712177755911
359.0, 0.13745068348646605
360.0, 0.13106519221900467
361.0, 0.12628317004600956
362.0, 0.1181313709155591
363.0, 0.10909655483911669
364.0, 0.10016836118233165
365.0, 0.09178778948048974
366.0, 0.08615687634539529
367.0, 0.08430290752636982
368.0, 0.08194420663874773
369.0, 0.0766795592642738
370.0, 0.06856336517850108
371.0, 0.06294117122717956
372.0, 0.06133015636799773
373.0, 0.06267889201857338
374.0, 0.06695219137654937
375.0, 0.07346919234605016
376.0, 0.07870470566863216
377.0, 0.0874877760796224
378.0, 0.10028505367306034
379.0, 0.11337000653208565
380.0, 0.12341704560197009
381.0, 0.13597574085124423
382.0, 0.14954527504308018
383.0, 0.16768697890528483
384.0, 0.19068354631227605
385.0, 0.2152234036846204
386.0, 0.2424535269768455
387.0, 0.27379532210533947
388.0, 0.3056312340428548
389.0, 0.33335692503132575
390.0, 0.352343101435858
391.0, 0.3560370428605776
392.0, 0.3416099932631964
393.0, 0.3075368350251482
394.0, 0.26151025854797477
395.0, 0.21693290285924188
396.0, 0.17630269907160295
397.0, 0.13988001259296604
398.0, 0.10773105652797746
399.0, 0.08128807461610153
400.0, 0.0626586167300168
401.0, 0.04670270820803533
402.0, 0.037131748017068006
403.0, 0.02910818896665882
404.0, 0.02113472099801924
405.0, 0.01747804197399765
406.0, 0.01437137066608281
407.0, 0.010946040971666227
408.0, 0.007446889938018583
409.0, 0.0043390757782714486
410.0, 0.0018792588448247713
411.0, 0.000299484825395431
412.0, 0.0007792649047369765
413.0, 0.0005318543849456969
414.0, 0.0009259249807010407
415.0, 0.001641250766135918
416.0, 0.000653269958067462
417.0, 0.0006047657426981624
418.0, 0.001424945213111313
419.0, 0.0022919037664101945
420.0, 0.001568184490691644
421.0, 0.00243525035428588
422.0, 0.0018782086052030907
423.0, 0.001292558232188797
424.0, 0.000871148902018863
425.0, 0.0009341796246648731
426.0, 0.000911952526611083
427.0, 0.0005659280891687703
428.0, 0.0015352282345453077
429.0, 0.0012277163515092933
430.0, 0.0008294551911541083
431.0, 0.0008243644540518547
432.0, 0.001990168594978274
433.0, 0.0027822442462574117
434.0, 0.0018657811692902985
435.0, 0.002168575946989163
436.0, 0.001573415100389288
437.0, 0.0021841020111356027
438.0, 0.0008426389470363656
439.0, 0.0007427386959203918
440.0, 0.0009595371188045457
441.0, 0.0013718626613621377
442.0, 0.0019623171600854973
443.0, 0.0014552650648151895
444.0, 0.0010831832794036707
445.0, 0.0014282850727262983
446.0, 0.00021748518245399677
447.0, 0.0024906957461278373
448.0, 0.0023828427119068477
449.0, 0.0025189015918322625
450.0, 0.004998858753254778
451.0, 0.005797402841558588
452.0, 0.007842689437469323
453.0, 0.010299299454155095
454.0, 0.011009004507603913
455.0, 0.01125216837058695
456.0, 0.014829475593395586
457.0, 0.015200701647035313
458.0, 0.015832963961658023
459.0, 0.017840215480640836
460.0, 0.019821130226143978
461.0, 0.02036771501294743
462.0, 0.021136800661445604
463.0, 0.0201798698798878
464.0, 0.021464754075568006
465.0, 0.0223556253071182
466.0, 0.01804656866471718
467.0, 0.017348250379371107
468.0, 0.013082123078687011
469.0, 0.010296431910147194
470.0, 0.009748378958640898
471.0, 0.008784379217517404
472.0, 0.006855873259246945
473.0, 0.005806151808734619
474.0, 0.0053261745803915555
475.0, 0.0032147395129912605
476.0, 0.00024100975577909267
477.0, 0.0013775878698061373
478.0, 0.0019929522449274205
479.0, 0.0019498307146342492
480.0, 0.00245301269439115
481.0, 0.0039462103264365726
482.0, 0.004832424055352083
483.0, 0.00418559609405216
484.0, 0.003047796029202945
485.0, 0.0007523847972858383
486.0, 0.0007964988520379232
487.0, 0.0011705198093317768
488.0, 0.0006901612765889299
489.0, 0.0002281233754952033
490.0, 8.173068491757658e-05
491.0, 0.0006604169734239923
492.0, 0.004114769437817477
493.0, 0.006102079020534083
494.0, 0.004645031596360547
495.0, 0.0053404994713770245
496.0, 0.008771146785130841
497.0, 0.012769054337852337
498.0, 0.015745918495729146
499.0, 0.01582279454665943
500.0, 0.01992360707885282
501.0, 0.023219481487574852
502.0, 0.025051980394793037
503.0, 0.028775964553132038
504.0, 0.030736408563539225
505.0, 0.03535167339417959
506.0, 0.04157371180884648
507.0, 0.04687902711883421
508.0, 0.04907446732358609
509.0, 0.04798514750568053
510.0, 0.04548087452182188
511.0, 0.03795032021176051
512.0, 0.029534263551605242
513.0, 0.025431670896292235
514.0, 0.02589958250024513
515.0, 0.025100412926344146
516.0, 0.02231798527300571
517.0, 0.018856313742391374
518.0, 0.016780542587289372
519.0, 0.0156480641670602
520.0, 0.00806285985439604
521.0, 0.006146241416154469
522.0, 0.005741040064632933
523.0, 0.005528068993466944
524.0, 0.0048811471415310765
525.0, 0.0026234555671700503
526.0, 0.005061719686781253
527.0, 0.0077321694106863145
528.0, 0.007903685749344712
529.0, 0.006442784901139166
530.0, 0.0062295592089749606
531.0, 0.009778804660090014
532.0, 0.008499830651630076
533.0, 0.009566055361749762
534.0, 0.008963982544134566
535.0, 0.004472229296712392
536.0, 0.0038143906829633013
537.0, 0.001932714524799076
538.0, 0.002358574074308172
539.0, 0.0009413757158459829
540.0, 0.0030048463335800493
541.0, 0.0012629815326986313
542.0, 0.0004985537998823086
543.0, 0.0020647090772777555
544.0, 0.007191705362103529
545.0, 0.01033073930343846
546.0, 0.0104127653830403
547.0, 0.013990543699424445
548.0, 0.015038548854553701
549.0, 0.01670140619594135
550.0, 0.020558102711714606
551.0, 0.023186196439374775
552.0, 0.023062003548824875
553.0, 0.028134080970650132
554.0, 0.029742470510662405
555.0, 0.032479075267916976
556.0, 0.03745706745656251
557.0, 0.0444927588039701
558.0, 0.0530772789706038
559.0, 0.05415967449874884
560.0, 0.051548070356437874
561.0, 0.04692186882198564
562.0, 0.04113321396851857
563.0, 0.034743680740005715
564.0, 0.02759337520266169
565.0, 0.02114064438082633
566.0, 0.016854230430790765
567.0, 0.015133647587362145
568.0, 0.014267425773259524
569.0, 0.012469469488874457
570.0, 0.012221487027296783
571.0, 0.010770586993392995
572.0, 0.009735451832087284
573.0, 0.010786949743294949
574.0, 0.012094071179048265
575.0, 0.010157326921369473
576.0, 0.011840443223296854
577.0, 0.014170203133044517
578.0, 0.01339394515135103
579.0, 0.012109153059513572
580.0, 0.013329530240117175
581.0, 0.013291566418367694
582.0, 0.01360254087082743
583.0, 0.01534414729433076
584.0, 0.012406540244109749
585.0, 0.007323110823135674
586.0, 0.00830092668642812
587.0, 0.011754864847976868
588.0, 0.007050815649274687
589.0, 0.006068750289997319
590.0, 0.006659805106418686
591.0, 0.0051847260134409235
592.0, 0.005305809442700816
593.0, 0.006113810456012274
594.0, 0.008370780174739734
595.0, 0.004969814152182379
596.0, 0.005235184083241743
597.0, 0.012308247462569156
598.0, 0.007420207844003146
599.0, 0.006837492717168981
600.0, 0.0035022336748537657
601.0, 0.0015614431029346788
602.0, 0.001630966522909466
603.0, 0.0010355211683881944
604.0, 0.0016108892438111947
605.0, 0.001341395106366676
606.0, 0.0007449833006766063
607.0, 0.002889138007559979
608.0, 0.004614927189914714
609.0, 0.0019120290544041817
610.0, 0.0017526192483359542
611.0, 0.0006925630192260711
612.0, 0.0008722864969829125
613.0, 0.00345636998543664
614.0, 0.002821754554189412
615.0, 0.0021970525899813543
616.0, 0.0038294498288297583
617.0, 0.0017573911449987587
618.0, 0.0024949466897877543
619.0, 0.0025931921193342736
620.0, 0.0016759071715359312
621.0, 0.002861119579307394
622.0, 0.0016580909497548929
623.0, 0.0016647022241338574
624.0, 0.0020171025488942554
625.0, 0.0042062194120946125
626.0, 0.0069973072215187004
627.0, 0.008225674187590048
628.0, 0.003535340655515814
629.0, 0.0037796764449645284
630.0, 0.008336479217645876
631.0, 0.013537501637264871
632.0, 0.017110580377145634
633.0, 0.01829283543576185
634.0, 0.019063907119470702
635.0, 0.02033715524105348
636.0, 0.02048986885753599
637.0, 0.02166017395766809
638.0, 0.02445216350315255
639.0, 0.023653504054741984
640.0, 0.02381254268511775
641.0, 0.0302073241922306
642.0, 0.03621672626467043
643.0, 0.04194818925937007
644.0, 0.0511630727914877
645.0, 0.06206901502337463
646.0, 0.0741403143409932
647.0, 0.08867691120390382
648.0, 0.10687454221807664
649.0, 0.12501035178327768
650.0, 0.14382090763716585
651.0, 0.17416144150015966
652.0, 0.20725536111262993
653.0, 0.24624315559408114
654.0, 0.2836035584562701
655.0, 0.32256917451176154
656.0, 0.36732665746034654
657.0, 0.413368042956909
658.0, 0.47168161606810455
659.0, 0.5305762811871395
660.0, 0.5952236137289095
661.0, 0.6634008907378767
662.0, 0.7305829008943807
663.0, 0.7976839231910738
664.0, 0.8556263542463228
665.0, 0.891923322698434
666.0, 0.9017215902406593
667.0, 0.8760531369250988
668.0, 0.811857821737927
669.0, 0.7201826374863535
670.0, 0.6166648030940697
671.0, 0.5074328950414189
672.0, 0.4121322275010245
673.0, 0.3401502711660905
674.0, 0.28229803679583937
675.0, 0.22757087898745895
676.0, 0.18642799594888065
677.0, 0.15359285588347804
678.0, 0.1265563934132098
679.0, 0.10418384531315578
680.0, 0.08713121686435885
681.0, 0.07351111561750136
682.0, 0.06103387504428421
683.0, 0.05108780375815915
684.0, 0.04052954588697591
685.0, 0.03283270521105601
686.0, 0.02810169862570738
687.0, 0.02351918910860254
688.0, 0.020986389855885766
689.0, 0.017182685463805726
690.0, 0.01323476399584768
691.0, 0.009243678544627714
692.0, 0.0061998584750170335
693.0, 0.004660084034388419
694.0, 0.0031617571717601645
695.0, 0.002622164511281596
696.0, 0.004795401192075598
697.0, 0.009075365819396516
698.0, 0.010843341366136152
699.0, 0.010218096878060114
700.0, 0.011678509141485298
701.0, 0.008953632365571226
702.0, 0.007206305869429949
703.0, 0.00954165124610149
704.0, 0.008341673617498602
705.0, 0.0042589383155958865
706.0, 0.005307027157051546
707.0, 0.0042835238888557885
708.0, 0.0037445207814210024
709.0, 0.001034278644978962
710.0, 0.0004474981566320397
711.0, 0.00035216358743981056
712.0, 0.0009065896185891146
713.0, 0.0012831035118875116
714.0, 0.005165089234740639
715.0, 0.004036772417493207
716.0, 0.0033951129269607513
717.0, 0.0050585594759946515
718.0, 0.006311846543810748
719.0, 0.00449292933748245
720.0, 0.0025812858642067496
721.0, 0.0018355130758348653
722.0, 0.0007023431110025791
723.0, 0.0006393301083779633
724.0, 0.0005150291882091143
725.0, 0.000705801953201715
726.0, 0.0007970528276062572
727.0, 0.00020498590206301825
728.0, 0.004537536384937612
729.0, 0.002293498850132595
730.0, 0.0005015301641931189
731.0, 0.000782944940282331
732.0, 0.0013853142110817661
733.0, 0.0008177749913730623
734.0, 0.0017321068030106705
735.0, 0.003555232543389468
736.0, 0.002683527654863659
737.0, 0.002395040001447848
738.0, 0.0079136522514457
739.0, 0.011000259996890372
740.0, 0.016967446208721294
741.0, 0.010029109088841647
742.0, 0.01140216402220559
743.0, 0.014283185339761716
744.0, 0.009448358603514206
745.0, 0.011739821317169895
746.0, 0.013041278542581296
747.0, 0.008788829142808565
748.0, 0.002553568111684183
749.0, 0.0011254356102419632
750.0, 0.0015957064275408752
751.0, 0.0009168897385409549
752.0, 0.0005172966496084945
753.0, 0.003877530207782764
754.0, 0.004532294634398238
755.0, 0.000437798227282352
756.0, 0.002581091129299883
757.0, 0.003813601758736803
758.0, 0.008469705610396127
759.0, 0.006695964560479292
760.0, 0.01438970841257088
761.0, 0.014065701754105212
762.0, 0.014209617892621556
763.0, 0.018107254997243125
764.0, 0.018800939915731913
765.0, 0.015807223465291863
766.0, 0.009164810596593914
767.0, 0.006705538881952734
768.0, 0.005600275311471758
769.0, 0.006152374552492816
770.0, 0.007881393142846244
771.0, 0.008822125667101482
772.0, 0.009124983582581625
773.0, 0.012123246398969738
774.0, 0.018466875786559356
775.0, 0.015958253225706848
776.0, 0.010070301805185951
777.0, 0.0071068056299042415
778.0, 0.006115402486800188
779.0, 0.011504802699756787
780.0, 0.013267559384983718
781.0, 0.010264714117606133
782.0, 0.01199698166971504
783.0, 0.016785145393751415
784.0, 0.0193895686550857
785.0, 0.01963795439450071
786.0, 0.019507801775210765
787.0, 0.013463327160232814
788.0, 0.010019604102408134
789.0, 0.009428127338960417
790.0, 0.0108998508082924
791.0, 0.01068141285885832
792.0, 0.004130149999449628
793.0, 0.008677603925436901
794.0, 0.009831097506243024
795.0, 0.008003755976857254
796.0, 0.005620952180140798
797.0, 0.0015273964115200536
798.0, 0.0016229484206729118
799.0, 0.0016913059333520002
800.0, 0.005321240573426581
801.0, 0.007162713056044896
802.0, 0.004032689344269772
803.0, 0.0007755413987355074
804.0, 0.002330914071563801
805.0, 0.007352951632839364
806.0, 0.009291449014729574
807.0, 0.00605643841337668
808.0, 0.013910063518423759
809.0, 0.01523112821720751
810.0, 0.011645310765502181
811.0, 0.006094370175556174
812.0, 0.00036602975176820647
813.0, 0.00025427457105554635
814.0, 0.004292074122637225
815.0, 0.0007581186989102575
816.0, 0.000643997385439772
817.0, 0.002179819617290993
818.0, 0.004202000775937628
819.0, 0.0018701258530663598
820.0, 0.0011023541100899537
821.0, 0.0036870435681106723
822.0, 0.003337047264862946
823.0, 0.006718576049250237
824.0, 0.008314536551202132
825.0, 0.007876764473118627
826.0, 0.010763169000469799
827.0, 0.016620813131626788
828.0, 0.010499427415369918
829.0, 0.014205439867716
830.0, 0.01978891437722025
831.0, 0.02049012684889123
832.0, 0.019062427191893588
833.0, 0.01778753183959149
834.0, 0.015308748898897242
835.0, 0.01998833493670597
836.0, 0.012620437578035994
837.0, 0.01725570331817343
838.0, 0.018102042669878932
839.0, 0.022040417404225
840.0, 0.03355010154354461
841.0, 0.038017847878383915
842.0, 0.040425036448423816
843.0, 0.04181874164056058
844.0, 0.040484486678029424
845.0, 0.045316279186980266
846.0, 0.0505863429256498
847.0, 0.05106399992519587
848.0, 0.053708827260713986
849.0, 0.06348571411577614
850.0, 0.06878796725764857
851.0, 0.08475545006695326
852.0, 0.09731502214242975
853.0, 0.10334414075441568
854.0, 0.10754970813044641
855.0, 0.10912791317789577
856.0, 0.10110615962852257
857.0, 0.09000928748128804
858.0, 0.07326705554856859
859.0, 0.055052099755357374
860.0, 0.0456503202993411
861.0, 0.04040863392197901
862.0, 0.03068226751087321
863.0, 0.01958919374536801
864.0, 0.021506555926450274
865.0, 0.016095514087587897
866.0, 0.011871702665265957
867.0, 0.009280126517907971
868.0, 0.009755278069102744
869.0, 0.013250829126686861
870.0, 0.015147534799583395
871.0, 0.009699571789945719
872.0, 0.007984284697114288
873.0, 0.007085577979734066
874.0, 0.0029688804169804646
875.0, 0.0011913438467765069
876.0, 7.867014428477308e-05
877.0, 0.0034842441386205114
878.0, 0.002602582785933382
879.0, 0.000613671900209657
880.0, 0.0033057519584254063
881.0, 0.0011673755505754613
882.0, 0.00229212012904396
883.0, 0.0020284582850000872
884.0, 0.0032341763141990705
885.0, 0.004193349524822971
886.0, 0.004452245379744745
887.0, 0.011221563548060903
888.0, 0.013834909177820062
889.0, 0.014627168319274457
890.0, 0.005398416072771118
891.0, 0.003123032161725974
892.0, 0.009036557202345946
893.0, 0.005499807631959579
894.0, 0.004782930827446816
895.0, 0.009514682644973337
896.0, 0.009562551155261032
897.0, 0.01101305621346091
898.0, 0.01581504226269043
899.0, 0.020879002087926774
900.0, 0.027625898608144784
901.0, 0.036803149282125865
902.0, 0.032125022983675575
903.0, 0.03252093816249218
904.0, 0.034289999689445835
905.0, 0.03561912203213121
906.0, 0.03292634634726927
907.0, 0.029437991821403102
908.0, 0.030493278062505465
909.0, 0.03447205736386021
910.0, 0.03422496031047482
911.0, 0.029154875675497894
912.0, 0.036823455557625354
913.0, 0.04368849309037955
914.0, 0.03941644849167805
915.0, 0.038011682031109224
916.0, 0.044257463269273205
917.0, 0.03963609326153704
918.0, 0.04328366551607319
919.0, 0.039486926003876544
920.0, 0.04027215995600386
921.0, 0.040533915644909255
922.0, 0.03254373491050186
923.0, 0.026887678834267036
924.0, 0.030576990442995552
925.0, 0.024354939036009327
926.0, 0.021012885708177734
927.0, 0.017879583020954524
928.0, 0.017890573157246473
929.0, 0.01389918499954504
930.0, 0.006240229664862936
931.0, 0.0028246402114433604
932.0, 0.005082066010302279
933.0, 0.006401388986611542
934.0, 0.014381500534108775
935.0, 0.006906213725960176
936.0, 0.010003081297422849
937.0, 0.010291375035742754
938.0, 0.0074025823062841495
939.0, 0.0038339710097007704
940.0, 0.0012264975635260696
941.0, 0.0007837206927032631
942.0, 0.0025019257828016754
943.0, 0.001011776975101198
944.0, 0.006553555052273515
945.0, 0.0010590508170133244
946.0, 0.0028222476854381073
947.0, 0.004606908738200238
948.0, 0.0005655818205688942
949.0, 0.00200601767269442
950.0, 0.0011146415606598792
951.0, 0.0015146856149126843
952.0, 0.0027760181222764957
953.0, 0.004329611036211642
954.0, 0.0036605087724849807
955.0, 0.000959084149172813
956.0, 0.001885240410791526
957.0, 0.0013863768574020863
958.0, 0.004089368220944028
959.0, 0.0024305347621151737
960.0, 0.006122250466854419
961.0, 0.003107644131001637
962.0, 0.006952463155139671
963.0, 0.00864355304874038
964.0, 0.005580784338186677
965.0, 0.012095263090743127
966.0, 0.004713956520751264
967.0, 0.0019426948342530176
968.0, 0.013623391372137472
969.0, 0.009022846020268049
970.0, 0.006075199680020021
971.0, 0.009005033242273853
972.0, 0.014530001108315461
973.0, 0.021636615496101394
974.0, 0.023805946581293324
975.0, 0.028669500198049567
976.0, 0.030465829806406868
977.0, 0.03615232589206877
978.0, 0.03615465551036911
979.0, 0.04036517119487315
980.0, 0.0395967887775944
981.0, 0.03122933564700216
982.0, 0.03173280122634111
983.0, 0.03455709399401494
984.0, 0.031022365950962208
985.0, 0.028461625737534368
986.0, 0.03244830850379379
987.0, 0.03533645138457818
988.0, 0.03517805066802675
989.0, 0.037630089898787564
990.0, 0.04008906474626501
991.0, 0.03753116681949608
992.0, 0.04739602913900523
993.0, 0.05171670739170294
994.0, 0.06357203525928203
995.0, 0.08314287358169717
996.0, 0.10425388150780977
997.0, 0.1270398685359034
998.0, 0.15566194768316888
999.0, 0.1924619058732038
1000.0, 0.23656426091378507
1001.0, 0.28562084717507474
1002.0, 0.31837566626719965
1003.0, 0.3671417885569166
1004.0, 0.41975432664692547
1005.0, 0.47521135315100227
1006.0, 0.5407056158058074
1007.0, 0.6188991472712059
1008.0, 0.7036617057888922
1009.0, 0.7893336455982121
1010.0, 0.8818036538088372
1011.0, 0.9551310977593613
1012.0, 0.9980074443211533
1013.0, 0.9742823286775149
1014.0, 0.8888310368607959
1015.0, 0.7569517107710811
1016.0, 0.5980624189270575
1017.0, 0.4500005479436157
1018.0, 0.3404789136318769
1019.0, 0.25953400791772
1020.0, 0.1981670296664644
1021.0, 0.16217384237570068
1022.0, 0.12312338927667899
1023.0, 0.09642454908808845
1024.0, 0.08021128467048275
1025.0, 0.06490006869656517
1026.0, 0.05515755388911766
1027.0, 0.05141337949980504
1028.0, 0.05505612214253801
1029.0, 0.04119186283149458
1030.0, 0.03383304357997169
1031.0, 0.04180358619846296
1032.0, 0.038367457669596046
1033.0, 0.034388614224970075
1034.0, 0.04265144678531824
1035.0, 0.05123127544127149
1036.0, 0.05571184929728798
1037.0, 0.055033634377548754
1038.0, 0.055065844909696696
1039.0, 0.058282310264756734
1040.0, 0.06407643660255423
1041.0, 0.07869794135719965
1042.0, 0.08947965032018719
1043.0, 0.10650671446969752
1044.0, 0.130180954226349
1045.0, 0.143855246334727
1046.0, 0.16598178297813565
1047.0, 0.149948064318208
1048.0, 0.16580231068567428
1049.0, 0.14904085130707345
1050.0, 0.12358763773475832
1051.0, 0.1006544328741479
1052.0, 0.0852034042642774
1053.0, 0.06980750862695877
1054.0, 0.04808597093081201
1055.0, 0.03971361535454609
1056.0, 0.03194580964957466
1057.0, 0.02833289662343451
1058.0, 0.021544164333520684
1059.0, 0.013145387609183328
1060.0, 0.0028799972311444096
1061.0, 0.001874541564927908
1062.0, 0.0019393677445220625
1063.0, 0.005287608066992644
1064.0, 0.011317418363586011
1065.0, 0.0010767034249900551
1066.0, 0.0062974926701916106
1067.0, 0.01006373561269215
1068.0, 0.007156252080504205
1069.0, 0.01760881397532891
1070.0, 0.034312670309247825
1071.0, 0.03600719058149483
1072.0, 0.023455754636471513
1073.0, 0.013886215080959871
1074.0, 0.011397937773937144
1075.0, 0.0082787370214966
1076.0, 0.0006007356335679566
1077.0, 0.007378464869787717
1078.0, 0.005411552929652922
1079.0, 0.0012840948385081856
1080.0, 0.004468791502038327
1081.0, 0.0024318393025882764
1082.0, 0.007251474126810452
1083.0, 0.0017405914470543975
1084.0, 0.008190487586881526
1085.0, 0.004064065266409009
1086.0, 0.0020565905796325694
1087.0, 0.001037827971009428
1088.0, 0.005802236116614973
1089.0, 0.012986344514241362
1090.0, 0.008941290710864698
1091.0, 0.011724203203159402
1092.0, 0.01599032431024755
1093.0, 0.0165840002816888
1094.0, 0.019617244530346255
1095.0, 0.01572881916567804
1096.0, 0.010295806646010423
1097.0, 0.014924618024815694
1098.0, 0.017666358235405636
1099.0, 0.015108315735720707
1100.0, 0.02327286492559213
1101.0, 0.030113761709355653
1102.0, 0.021704619787932186
1103.0, 0.009171846675064758
1104.0, 0.005982144571198077
1105.0, 0.00867244377236686
1106.0, 0.012349180465922715
1107.0, 0.0018018938954976861
1108.0, 0.002400724422105008
1109.0, 0.0031620678033534963
1110.0, 0.0025503411099401297
1111.0, 0.02161402427269492
1112.0, 0.03224127698070041
1113.0, 0.026742031208966566
1114.0, 0.02268144610145825
1115.0, 0.025086720417730652
1116.0, 0.024470369115029724
1117.0, 0.03054609037520906
1118.0, 0.023771154020139355
1119.0, 0.014189921418049365
1120.0, 0.022910398050231075
1121.0, 0.021426182166404652
1122.0, 0.017070712724900915
1123.0, 0.013929840603675936
1124.0, 0.007813339584829656
1125.0, 0.010999612560656008
1126.0, 0.012837587805134413
1127.0, 0.034205954461972415
1128.0, 0.03402736631282777
1129.0, 0.03235317850268335
1130.0, 0.03675656256763115
1131.0, 0.032215796993593816
1132.0, 0.03595898769098219
1133.0, 0.04131523216193143
1134.0, 0.044797303214460696
1135.0, 0.0482007044809596
1136.0, 0.031666313532258274
1137.0, 0.019692988685319417
1138.0, 0.029239084415658582
1139.0, 0.02622878089290947
1140.0, 0.0110362817755681
1141.0, 0.020048256889311125
1142.0, 0.020185486993597283
1143.0, 0.01632103254534195
1144.0, 0.020494749053124515
1145.0, 0.030569711393997265
1146.0, 0.03683123973592394
1147.0, 0.032149164949472044
1148.0, 0.04670729872005521
1149.0, 0.049836708179121315
1150.0, 0.04044334401146444
1151.0, 0.025305234438458182
1152.0, 0.019573178502235757
1153.0, 0.016174536613297475
1154.0, 0.009584117214586336
1155.0, 0.006371799210319296
1156.0, 0.004815192453422153
1157.0, 0.0026331214672717118
1158.0, 0.003868593820982481
1159.0, 0.0008412119762900117
1160.0, 0.0005367346425109235
1161.0, 0.006950455381044517
1162.0, 0.007590861562496163
1163.0, 0.00810336238512698
1164.0, 0.01931367087815033
1165.0, 0.023025518666356794
1166.0, 0.023432235817110604
1167.0, 0.025924105672675894
1168.0, 0.029105587215196425
1169.0, 0.021920445652981412
1170.0, 0.005955758654796276
1171.0, 0.03370757249562603
1172.0, 0.028694442461270318
1173.0, 0.023954959616766924
1174.0, 0.029362746363894594
1175.0, 0.020011753047484784
1176.0, 0.035965879884361
1177.0, 0.023892985006338286
1178.0, 0.0019027846944404802
1179.0, 0.0006356066384303637
1180.0, 0.0008546742093727997
1181.0, 0.004178959559944068
1182.0, 0.0019116819599328764
1183.0, 0.004864187479611771
1184.0, 0.0021300380587858676
1185.0, 0.005423371767591743
1186.0, 0.002217173975396218
1187.0, 0.01822337021587455
1188.0, 0.034454789653558325
1189.0, 0.023269281575740125
1190.0, 0.018045221018165854
1191.0, 0.03839383203045326
1192.0, 0.05192241730525963
1193.0, 0.0356932034026434
1194.0, 0.036360263642322546
1195.0, 0.024009489901067764
1196.0, 0.02644630136805733
1197.0, 0.04260051449419201
1198.0, 0.04445717979652652
1199.0, 0.03421520690257645
1200.0, 0.04604440040299396
1201.0, 0.05041325094326468
1202.0, 0.03842189201404331
1203.0, 0.04283322712669533
1204.0, 0.058881250982814604
1205.0, 0.051973517957283576
1206.0, 0.03856370597426289
1207.0, 0.03490400767524778
1208.0, 0.028041154811650225
1209.0, 0.0353714660039189
1210.0, 0.014995905476435027
1211.0, 0.02434771694681988
1212.0, 0.012868149921975724
1213.0, 0.019828786689576116
1214.0, 0.024435682805078244
1215.0, 0.024300290351194142
1216.0, 0.0359650512883474
1217.0, 0.03632832186110322
1218.0, 0.023916187434993467
1219.0, 0.03733108070001365
1220.0, 0.03955890559043176
1221.0, 0.038173782549407544
1222.0, 0.03924834099567261
1223.0, 0.04182035241530466
1224.0, 0.04227530211613214
1225.0, 0.049971770014671166
1226.0, 0.03563722131638391
1227.0, 0.033145359702345556
1228.0, 0.03735443844488008
1229.0, 0.03236532460267914
1230.0, 0.03784561694421996
1231.0, 0.050128728823101355
1232.0, 0.05232530859515118
1233.0, 0.049897072049133025
1234.0, 0.04932098693226829
1235.0, 0.04285756457625346
1236.0, 0.013783131933268708
1237.0, 0.03562011074532068
1238.0, 0.009591881397682588
1239.0, 0.007926445675323935
1240.0, 0.003979876288504436
1241.0, 0.007066310323653996
1242.0, 0.008244590687101577
1243.0, 0.0014209732065792176
1244.0, 0.018247729138363405
1245.0, 0.015606763980043415
1246.0, 0.01680731020126471
1247.0, 0.026679004455768447
1248.0, 0.028581092891386668
1249.0, 0.04190729940672579
1250.0, 0.03891502020819341
1251.0, 0.03253291430033369
1252.0, 0.010679220709520508
1253.0, 0.010312874328653956
1254.0, 0.016339556669214814
1255.0, 0.013979470608852743
1256.0, 0.008895595980031394
1257.0, 0.015112820881365773
1258.0, 0.02865692710651158
1259.0, 0.004923956914935109
1260.0, 0.006483792458162074
1261.0, 0.011251679349469072
1262.0, 0.023416294349879047
1263.0, 0.006701534780861338
1264.0, 0.018161912422554112
1265.0, 0.02388926602552772
1266.0, 0.029023997789689705
1267.0, 0.05034976642995806
1268.0, 0.07967918319129484
1269.0, 0.079754964489089
1270.0, 0.06885367329651165
1271.0, 0.0668190092573367
1272.0, 0.05377908883535576
1273.0, 0.05212295265079167
1274.0, 0.05217913908108771
1275.0, 0.05807408560125809
1276.0, 0.023891593468231376
1277.0, 0.011558820519948313
1278.0, 0.021504289129318673
1279.0, 0.025683046370282573
1280.0, 0.008663028551870388
1281.0, 0.002752506704670438
1282.0, 0.000702317868857131
1283.0, 0.0006287006664069995
1284.0, 0.000992854999011934
1285.0, 0.0005514950011245609
1286.0, 0.008888498158630888
1287.0, 0.022488674876908234
1288.0, 0.009775232423621959
1289.0, 0.011312646994295884
1290.0, 0.026774680317698273
1291.0, 0.02377038113125588
1292.0, 0.004584588970527886
1293.0, 0.008354222424767601
1294.0, 0.030890404265595393
1295.0, 0.04502290475157043
1296.0, 0.015276671149768127
1297.0, 0.002242871352418888
1298.0, 0.0133609984859224
1299.0, 0.009722224206846809
1300.0, 0.0006242306950610829
1301.0, 0.0025202631624002825
1302, 0.0
1303, 0.0
1304, 0.0
1305, 0.0
1306, 0.0
1307, 0.0
1308, 0.0
1309, 0.0
1310, 0.0
1311, 0.0
1312, 0.0
1313, 0.0
1314, 0.0
1315, 0.0
1316, 0.0
1317, 0.0
1318, 0.0
1319, 0.0
1320, 0.0
1321, 0.0
1322, 0.0
1323, 0.0
1324, 0.0
1325, 0.0
1326, 0.0
1327, 0.0
1328, 0.0
1329, 0.0
1330, 0.0
1331, 0.0
1332, 0.0
1333, 0.0
1334, 0.0
1335, 0.0
1336, 0.0
1337, 0.0
1338, 0.0
1339, 0.0
1340, 0.0
1341, 0.0
1342, 0.0
1343, 0.0
1344, 0.0
1345, 0.0
1346, 0.0
1347, 0.0
1348, 0.0
1349, 0.0
1350, 0.0
1351, 0.0
1352, 0.0
1353, 0.0
1354, 0.0
1355, 0.0
1356, 0.0
1357, 0.0
1358, 0.0
1359, 0.0
1360, 0.0
1361, 0.0
1362, 0.0
1363, 0.0
1364, 0.0
1365, 0.0
1366, 0.0
1367, 0.0
1368, 0.0
1369, 0.0
1370, 0.0
1371, 0.0
1372, 0.0
1373, 0.0
1374, 0.0
1375, 0.0
1376, 0.0
1377, 0.0
1378, 0.0
1379, 0.0
1380, 0.0
1381, 0.0
1382, 0.0
1383, 0.0
1384, 0.0
1385, 0.0
1386, 0.0
1387, 0.0
1388, 0.0
1389, 0.0
1390, 0.0
1391, 0.0
1392, 0.0
1393, 0.0
1394, 0.0
1395, 0.0
1396, 0.0
1397, 0.0
1398, 0.0
1399, 0.0
1400, 0.0
1401, 0.0
1402, 0.0
1403, 0.0
1404, 0.0
1405, 0.0
1406, 0.0
1407, 0.0
1408, 0.0
1409, 0.0
1410, 0.0
1411, 0.0
1412, 0.0
1413, 0.0
1414, 0.0
1415, 0.0
1416, 0.0
1417, 0.0
1418, 0.0
1419, 0.0
1420, 0.0
1421, 0.0
1422, 0.0
1423, 0.0
1424, 0.0
1425, 0.0
1426, 0.0
1427, 0.0
1428, 0.0
1429, 0.0
1430, 0.0
1431, 0.0
1432, 0.0
1433, 0.0
1434, 0.0
1435, 0.0
1436, 0.0
1437, 0.0
1438, 0.0
1439, 0.0
1440, 0.0
1441, 0.0
1442, 0.0
1443, 0.0
1444, 0.0
1445, 0.0
1446, 0.0
1447, 0.0
1448, 0.0
1449, 0.0
1450, 0.0
1451, 0.0
1452, 0.0
1453, 0.0
1454, 0.0
1455, 0.0
1456, 0.0
1457, 0.0
1458, 0.0
1459, 0.0
1460, 0.0
1461, 0.0
1462, 0.0
1463, 0.0
1464, 0.0
1465, 0.0
1466, 0.0
1467, 0.0
1468, 0.0
1469, 0.0
1470, 0.0
1471, 0.0
1472, 0.0
1473, 0.0
1474, 0.0
1475, 0.0
1476, 0.0
1477, 0.0
1478, 0.0
1479, 0.0
1480, 0.0
1481, 0.0
1482, 0.0
1483, 0.0
1484, 0.0
1485, 0.0
1486, 0.0
1487, 0.0
1488, 0.0
1489, 0.0
1490, 0.0
1491, 0.0
1492, 0.0
1493, 0.0
1494, 0.0
1495, 0.0
1496, 0.0
1497, 0.0
1498, 0.0
1499, 0.0
1500, 0.0
1501, 0.0
1502, 0.0
1503, 0.0
1504, 0.0
1505, 0.0
1506, 0.0
1507, 0.0
1508, 0.0
1509, 0.0
1510, 0.0
1511, 0.0
1512, 0.0
1513, 0.0
1514, 0.0
1515, 0.0
1516, 0.0
1517, 0.0
1518, 0.0
1519, 0.0
1520, 0.0
1521, 0.0
1522, 0.0
1523, 0.0
1524, 0.0
1525, 0.0
1526, 0.0
1527, 0.0
1528, 0.0
1529, 0.0
1530, 0.0
1531, 0.0
1532, 0.0
1533, 0.0
1534, 0.0
1535, 0.0
1536, 0.0
1537, 0.0
1538, 0.0
1539, 0.0
1540, 0.0
1541, 0.0
1542, 0.0
1543, 0.0
1544, 0.0
1545, 0.0
1546, 0.0
1547, 0.0
1548, 0.0
1549, 0.0
1550, 0.0
1551, 0.0
1552, 0.0
1553, 0.0
1554, 0.0
1555, 0.0
1556, 0.0
1557, 0.0
1558, 0.0
1559, 0.0
1560, 0.0
1561, 0.0
1562, 0.0
1563, 0.0
1564, 0.0
1565, 0.0
1566, 0.0
1567, 0.0
1568, 0.0
1569, 0.0
1570, 0.0
1571, 0.0
1572, 0.0
1573, 0.0
1574, 0.0
1575, 0.0
1576, 0.0
1577, 0.0
1578, 0.0
1579, 0.0
1580, 0.0
1581, 0.0
1582, 0.0
1583, 0.0
1584, 0.0
1585, 0.0
1586, 0.0
1587, 0.0
1588, 0.0
1589, 0.0
1590, 0.0
1591, 0.0
1592, 0.0
1593, 0.0
1594, 0.0
1595, 0.0
1596, 0.0
1597, 0.0
1598, 0.0
1599, 0.0
