30, 0.0
31, 0.0
32, 0.0
33, 0.0
34, 0.0
35, 0.0
36, 0.0
37, 0.0
38, 0.0
39, 0.0
40, 0.0
41, 0.0
42, 0.0
43, 0.0
44, 0.0
45, 0.0
46, 0.0
47, 0.0
48, 0.0
49, 0.0
50, 0.0
51, 0.0
52, 0.0
53, 0.0
54, 0.0
55, 0.0
56, 0.0
57, 0.0
58, 0.0
59, 0.0
60, 0.0
61, 0.0
62, 0.0
63, 0.0
64, 0.0
65, 0.0
66, 0.0
67, 0.0
68, 0.0
69, 0.0
70, 0.0
71, 0.0
72, 0.0
73, 0.0
74, 0.0
75, 0.0
76, 0.0
77, 0.0
78, 0.0
79, 0.0
80, 0.0
81, 0.0
82, 0.0
83, 0.0
84, 0.0
85, 0.0
86, 0.0
87, 0.0
88, 0.0
89, 0.0
90, 0.0
91, 0.0
92, 0.0
93, 0.0
94, 0.0
95, 0.0
96, 0.0
97, 0.0
98, 0.0
99, 0.0
100, 0.0
101, 0.0
102, 0.0
103, 0.0
104, 0.0
105, 0.0
106, 0.0
107, 0.0
108, 0.0
109, 0.0
110, 0.0
111, 0.0
112.0, 7.943255590085434e-07
113.0, 3.3891223851029934e-05
114.0, 0.00039732302498891533
115.0, 0.001727226778183715
116.0, 0.0026857724382689237
117.0, 0.0015532596496629642
118.0, 0.0011287781797155796
119.0, 0.0007105275307327308
120.0, 0.0011951888217142652
121.0, 0.0022703310325239887
122.0, 0.0034077700955541237
123.0, 0.004334980368622553
124.0, 0.006771010284504586
125.0, 0.008316452149019313
126.0, 0.011223997643984743
127.0, 0.01586555370835604
128.0, 0.020093005880996436
129.0, 0.02796160489998141
130.0, 0.03573830903240161
131.0, 0.04127199723735696
132.0, 0.046157052352160145
133.0, 0.05332126274893343
134.0, 0.06128538716940568
135.0, 0.06978328292769864
136.0, 0.07650303281683758
137.0, 0.0825633386090945
138.0, 0.08849745650109901
139.0, 0.09161879690950549
140.0, 0.1001145031762581
141.0, 0.10762245974973718
142.0, 0.11091464755305222
143.0, 0.10818353530642989
144.0, 0.09896472886397144
145.0, 0.08047146262323188
146.0, 0.0632746847003289
147.0, 0.04859123356594611
148.0, 0.03644592682042883
149.0, 0.026504870562697083
150.0, 0.019602378738099113
151.0, 0.015287073515999144
152.0, 0.012084944335869666
153.0, 0.009979006044809764
154.0, 0.008553698893413186
155.0, 0.006551034765683066
156.0, 0.005198684687844547
157.0, 0.004593591721534653
158.0, 0.004347119740425972
159.0, 0.004052196986756841
160.0, 0.0035950277453671584
161.0, 0.004968297005470246
162.0, 0.0037168358136978274
163.0, 0.003057801135085689
164.0, 0.003170350848140804
165.0, 0.003328529885957049
166.0, 0.002398188130739989
167.0, 0.0023545356151071376
168.0, 0.002398113044018941
169.0, 0.002085831032400086
170.0, 0.001773410304763572
171.0, 0.002199667317834726
172.0, 0.0006773225815679967
173.0, 0.00043248539424495177
174.0, 0.001172119117046481
175.0, 0.0014295875457970356
176.0, 0.0004634406775051897
177.0, 0.000775684808301556
178.0, 0.0006484160507224741
179.0, 0.0007296461062051405
180.0, 0.0008683083420874605
181.0, 0.0009611004086401027
182.0, 0.0009976812991363518
183.0, 0.0004569595254769708
184.0, 0.00024691133609625076
185.0, 0.0002014789777162419
186.0, 0.00034233751415024453
187.0, 0.0006622402157924848
188.0, 0.0008468148179035006
189.0, 0.0007931150312967121
190.0, 0.0008847379457505726
191.0, 0.0008335566694675946
192.0, 0.0007293922017427753
193.0, 0.001074636718379912
194.0, 0.001204746175292641
195.0, 0.0010664426893735204
196.0, 0.0007774826213459508
197.0, 0.0006674510742457828
198.0, 0.0010798961839055784
199.0, 0.0021717903285739613
200.0, 0.0005791131383762384
201.0, 0.0008724064057910445
202.0, 0.0013306314421778894
203.0, 0.0010181731602802702
204.0, 0.0004975314472310658
205.0, 0.000443443724536114
206.0, 0.0012165907807608217
207.0, 0.0014242747070866003
208.0, 0.0009528623097434721
209.0, 0.00033063994567096946
210.0, 0.0005779359222182003
211.0, 0.0004909153605368518
212.0, 0.0007832616305368092
213.0, 0.0010269868703275365
214.0, 0.0008706192651031005
215.0, 0.00042471347403623947
216.0, 0.0029318085431930298
217.0, 0.001710512962314492
218.0, 0.0011858434859737086
219.0, 0.0018789128904544987
220.0, 0.0026553816616295724
221.0, 0.0012168058673427027
222.0, 0.003567112184436032
223.0, 0.0045633386651836895
224.0, 0.00450189719428401
225.0, 0.004478849677606758
226.0, 0.005409974808973881
227.0, 0.004645959046098836
228.0, 0.005407893246466136
229.0, 0.004926461896816083
230.0, 0.0049461921282778565
231.0, 0.005819925934825421
232.0, 0.004725001218534842
233.0, 0.004739750279634206
234.0, 0.004695423466979445
235.0, 0.0033923779949262237
236.0, 0.0018231963029745448
237.0, 0.001494371699517435
238.0, 0.0021266095452479672
239.0, 0.001111650138623158
240.0, 0.0015641459399107261
241.0, 0.0018047975656337268
242.0, 0.0013360267049943764
243.0, 0.001279852168363113
244.0, 0.00279658056843797
245.0, 0.002530096646100241
246.0, 0.002748527502530947
247.0, 0.004054673667101613
248.0, 0.00564829615231547
249.0, 0.0050044337294689765
250.0, 0.00607064132333331
251.0, 0.006485132731663
252.0, 0.007067080049494315
253.0, 0.007586931404496477
254.0, 0.007588768384547847
255.0, 0.008330597658326555
256.0, 0.008246215602035034
257.0, 0.007745590130398069
258.0, 0.006959149676817838
259.0, 0.0060574477317913355
260.0, 0.005164049206632871
261.0, 0.0031855222860019974
262.0, 0.0020372562077456114
263.0, 0.0011098450968333492
264.0, 0.00039896768825487363
265.0, 9.69479724385916e-05
266.0, 0.00044234249612948263
267.0, 0.0009897546418781548
268.0, 0.0006118223063831352
269.0, 0.0003464707617657277
270.0, 0.0003288091198979852
271.0, 0.00028607036938478207
272.0, 0.00035636395057308233
273.0, 0.0009651307865120081
274.0, 0.000617573916940981
275.0, 0.00026158595006201425
276.0, 0.00026289836540404786
277.0, 0.0002967722126023658
278.0, 0.0005597188933892987
279.0, 0.0006415603985867557
280.0, 0.0006883053342647361
281.0, 0.00114512576187908
282.0, 0.0015388806363229837
283.0, 0.0002845158326286014
284.0, 0.001585628491839359
285.0, 0.002207313634655451
286.0, 0.0022386762135943547
287.0, 0.00226213592217241
288.0, 0.002883632780863854
289.0, 0.004317591435025232
290.0, 0.004850964437547579
291.0, 0.006247027898782212
292.0, 0.0072049746484048
293.0, 0.007326179963254484
294.0, 0.007043782972116483
295.0, 0.007559202163293562
296.0, 0.008696075141868594
297.0, 0.009546645343975615
298.0, 0.010780871295940977
299.0, 0.012395316747635166
300.0, 0.013860164198900723
301.0, 0.016023565583189396
302.0, 0.017709977733278842
303.0, 0.021496902465443054
304.0, 0.02555131479667006
305.0, 0.028552264055263815
306.0, 0.03094756570404419
307.0, 0.03360765607343621
308.0, 0.03896118379093823
309.0, 0.04290929848034795
310.0, 0.04697782344037684
311.0, 0.052395657384936116
312.0, 0.05731522034163503
313.0, 0.06754831620928084
314.0, 0.07571027882331674
315.0, 0.08389871833376217
316.0, 0.09038805686384058
317.0, 0.09466825066058275
318.0, 0.10247171935886851
319.0, 0.10985057581851272
320.0, 0.11794760623510586
321.0, 0.12536400128711378
322.0, 0.131642339983651
323.0, 0.1370322396014616
324.0, 0.14208727783260935
325.0, 0.14300508956230124
326.0, 0.14065574266741845
327.0, 0.1341778294020655
328.0, 0.12377617352673219
329.0, 0.11056258779850626
330.0, 0.09588476902360552
331.0, 0.08176005702211446
332.0, 0.06993327273366136
333.0, 0.05987983532432395
334.0, 0.051675187011621104
335.0, 0.045633065190241275
336.0, 0.039709584096980124
337.0, 0.03690777755471819
338.0, 0.03389024796405829
339.0, 0.03187660137845609
340.0, 0.030889176309048097
341.0, 0.029689041804879766
342.0, 0.03062396758208183
343.0, 0.03150839529877039
344.0, 0.03262241282358131
345.0, 0.03381458625824619
346.0, 0.03607485505291478
347.0, 0.041113955713743024
348.0, 0.04611947306857528
349.0, 0.05174863481049145
350.0, 0.059544942757822746
351.0, 0.06642310876312416
352.0, 0.07211463216507923
353.0, 0.080373827293036
354.0, 0.08889416130019287
355.0, 0.09491653459755378
356.0, 0.1037635895691143
357.0, 0.11112245444118375
358.0, 0.11573539091173016
359.0, 0.12237062111419386
360.0, 0.12503558608911
361.0, 0.12756396107988427
362.0, 0.12506637903906395
363.0, 0.12055464376790424
364.0, 0.11574286677883296
365.0, 0.108106775027654
366.0, 0.0993072090318406
367.0, 0.09137819337562528
368.0, 0.08317003201689768
369.0, 0.0764875595846862
370.0, 0.07149675791473649
371.0, 0.06570808688904464
372.0, 0.06373398469721024
373.0, 0.06360543953363605
374.0, 0.06322549703340798
375.0, 0.0643539390645957
376.0, 0.06855686908205179
377.0, 0.07564602589144426
378.0, 0.08443830198550199
379.0, 0.09508327837236588
380.0, 0.10958140015260016
381.0, 0.12619532099843975
382.0, 0.1433593151609954
383.0, 0.16114499026534793
384.0, 0.18104999338056593
385.0, 0.20211865744042412
386.0, 0.2241312980235854
387.0, 0.24268840074467732
388.0, 0.25777947726478545
389.0, 0.2741289112698928
390.0, 0.2848953748534343
391.0, 0.2904683654538357
392.0, 0.28931736559559784
393.0, 0.27701755383772464
394.0, 0.2531290226359758
395.0, 0.22183200413100404
396.0, 0.18689254407503017
397.0, 0.15252088453216778
398.0, 0.12291984860684521
399.0, 0.09790999410430552
400.0, 0.0774512255524693
401.0, 0.06181773797695796
402.0, 0.04939851087715874
403.0, 0.04079198899577966
404.0, 0.034769401685191076
405.0, 0.029312935547042535
406.0, 0.024566211574201722
407.0, 0.021317058559630682
408.0, 0.01591640540402558
409.0, 0.014728569646530968
410.0, 0.01308184561794018
411.0, 0.01146356854600515
412.0, 0.010234278611521081
413.0, 0.009519897612343545
414.0, 0.009683940232025562
415.0, 0.007947394530116513
416.0, 0.0076447085618573125
417.0, 0.0069765054999337585
418.0, 0.006192019617811756
419.0, 0.005970109223890145
420.0, 0.005457571971850736
421.0, 0.0057162066989423265
422.0, 0.005167805606764558
423.0, 0.004268505055517656
424.0, 0.0035981449334815865
425.0, 0.003037073001887489
426.0, 0.0015268544152229366
427.0, 0.0020112456016105357
428.0, 0.0019322073257523335
429.0, 0.001518686272342522
430.0, 0.0014912744156904709
431.0, 0.0017612321281040943
432.0, 0.0014276109199040379
433.0, 0.0022739185877279538
434.0, 0.001629641498019457
435.0, 0.0010529358020520826
436.0, 0.0005864671573372934
437.0, 0.0004985935045626866
438.0, 0.0009948172130834804
439.0, 0.000145988392690841
440.0, 0.00010813240150231859
441.0, 0.00046613899967406277
442.0, 0.0008845848455100573
443.0, 0.0008840232443194009
444.0, 0.000617938088510851
445.0, 0.002105981289656512
446.0, 0.0014392660866895703
447.0, 0.0009537839898545097
448.0, 0.0006981324574858648
449.0, 0.0006824039280135318
450.0, 0.0009936564814880633
451.0, 0.0018281960008892468
452.0, 0.002995353393204644
453.0, 0.0022531139730230278
454.0, 0.0018670707923623521
455.0, 0.002546869942619228
456.0, 0.003548519246476289
457.0, 0.0034564792895411325
458.0, 0.004193229506880964
459.0, 0.004466540899609971
460.0, 0.004197517982214398
461.0, 0.004333321389335478
462.0, 0.00432325363459947
463.0, 0.0034746577041622263
464.0, 0.0049491479505589615
465.0, 0.004890213772638392
466.0, 0.004253951009706555
467.0, 0.004366564214325373
468.0, 0.004555090926655001
469.0, 0.0043180764845247915
470.0, 0.005232431550322156
471.0, 0.0038932378875936625
472.0, 0.003921581849560928
473.0, 0.0028789678216100366
474.0, 0.002180713394623662
475.0, 0.0024796028818669306
476.0, 0.0024464268584523997
477.0, 0.002224268269476072
478.0, 0.0027223667453558217
479.0, 0.002457323636944999
480.0, 0.0015267131030429573
481.0, 0.0011988801014454226
482.0, 0.0022168218172146197
483.0, 0.002041404392275244
484.0, 0.001507426901937475
485.0, 0.0019925576258129577
486.0, 0.0018320410196641123
487.0, 0.0009538080523627602
488.0, 0.00012292805417098455
489.0, 0.0001683376864991718
490.0, 0.0011423901479153918
491.0, 0.0008883733244140156
492.0, 0.001113582193768083
493.0, 0.0008389867117215683
494.0, 0.0005164923580292346
495.0, 0.0012601625155071845
496.0, 0.000379018072012015
497.0, 0.00032822827188820516
498.0, 0.0011240841774942342
499.0, 0.0009763257528589333
500.0, 0.0009080867655631769
501.0, 0.0017242386115589295
502.0, 0.0016119965154028264
503.0, 0.0031202743170486544
504.0, 0.004023389654881722
505.0, 0.003930791345031611
506.0, 0.004001833455715177
507.0, 0.004667810521891255
508.0, 0.005435760409954394
509.0, 0.006386511074664907
510.0, 0.004880135582886736
511.0, 0.0055967330820433205
512.0, 0.004582328254693575
513.0, 0.0028643028518017346
514.0, 0.002598194779303947
515.0, 0.0029521106163065696
516.0, 0.0034212149181683514
517.0, 0.003241125955704352
518.0, 0.0032840710731731775
519.0, 0.0032167357062211598
520.0, 0.0031312914979796207
521.0, 0.0035548954190909574
522.0, 0.004389018901513803
523.0, 0.004972804723996535
524.0, 0.004864179619309752
525.0, 0.005025341360165177
526.0, 0.006087112984400329
527.0, 0.007857674110651908
528.0, 0.009119976808875949
529.0, 0.007667099650835564
530.0, 0.009646254688000427
531.0, 0.010358122609940233
532.0, 0.011349533519953766
533.0, 0.012166650235799468
534.0, 0.011329309737952317
535.0, 0.010671978766648701
536.0, 0.011086392700503338
537.0, 0.010055817196052282
538.0, 0.010265011430299249
539.0, 0.010879615856908434
540.0, 0.010901154396789991
541.0, 0.010732383781688136
542.0, 0.011300728372061659
543.0, 0.010025219959842843
544.0, 0.010224228981472216
545.0, 0.009897964350462505
546.0, 0.009342520548720982
547.0, 0.00961083059184354
548.0, 0.010220586564287705
549.0, 0.009741387646947047
550.0, 0.009731099773161543
551.0, 0.010609613089703866
552.0, 0.010916708938281307
553.0, 0.010783398151814278
554.0, 0.011531139433645308
555.0, 0.01316669578220567
556.0, 0.015183501648144112
557.0, 0.014406720346872593
558.0, 0.013521908539033059
559.0, 0.013668176719823405
560.0, 0.014215875076122618
561.0, 0.013831073362208839
562.0, 0.014190618780346588
563.0, 0.013157877078973042
564.0, 0.012826089815898072
565.0, 0.010754705048207209
566.0, 0.008931346652912819
567.0, 0.00876105072204643
568.0, 0.007703367833919346
569.0, 0.00899300642211024
570.0, 0.007928253778891193
571.0, 0.007469372512854442
572.0, 0.007235231211884385
573.0, 0.006792769243767398
574.0, 0.006193257866477731
575.0, 0.005856504691813669
576.0, 0.005248996244823328
577.0, 0.005890854282542116
578.0, 0.00467873463191116
579.0, 0.003916525248850034
580.0, 0.003949721718954885
581.0, 0.0035934419550639938
582.0, 0.004787558525166306
583.0, 0.003900007285591757
584.0, 0.003138730129197684
585.0, 0.00291760569199236
586.0, 0.00207896018135789
587.0, 0.0013289272651047838
588.0, 0.00222234719091605
589.0, 0.0009207403266268603
590.0, 0.0014489237314182274
591.0, 0.0004853038671615726
592.0, 0.0005591275776973697
593.0, 0.0007739387631017733
594.0, 0.000330852752712342
595.0, 7.402901546251664e-05
596.0, 0.00015048350210102564
597.0, 0.0008178067237180156
598.0, 0.0003969950503002137
599.0, 0.0005718458564900668
600.0, 0.0006994951010608346
601.0, 0.0002326956868441209
602.0, 0.00020443628810771857
603.0, 0.0011408752077170152
604.0, 0.0005134022067578496
605.0, 0.0008226965239710364
606.0, 0.0017258275391309557
607.0, 0.0020428239788803
608.0, 0.0015476620386002443
609.0, 0.001628715596332802
610.0, 0.002363422503774608
611.0, 0.002204876500697171
612.0, 0.003366911194729022
613.0, 0.003686911574510709
614.0, 0.0037330404122455107
615.0, 0.004756697972941383
616.0, 0.006382246051801712
617.0, 0.008104372263023067
618.0, 0.00796045081470153
619.0, 0.007935697744520005
620.0, 0.009269774771589698
621.0, 0.010242232336910384
622.0, 0.010034028640813158
623.0, 0.01111139216013265
624.0, 0.011808185949383853
625.0, 0.01277721088007683
626.0, 0.014718630102858291
627.0, 0.01566299943001532
628.0, 0.016401837448078545
629.0, 0.018361652592945046
630.0, 0.020876010780843782
631.0, 0.019928776397066014
632.0, 0.02234416422032101
633.0, 0.022771572906644083
634.0, 0.02404560936857618
635.0, 0.027353452973911285
636.0, 0.03081618256762137
637.0, 0.03136177751845607
638.0, 0.03330610649126251
639.0, 0.0365013121463318
640.0, 0.03967932567098942
641.0, 0.04305227234543333
642.0, 0.04735376011113916
643.0, 0.05332790590009385
644.0, 0.060692630307520666
645.0, 0.06560498398633444
646.0, 0.07369327528675988
647.0, 0.08200905665984154
648.0, 0.09344277144631
649.0, 0.10630791119597292
650.0, 0.12031519085207167
651.0, 0.1385463416802387
652.0, 0.1621605227764541
653.0, 0.18828113743141062
654.0, 0.22549723719296794
655.0, 0.26919225872895386
656.0, 0.3208000941004625
657.0, 0.38103010070475946
658.0, 0.4486555067334062
659.0, 0.5249235947166091
660.0, 0.6092500789209404
661.0, 0.6884534824952994
662.0, 0.7667333014680384
663.0, 0.8426071139470548
664.0, 0.9092732713674393
665.0, 0.9602443381594389
666.0, 0.9957785699453345
667.0, 0.999588524868318
668.0, 0.9763977654594341
669.0, 0.9199732911647771
670.0, 0.834830485212971
671.0, 0.7334027795931669
672.0, 0.6263408498397909
673.0, 0.5172930368919827
674.0, 0.4278222923147616
675.0, 0.35255746570497887
676.0, 0.29204935992883013
677.0, 0.2425232978947503
678.0, 0.20332619916516742
679.0, 0.1729078924958841
680.0, 0.14737264085759996
681.0, 0.12770567219638482
682.0, 0.11265747396473906
683.0, 0.0968352304777141
684.0, 0.08514173806820628
685.0, 0.07558770034014907
686.0, 0.06696914895883133
687.0, 0.0600096129037141
688.0, 0.05240485595730938
689.0, 0.047722337461482016
690.0, 0.04351339781285309
691.0, 0.04040462270297058
692.0, 0.03654436035212424
693.0, 0.03286638659620906
694.0, 0.03080146710506218
695.0, 0.028814851453249763
696.0, 0.02692775959610937
697.0, 0.02547271657157379
698.0, 0.023589637404284446
699.0, 0.02217385072550719
700.0, 0.02078635828633326
701.0, 0.019289295537346325
702.0, 0.018345371397065748
703.0, 0.01716574117170924
704.0, 0.016357657398959873
705.0, 0.01590191818404115
706.0, 0.01477358058399668
707.0, 0.014117236046613064
708.0, 0.013333154175429395
709.0, 0.011235250235596381
710.0, 0.009389041712591405
711.0, 0.009584848044420037
712.0, 0.009609876152080657
713.0, 0.008496140235256225
714.0, 0.007637189816071403
715.0, 0.0072995748804423975
716.0, 0.006892825269399818
717.0, 0.0058962084946362495
718.0, 0.004555117009257074
719.0, 0.003584030402959503
720.0, 0.003258084164883513
721.0, 0.004050847648471545
722.0, 0.0038085136181012285
723.0, 0.0028977282236045325
724.0, 0.0028493724480202157
725.0, 0.0023372084220622327
726.0, 0.0015840444166163744
727.0, 0.0021229459213718614
728.0, 0.0024405021708404193
729.0, 0.002778927695917744
730.0, 0.002391670688266543
731.0, 0.001141860119613041
732.0, 0.00019269001430278582
733.0, 0.0003813133996940385
734.0, 0.0012546122064020337
735.0, 0.0022314507923261585
736.0, 0.0018711602520797045
737.0, 0.0008723191434558214
738.0, 0.0002013579872048497
739.0, 0.00015852081864332549
740.0, 0.00031815187318152526
741.0, 0.0008926294878317552
742.0, 0.00046078174626371283
743.0, 0.00046650810453535024
744.0, 0.0005292762092548719
745.0, 0.0006263682187849945
746.0, 0.0006372389262693011
747.0, 0.00041848650735084594
748.0, 0.0003084783568662364
749.0, 0.00034637093342686876
750.0, 0.0005953109026571655
751.0, 0.0002936618224123232
752.0, 0.0004965027943286789
753.0, 0.0010386852404746737
754.0, 0.0011776583687263277
755.0, 0.000694625807092605
756.0, 0.00041457144030860167
757.0, 0.001015121582283525
758.0, 0.0009708818204001293
759.0, 0.0009371645105521321
760.0, 0.0009231813320751713
761.0, 0.0007270987130143417
762.0, 0.0003230959666280041
763.0, 1.5468777499857345e-05
764.0, 9.98728748154132e-05
765.0, 0.0011811706133512808
766.0, 0.0023525188224430274
767.0, 0.0013831688634387545
768.0, 0.0011941717447280715
769.0, 0.0015238636009613238
770.0, 0.0011548453455644226
771.0, 0.002133057522362626
772.0, 0.0006200003326967676
773.0, 0.002261287596850368
774.0, 0.002405618341899316
775.0, 0.001801051267678522
776.0, 0.0014682711709129335
777.0, 0.0013042631429892387
778.0, 0.0007941160117551871
779.0, 0.000489166698470466
780.0, 0.0010026444083397722
781.0, 0.0005802610500911809
782.0, 0.0013687679245755712
783.0, 0.0013116796637942965
784.0, 0.0008298822976525609
785.0, 0.0006492964028165496
786.0, 0.0006522153863233465
787.0, 0.00047353498517796217
788.0, 0.0008098312244123997
789.0, 0.00022455613832376102
790.0, 0.0006124730949285955
791.0, 0.0006148951808156482
792.0, 0.0004543389640644591
793.0, 0.00034096490094886605
794.0, 9.528002504196252e-05
795.0, 0.00013469758991661081
796.0, 0.0005076685149671648
797.0, 0.0004175081641830291
798.0, 0.00046372068135616483
799.0, 0.0010356336658372397
800.0, 0.0008932422652283226
801.0, 0.0003717686254635446
802.0, 0.0007143914276021235
803.0, 0.0009353660624951194
804.0, 0.0009205121442747037
805.0, 0.0007396676428504277
806.0, 0.00027863235707683735
807.0, 0.00034741367439240187
808.0, 0.0004366968085540494
809.0, 0.0009693423329963449
810.0, 0.001789993119585566
811.0, 0.0003594299459562908
812.0, 0.0016193962514871223
813.0, 0.0008215598483673804
814.0, 0.0010423259152551553
815.0, 0.0011861914783821636
816.0, 0.0007039599644337702
817.0, 0.00021498302026611788
818.0, 0.0002468743563323174
819.0, 0.00021737563405116418
820.0, 0.001049815073012237
821.0, 0.000453054309775959
822.0, 0.0006272743963417895
823.0, 0.0017770568564918487
824.0, 0.001648497285834847
825.0, 0.0016864170726394068
826.0, 0.002475252429782503
827.0, 0.0011814485472226798
828.0, 0.002868221600805601
829.0, 0.0023903732775080503
830.0, 0.0030994081028288658
831.0, 0.0034254720928258244
832.0, 0.003740179343740803
833.0, 0.004356613101515022
834.0, 0.005038397623076655
835.0, 0.005430998671926223
836.0, 0.005893569285798882
837.0, 0.007159678362011399
838.0, 0.008786538616059424
839.0, 0.010594164254373366
840.0, 0.012950937186283729
841.0, 0.015546897886555939
842.0, 0.018814454542720002
843.0, 0.023615431600182247
844.0, 0.029594962466489096
845.0, 0.03633846151991355
846.0, 0.046082303069157476
847.0, 0.05675068462296409
848.0, 0.07036957832541851
849.0, 0.08399163299001207
850.0, 0.0977891536989946
851.0, 0.11182186065454991
852.0, 0.12305236142907149
853.0, 0.1364495369547327
854.0, 0.14448105419974985
855.0, 0.14939724428415982
856.0, 0.14907490171996707
857.0, 0.143668719314254
858.0, 0.13289344676250842
859.0, 0.11857252534659389
860.0, 0.10413337080602153
861.0, 0.09024117725811626
862.0, 0.078189872663469
863.0, 0.06606315854833596
864.0, 0.05723331003699676
865.0, 0.04881375047618595
866.0, 0.042406655086104104
867.0, 0.03812489913349192
868.0, 0.03402438132378687
869.0, 0.02953309000823004
870.0, 0.02743368720492832
871.0, 0.026916150091992278
872.0, 0.023163036637677263
873.0, 0.021925617375686095
874.0, 0.020611205502043446
875.0, 0.019046772218577087
876.0, 0.018254245504588183
877.0, 0.017558035146012035
878.0, 0.01505836280777906
879.0, 0.015075885402282534
880.0, 0.015049558734157954
881.0, 0.014958614872609091
882.0, 0.01336166863798882
883.0, 0.011879523513650627
884.0, 0.011417275716419732
885.0, 0.011147159147224167
886.0, 0.010258404016332785
887.0, 0.01040489163502952
888.0, 0.009514087397390545
889.0, 0.009142771968417986
890.0, 0.008968307863056909
891.0, 0.009685885655466889
892.0, 0.01023697582966393
893.0, 0.010063807865365006
894.0, 0.009945009925564071
895.0, 0.010416992830157056
896.0, 0.008990756842189794
897.0, 0.010766315616341168
898.0, 0.010295422607223688
899.0, 0.009426718637759379
900.0, 0.008469457340659623
901.0, 0.008095982451497863
902.0, 0.008223495171900458
903.0, 0.007914724034007422
904.0, 0.006880889429616669
905.0, 0.007170354626125797
906.0, 0.007189076934449944
907.0, 0.007643761325138772
908.0, 0.007136117151523018
909.0, 0.006607581404330068
910.0, 0.006352168043241376
911.0, 0.006035543519516156
912.0, 0.005626611500823949
913.0, 0.005711745256141819
914.0, 0.005944807691042245
915.0, 0.005914458969260918
916.0, 0.006233964373010363
917.0, 0.006744689978846123
918.0, 0.006764896749676969
919.0, 0.005668013760352439
920.0, 0.004931693089149861
921.0, 0.005793044799816909
922.0, 0.005328512399165769
923.0, 0.0038134617559763993
924.0, 0.004843485393333409
925.0, 0.00389799062201153
926.0, 0.0038165751418516866
927.0, 0.004012587450090972
928.0, 0.004599770621872531
929.0, 0.004666772710941896
930.0, 0.004166745374176988
931.0, 0.00609998167527655
932.0, 0.00297945893629698
933.0, 0.004278120650357925
934.0, 0.003240736558921951
935.0, 0.0018032721220427913
936.0, 0.0031272008692946785
937.0, 0.003423798247531459
938.0, 0.0025101812347560273
939.0, 0.0025431334808776428
940.0, 0.00047781714080790674
941.0, 0.002483382435424437
942.0, 0.0032425616449674576
943.0, 0.0030088349618364535
944.0, 0.0014503399885482302
945.0, 0.0013950660050370217
946.0, 0.001686094450678601
947.0, 0.002168363217373974
948.0, 0.0034482447104181944
949.0, 0.0040817972770808755
950.0, 0.003767031507661791
951.0, 0.0035890948146827593
952.0, 0.004389845814031062
953.0, 0.005203251097824346
954.0, 0.005612476810439589
955.0, 0.005330656589270674
956.0, 0.005345389837473546
957.0, 0.006311601943325434
958.0, 0.0070846259732580226
959.0, 0.00635273892662379
960.0, 0.007108883509735947
961.0, 0.008224345033783418
962.0, 0.007936615734681886
963.0, 0.008135727228845249
964.0, 0.00841117913144235
965.0, 0.008040826991660156
966.0, 0.008581635837965165
967.0, 0.010976773532712137
968.0, 0.01173830749517482
969.0, 0.010723368406314396
970.0, 0.011882740817170782
971.0, 0.01180396360352003
972.0, 0.012695957290921671
973.0, 0.013288802437546026
974.0, 0.013843429379971229
975.0, 0.014735741551347306
976.0, 0.015904690177319353
977.0, 0.017175515110419114
978.0, 0.01799874776783528
979.0, 0.017672462463667955
980.0, 0.019095997697456554
981.0, 0.020274731447466235
982.0, 0.021228541905994228
983.0, 0.023064997341591127
984.0, 0.025194494261367283
985.0, 0.02759106172659107
986.0, 0.02967636316045251
987.0, 0.029739506741851666
988.0, 0.034002803323995565
989.0, 0.035490841959665134
990.0, 0.040379020606789225
991.0, 0.043276796470413686
992.0, 0.046980385391343006
993.0, 0.05293437829405425
994.0, 0.06090360602939556
995.0, 0.06930177783168617
996.0, 0.07796839827207816
997.0, 0.09048163480590508
998.0, 0.1057102396437509
999.0, 0.12163124187107577
1000.0, 0.14296513031913766
1001.0, 0.16991840578901513
1002.0, 0.2041455555615096
1003.0, 0.2474596272403474
1004.0, 0.30136463549863257
1005.0, 0.3668577371565841
1006.0, 0.44503330622109194
1007.0, 0.5367330980375963
1008.0, 0.6347920304170922
1009.0, 0.7306572679662956
1010.0, 0.8235254987353385
1011.0, 0.8929294140319617
1012.0, 0.9408667876958474
1013.0, 0.9599100682800754
1014.0, 0.9439167349921468
1015.0, 0.8871174820239863
1016.0, 0.7863561244017633
1017.0, 0.6609405674407649
1018.0, 0.5362702607639743
1019.0, 0.42742044127958606
1020.0, 0.34129253751327016
1021.0, 0.2719029443066761
1022.0, 0.22161903967090316
1023.0, 0.18666023878687052
1024.0, 0.16042098483387165
1025.0, 0.13892603803465295
1026.0, 0.12230997863950842
1027.0, 0.11147964064487152
1028.0, 0.10050198012611665
1029.0, 0.097433380695066
1030.0, 0.09199461324967655
1031.0, 0.08786948852101673
1032.0, 0.08910760514279535
1033.0, 0.0881381314617029
1034.0, 0.08788525836191667
1035.0, 0.09178585619973646
1036.0, 0.09583858905936474
1037.0, 0.10342614393896546
1038.0, 0.11458797895148129
1039.0, 0.12097012552816326
1040.0, 0.1351390500677569
1041.0, 0.14920574873186593
1042.0, 0.1647097612684145
1043.0, 0.17938777670569667
1044.0, 0.192508255301809
1045.0, 0.20460223315963477
1046.0, 0.21432174711564198
1047.0, 0.21829028753763238
1048.0, 0.2149533953202634
1049.0, 0.20402034386809867
1050.0, 0.18524136978808836
1051.0, 0.16545404366874922
1052.0, 0.14585271776701858
1053.0, 0.12468351392740941
1054.0, 0.10582601659149031
1055.0, 0.08981918314355006
1056.0, 0.07585622202851267
1057.0, 0.065964032259245
1058.0, 0.057079078273469336
1059.0, 0.049872818694016274
1060.0, 0.047139465065728324
1061.0, 0.03980060203888154
1062.0, 0.03662531900030658
1063.0, 0.03365211438471781
1064.0, 0.0311067523947115
1065.0, 0.029013343718949914
1066.0, 0.026431979609406783
1067.0, 0.023513803681995005
1068.0, 0.021584701436159617
1069.0, 0.020930855612004556
1070.0, 0.019160666852517803
1071.0, 0.018384891833008277
1072.0, 0.016985110864891555
1073.0, 0.016290457795238807
1074.0, 0.014966815002309715
1075.0, 0.01428158914895711
1076.0, 0.013937232033878883
1077.0, 0.013773540613706477
1078.0, 0.014499952269492968
1079.0, 0.014175507402644989
1080.0, 0.01451749276110236
1081.0, 0.01255637893493528
1082.0, 0.01351453850671075
1083.0, 0.012138801144873293
1084.0, 0.011005496337168534
1085.0, 0.01138459038539349
1086.0, 0.011981306220831423
1087.0, 0.012418889375580965
1088.0, 0.012840540401367454
1089.0, 0.012570682426369226
1090.0, 0.011859504937121408
1091.0, 0.010797888552458224
1092.0, 0.00920184306085286
1093.0, 0.01052214345181541
1094.0, 0.00962046016298641
1095.0, 0.009292923889295928
1096.0, 0.01020868693767782
1097.0, 0.010760259407681327
1098.0, 0.010128543057649875
1099.0, 0.008923397327648628
1100.0, 0.008457353623611786
1101.0, 0.009955820671723936
1102.0, 0.010574001062409796
1103.0, 0.009807959114045493
1104.0, 0.0110853152100957
1105.0, 0.010608242762154644
1106.0, 0.009084349094290822
1107.0, 0.007165557512392289
1108.0, 0.007772074950667965
1109.0, 0.009356267488784152
1110.0, 0.00954351420820014
1111.0, 0.009428965559571251
1112.0, 0.009575692060071623
1113.0, 0.00969469601518495
1114.0, 0.009378069003268619
1115.0, 0.010293152882948518
1116.0, 0.010222450310798213
1117.0, 0.01136422244805094
1118.0, 0.011385037090171085
1119.0, 0.011507885181858407
1120.0, 0.012097483550350905
1121.0, 0.012183307510072548
1122.0, 0.01188207021889341
1123.0, 0.011909511422840422
1124.0, 0.011057635840193255
1125.0, 0.01200835175042181
1126.0, 0.010923389454263036
1127.0, 0.01160544867417538
1128.0, 0.010873560910025925
1129.0, 0.01128106284231786
1130.0, 0.010556000214048527
1131.0, 0.009759125661454064
1132.0, 0.009490355923476676
1133.0, 0.008603966651763079
1134.0, 0.007689846157883939
1135.0, 0.008717853924853105
1136.0, 0.008906403423811882
1137.0, 0.006250785458201808
1138.0, 0.00838372452713125
1139.0, 0.007910141613458767
1140.0, 0.0067535692240021225
1141.0, 0.0062868798898840774
1142.0, 0.005890643939295305
1143.0, 0.00575644077172583
1144.0, 0.005602715190789673
1145.0, 0.005474468912672525
1146.0, 0.0061074283915557095
1147.0, 0.005751178460813885
1148.0, 0.004399543731766121
1149.0, 0.0053072896371698704
1150.0, 0.006573476194382593
1151.0, 0.004523194379678642
1152.0, 0.0036780927524311647
1153.0, 0.004353786063217966
1154.0, 0.0037462822919898963
1155.0, 0.0033242542517032446
1156.0, 0.004046618725196991
1157.0, 0.00418620716452105
1158.0, 0.0034595250360884484
1159.0, 0.0029427026139328015
1160.0, 0.0013693056009022315
1161.0, 0.0018918082284238417
1162.0, 0.0008502177901867881
1163.0, 0.0012828388430033636
1164.0, 0.00042202636015160574
1165.0, 0.000394388138137696
1166.0, 0.0006244129307774404
1167.0, 0.0012771433603054618
1168.0, 0.0013058719088454166
1169.0, 0.0003243724174425794
1170.0, 0.0002206675701109323
1171.0, 0.0005954290314334471
1172.0, 0.0004012507886866064
1173.0, 0.0008490649347526591
1174.0, 0.0009345394511440727
1175.0, 0.0005504871148675077
1176.0, 0.0005123663805790006
1177.0, 0.0004200645267447949
1178.0, 0.0012392038630150506
1179.0, 0.001489357370384868
1180.0, 0.0009532656030587153
1181.0, 0.0009603896673955678
1182.0, 0.0011925861649146343
1183.0, 0.0005258952404442099
1184.0, 0.0009334768725814901
1185.0, 0.00010962419688401181
1186.0, 0.0009808482469937005
1187.0, 0.0003280891117470474
1188.0, 0.0010463232607724753
1189.0, 0.0010642517713601166
1190.0, 0.0007615487333105427
1191.0, 0.0006888080274479373
1192.0, 0.0008409791394087856
1193.0, 0.0008401279293900415
1194.0, 0.0010592248228441362
1195.0, 0.0013575493358227366
1196.0, 0.00028228869473747686
1197.0, 0.0009423832939927459
1198.0, 0.00012153611667623417
1199.0, 3.336220172343218e-05
1200.0, 0.000463824710310038
1201.0, 0.00012882660674040042
1202.0, 3.961574012446217e-05
1203.0, 0.0001941791647824344
1204.0, 0.0004300896834760827
1205.0, 0.000994002228007494
1206.0, 0.0016548058704119572
1207.0, 0.0013231171711426473
1208.0, 0.0003920016033972517
1209.0, 0.0010979669464088104
1210.0, 0.0008922635832921012
1211.0, 0.0018028953256412584
1212.0, 0.001844635416574403
1213.0, 0.0006028935317048537
1214.0, 0.001053979413249755
1215.0, 0.0004723732219546099
1216.0, 0.0002476825940887379
1217.0, 0.00028475132503430446
1218.0, 0.00024582201206083554
1219.0, 0.0012731766992474553
1220.0, 0.001923590090743248
1221.0, 0.0009572703141214971
1222.0, 0.0018343282038081167
1223.0, 0.0006894057702729825
1224.0, 0.0005806102206268925
1225.0, 0.003009861869681383
1226.0, 0.0007175286793207065
1227.0, 0.0020828283114068813
1228.0, 0.0017315930105181799
1229.0, 0.0007709759211728649
1230.0, 0.0011972611765117879
1231.0, 0.0017170884152668665
1232.0, 0.0017387779513544789
1233.0, 0.0015290038821900217
1234.0, 0.0012121960520531541
1235.0, 0.0012102483961917265
1236.0, 0.001211628996278283
1237.0, 0.0009408226405484149
1238.0, 0.001554169369436054
1239.0, 0.0018476506135059506
1240.0, 0.001774600091863425
1241.0, 0.0021393509196006664
1242.0, 0.0030084175635817847
1243.0, 0.0036117913338602338
1244.0, 0.0019775604433769404
1245.0, 0.0017605891421413528
1246.0, 0.0016765524413870506
1247.0, 0.0006680392820805639
1248.0, 0.001724028353757553
1249.0, 0.0034403369048507464
1250.0, 0.0030014355513029384
1251.0, 0.0026508266730685156
1252.0, 0.0024690613062522964
1253.0, 0.0013299217874408555
1254.0, 0.003744033207004498
1255.0, 0.0037993210808415466
1256.0, 0.002988474029937748
1257.0, 0.003244866958754494
1258.0, 0.003050663333414254
1259.0, 0.002273042787291279
1260.0, 0.002125192723086328
1261.0, 0.002585385270574905
1262.0, 0.0024147230645630395
1263.0, 0.0022512474875946197
1264.0, 0.004097357452240367
1265.0, 0.004416545066863063
1266.0, 0.003137499344293604
1267.0, 0.0016396771498305665
1268.0, 0.00312077378918475
1269.0, 0.0032610527343625816
1270.0, 0.0026276444219726224
1271.0, 0.004267437748004399
1272.0, 0.004075538029626085
1273.0, 0.003267163046124564
1274.0, 0.003973226660570805
1275.0, 0.004085325532895001
1276.0, 0.0033903787814336165
1277.0, 0.003857427628000165
1278.0, 0.0035376098117927334
1279.0, 0.002556111540376425
1280.0, 0.0036360212255861857
1281.0, 0.004871096179294676
1282.0, 0.0037545412983235322
1283.0, 0.005654926835347697
1284.0, 0.0033795731680644585
1285.0, 0.003631517413409726
1286.0, 0.003372053760742804
1287.0, 0.0028757401083284464
1288.0, 0.003922596488499329
1289.0, 0.00343444500765134
1290.0, 0.0026865046356669762
1291.0, 0.0031695409129658464
1292.0, 0.0032354226909593253
1293.0, 0.00390035759450621
1294.0, 0.003261836153964494
1295.0, 0.001976461484158456
1296.0, 0.004313018358340519
1297.0, 0.002863851912465763
1298.0, 0.0036088629755091565
1299.0, 0.003395236200727022
1300.0, 0.004900925564066433
1301.0, 0.003642803246846116
1302.0, 0.003911367687552711
1303.0, 0.004380724513462467
1304.0, 0.004604617149134044
1305.0, 0.004469703032539398
1306.0, 0.004243931884878583
1307.0, 0.003933138980144095
1308.0, 0.0033206591931176843
1309.0, 0.003380355299307523
1310.0, 0.002865910062153608
1311.0, 0.005511335574845126
1312.0, 0.003559666603247193
1313.0, 0.0015124929426485441
1314.0, 0.005006163469695839
1315.0, 0.002860195144118218
1316.0, 0.004047627728935299
1317.0, 0.0035843404209743193
1318.0, 0.004430703545539667
1319.0, 0.0042790572963894965
1320.0, 0.0049807921039276065
1321.0, 0.004835004566167672
1322.0, 0.0039973416234174945
1323.0, 0.00522725326728274
1324.0, 0.006278239709266891
1325.0, 0.005707056907369781
1326.0, 0.005441714606559197
1327.0, 0.003259909941350677
1328.0, 0.005047632379105372
1329.0, 0.004380691164480553
1330.0, 0.005413916087510974
1331.0, 0.006065928775393624
1332.0, 0.005034665072685563
1333.0, 0.004550216375737363
1334.0, 0.004963031294539463
1335.0, 0.005046052587315264
1336.0, 0.00465617642464732
1337.0, 0.003541118404298845
1338.0, 0.003844631209344126
1339.0, 0.005472969859689767
1340.0, 0.005792061178887639
1341.0, 0.004689960013324438
1342.0, 0.003331398154974477
1343.0, 0.004676468404501711
1344.0, 0.003424216870875052
1345.0, 0.00465376991222173
1346.0, 0.004645335055539136
1347.0, 0.005617098365511672
1348.0, 0.004125246122136372
1349.0, 0.0031567675225580107
1350.0, 0.004131478199203836
1351.0, 0.005826937230452839
1352.0, 0.004320409972733399
1353.0, 0.0035256355654885003
1354.0, 0.0029677022523359716
1355.0, 0.0036583140562407614
1356.0, 0.0049322532483597765
1357.0, 0.004195647323024894
1358.0, 0.003696227109149714
1359.0, 0.0044486909974218065
1360.0, 0.004029822695857408
1361.0, 0.0031661664876923177
1362.0, 0.0036799826577698157
1363.0, 0.003252290337736741
1364.0, 0.0035007192137808426
1365.0, 0.0034546316182335053
1366.0, 0.0031918747121474893
1367.0, 0.003677084159446756
1368.0, 0.0028236318687419595
1369.0, 0.001721831752078685
1370.0, 0.0021931717928686425
1371.0, 0.0034937988480067293
1372.0, 0.001894701585818987
1373.0, 0.002425825586452818
1374.0, 0.004224858485772676
1375.0, 0.002598428723277123
1376.0, 0.0015352433106034132
1377.0, 0.0019563834874823695
1378.0, 0.002339019570688989
1379.0, 0.0004383119115489128
1380.0, 0.0003678329691391186
1381.0, 0.0019353334466808358
1382.0, 0.0027373419459610455
1383.0, 0.0013538872299433734
1384.0, 0.000907672468401921
1385.0, 0.001455156259098791
1386.0, 0.002720148581937825
1387.0, 0.00337182548651399
1388.0, 0.001434975161208695
1389.0, 0.0014350382888642737
1390.0, 0.0016525387349019562
1391.0, 0.0016845331650851229
1392.0, 0.0020487852989122886
1393.0, 0.0020064963689127597
1394.0, 0.0019290797730711993
1395.0, 0.0024650517960136584
1396.0, 0.0029353526778028477
1397.0, 0.0030622155919635386
1398.0, 0.003339776651376483
1399.0, 0.0030714514545647463
1400.0, 0.0030777212070732833
1401.0, 0.0018043388380870754
1402.0, 0.0016936151575226456
1403.0, 0.0027696858091843727
1404.0, 0.001099412853090678
1405.0, 0.0017286182685530532
1406.0, 0.00211454187536267
1407.0, 0.001168580374875655
1408.0, 0.0007225366138726753
1409.0, 0.0014886113943867437
1410.0, 0.001499456262768281
1411.0, 0.0008597008790679333
1412.0, 0.0006640044095210371
1413.0, 0.0015661604268746958
1414.0, 0.0024870307495485017
1415.0, 0.0018833411958286694
1416.0, 0.0013705850252804979
1417.0, 0.0022880512365723075
1418.0, 0.0028660558160343076
1419.0, 0.0009114492567420193
1420.0, 0.0031276188117749185
1421.0, 0.0010039992199266125
1422.0, 0.001792771474535279
1423.0, 0.000713746875385262
1424.0, 0.0031774544731656604
1425.0, 0.0023630824474381047
1426.0, 0.0007221798315573801
1427.0, 0.001389467504946589
1428.0, 0.002615634748580455
1429.0, 0.003432178019127598
1430.0, 0.0036956038984708043
1431.0, 0.0036996598237606566
1432.0, 0.0028479046740697814
1433.0, 0.002386311399766619
1434.0, 0.001897897294867592
1435.0, 0.0008009558233249443
1436.0, 0.00037773263506459144
1437.0, 0.0004101965450047893
1438.0, 0.001521821124407539
1439.0, 0.0021936194134892987
1440.0, 0.00014033835002693744
1441.0, 0.0006523248101731864
1442.0, 0.0013308362390949966
1443.0, 0.0037438160244329223
1444.0, 0.0029155627205122514
1445.0, 0.0018546091776398598
1446.0, 0.0017632122634861616
1447.0, 0.0028298675378381167
1448.0, 0.0029008829219439453
1449.0, 0.0006298105566759146
1450.0, 0.0020532881890365233
1451.0, 0.0021231212545082174
1452.0, 0.0007594781741982283
1453.0, 0.0015817971488626156
1454.0, 0.0022251691042726356
1455.0, 0.002113845005782122
1456.0, 0.0019884897819729165
1457.0, 0.002037142225739528
1458.0, 0.0022383586046539556
1459.0, 0.0020464098997296566
1460.0, 0.002725824186162481
1461.0, 0.0037846145661881623
1462.0, 0.002256927959035142
1463.0, 0.0019363818991927056
1464.0, 0.0030701236128903697
1465.0, 0.0005588530149561433
1466.0, 0.0008141889730143616
1467.0, 0.0033029331167587334
1468.0, 0.0028432881818536617
1469.0, 0.0018590198197840854
1470.0, 0.00103058270484482
1471.0, 0.0014650874421334302
1472.0, 0.001283532679478061
1473.0, 0.0010171961529968283
1474.0, 0.0021259324135404034
1475.0, 0.0025894031044708292
1476.0, 0.0026342439164211947
1477.0, 0.0019452830590651867
1478.0, 0.001621519101801338
1479.0, 0.002208185563802673
1480.0, 0.0030602977769537305
1481.0, 0.0021003679692202645
1482.0, 0.0016134408995833482
1483.0, 0.0018152363985720048
1484.0, 0.001310501196507816
1485.0, 0.0027232866986705065
1486.0, 0.0014003308686496275
1487.0, 0.0022726043826463613
1488.0, 0.002095818681414627
1489.0, 0.0028536705127317637
1490.0, 0.0031023538866881873
1491.0, 0.001959371459173591
1492.0, 0.0036436889665788
1493.0, 0.0014785301153538584
1494.0, 0.0032021885589863706
1495.0, 0.002607982523279225
1496.0, 0.0021309849008686287
1497.0, 0.0017979551197684614
1498.0, 0.0006439558817700668
1499.0, 0.0017062061514133062
1500.0, 0.0006580551351091873
1501.0, 0.0015790706939187015
1502.0, 0.003466686394646943
1503.0, 0.0030992517718526342
1504.0, 0.0031599512464799426
1505.0, 0.00436739101518428
1506.0, 0.003051544111939815
1507.0, 0.001034106650332142
1508.0, 0.0017575374204399552
1509.0, 0.0023478943958561206
1510.0, 0.0027878437903178523
1511.0, 0.0031575482554528295
1512.0, 0.0015817907381482556
1513.0, 0.002389035951299515
1514.0, 0.0016533361498888245
1515.0, 0.0023985243591627325
1516.0, 0.0033326847291763927
1517.0, 0.0034111589301147327
1518.0, 0.0015881302822238388
1519.0, 0.0029625092356302596
1520.0, 0.0016746310589642597
1521.0, 0.0017672679600897394
1522.0, 0.0012748241684701598
1523.0, 0.001189480907463553
1524.0, 0.0005231391280589102
1525.0, 0.0038114650918426697
1526.0, 0.001203663740260978
1527.0, 0.0036530211160605936
1528.0, 0.0038294716863286546
1529.0, 0.004803185308890433
1530.0, 0.004207752134670268
1531.0, 0.002464838652416106
1532.0, 0.0026265508574633725
1533.0, 0.0021604298572332433
1534.0, 0.0022371137291280663
1535.0, 0.002348463007063588
1536.0, 0.0020779359734236793
1537.0, 0.0022252902749331613
1538.0, 0.002243360400887123
1539.0, 0.0021719493283000584
1540.0, 0.0025319568027754123
1541.0, 0.0025515231254048267
1542.0, 0.002159547904041104
1543.0, 0.001862059133768251
1544.0, 0.001750052981370396
1545.0, 0.0020033571431943295
1546.0, 0.001260093129618221
1547.0, 0.001146514648895526
1548.0, 0.0014555318255952715
1549.0, 0.0007480671732699956
1550.0, 0.0017875117727427195
1551.0, 0.002204205954262025
1552.0, 0.0030136917062477445
1553.0, 0.003054632759930442
1554.0, 0.002603573828191874
1555.0, 0.0028948849496193215
1556.0, 0.0015475518576868958
1557.0, 0.002965973049349921
1558.0, 0.0023657260458224026
1559.0, 0.00201439738091259
1560.0, 0.0032025202871194137
1561.0, 0.00271603170393427
1562.0, 0.0023970297115393072
1563.0, 0.00222783504042566
1564.0, 0.0020815253308501427
1565.0, 0.001873213894507978
1566.0, 0.0019141986489652455
1567.0, 0.0019494468712280607
1568.0, 0.0017754680855741746
1569.0, 0.0006278950572160259
1570.0, 0.0014771303736137267
1571.0, 0.0013820795830658227
1572.0, 0.00032014180404058565
1573, 0.0
1574, 0.0
1575, 0.0
1576, 0.0
1577, 0.0
1578, 0.0
1579, 0.0
1580, 0.0
1581, 0.0
1582, 0.0
1583, 0.0
1584, 0.0
1585, 0.0
1586, 0.0
1587, 0.0
1588, 0.0
1589, 0.0
1590, 0.0
1591, 0.0
1592, 0.0
1593, 0.0
1594, 0.0
1595, 0.0
1596, 0.0
1597, 0.0
1598, 0.0
1599, 0.0
