30, 0.0
31, 0.0
32, 0.0
33, 0.0
34, 0.0
35, 0.0
36, 0.0
37, 0.0
38, 0.0
39, 0.0
40, 0.0
41, 0.0
42, 0.0
43, 0.0
44, 0.0
45, 0.0
46, 0.0
47, 0.0
48, 0.0
49, 0.0
50, 0.0
51, 0.0
52, 0.0
53, 0.0
54, 0.0
55, 0.0
56, 0.0
57, 0.0
58, 0.0
59, 0.0
60, 0.0
61, 0.0
62, 0.0
63, 0.0
64, 0.0
65, 0.0
66, 0.0
67, 0.0
68, 0.0
69, 0.0
70, 0.0
71, 0.0
72, 0.0
73, 0.0
74, 0.0
75, 0.0
76, 0.0
77, 0.0
78, 0.0
79, 0.0
80, 0.0
81, 0.0
82, 0.0
83, 0.0
84, 0.0
85, 0.0
86, 0.0
87, 0.0
88, 0.0
89, 0.0
90, 0.0
91, 0.0
92, 0.0
93, 0.0
94, 0.0
95, 0.0
96, 0.0
97, 0.0
98, 0.0
99, 0.0
100, 0.0
101, 0.0
102, 0.0
103, 0.0
104, 0.0
105, 0.0
106, 0.0
107, 0.0
108, 0.0
109, 0.0
110, 0.0
111, 0.0
112, 0.0
113, 0.0
114, 0.0
115, 0.0
116, 0.0
117, 0.0
118.0, 0.00039566147728947764
119.0, 0.001134200297371737
120.0, 0.0015364707693556986
121.0, 0.00011214935878393634
122.0, 0.0020318151746072715
123.0, 0.002180319116994554
124.0, 0.0022298275525899696
125.0, 0.0024052571766503923
126.0, 0.0017041309432462856
127.0, 0.001058240786383818
128.0, 0.001853424938151106
129.0, 0.002594511857649466
130.0, 0.0035220927660778736
131.0, 0.005331743782838249
132.0, 0.0059352661971099965
133.0, 0.006997823309399278
134.0, 0.008300930478867145
135.0, 0.009307381072919774
136.0, 0.00975693768404664
137.0, 0.010641844132598876
138.0, 0.010511958995083165
139.0, 0.010567987523560746
140.0, 0.010387821813274743
141.0, 0.009012191638450844
142.0, 0.0048620044022644054
143.0, 0.0028810196707457093
144.0, 0.002089403825108755
145.0, 0.0014362278755027035
146.0, 0.0008098330747429445
147.0, 0.0009482718484143656
148.0, 0.0011945898635732717
149.0, 0.0006948021590901206
150.0, 0.0006527015816872759
151.0, 0.0011621466014380161
152.0, 0.0018186857691250846
153.0, 0.002618243380148557
154.0, 0.0029334174237359723
155.0, 0.004076283262645106
156.0, 0.005447714759515863
157.0, 0.006434177065110928
158.0, 0.007615016940890548
159.0, 0.00807277076393223
160.0, 0.009728951244530942
161.0, 0.010803782526312219
162.0, 0.010997187118031616
163.0, 0.012254294785540867
164.0, 0.013512086540138295
165.0, 0.012983164188845753
166.0, 0.011736480780311987
167.0, 0.009892767925014161
168.0, 0.007419403399893199
169.0, 0.00794246225097729
170.0, 0.008036807314124811
171.0, 0.007418440468242168
172.0, 0.006766955007368388
173.0, 0.006807585733800195
174.0, 0.007612371686826129
175.0, 0.007531465239575296
176.0, 0.007430489945049533
177.0, 0.007918923395473669
178.0, 0.008870856739766212
179.0, 0.009308804114709272
180.0, 0.010493788170660264
181.0, 0.010824685494943186
182.0, 0.011174671570082664
183.0, 0.011621305988397687
184.0, 0.01181240609416893
185.0, 0.011568168111370762
186.0, 0.010918885417996226
187.0, 0.011600259395625293
188.0, 0.012032350128056922
189.0, 0.011353830932382316
190.0, 0.01204935123988292
191.0, 0.012373384958768207
192.0, 0.011628005280478856
193.0, 0.010242843943110543
194.0, 0.009034050485118279
195.0, 0.008882110932830894
196.0, 0.007751679305617871
197.0, 0.006782915541271395
198.0, 0.0064884833981587705
199.0, 0.006414612741612368
200.0, 0.006060758254552207
201.0, 0.006139889130167877
202.0, 0.006112831932970102
203.0, 0.005429323640230869
204.0, 0.0038775101509554927
205.0, 0.0018626479109163788
206.0, 0.000489480741755129
207.0, 0.00026653971215701564
208.0, 0.001498400507401089
209.0, 0.002012253074409356
210.0, 0.0013317484309924308
211.0, 0.0002357785432635289
212.0, 0.0011064307496805091
213.0, 0.00041259802184185506
214.0, 0.0011895752869899062
215.0, 0.0019101158047877137
216.0, 0.0017461916553475473
217.0, 0.0023111407277760045
218.0, 0.0042971612588104035
219.0, 0.005170532990222556
220.0, 0.0055251830212678064
221.0, 0.006170795269529717
222.0, 0.007495171299230658
223.0, 0.006777379610831057
224.0, 0.0081609182493285
225.0, 0.009014061560304886
226.0, 0.009296105295773153
227.0, 0.009767395110963634
228.0, 0.011649542323856232
229.0, 0.011554882900878975
230.0, 0.012019440272559738
231.0, 0.012568525058481932
232.0, 0.013227374232643828
233.0, 0.014112685693489913
234.0, 0.013812129233044167
235.0, 0.01340847300343128
236.0, 0.01291399266912656
237.0, 0.013491157890969389
238.0, 0.014783760500703047
239.0, 0.01372966440092855
240.0, 0.014938338166227758
241.0, 0.014126274739512173
242.0, 0.014461384688064377
243.0, 0.01523641495815464
244.0, 0.014571092484394465
245.0, 0.01572548125332807
246.0, 0.01659689446055735
247.0, 0.017372358422522476
248.0, 0.018044953718363926
249.0, 0.018557381345862916
250.0, 0.01881474658359056
251.0, 0.018367877208557985
252.0, 0.01834951454404606
253.0, 0.017912725042896756
254.0, 0.0172463297317576
255.0, 0.016865352048476334
256.0, 0.016833081588286114
257.0, 0.016618019135728263
258.0, 0.016701026216501873
259.0, 0.016374212459140544
260.0, 0.015998811138743543
261.0, 0.01661792332312889
262.0, 0.014217171593500336
263.0, 0.012317023001037998
264.0, 0.011242564807548391
265.0, 0.010617225656705639
266.0, 0.009943046241401616
267.0, 0.008952101751533579
268.0, 0.009348956620648321
269.0, 0.009367912227224908
270.0, 0.00855178313505175
271.0, 0.007590834800807114
272.0, 0.007409601307791686
273.0, 0.006625016631782963
274.0, 0.008205741649133961
275.0, 0.007164512645914108
276.0, 0.006882229898838389
277.0, 0.008433995170406642
278.0, 0.008745622645205592
279.0, 0.009264578942015694
280.0, 0.00924579839591084
281.0, 0.010159626577885628
282.0, 0.011462771559374921
283.0, 0.012321764429396155
284.0, 0.012934323114781033
285.0, 0.01367160207051999
286.0, 0.014818574618054713
287.0, 0.016228845590934283
288.0, 0.01814044240978123
289.0, 0.020594925468186177
290.0, 0.021358851313670414
291.0, 0.024664127711379557
292.0, 0.026648008363060104
293.0, 0.028648743918301158
294.0, 0.03127328839564307
295.0, 0.0335212305101998
296.0, 0.035443478198727445
297.0, 0.038125879829290214
298.0, 0.04151325968191929
299.0, 0.044675410020403046
300.0, 0.0468598381387163
301.0, 0.04820644114506595
302.0, 0.05138627298766815
303.0, 0.0557326448607041
304.0, 0.05997195396045292
305.0, 0.06420172003452125
306.0, 0.06901867582936591
307.0, 0.07425536791257155
308.0, 0.08274226608108519
309.0, 0.08982719198113286
310.0, 0.09647192656523351
311.0, 0.10433568107291072
312.0, 0.11438383032297345
313.0, 0.12276019104381897
314.0, 0.13402942886209787
315.0, 0.14526487470377195
316.0, 0.15473396765683978
317.0, 0.16548224646952098
318.0, 0.18286103669734824
319.0, 0.17662005129930952
320.0, 0.18346454969656822
321.0, 0.18594215864387914
322.0, 0.18201227291479186
323.0, 0.1750110600976361
324.0, 0.16960167040961996
325.0, 0.16221852104254156
326.0, 0.1525676057865139
327.0, 0.14096307135505695
328.0, 0.13024272227836933
329.0, 0.12220701817605104
330.0, 0.11385152964781965
331.0, 0.10506909229687152
332.0, 0.09934468252822853
333.0, 0.09356123288013865
334.0, 0.08876607282186548
335.0, 0.087051114448615
336.0, 0.08585367685782545
337.0, 0.08522120863521407
338.0, 0.08508993348269105
339.0, 0.08517393130217182
340.0, 0.08625556121302923
341.0, 0.08936203547587769
342.0, 0.093334483911617
343.0, 0.09653982866618187
344.0, 0.10306526604804409
345.0, 0.10954879847102626
346.0, 0.11613615085281205
347.0, 0.1257896157222552
348.0, 0.13465568674574083
349.0, 0.14196102316092676
350.0, 0.14936685356013388
351.0, 0.15614473058935988
352.0, 0.16155571399424398
353.0, 0.16500809440106162
354.0, 0.16309768788671394
355.0, 0.15653641551638736
356.0, 0.1483964272245996
357.0, 0.14100989418354068
358.0, 0.1331643974412863
359.0, 0.12063020230118782
360.0, 0.11001891915423524
361.0, 0.10128922077276666
362.0, 0.0947749621569211
363.0, 0.08866123341117535
364.0, 0.08216686584668614
365.0, 0.07660407650882917
366.0, 0.07257667229456458
367.0, 0.06938128550411096
368.0, 0.06781757943644304
369.0, 0.06777655898554602
370.0, 0.06897210463334921
371.0, 0.07131412806859332
372.0, 0.07555029267594396
373.0, 0.08167596101301708
374.0, 0.08829607840564062
375.0, 0.0968690171909471
376.0, 0.10726804546620472
377.0, 0.11642750090968233
378.0, 0.12975622121080146
379.0, 0.14594323857955768
380.0, 0.16124629034663357
381.0, 0.175731891054636
382.0, 0.1907436763083019
383.0, 0.20761180796612594
384.0, 0.2256103151319342
385.0, 0.23417039401172018
386.0, 0.23980844116736433
387.0, 0.24307353462078057
388.0, 0.24153648002823896
389.0, 0.23174094945203905
390.0, 0.21847796774551356
391.0, 0.19766129729142662
392.0, 0.1759388939471867
393.0, 0.15497082372241328
394.0, 0.1347009759974906
395.0, 0.11466338091277829
396.0, 0.09669567824791966
397.0, 0.08316275968981042
398.0, 0.06984317427686135
399.0, 0.057504062110047285
400.0, 0.04787413761605781
401.0, 0.04178729808416243
402.0, 0.03523776724346399
403.0, 0.029663663994723
404.0, 0.025325190844689816
405.0, 0.021764577470741474
406.0, 0.018690901529241657
407.0, 0.016249521186767577
408.0, 0.015138730587673453
409.0, 0.012915643393075597
410.0, 0.011994011677964734
411.0, 0.010912831694366593
412.0, 0.009553658320321318
413.0, 0.009104738726550307
414.0, 0.008743439824654415
415.0, 0.007677233710140547
416.0, 0.006968890329445618
417.0, 0.006636052830466898
418.0, 0.0061505031375523435
419.0, 0.005020884176431225
420.0, 0.003942484980542415
421.0, 0.0029402753188014644
422.0, 0.002874914428142529
423.0, 0.0025827541985362413
424.0, 0.002169511149471489
425.0, 0.0018775070963646025
426.0, 0.00020030554554933792
427.0, 0.0009045800016723251
428.0, 0.0008076158598459591
429.0, 0.00034628461170361005
430.0, 0.0003784660196191244
431.0, 0.001077766132878468
432.0, 0.0011393259615696053
433.0, 0.0007149181236157894
434.0, 0.0014638493312678536
435.0, 0.0017425825148330498
436.0, 0.0014929366027462915
437.0, 0.0013263354598146682
438.0, 0.0019113051418786363
439.0, 0.002869121966385016
440.0, 0.0020997254503572474
441.0, 0.0012738870961702257
442.0, 0.0007973666800308549
443.0, 0.0004885274340792001
444.0, 5.7269344149616855e-05
445.0, 0.0004218507869293411
446.0, 0.0016450780337475147
447.0, 0.001959115328829678
448.0, 0.0029445579710566565
449.0, 0.004783454559936737
450.0, 0.006475645443014322
451.0, 0.00736355748466039
452.0, 0.008057322908109312
453.0, 0.009553942725009588
454.0, 0.009755139299557238
455.0, 0.009713931437723386
456.0, 0.010741892215517681
457.0, 0.011675118160245308
458.0, 0.011455966994726606
459.0, 0.010947940340767865
460.0, 0.011361514007295192
461.0, 0.011074318146218204
462.0, 0.009757564417086629
463.0, 0.009253574635006964
464.0, 0.008448075502129714
465.0, 0.006707154520586689
466.0, 0.0060317970361777225
467.0, 0.005866432621918381
468.0, 0.005706188309578598
469.0, 0.005356863074841905
470.0, 0.004466996657674049
471.0, 0.00441777920341763
472.0, 0.0030964467443393116
473.0, 0.003220277617452774
474.0, 0.003379612335652847
475.0, 0.0024639664621801407
476.0, 0.0034474057523126308
477.0, 0.00308202004337282
478.0, 0.0028371685314990355
479.0, 0.0026262897883781557
480.0, 0.002560095804483948
481.0, 0.0026508634472242345
482.0, 0.002755829940698323
483.0, 0.0027735652474369017
484.0, 0.0031663314108758096
485.0, 0.003000935106341302
486.0, 0.002568139266631059
487.0, 0.002775674887714523
488.0, 0.0035883513740833073
489.0, 0.002194375339065119
490.0, 0.0026359834279074874
491.0, 0.0028114137956606255
492.0, 0.0033065492206882812
493.0, 0.0037032123211929607
494.0, 0.003868257249774629
495.0, 0.004303584868891957
496.0, 0.0040400462258583
497.0, 0.0041990573382119836
498.0, 0.004311795214407345
499.0, 0.005469869480075334
500.0, 0.006480282457585447
501.0, 0.005977113740282421
502.0, 0.006945406400880981
503.0, 0.0076515826165515655
504.0, 0.006873213484325965
505.0, 0.007968453179360369
506.0, 0.00958851742560706
507.0, 0.009979695098727188
508.0, 0.009635936413272476
509.0, 0.010908332027461986
510.0, 0.010948933122234144
511.0, 0.01244495090851421
512.0, 0.012551998102917591
513.0, 0.01192138815602634
514.0, 0.0128677593635067
515.0, 0.014047489907559711
516.0, 0.01362251599993894
517.0, 0.014101659965671202
518.0, 0.01537231050484978
519.0, 0.016050378679460207
520.0, 0.016399700108382667
521.0, 0.01837071718631103
522.0, 0.019261137235993226
523.0, 0.020528598440488873
524.0, 0.020211070703567733
525.0, 0.021241601437723377
526.0, 0.02281696005963387
527.0, 0.023470493642890337
528.0, 0.025410680388256692
529.0, 0.024136006495163384
530.0, 0.025038808443327593
531.0, 0.025356884495345473
532.0, 0.024460497605087304
533.0, 0.02356869136710998
534.0, 0.023999465674558632
535.0, 0.02294713805759333
536.0, 0.022387553736894914
537.0, 0.022325685711340002
538.0, 0.02209585993924376
539.0, 0.021952257800895967
540.0, 0.022116681643259636
541.0, 0.0222609156503732
542.0, 0.023074244602786828
543.0, 0.023868993618408826
544.0, 0.025094920401455487
545.0, 0.02644264919197262
546.0, 0.028341632104431712
547.0, 0.031210405071526188
548.0, 0.034290824107797706
549.0, 0.03831273161100221
550.0, 0.0433773202064811
551.0, 0.049229848052747056
552.0, 0.05506616490887879
553.0, 0.061160044700383394
554.0, 0.06796249865365436
555.0, 0.07271889040248229
556.0, 0.08033787526840433
557.0, 0.08229728530689316
558.0, 0.08124446647759219
559.0, 0.07728454217801184
560.0, 0.07074041570370927
561.0, 0.06313737841519668
562.0, 0.053556213435082205
563.0, 0.046646595979461136
564.0, 0.039440293283317364
565.0, 0.033318023707128316
566.0, 0.02865532235634886
567.0, 0.02488614295763039
568.0, 0.021290694683521846
569.0, 0.01849003254211389
570.0, 0.01691720345115015
571.0, 0.015424680400969757
572.0, 0.013703405108751307
573.0, 0.012157124155260046
574.0, 0.011283776715106589
575.0, 0.01087078897822252
576.0, 0.009523829486162943
577.0, 0.008039434389426373
578.0, 0.007393924882515129
579.0, 0.00650982176860734
580.0, 0.005402733070802819
581.0, 0.004783860177484407
582.0, 0.003968949207854032
583.0, 0.0022961609434323967
584.0, 0.0015892570457719402
585.0, 0.0015028021582750314
586.0, 0.0012579982741916487
587.0, 0.0009175388411085344
588.0, 0.0009386809956175589
589.0, 0.000300352734594472
590.0, 0.0005650635754805889
591.0, 0.00024640432601074773
592.0, 0.0003277909806338006
593.0, 0.0006342386539683397
594.0, 0.0009940007369101732
595.0, 0.0014453312519258964
596.0, 0.0013824921027427064
597.0, 0.0015000149593966854
598.0, 0.0005771112839710719
599.0, 0.00036191960159811
600.0, 0.00030320132190503747
601.0, 0.00021868017652366273
602.0, 0.0007682382431380699
603.0, 0.000762535233319076
604.0, 0.0006199254228274707
605.0, 0.001642460027522322
606.0, 0.00183016416967282
607.0, 0.0014580468456978888
608.0, 0.00164550878064264
609.0, 0.002781116233061935
610.0, 0.0028604202311436457
611.0, 0.0024408880968308784
612.0, 0.0035945742277438643
613.0, 0.004441173714929075
614.0, 0.005009057926947399
615.0, 0.00573976196766057
616.0, 0.006480787493139145
617.0, 0.0063988384129554585
618.0, 0.0069662047447446515
619.0, 0.007092255791953544
620.0, 0.0075569994771936605
621.0, 0.0082217060557543
622.0, 0.009168388949275536
623.0, 0.01042865545751497
624.0, 0.009913321706868665
625.0, 0.011969849841346825
626.0, 0.012043545089017841
627.0, 0.012955826871162786
628.0, 0.01491168345522192
629.0, 0.01632579322672603
630.0, 0.01629162063730079
631.0, 0.018231228636359932
632.0, 0.01996936739121468
633.0, 0.020696891824221932
634.0, 0.021934011650607703
635.0, 0.023304036766155365
636.0, 0.02502516962600836
637.0, 0.027499519514849084
638.0, 0.029370445723696743
639.0, 0.03326361055062139
640.0, 0.035184518622549135
641.0, 0.03721239657061204
642.0, 0.03970451551246891
643.0, 0.04318534700529674
644.0, 0.04780495992520752
645.0, 0.052366828381864655
646.0, 0.05767425212928133
647.0, 0.0654508769125871
648.0, 0.0739980047495059
649.0, 0.08320914495101957
650.0, 0.0936736017174631
651.0, 0.10667620922711156
652.0, 0.12360883571194443
653.0, 0.1427248078766014
654.0, 0.16714623395766318
655.0, 0.193135992491345
656.0, 0.2270858996513283
657.0, 0.26560176312724026
658.0, 0.30703139596050927
659.0, 0.35579291647396927
660.0, 0.4050417120701345
661.0, 0.4510500250021156
662.0, 0.49100174049461026
663.0, 0.52484795254816
664.0, 0.5451934814956154
665.0, 0.5484645414503018
666.0, 0.5371136843855391
667.0, 0.512544958751448
668.0, 0.4673402101676281
669.0, 0.417336021493993
670.0, 0.36383271766311126
671.0, 0.31047090481068457
672.0, 0.2624830617564941
673.0, 0.2221094268811245
674.0, 0.18563423697149337
675.0, 0.1588234568027325
676.0, 0.13294458188441682
677.0, 0.1154241212148626
678.0, 0.0985772089926304
679.0, 0.08483140283767987
680.0, 0.07505705669569152
681.0, 0.06347194244316244
682.0, 0.058471968140685365
683.0, 0.051948231524322076
684.0, 0.045706918241771685
685.0, 0.04137385910479452
686.0, 0.03738496516636482
687.0, 0.03305451311563394
688.0, 0.029431569021526077
689.0, 0.027354606528674986
690.0, 0.02600333721789693
691.0, 0.023597709225633177
692.0, 0.021480776017169807
693.0, 0.020305755933826428
694.0, 0.018823585619765534
695.0, 0.016822146780872245
696.0, 0.016397105827478185
697.0, 0.015373216958409876
698.0, 0.014248041649039688
699.0, 0.013714913931010281
700.0, 0.012582464385535272
701.0, 0.011924907885554765
702.0, 0.011505664806697062
703.0, 0.010080212605641632
704.0, 0.009058371849236168
705.0, 0.009850453913378165
706.0, 0.008255502764490155
707.0, 0.007189387304318928
708.0, 0.006858226741939303
709.0, 0.006697233705093351
710.0, 0.006278380752785893
711.0, 0.005700323036528475
712.0, 0.005247816307532822
713.0, 0.004003376842313194
714.0, 0.0036855961311683624
715.0, 0.003339246202119081
716.0, 0.003505846759721036
717.0, 0.0035742895277474586
718.0, 0.0026966076525148435
719.0, 0.0023335613677506416
720.0, 0.0015472383165650086
721.0, 0.001944279283327044
722.0, 0.0018197470173712314
723.0, 0.001984671640200094
724.0, 0.001982704502424094
725.0, 0.0015881597789764953
726.0, 0.0014981222348066211
727.0, 0.0015800881749639588
728.0, 0.0007280894810675903
729.0, 0.00039372544055233684
730.0, 0.0006788400334773438
731.0, 0.0006743948865532521
732.0, 0.0003591622507562248
733.0, 0.00020560372633906052
734.0, 0.0002966203967425339
735.0, 0.0007327049142490005
736.0, 0.0002473265544872725
737.0, 0.0004021531650085044
738.0, 0.0002586994942449045
739.0, 0.00010769168985151036
740.0, 0.00031952146069681026
741.0, 0.0006957152548916797
742.0, 0.0006389526104262069
743.0, 0.0007229453519256017
744.0, 0.0009717642319148772
745.0, 0.000570920690234256
746.0, 0.0008975741686810481
747.0, 0.00107181390598407
748.0, 0.0007827935590369553
749.0, 0.0007735706388439344
750.0, 0.0004764552107125148
751.0, 5.9167095880019444e-05
752.0, 0.0007400668696038385
753.0, 0.0005048775532581997
754.0, 0.00024654848392944147
755.0, 0.000427338327113504
756.0, 0.000532165852992072
757.0, 0.00016620855096503048
758.0, 0.0010483252779534573
759.0, 0.0012503671281965027
760.0, 0.0008022564216750571
761.0, 0.0014091703124494831
762.0, 0.0012499650298156027
763.0, 0.0009716915537097758
764.0, 0.0013733239212931898
765.0, 0.001559843216642846
766.0, 0.0016733085857003024
767.0, 0.0016437770313627639
768.0, 0.0015041044267797808
769.0, 0.001991893091727047
770.0, 0.001998460690770253
771.0, 0.001471519267175282
772.0, 0.0013979725998975235
773.0, 0.002272885166022846
774.0, 0.0020947327306195165
775.0, 0.0018752615335160044
776.0, 0.001418370660968993
777.0, 0.0011559548412787288
778.0, 0.0013705870556035879
779.0, 0.0014784769386721602
780.0, 0.0013902057316186923
781.0, 0.0018346159986547075
782.0, 0.0017099206329813403
783.0, 0.0011750573909548472
784.0, 0.0014645526154625451
785.0, 0.0009629091994457755
786.0, 0.0009165159516346711
787.0, 0.0010456508125714387
788.0, 0.0007718797613620509
789.0, 0.0006766173051203164
790.0, 0.0010794414948545605
791.0, 0.0007307595389988062
792.0, 0.00022155785203906137
793.0, 0.00019634120813684597
794.0, 0.00047528626470704096
795.0, 0.0005601039801321499
796.0, 0.00033711405205170535
797.0, 0.0002787926746974108
798.0, 0.0008151699915975531
799.0, 0.0012499177195379138
800.0, 0.0018186222499719852
801.0, 0.0019325829988754918
802.0, 0.0012780444577839781
803.0, 0.0009893135810056305
804.0, 0.0013962717871184493
805.0, 0.0014678736548630212
806.0, 0.0008872837820653456
807.0, 0.001452779579323769
808.0, 0.0010010210772498657
809.0, 0.0008782215737623857
810.0, 0.00089975821984398
811.0, 0.0011284466457944368
812.0, 0.0012243457856093937
813.0, 0.0007974889138990476
814.0, 0.00033116003191563555
815.0, 0.0003337400283426395
816.0, 0.00010787417407964916
817.0, 0.00015060830123247597
818.0, 0.0009687364316228607
819.0, 0.0014448587197239651
820.0, 0.0013291099709968723
821.0, 0.0015406825104134932
822.0, 0.0024665583707504926
823.0, 0.0013875462799404108
824.0, 0.001657351953717994
825.0, 0.0017983185884054215
826.0, 0.0013148409465867958
827.0, 0.0008593899631766781
828.0, 0.000797943831462584
829.0, 0.0008017304111704933
830.0, 0.0005320047274058349
831.0, 0.0008172487727669221
832.0, 0.0013393207575649426
833.0, 0.0002999391801028652
834.0, 0.0008073472241277679
835.0, 0.001114703696989163
836.0, 0.0013322443452718346
837.0, 0.0014841096518009669
838.0, 0.0016098922442259588
839.0, 0.002681265477573682
840.0, 0.0016257250557684575
841.0, 0.0031869102338837525
842.0, 0.0037774961080170935
843.0, 0.004770555326500411
844.0, 0.0059392628048590265
845.0, 0.007903108625036305
846.0, 0.011381364678365829
847.0, 0.0158259425958951
848.0, 0.019729563360590372
849.0, 0.023453938588866668
850.0, 0.0279190986700231
851.0, 0.032876704750489164
852.0, 0.036790195555650856
853.0, 0.040659595341323775
854.0, 0.04393266428768379
855.0, 0.04482786430527139
856.0, 0.043818602232268876
857.0, 0.04261255033814376
858.0, 0.03899842045418406
859.0, 0.035865068892137184
860.0, 0.033775452112784154
861.0, 0.0314428166994108
862.0, 0.028511137956472088
863.0, 0.0257424672025166
864.0, 0.023849062150456023
865.0, 0.02244023573551847
866.0, 0.021876270376124524
867.0, 0.01984905053270962
868.0, 0.01991971116111849
869.0, 0.019188885452810965
870.0, 0.018931266137452506
871.0, 0.019799202609815866
872.0, 0.020492754189829984
873.0, 0.019950983509694365
874.0, 0.01993320709065714
875.0, 0.019818450499760158
876.0, 0.0207218745511611
877.0, 0.02130566333730285
878.0, 0.02178738597366176
879.0, 0.022539269693203322
880.0, 0.023281144184290132
881.0, 0.02353721383938432
882.0, 0.023624024285939293
883.0, 0.024544821611159028
884.0, 0.024876795783763027
885.0, 0.024710160952752556
886.0, 0.025658204307829217
887.0, 0.025964169673494256
888.0, 0.025934306899011238
889.0, 0.026124336860519966
890.0, 0.026296364669533206
891.0, 0.02652969009011826
892.0, 0.02671464610433988
893.0, 0.027337786045230714
894.0, 0.027092389966409138
895.0, 0.02727318750132423
896.0, 0.027313031993650726
897.0, 0.026838263956907877
898.0, 0.02640980807725568
899.0, 0.026452278897635486
900.0, 0.026047700290766845
901.0, 0.026038368179621928
902.0, 0.025357075920833486
903.0, 0.024761940002743968
904.0, 0.02404004636256446
905.0, 0.02357123038450552
906.0, 0.02336927128486866
907.0, 0.02320712535584589
908.0, 0.022956568426247072
909.0, 0.022719040524679924
910.0, 0.022968801065129846
911.0, 0.02123586724393536
912.0, 0.02087671396432824
913.0, 0.020107408831034308
914.0, 0.018533095048342062
915.0, 0.017869575954344574
916.0, 0.01851573995979609
917.0, 0.018744681987852393
918.0, 0.01769070512660989
919.0, 0.017410576503450695
920.0, 0.01645422296123173
921.0, 0.015593131774088591
922.0, 0.016233452917665783
923.0, 0.016513012724584476
924.0, 0.016017526987498476
925.0, 0.015150427099433377
926.0, 0.014079410455504742
927.0, 0.013063555830156991
928.0, 0.013482476715984664
929.0, 0.013594678538143027
930.0, 0.014109043271660082
931.0, 0.013037528381783105
932.0, 0.011756749850543246
933.0, 0.01111120418578929
934.0, 0.01051936978599733
935.0, 0.009706964606339906
936.0, 0.009634070066391876
937.0, 0.009715760197198494
938.0, 0.00866256445870072
939.0, 0.008223320092169736
940.0, 0.008404795598502589
941.0, 0.0077577221770644056
942.0, 0.007440856144976466
943.0, 0.007482357654577616
944.0, 0.0075076000202814195
945.0, 0.007774795575627885
946.0, 0.007893648147940628
947.0, 0.010019658099660942
948.0, 0.0116845360435761
949.0, 0.011935522922263
950.0, 0.012336115467902274
951.0, 0.012904451198686037
952.0, 0.014491604993842836
953.0, 0.016827083932211686
954.0, 0.018629640619950996
955.0, 0.019691763781491546
956.0, 0.020004121237478238
957.0, 0.02224524858731323
958.0, 0.02204921333234168
959.0, 0.02382572954248052
960.0, 0.025326665842788938
961.0, 0.025998773853816028
962.0, 0.026727980484154156
963.0, 0.02805007240474339
964.0, 0.02937888330625616
965.0, 0.030119179804851813
966.0, 0.031683399743933124
967.0, 0.03265936440942594
968.0, 0.03362682775847237
969.0, 0.03470813016353711
970.0, 0.03582694924610517
971.0, 0.037136691332960846
972.0, 0.038490238282056916
973.0, 0.03959135296135033
974.0, 0.040300935725265774
975.0, 0.04001303856043228
976.0, 0.04173508270114797
977.0, 0.04376133321196219
978.0, 0.04513060943034024
979.0, 0.04720624400695235
980.0, 0.049732529899507355
981.0, 0.05131257553798307
982.0, 0.052226944992321764
983.0, 0.05333001215290386
984.0, 0.05314490676017873
985.0, 0.05380457990522789
986.0, 0.05842486594285431
987.0, 0.05877893247396475
988.0, 0.06178975910600213
989.0, 0.06556653042968479
990.0, 0.06861230156322844
991.0, 0.07312515204309665
992.0, 0.08021204302719058
993.0, 0.08738847363063741
994.0, 0.09422307128912567
995.0, 0.10752518146541208
996.0, 0.11737358610913137
997.0, 0.13010960600588017
998.0, 0.14904583872465732
999.0, 0.16905560367359704
1000.0, 0.19394638431499242
1001.0, 0.2256144072302383
1002.0, 0.26234233104923305
1003.0, 0.30627996451913736
1004.0, 0.36471847799187823
1005.0, 0.42928097234655066
1006.0, 0.5052503924702436
1007.0, 0.5970688135537991
1008.0, 0.6989129332460658
1009.0, 0.7974134554260625
1010.0, 0.8820302184779097
1011.0, 0.9508333222360452
1012.0, 0.9931697041796366
1013.0, 0.9913823526045108
1014.0, 0.948188131354524
1015.0, 0.856335430640048
1016.0, 0.7414971535860853
1017.0, 0.6232565840475265
1018.0, 0.5159685161519588
1019.0, 0.42396233408493184
1020.0, 0.34634057236472154
1021.0, 0.2856928959936804
1022.0, 0.24058970349589054
1023.0, 0.20446274131382947
1024.0, 0.17687809361060047
1025.0, 0.1568506475620065
1026.0, 0.13993524618976358
1027.0, 0.12914145551316328
1028.0, 0.11872119147021971
1029.0, 0.11207552297643436
1030.0, 0.10830193285176824
1031.0, 0.10476678919154157
1032.0, 0.10233138951532161
1033.0, 0.10217849916057391
1034.0, 0.10194675992440902
1035.0, 0.10535309937958011
1036.0, 0.10301043294391023
1037.0, 0.10576742884673414
1038.0, 0.10794149428480865
1039.0, 0.10871108501327256
1040.0, 0.10992335550674545
1041.0, 0.11091404025640762
1042.0, 0.11185558742578218
1043.0, 0.11238616731937727
1044.0, 0.10976164572317514
1045.0, 0.10386365107052585
1046.0, 0.09706294901184201
1047.0, 0.09044708778004214
1048.0, 0.08253136470438102
1049.0, 0.07490795422808864
1050.0, 0.06695227149907673
1051.0, 0.059543646513972245
1052.0, 0.05366497579065818
1053.0, 0.048856784864640665
1054.0, 0.04468661803099092
1055.0, 0.04196665597266236
1056.0, 0.03842537220788973
1057.0, 0.036468464150957815
1058.0, 0.03443919907265601
1059.0, 0.032109459371592645
1060.0, 0.03001323363616316
1061.0, 0.027292000326021554
1062.0, 0.02497599005750005
1063.0, 0.024295934849727953
1064.0, 0.02346227868760465
1065.0, 0.020782483595817153
1066.0, 0.02029512057678536
1067.0, 0.019452368561195317
1068.0, 0.018193947432673295
1069.0, 0.01644049531087361
1070.0, 0.01577012841296391
1071.0, 0.015169319273140839
1072.0, 0.014554423025930527
1073.0, 0.013841124830020264
1074.0, 0.013538726698543212
1075.0, 0.013646199679288314
1076.0, 0.013225947302803485
1077.0, 0.0128457473295041
1078.0, 0.01192080414261866
1079.0, 0.0124292065674973
1080.0, 0.011873146462076942
1081.0, 0.011088564374846493
1082.0, 0.011373074625358687
1083.0, 0.011131051447058702
1084.0, 0.011265198309591176
1085.0, 0.011430361594120735
1086.0, 0.01054154606569988
1087.0, 0.01019223398863743
1088.0, 0.011021353022460005
1089.0, 0.011206522813089228
1090.0, 0.011215659219837195
1091.0, 0.010618425923905076
1092.0, 0.01064614678386333
1093.0, 0.009686338785208736
1094.0, 0.009887476639977938
1095.0, 0.010478943094845875
1096.0, 0.009830224435816973
1097.0, 0.00907002091999681
1098.0, 0.009954549126571049
1099.0, 0.010321085065667873
1100.0, 0.009973711212122791
1101.0, 0.009310591091039145
1102.0, 0.008786831331576553
1103.0, 0.008761913681968
1104.0, 0.009047140761144969
1105.0, 0.008966232695465615
1106.0, 0.009078695332682196
1107.0, 0.0091873122035152
1108.0, 0.0090718292149418
1109.0, 0.009105627668562091
1110.0, 0.0085884451032113
1111.0, 0.008450494354528956
1112.0, 0.009313062728718551
1113.0, 0.009365189438310063
1114.0, 0.009794560108176928
1115.0, 0.00992641799688655
1116.0, 0.010029733793759925
1117.0, 0.009911117372225546
1118.0, 0.009863456392324617
1119.0, 0.009985484515603972
1120.0, 0.009994484399815116
1121.0, 0.010080480165010166
1122.0, 0.01023569593417155
1123.0, 0.009950033013765713
1124.0, 0.010328813180450563
1125.0, 0.010284972675492497
1126.0, 0.009682161869644292
1127.0, 0.010412912170297103
1128.0, 0.010394849283301831
1129.0, 0.00994738858425236
1130.0, 0.00953059406882867
1131.0, 0.009065826118116418
1132.0, 0.008867171861015271
1133.0, 0.008421415509778861
1134.0, 0.00811090637945757
1135.0, 0.007996441415379573
1136.0, 0.0072935275901325775
1137.0, 0.007633185904443242
1138.0, 0.007071066735629356
1139.0, 0.006542631691614345
1140.0, 0.006619008021960752
1141.0, 0.006497428554536598
1142.0, 0.005719459780977498
1143.0, 0.005143069562589833
1144.0, 0.0052222027089215434
1145.0, 0.004495605673846095
1146.0, 0.003698296982215666
1147.0, 0.002941938434505271
1148.0, 0.003245577286074673
1149.0, 0.002851923753462287
1150.0, 0.0026157985924824393
1151.0, 0.0016415211377860312
1152.0, 0.0012170306349119796
1153.0, 0.0008596987194511992
1154.0, 0.00035823398950523525
1155.0, 0.0004247796993455202
1156.0, 0.0007088789873117133
1157.0, 0.0009060098509982163
1158.0, 0.0004371890723892447
1159.0, 0.0005832576508921412
1160.0, 0.0013265965006370966
1161.0, 0.0007312611256960475
1162.0, 0.00026474156171098456
1163.0, 0.00046130377653558067
1164.0, 0.0011515053205024192
1165.0, 0.0010524847939495988
1166.0, 0.0005751590936574908
1167.0, 0.000716446587587191
1168.0, 0.0009337632813448549
1169.0, 0.001031685766099583
1170.0, 7.777805231610845e-05
1171.0, 0.0007348410384078534
1172.0, 0.0006269385038301472
1173.0, 0.0006349486926632777
1174.0, 0.0013747564613076635
1175.0, 0.0013425931700338665
1176.0, 0.0007719535918320405
1177.0, 0.000642352036538524
1178.0, 0.0007449296564080243
1179.0, 0.00058153894690424
1180.0, 0.00046137139013936236
1181.0, 0.000692230523030317
1182.0, 0.0011586568021467012
1183.0, 0.00011055920160846504
1184.0, 0.0007893053857307205
1185.0, 0.0012667738917624964
1186.0, 0.0009954105105970115
1187.0, 0.00036783436147196536
1188.0, 0.00010549854834823154
1189.0, 0.00022127276986253
1190.0, 0.00048720113930094045
1191.0, 0.0008003337389070962
1192.0, 0.0008988516915549597
1193.0, 0.0007475887000905796
1194.0, 0.0009388042170320761
1195.0, 0.00016888142759089977
1196.0, 0.00023275656709399804
1197.0, 6.632921357977326e-05
1198.0, 0.00041916934524638774
1199.0, 0.00021488295611312748
1200.0, 0.000337819443188586
1201.0, 0.0003469261586066676
1202.0, 0.0002542838587756196
1203.0, 0.0002933538769472681
1204.0, 0.0003100931310540206
1205.0, 0.00021043455780386274
1206.0, 0.00018721027695912842
1207.0, 5.421965759364385e-05
1208.0, 0.000352903668423104
1209.0, 0.0004897186967426079
1210.0, 0.0005814148845957245
1211.0, 0.0005729972812731781
1212.0, 0.0005731241319479011
1213.0, 0.0002281787397087182
1214.0, 0.00011298429567072555
1215.0, 0.0006631643146024688
1216.0, 0.0007295955143825793
1217.0, 0.0005131637871092751
1218.0, 0.0008018604618545918
1219.0, 0.000737305508522136
1220.0, 0.0009114132466706335
1221.0, 0.0011719889887488594
1222.0, 0.0005939151561599619
1223.0, 0.0012106500017732458
1224.0, 0.0009818826538391288
1225.0, 0.0007118820470074139
1226.0, 0.0010073828116387094
1227.0, 0.0010866244860574619
1228.0, 0.0008063796308999744
1229.0, 0.0007806074357575722
1230.0, 0.0010164085158165337
1231.0, 0.001281399772485566
1232.0, 0.0016118975867081041
1233.0, 0.0016692769550210498
1234.0, 0.001847534304677074
1235.0, 0.0017527053905334739
1236.0, 0.0016364958543549984
1237.0, 0.0016918511581295774
1238.0, 0.001416563018819938
1239.0, 0.0014059739164473753
1240.0, 0.0022127194122602044
1241.0, 0.0017661565771762673
1242.0, 0.0018471506841440785
1243.0, 0.0026255423919780106
1244.0, 0.002652218094061028
1245.0, 0.002122262907886495
1246.0, 0.0019332500877421387
1247.0, 0.0021015937438270283
1248.0, 0.0019287488080119918
1249.0, 0.0013484487608560053
1250.0, 0.0016482836697114278
1251.0, 0.001356868102246808
1252.0, 0.0022956974921821533
1253.0, 0.0030782518134362586
1254.0, 0.0028649651651764096
1255.0, 0.0028126574120117213
1256.0, 0.0023902729595942016
1257.0, 0.002436910375039427
1258.0, 0.0031755378532932845
1259.0, 0.003112817319023652
1260.0, 0.0026879085239437128
1261.0, 0.0031457272310237844
1262.0, 0.0031836538687768454
1263.0, 0.002747586207018852
1264.0, 0.0023111668085028826
1265.0, 0.0028946549099453244
1266.0, 0.0027192114415853486
1267.0, 0.0029741327851334517
1268.0, 0.002788519065450378
1269.0, 0.003021421934995941
1270.0, 0.0030515236352861926
1271.0, 0.0030053571342859918
1272.0, 0.00348451642747658
1273.0, 0.003883866118670254
1274.0, 0.0035987130208865762
1275.0, 0.003322543641158697
1276.0, 0.00314155955568661
1277.0, 0.0032917884905180115
1278.0, 0.002649778552126135
1279.0, 0.003676550549235643
1280.0, 0.002831843265499041
1281.0, 0.0034747121301842406
1282.0, 0.0035095348499475515
1283.0, 0.0038681628623114164
1284.0, 0.004034514616739727
1285.0, 0.003447011826458007
1286.0, 0.0032247645001710007
1287.0, 0.0036383229416947897
1288.0, 0.003544052914423507
1289.0, 0.0032497236231616784
1290.0, 0.0033861106694147384
1291.0, 0.0026640471660879426
1292.0, 0.0034550762134117597
1293.0, 0.0020943655547876064
1294.0, 0.003191279855130964
1295.0, 0.002367920611511309
1296.0, 0.0031031584790608686
1297.0, 0.0035921844271522944
1298.0, 0.0031647838545387466
1299.0, 0.00303301357534881
1300.0, 0.003080897378686103
1301.0, 0.0030468727683508425
1302.0, 0.0031739883006560612
1303.0, 0.0032441623681044615
1304.0, 0.0030917194684914016
1305.0, 0.003060589480625232
1306.0, 0.0029383136128196263
1307.0, 0.002715702864604924
1308.0, 0.0026884862718714628
1309.0, 0.002194862918407015
1310.0, 0.0021902075603905473
1311.0, 0.002089163306892574
1312.0, 0.00252966264146896
1313.0, 0.0024737797021586625
1314.0, 0.002544955894135022
1315.0, 0.003027283623231404
1316.0, 0.0030774947862466395
1317.0, 0.002560053305454914
1318.0, 0.0026771417739088702
1319.0, 0.003650907691298003
1320.0, 0.0037898284650406035
1321.0, 0.003149986212280646
1322.0, 0.002501613964761993
1323.0, 0.002648245176674692
1324.0, 0.002558276750074125
1325.0, 0.002875338256712448
1326.0, 0.003118217515586627
1327.0, 0.0034036736608572715
1328.0, 0.0032038332817315406
1329.0, 0.0031526182440268407
1330.0, 0.0032638007110152804
1331.0, 0.003646805535104156
1332.0, 0.0038096449357805017
1333.0, 0.003647022733617098
1334.0, 0.0036459456778559097
1335.0, 0.0035574799664873837
1336.0, 0.0033668552795288235
1337.0, 0.0032159735738344535
1338.0, 0.0035046558583996276
1339.0, 0.0037848426817949144
1340.0, 0.0036052413634960266
1341.0, 0.0032304682398528956
1342.0, 0.003146943690636694
1343.0, 0.0031629033840002325
1344.0, 0.0031048160244683343
1345.0, 0.0027080149547155765
1346.0, 0.0026541970760063497
1347.0, 0.002517793197807736
1348.0, 0.002628255609586059
1349.0, 0.0027452270130226843
1350.0, 0.002557984778877418
1351.0, 0.0027650823995995647
1352.0, 0.0027010752569052946
1353.0, 0.0029471238934183318
1354.0, 0.002475783588820009
1355.0, 0.001236132066539246
1356.0, 0.0025583597272096277
1357.0, 0.0018855279046214096
1358.0, 0.00254061393331648
1359.0, 0.0024490313019915927
1360.0, 0.003165852573363184
1361.0, 0.0026149586253287425
1362.0, 0.0018437199804518863
1363.0, 0.0021851125934719395
1364.0, 0.0023717540395570462
1365.0, 0.002320167168495697
1366.0, 0.002743114639950463
1367.0, 0.002752184582127989
1368.0, 0.0021885521027126278
1369.0, 0.002236364513075441
1370.0, 0.0018209997399271619
1371.0, 0.001639633998420051
1372.0, 0.0024817020006415186
1373.0, 0.0016947231877355257
1374.0, 0.0013331508609902723
1375.0, 0.0013946561890508795
1376.0, 0.002213898065612477
1377.0, 0.002339091281641788
1378.0, 0.0016595296539449582
1379.0, 0.001964562558378019
1380.0, 0.0019200593649524877
1381.0, 0.0020788861210946064
1382.0, 0.0019863621059962766
1383.0, 0.0017517140149394476
1384.0, 0.0019618124419736632
1385.0, 0.0017716871727653514
1386.0, 0.0016974824164900937
1387.0, 0.0019525323676202406
1388.0, 0.0018481947446277543
1389.0, 0.0021538242079297094
1390.0, 0.001886738593040622
1391.0, 0.0017263085351477277
1392.0, 0.0018980463125986948
1393.0, 0.002096188232713367
1394.0, 0.0024327664514082405
1395.0, 0.0022858086935683263
1396.0, 0.0017377477429517895
1397.0, 0.001693949606701399
1398.0, 0.001371743941665608
1399.0, 0.0010877993446906735
1400.0, 0.001201862027585787
1401.0, 0.001612906616792393
1402.0, 0.0019164172457839899
1403.0, 0.0016508802081160556
1404.0, 0.001419069518045915
1405.0, 0.0015949395658900998
1406.0, 0.0012495079793074517
1407.0, 0.0020618431173967558
1408.0, 0.0014401471253596633
1409.0, 0.0010542188493340664
1410.0, 0.0010721307274039601
1411.0, 0.0009395534993338091
1412.0, 0.0010416314877769912
1413.0, 0.001381279968866009
1414.0, 0.0012279527258645799
1415.0, 0.001076833277927379
1416.0, 0.0007379066721401451
1417.0, 0.0004204338552273567
1418.0, 0.0006212598403195004
1419.0, 0.001250418175271459
1420.0, 0.0009716626469942215
1421.0, 0.0005519136361210907
1422.0, 0.0013516719942125374
1423.0, 0.0011799328118332546
1424.0, 0.0006548766570722664
1425.0, 0.0009421692349334135
1426.0, 0.0009175867988559397
1427.0, 0.0009282695909994931
1428.0, 0.0011258191730687034
1429.0, 0.0009334593065712239
1430.0, 0.0011851545519593317
1431.0, 0.0010390372924895465
1432.0, 0.000736850378305122
1433.0, 0.0003424335468186501
1434.0, 0.0008016039385085555
1435.0, 0.000346251032645541
1436.0, 0.00037766929606442804
1437.0, 0.0008377778943837863
1438.0, 0.0005579098168177609
1439.0, 0.00039721229638305393
1440.0, 0.000697720377169364
1441.0, 0.000583877739102227
1442.0, 0.0006180935184595032
1443.0, 0.0010410398662650208
1444.0, 0.0009727770725343481
1445.0, 0.0012069027876166394
1446.0, 0.001252065531430429
1447.0, 0.00044252468979760073
1448.0, 0.00030883699706927615
1449.0, 0.00037466976004991656
1450.0, 0.0005074444024968343
1451.0, 0.0004326106509225244
1452.0, 0.0009755743584718565
1453.0, 0.0006571296075144965
1454.0, 0.000642852670349077
1455.0, 0.0005160235407805941
1456.0, 0.0010824822376388158
1457.0, 0.0008071542066792198
1458.0, 0.000291531317481411
1459.0, 0.0004170653431581588
1460.0, 0.0005007160165315208
1461.0, 0.0004951523639514512
1462.0, 0.0006732332271256517
1463.0, 0.0007398467849231882
1464.0, 0.0008901663528447733
1465.0, 0.0006472056771594189
1466.0, 0.00016070570067029647
1467.0, 0.0005173340532164995
1468.0, 0.0005065638145052729
1469.0, 0.0004044428959248847
1470.0, 0.0012691919580363048
1471.0, 0.0008564469414854637
1472.0, 0.00033848122318184487
1473.0, 0.001537675246235836
1474.0, 0.0006302432501730978
1475.0, 0.0003902892634073848
1476.0, 0.00028333082564972913
1477.0, 0.00025516211947590635
1478.0, 0.0006188630358044502
1479.0, 0.0007095801795995731
1480.0, 0.0005050358797878759
1481.0, 0.0005222559723876979
1482.0, 0.0006131756479415099
1483.0, 0.0006219213841085736
1484.0, 0.0004885457016674108
1485.0, 8.59689725071813e-05
1486.0, 2.5503431801929783e-05
1487.0, 0.0003224617709040767
1488.0, 0.0010643339185962834
1489.0, 6.08738354051274e-05
1490.0, 0.00044999342410233885
1491.0, 0.0009760524440342323
1492.0, 0.00022533948595839475
1493.0, 0.0002959832679590532
1494.0, 0.0010195529208019843
1495.0, 0.00037286507197577365
1496.0, 0.0004941688319966569
1497.0, 0.0001816540418208235
1498.0, 0.0006798276119186725
1499.0, 0.0008805666040347269
1500.0, 0.0008184592588966356
1501.0, 0.0005768078719849837
1502.0, 0.0005734430873435657
1503.0, 0.0005630876358874996
1504.0, 0.0010100252400401983
1505.0, 0.0011864341692945858
1506.0, 0.0007277238461270841
1507.0, 0.0007731249060084838
1508.0, 0.0006335340229817932
1509.0, 9.378522441031344e-05
1510.0, 0.00025760647808997436
1511.0, 0.000895604403757344
1512.0, 0.0011180435142408669
1513.0, 0.0010034403051735995
1514.0, 0.0004463391144992557
1515.0, 0.0001174917956307792
1516.0, 0.0014605435477176403
1517.0, 0.00015915324128387958
1518.0, 0.0013007529732195085
1519.0, 0.000980652707496568
1520.0, 0.001209165227756081
1521.0, 0.000937616019860265
1522.0, 0.0004121445382455857
1523.0, 0.0005872261455881939
1524.0, 0.000611232356623005
1525.0, 0.0005750456903557198
1526.0, 0.0007606730282434548
1527.0, 0.0009038880651836147
1528.0, 0.0007482148384391013
1529.0, 0.0007893339432294319
1530.0, 0.0007379021067049093
1531.0, 0.0006975110393868423
1532.0, 0.0009653428273696797
1533.0, 0.000933697462574099
1534.0, 0.00097284884756026
1535.0, 0.0002244896713868469
1536.0, 0.00034914657099215194
1537.0, 0.0007764678434051234
1538.0, 0.0003278480528184174
1539.0, 0.001122983088449127
1540.0, 0.0008934940845077796
1541.0, 0.00010518795380152024
1542.0, 0.0005151062356259855
1543.0, 0.0006100484530440915
1544.0, 0.00039483645304451203
1545.0, 0.0002730455656808239
1546.0, 0.00011959437222481325
1547.0, 0.0002352264829058032
1548.0, 0.000530512304145138
1549.0, 0.0007164984851161366
1550.0, 0.0007060495601345174
1551.0, 0.0007321407884191116
1552.0, 0.0010869565785917926
1553.0, 0.001619580855142419
1554.0, 0.0017487390942061028
1555.0, 0.0022804943488409384
1556.0, 0.002437051130240084
1557.0, 0.0015173886927292803
1558.0, 0.0007070003405414982
1559.0, 0.0005502352538181343
1560.0, 0.0009175498920101536
1561.0, 0.000945090359595687
1562.0, 0.0002843912437542478
1563.0, 3.191478177991528e-05
1564.0, 9.491889616391918e-05
1565, 0.0
1566, 0.0
1567, 0.0
1568, 0.0
1569, 0.0
1570, 0.0
1571, 0.0
1572, 0.0
1573, 0.0
1574, 0.0
1575, 0.0
1576, 0.0
1577, 0.0
1578, 0.0
1579, 0.0
1580, 0.0
1581, 0.0
1582, 0.0
1583, 0.0
1584, 0.0
1585, 0.0
1586, 0.0
1587, 0.0
1588, 0.0
1589, 0.0
1590, 0.0
1591, 0.0
1592, 0.0
1593, 0.0
1594, 0.0
1595, 0.0
1596, 0.0
1597, 0.0
1598, 0.0
1599, 0.0
