30, 0.0
31, 0.0
32, 0.0
33, 0.0
34, 0.0
35, 0.0
36, 0.0
37, 0.0
38, 0.0
39, 0.0
40, 0.0
41, 0.0
42, 0.0
43, 0.0
44, 0.0
45, 0.0
46, 0.0
47, 0.0
48, 0.0
49, 0.0
50, 0.0
51, 0.0
52, 0.0
53, 0.0
54, 0.0
55, 0.0
56, 0.0
57, 0.0
58, 0.0
59, 0.0
60, 0.0
61, 0.0
62, 0.0
63, 0.0
64, 0.0
65, 0.0
66, 0.0
67, 0.0
68, 0.0
69, 0.0
70, 0.0
71, 0.0
72, 0.0
73, 0.0
74, 0.0
75, 0.0
76, 0.0
77, 0.0
78, 0.0
79, 0.0
80, 0.0
81, 0.0
82, 0.0
83, 0.0
84, 0.0
85, 0.0
86, 0.0
87, 0.0
88, 0.0
89, 0.0
90, 0.0
91, 0.0
92, 0.0
93, 0.0
94, 0.0
95, 0.0
96, 0.0
97, 0.0
98, 0.0
99, 0.0
100, 0.0
101, 0.0
102, 0.0
103, 0.0
104, 0.0
105, 0.0
106, 0.0
107, 0.0
108, 0.0
109, 0.0
110, 0.0
111, 0.0
112, 0.0
113, 0.0
114, 0.0
115, 0.0
116, 0.0
117, 0.0
118, 0.0
119, 0.0
120, 0.0
121, 0.0
122, 0.0
123, 0.0
124, 0.0
125, 0.0
126, 0.0
127, 0.0
128, 0.0
129, 0.0
130.0, 0.01552478483541449
131.0, 0.028858740676032266
132.0, 0.0427107100384091
133.0, 0.06663944767161317
134.0, 0.08287800124437901
135.0, 0.07632981224037659
136.0, 0.06551935027183226
137.0, 0.052233203117411295
138.0, 0.03809140778117417
139.0, 0.03224693655506926
140.0, 0.023943018931637305
141.0, 0.014861104917546424
142.0, 0.010484606155952862
143.0, 0.010065556908590862
144.0, 0.006928409747581073
145.0, 0.002659977351873796
146.0, 0.004052170182374372
147.0, 0.009469028387875559
148.0, 0.015855062275582803
149.0, 0.018663717464812588
150.0, 0.009188681132954082
151.0, 0.016936814933804948
152.0, 0.019733535525239772
153.0, 0.014229289847583199
154.0, 0.004814549074117726
155.0, 0.0033786136398410915
156.0, 0.012377600958857685
157.0, 0.010554470839500434
158.0, 0.007214723497064966
159.0, 0.0050737343181142805
160.0, 0.002708951261913825
161.0, 0.002850810799863197
162.0, 0.004831432558352602
163.0, 0.003515265633374163
164.0, 0.0017598984902447467
165.0, 0.0033343954410705863
166.0, 0.00972162533710808
167.0, 0.0034798152542223878
168.0, 0.0007148218846126845
169.0, 0.004934018865561092
170.0, 0.01443060827936549
171.0, 0.022777473737934064
172.0, 0.0145899712594763
173.0, 0.01793048345922403
174.0, 0.015370770151791112
175.0, 0.014335354971345731
176.0, 0.02189246084039763
177.0, 0.020733167340497523
178.0, 0.014280667617523932
179.0, 0.008820259041909254
180.0, 0.008683658440607717
181.0, 0.012413354016715509
182.0, 0.013276101190675278
183.0, 0.012601543223431176
184.0, 0.011382666041369397
185.0, 0.011822205269737781
186.0, 0.013611741629157497
187.0, 0.015196598355531483
188.0, 0.014124469665907503
189.0, 0.012534447138997177
190.0, 0.015997832518155983
191.0, 0.019906399337809806
192.0, 0.02054254007816353
193.0, 0.016997495836245925
194.0, 0.016014425281527647
195.0, 0.012744428028083616
196.0, 0.014981180277496363
197.0, 0.021622740151602468
198.0, 0.0283257720654793
199.0, 0.03179384995025309
200.0, 0.03257921377385876
201.0, 0.030788470168563425
202.0, 0.030580095442058315
203.0, 0.033693608405489045
204.0, 0.03758784947679068
205.0, 0.02129649849077514
206.0, 0.007323750878323045
207.0, 0.009945719614444796
208.0, 0.01743103689397949
209.0, 0.016219572953304
210.0, 0.01363391352155673
211.0, 0.016482719626521966
212.0, 0.015466542517394028
213.0, 0.01240736802138837
214.0, 0.010984858195379872
215.0, 0.013885157219914358
216.0, 0.005872276707727419
217.0, 0.005509327234284126
218.0, 0.007956297347298155
219.0, 0.010675120335918335
220.0, 0.013331033581032901
221.0, 0.01911610673360984
222.0, 0.01006308915290928
223.0, 0.008577654396723772
224.0, 0.010688892921729334
225.0, 0.010404505052715785
226.0, 0.00458730815603795
227.0, 0.011105397898101088
228.0, 0.014230867552878867
229.0, 0.018400942926374425
230.0, 0.019334761841300625
231.0, 0.017386034895375296
232.0, 0.021777281122079252
233.0, 0.03100182188809851
234.0, 0.033885214781046155
235.0, 0.028648317191634947
236.0, 0.025493434771444383
237.0, 0.030854252056012086
238.0, 0.01869218624016398
239.0, 0.019096589973162836
240.0, 0.01931325090779995
241.0, 0.018967556211188848
242.0, 0.019066294703324937
243.0, 0.020476184824010157
244.0, 0.019963164654118716
245.0, 0.020004194725837313
246.0, 0.020315356314570314
247.0, 0.019633305443805163
248.0, 0.018581602848846013
249.0, 0.02179577788313413
250.0, 0.018025359974211525
251.0, 0.01880082636181601
252.0, 0.013141785435341195
253.0, 0.008463506052873947
254.0, 0.015586881147953978
255.0, 0.014680061870736215
256.0, 0.01655166833919034
257.0, 0.02134344872718882
258.0, 0.02247789937132495
259.0, 0.01927754635627674
260.0, 0.017742092634795495
261.0, 0.01802518961491543
262.0, 0.01580370578888459
263.0, 0.01405339956682287
264.0, 0.01311860830856641
265.0, 0.011900709443812045
266.0, 0.008114877858875288
267.0, 0.009054213293840126
268.0, 0.01570886374235161
269.0, 0.020352374882765912
270.0, 0.020907862826252333
271.0, 0.018867591140260365
272.0, 0.01646549236709854
273.0, 0.015855489299183317
274.0, 0.011533056651474626
275.0, 0.011576259835592344
276.0, 0.015291465796221395
277.0, 0.015512377444634701
278.0, 0.025039872671678173
279.0, 0.014905190269434796
280.0, 0.01233931327183095
281.0, 0.014671694917448585
282.0, 0.01741279921812913
283.0, 0.02242842158885283
284.0, 0.026484929813136455
285.0, 0.024116447132147206
286.0, 0.019380490150357026
287.0, 0.019853901966927046
288.0, 0.026724442939542317
289.0, 0.023968492849537577
290.0, 0.0314638161482798
291.0, 0.029281670971542724
292.0, 0.026265497435847985
293.0, 0.025290924624101232
294.0, 0.025319021135993897
295.0, 0.026882630220156696
296.0, 0.029367358996193214
297.0, 0.03513180566411508
298.0, 0.041368587391184
299.0, 0.048357939122648706
300.0, 0.05784827646913192
301.0, 0.05999387470860363
302.0, 0.06734573539016743
303.0, 0.07766579645852387
304.0, 0.08514450869891074
305.0, 0.09267333635601556
306.0, 0.112188788291617
307.0, 0.12693226429274215
308.0, 0.1364015834286251
309.0, 0.14954403724821363
310.0, 0.16134568579565942
311.0, 0.17099427988449095
312.0, 0.19052283339694476
313.0, 0.20210847688117287
314.0, 0.212064086466944
315.0, 0.21585158491990378
316.0, 0.21754567938934075
317.0, 0.21721459737811452
318.0, 0.19787786513613978
319.0, 0.18810384567966154
320.0, 0.17084265820162736
321.0, 0.1572689914913477
322.0, 0.1459901744165406
323.0, 0.13195873997658492
324.0, 0.12166643240676538
325.0, 0.10901482726546032
326.0, 0.1020033063034141
327.0, 0.09901558446178489
328.0, 0.0947374293726399
329.0, 0.08655205045396182
330.0, 0.09111978101569548
331.0, 0.07642793749983226
332.0, 0.07653218612660322
333.0, 0.08056055667457583
334.0, 0.07970061156421758
335.0, 0.07436401897738242
336.0, 0.08275007333090428
337.0, 0.07862018374637604
338.0, 0.08215649347968894
339.0, 0.08796192943844201
340.0, 0.09138265803661946
341.0, 0.09268821246529835
342.0, 0.09522641101359765
343.0, 0.10708068179702963
344.0, 0.11587522317535197
345.0, 0.12439962340444372
346.0, 0.13267314676889694
347.0, 0.13596068400944222
348.0, 0.1391414911520885
349.0, 0.1323225331696674
350.0, 0.12728890096290557
351.0, 0.12605431190352823
352.0, 0.12530718445069033
353.0, 0.11900873211976483
354.0, 0.1122116130729876
355.0, 0.10196015751116094
356.0, 0.09200294144414888
357.0, 0.09007534528692333
358.0, 0.09347294072819243
359.0, 0.08619891147703196
360.0, 0.06332819868280425
361.0, 0.06623089452686028
362.0, 0.0689776468087
363.0, 0.06876395213910305
364.0, 0.06884972443754445
365.0, 0.07256803215939132
366.0, 0.08109839594468303
367.0, 0.07929819034410701
368.0, 0.08859434746744585
369.0, 0.09724965748344895
370.0, 0.09730393600659051
371.0, 0.09798003737892642
372.0, 0.11036605060658364
373.0, 0.1295742733338303
374.0, 0.14937830163887697
375.0, 0.1692062412337855
376.0, 0.19007568287857768
377.0, 0.2127449580310995
378.0, 0.23279379512065163
379.0, 0.2640710201334879
380.0, 0.27877036139474787
381.0, 0.29354338563735866
382.0, 0.3142550332441605
383.0, 0.320579279755788
384.0, 0.29848930858982037
385.0, 0.28765102391402103
386.0, 0.2663728301848293
387.0, 0.22981434189800182
388.0, 0.18850575875450895
389.0, 0.16135236039697015
390.0, 0.13278247087908096
391.0, 0.11040858253082289
392.0, 0.0936925533861053
393.0, 0.07621349858918591
394.0, 0.05962716836937148
395.0, 0.052931113117751914
396.0, 0.05185208939027606
397.0, 0.04913292108875121
398.0, 0.03550130765224045
399.0, 0.028407263696201383
400.0, 0.02795244586455997
401.0, 0.020192032072510694
402.0, 0.019383764818193337
403.0, 0.01827423860760375
404.0, 0.020310054553447015
405.0, 0.020499804145630036
406.0, 0.018107973010397703
407.0, 0.016124740865282303
408.0, 0.015901705244396765
409.0, 0.02443926565895157
410.0, 0.017251223647617955
411.0, 0.008723004392370894
412.0, 0.00459173542704748
413.0, 0.0046430383902890515
414.0, 0.013818331146204257
415.0, 0.014371860861764086
416.0, 0.013468857714827418
417.0, 0.008821303216251445
418.0, 0.005861538490429553
419.0, 0.008732419711066284
420.0, 0.010314923650790547
421.0, 0.008004081855284947
422.0, 0.005494180987885587
423.0, 0.0075717825365323455
424.0, 0.0081085246543328
425.0, 0.004860487253171752
426.0, 0.007410802883537128
427.0, 0.0024846778133255755
428.0, 0.004653692551892791
429.0, 0.004206002460304788
430.0, 0.004749252812204835
431.0, 0.006805952495474006
432.0, 0.004279095690655167
433.0, 0.0029693005746188783
434.0, 0.008571161332355958
435.0, 0.007782582831606028
436.0, 0.005167987030799953
437.0, 0.005682680436121435
438.0, 0.010626361771835891
439.0, 0.017323554337549688
440.0, 0.010960209674985906
441.0, 0.009472770084627238
442.0, 0.007565133485570782
443.0, 0.006544122801182478
444.0, 0.008926575048050112
445.0, 0.005303556420120621
446.0, 0.008064320264157047
447.0, 0.01159555086301006
448.0, 0.013299556903249592
449.0, 0.013426923062416765
450.0, 0.012617305216401059
451.0, 0.010114183603955433
452.0, 0.00984372735000605
453.0, 0.007353535761398664
454.0, 0.005775640958014195
455.0, 0.004613783357891347
456.0, 0.0038726441485154722
457.0, 0.0055056766859707795
458.0, 0.013059144946820466
459.0, 0.012191707700391725
460.0, 0.007952343868228262
461.0, 0.009478193649381624
462.0, 0.011132612471518314
463.0, 0.003962673024187029
464.0, 0.008378297484731831
465.0, 0.002196939148838564
466.0, 0.002824343887422455
467.0, 0.004935558589606903
468.0, 0.008353136821040448
469.0, 0.011772452558855315
470.0, 0.006749171049375496
471.0, 0.001534640203549232
472.0, 0.003573105797091173
473.0, 0.009136763041673395
474.0, 0.010091832459285396
475.0, 0.008573002913077877
476.0, 0.014677596447328767
477.0, 0.004139171717521877
478.0, 0.0008624907066915878
479.0, 0.0017843623281041058
480.0, 0.0017179568092025785
481.0, 0.0029893403528240946
482.0, 0.009027741512953604
483.0, 0.010531927657720567
484.0, 0.009105530865684167
485.0, 0.008631691653990765
486.0, 0.004244523307222529
487.0, 0.002609499546560708
488.0, 0.006301600583352593
489.0, 0.005753602492249127
490.0, 0.006456010808512386
491.0, 0.01236807740866701
492.0, 0.008088121336809542
493.0, 0.008048931549189672
494.0, 0.01573158649303349
495.0, 0.020839177234333664
496.0, 0.018102476606099833
497.0, 0.019890111532638113
498.0, 0.04998473033902081
499.0, 0.06646869085739
500.0, 0.05330593299281533
501.0, 0.03215723231976101
502.0, 0.05263536213790198
503.0, 0.035702067478885775
504.0, 0.04108152110636114
505.0, 0.03791303822841797
506.0, 0.030141981467098088
507.0, 0.025091653362435604
508.0, 0.023838501042739154
509.0, 0.02090072715700978
510.0, 0.015397660146938816
511.0, 0.015096865645924577
512.0, 0.021276500258458276
513.0, 0.023081035216189566
514.0, 0.01734492934970696
515.0, 0.021952183672119936
516.0, 0.023400055598261842
517.0, 0.020894868841032532
518.0, 0.023090008117874133
519.0, 0.025511390507961702
520.0, 0.028008161149397536
521.0, 0.033642313792751774
522.0, 0.03398471930650378
523.0, 0.02767996471444101
524.0, 0.03288486253667114
525.0, 0.03346724925493982
526.0, 0.030371194272600655
527.0, 0.02858307531224795
528.0, 0.026974509311218114
529.0, 0.03233794936176302
530.0, 0.020948472723639526
531.0, 0.028142188455034474
532.0, 0.026141924259685995
533.0, 0.016184776808437946
534.0, 0.01778569109977795
535.0, 0.018793166331026203
536.0, 0.02297626864105887
537.0, 0.021152425624827057
538.0, 0.014613253328275113
539.0, 0.011514048081133314
540.0, 0.013326100160536092
541.0, 0.012432523203848501
542.0, 0.009209094264243187
543.0, 0.008757493400143892
544.0, 0.010955423538713191
545.0, 0.013622403681995503
546.0, 0.017534537398787645
547.0, 0.023232722279023975
548.0, 0.027975712968410928
549.0, 0.033441845320794444
550.0, 0.04020872665763726
551.0, 0.03752158766949488
552.0, 0.03963725715276569
553.0, 0.051626834820638574
554.0, 0.063167933467583
555.0, 0.05561996088530833
556.0, 0.045592789313490006
557.0, 0.049593598622159875
558.0, 0.04714906788642954
559.0, 0.04110532281508385
560.0, 0.03576726137928572
561.0, 0.029082307402511175
562.0, 0.02644041162926556
563.0, 0.02717356738889601
564.0, 0.020180873895094435
565.0, 0.013533639707131895
566.0, 0.016305021370377985
567.0, 0.023945743379011286
568.0, 0.017093798487803066
569.0, 0.02217392183526167
570.0, 0.02133604098171693
571.0, 0.013833441224975401
572.0, 0.010428699148255194
573.0, 0.009277039204512016
574.0, 0.00539113605186425
575.0, 0.00675123962774366
576.0, 0.0110079929331574
577.0, 0.010259954574210889
578.0, 0.00496682724146643
579.0, 0.0026569262733126897
580.0, 0.004280700646972982
581.0, 0.00525034347292764
582.0, 0.005242669974613104
583.0, 0.006514705680104032
584.0, 0.003686976673190641
585.0, 0.004688342254899926
586.0, 0.007076289624681671
587.0, 0.005858692615221733
588.0, 0.0016850853258454828
589.0, 0.011985497341618027
590.0, 0.003915166170186818
591.0, 0.005942597562877653
592.0, 0.0058188178371500155
593.0, 0.00678092542842193
594.0, 0.008202623345449656
595.0, 0.0018963031450707777
596.0, 0.0005999755066863631
597.0, 0.0011198998398524247
598.0, 0.0013220719416288337
599.0, 0.0008601705076923817
600.0, 0.0010256661766788618
601.0, 0.00183303198578363
602.0, 0.0017343855716848394
603.0, 0.0052759449946057
604.0, 0.0072977927766887715
605.0, 0.0063211455418356564
606.0, 0.010084393282277813
607.0, 0.01042299014106107
608.0, 0.0053548575789876905
609.0, 0.009527227668160639
610.0, 0.008205697750626868
611.0, 0.013308453786925826
612.0, 0.010285569651704077
613.0, 0.011325425494475702
614.0, 0.009809579529615375
615.0, 0.002765902110583981
616.0, 0.006426254701795498
617.0, 0.00978902010751201
618.0, 0.004975352201579601
619.0, 0.006705759767038452
620.0, 0.006439441194938937
621.0, 0.010432888321540943
622.0, 0.02017739611814931
623.0, 0.01792728646573336
624.0, 0.004590081113189901
625.0, 0.0168623561891759
626.0, 0.027826873507502296
627.0, 0.025071487849749805
628.0, 0.02013155628879305
629.0, 0.02180305743450128
630.0, 0.019146708063280934
631.0, 0.022929205525506053
632.0, 0.022881018226672253
633.0, 0.024265583926679695
634.0, 0.029267015694807694
635.0, 0.030291752786305456
636.0, 0.025598215416636295
637.0, 0.026605579181448756
638.0, 0.032793093329417315
639.0, 0.03503724419415289
640.0, 0.04361799113909668
641.0, 0.04954761724720859
642.0, 0.05042800477300758
643.0, 0.05091296435686378
644.0, 0.05819568642645645
645.0, 0.07283554061009226
646.0, 0.08021779971067897
647.0, 0.09131613976465706
648.0, 0.11067250900973713
649.0, 0.13081039790967977
650.0, 0.1486075815065486
651.0, 0.17156138328725923
652.0, 0.20717196694966566
653.0, 0.2434891996734251
654.0, 0.2730697124602199
655.0, 0.31513251083684984
656.0, 0.3561582072275945
657.0, 0.3942758838906257
658.0, 0.4388788602758254
659.0, 0.46764395433418515
660.0, 0.48629057542749915
661.0, 0.49119895249949036
662.0, 0.47001161940882336
663.0, 0.43475998471533356
664.0, 0.39475150596632297
665.0, 0.3523083075102137
666.0, 0.310389154621464
667.0, 0.26174365479766737
668.0, 0.2199070012515909
669.0, 0.18218842310339575
670.0, 0.15546670532315499
671.0, 0.13419683796515003
672.0, 0.11586880853620554
673.0, 0.11263947190928739
674.0, 0.09406649818245755
675.0, 0.08618857376656282
676.0, 0.07187926826559368
677.0, 0.06860690260368807
678.0, 0.0672663122061127
679.0, 0.055512352776029436
680.0, 0.03949325186971527
681.0, 0.039652062522585574
682.0, 0.04693803764325447
683.0, 0.04190665720605571
684.0, 0.03776166580192615
685.0, 0.03920836682372366
686.0, 0.03965292289617631
687.0, 0.03289754246137468
688.0, 0.03283423682091591
689.0, 0.03186888420610793
690.0, 0.020029157465951148
691.0, 0.018831520198088765
692.0, 0.023669363817118698
693.0, 0.024673068022691542
694.0, 0.02189324872953265
695.0, 0.02836028641245738
696.0, 0.027063751002262944
697.0, 0.02168992476225911
698.0, 0.02393146625410098
699.0, 0.02369937474847568
700.0, 0.02283355191216829
701.0, 0.023820311474971476
702.0, 0.023234056111154644
703.0, 0.02225504746983703
704.0, 0.023501584811458802
705.0, 0.024089444806848277
706.0, 0.022154265382286712
707.0, 0.021837855414903563
708.0, 0.022725253653951887
709.0, 0.020066160990810773
710.0, 0.012197723459783592
711.0, 0.012006926513552726
712.0, 0.01103311987685753
713.0, 0.00685218068415948
714.0, 0.004255055593796503
715.0, 0.005311371677326498
716.0, 0.007728441155444575
717.0, 0.007460053477626535
718.0, 0.005678440777477785
719.0, 0.002401788769288509
720.0, 0.003864810312094376
721.0, 0.004925547083312018
722.0, 0.009495429412644776
723.0, 0.01379904534139307
724.0, 0.012025445294521092
725.0, 0.009888376957531921
726.0, 0.0011026624412791893
727.0, 0.005104188707611581
728.0, 0.0038476713185342996
729.0, 0.0023887418413859563
730.0, 0.0019906037411238334
731.0, 0.0014919717043752312
732.0, 0.002530277265011256
733.0, 0.012964127827220123
734.0, 0.012651013015186702
735.0, 0.008088164373939846
736.0, 0.006036268528853901
737.0, 0.003316535100468502
738.0, 0.0011571585007929173
739.0, 0.0021209988548564884
740.0, 0.003260355704199875
741.0, 0.0018792011178264357
742.0, 0.0016686212997539189
743.0, 0.005619494342274486
744.0, 0.007205340018603477
745.0, 0.00899827526393422
746.0, 0.012159724924142851
747.0, 0.011897093637045868
748.0, 0.003156069720550648
749.0, 0.012936963668245522
750.0, 0.007167707072259466
751.0, 0.006646996583486961
752.0, 0.004240621791856156
753.0, 0.005826279704989714
754.0, 0.00964868276289175
755.0, 0.0035025193994529117
756.0, 0.0011716917030694545
757.0, 0.0066651541034840655
758.0, 0.005371946003876187
759.0, 0.012752458446618816
760.0, 0.0113170375657245
761.0, 0.005927338531443262
762.0, 0.009784858175960377
763.0, 0.01737079887051437
764.0, 0.006290267956233696
765.0, 0.01834606629293999
766.0, 0.005421263717491998
767.0, 0.0017746877001261524
768.0, 0.003465214686978387
769.0, 0.002697603436424845
770.0, 0.0003554147591517964
771.0, 0.0016003888132992477
772.0, 0.0033271596887760714
773.0, 0.0006521794714851609
774.0, 0.0053010499223630075
775.0, 0.005648976416908101
776.0, 0.0068525978252365095
777.0, 0.00996858176484692
778.0, 0.00958608113660752
779.0, 0.005828033603206625
780.0, 0.010386231357038169
781.0, 0.006158759012043565
782.0, 0.0018688354223758733
783.0, 0.0012323685242561107
784.0, 0.001452035346299443
785.0, 0.001104813145302784
786.0, 0.0014580981320598432
787.0, 0.002667202710591126
788.0, 0.007556062830708608
789.0, 0.005919828927654936
790.0, 0.008544585804720908
791.0, 0.009967808079430526
792.0, 0.009720649607456356
793.0, 0.008578892701043216
794.0, 0.00596375002439182
795.0, 0.002430131090327362
796.0, 0.012186835117796361
797.0, 0.004990395379500123
798.0, 0.0021200505170895774
799.0, 0.011628347819865393
800.0, 0.011234211902826877
801.0, 0.0035334399075848113
802.0, 0.006410317524618903
803.0, 0.0036975681972355318
804.0, 0.009302427270631606
805.0, 0.01302419871609946
806.0, 0.006286021666192867
807.0, 0.00660711706638742
808.0, 0.007879827334039117
809.0, 0.006848356162565556
810.0, 0.009471620182864494
811.0, 0.017122549484443562
812.0, 0.020229683583727447
813.0, 0.006089760008764767
814.0, 0.001789138274443678
815.0, 0.011764825588430554
816.0, 0.014365592001189987
817.0, 0.012657052531305033
818.0, 0.01553009395255502
819.0, 0.005605888698056949
820.0, 0.006470342895447828
821.0, 0.004982722304877376
822.0, 0.0021765651967461837
823.0, 0.0018126942434215777
824.0, 0.0031875299748335005
825.0, 0.0038013252559651618
826.0, 0.0034100270093047167
827.0, 0.005632976794094598
828.0, 0.013656270409096382
829.0, 0.01309807691226521
830.0, 0.016168216657645375
831.0, 0.01816405022118275
832.0, 0.014024922219534816
833.0, 0.014660990768369705
834.0, 0.022292329372242545
835.0, 0.022953657209842483
836.0, 0.017862341792704142
837.0, 0.021361398968152354
838.0, 0.016399037089926273
839.0, 0.017952826719504676
840.0, 0.014949837588369827
841.0, 0.0176441619095749
842.0, 0.03076563520741694
843.0, 0.04143178902602339
844.0, 0.038365897817772956
845.0, 0.052283665224277125
846.0, 0.05494883202398993
847.0, 0.05583292902634915
848.0, 0.056981758072406796
849.0, 0.05564484152105832
850.0, 0.05653794790049858
851.0, 0.05649609549308159
852.0, 0.04262656807625963
853.0, 0.0448978958644628
854.0, 0.02807370346067476
855.0, 0.03261376135749619
856.0, 0.036041206217602484
857.0, 0.03199453107830205
858.0, 0.02571980421852927
859.0, 0.02097184467634056
860.0, 0.01864618815951868
861.0, 0.025313312337052772
862.0, 0.021143738019803383
863.0, 0.022421719536831558
864.0, 0.0251170132185554
865.0, 0.023238237176929796
866.0, 0.01896955227866468
867.0, 0.017842375826246665
868.0, 0.017004271069979798
869.0, 0.008653072275096683
870.0, 0.016887919180537433
871.0, 0.020682068547284774
872.0, 0.01689392587549876
873.0, 0.016914006233035694
874.0, 0.01017374353307539
875.0, 0.006411100035028554
876.0, 0.009412178703457282
877.0, 0.011156051522568844
878.0, 0.01511137614349957
879.0, 0.009574443762806835
880.0, 0.007426161104887935
881.0, 0.0056112500375576305
882.0, 0.006411767238518341
883.0, 0.005674985772003926
884.0, 0.00599038973748354
885.0, 0.009818785933976075
886.0, 0.01313073391956431
887.0, 0.014937467721073206
888.0, 0.018682336688015656
889.0, 0.023689158374276827
890.0, 0.02429716235534952
891.0, 0.025656354825424835
892.0, 0.022505680672853627
893.0, 0.021211166238914152
894.0, 0.02297636271336125
895.0, 0.011286059560329381
896.0, 0.008616939853681962
897.0, 0.02249439245815259
898.0, 0.016068418573282315
899.0, 0.018317852459420615
900.0, 0.01577616012759103
901.0, 0.011864756435421606
902.0, 0.008757468633588932
903.0, 0.0032019370198088674
904.0, 0.0021089327469183882
905.0, 0.015447698047949779
906.0, 0.009603725606025992
907.0, 0.01253229581025526
908.0, 0.005278543116846678
909.0, 0.009153488796971587
910.0, 0.015558496924683408
911.0, 0.018751385842744626
912.0, 0.02587086965335505
913.0, 0.027746848035740967
914.0, 0.018945230056240776
915.0, 0.02213182745702983
916.0, 0.014925479175138257
917.0, 0.005906161075484624
918.0, 0.0015586732327002913
919.0, 0.00865910458682944
920.0, 0.016629248911017365
921.0, 0.013508260973467242
922.0, 0.015080222770912685
923.0, 0.00037690959737165554
924.0, 0.012972585602125147
925.0, 0.0034988817474271034
926.0, 0.00930973868134384
927.0, 0.009762891978270252
928.0, 0.007427948660123099
929.0, 0.011699225042012023
930.0, 0.014010222023285326
931.0, 0.0011667573088358987
932.0, 0.003284471358023568
933.0, 0.01753532110992223
934.0, 0.0071274640374753605
935.0, 0.012057998120451639
936.0, 0.006953786947787309
937.0, 0.0037355184438131743
938.0, 0.007323207776518774
939.0, 0.006423233548585028
940.0, 0.0075390814136504294
941.0, 0.0026433325372212674
942.0, 0.005117962955682178
943.0, 0.0023536415080724618
944.0, 0.009845768328866121
945.0, 0.006922697520725397
946.0, 0.010508355431373288
947.0, 0.013853893835099966
948.0, 0.007609704094614433
949.0, 0.013666043160284348
950.0, 0.0035176404080354013
951.0, 0.007900811750717215
952.0, 0.014160097081752929
953.0, 0.006397808186317281
954.0, 0.0070681316355184895
955.0, 0.008858967357715393
956.0, 0.00994337592206982
957.0, 0.014334104902028839
958.0, 0.0192731702483234
959.0, 0.02159361131969012
960.0, 0.018947516980817942
961.0, 0.007363129409755543
962.0, 0.012082295395453423
963.0, 0.010576602327241114
964.0, 0.015798024118890384
965.0, 0.020861806733727735
966.0, 0.016800948690461517
967.0, 0.011208731621291521
968.0, 0.014342668475579762
969.0, 0.016577379690770968
970.0, 0.011384800747309909
971.0, 0.022067637566392344
972.0, 0.03150349577010529
973.0, 0.027433362632788557
974.0, 0.020136062736708815
975.0, 0.02085680684882489
976.0, 0.023694789636109825
977.0, 0.01752741040929524
978.0, 0.019110943691537215
979.0, 0.036120305453511026
980.0, 0.0217710945872164
981.0, 0.026098817164834934
982.0, 0.033827893271543154
983.0, 0.03222314548139889
984.0, 0.03354679665290903
985.0, 0.03680576334497727
986.0, 0.03548226865932306
987.0, 0.04526708606915295
988.0, 0.046098566886179755
989.0, 0.04132332412148462
990.0, 0.05179093903145151
991.0, 0.04564343866966964
992.0, 0.04931773415523489
993.0, 0.05976524443171034
994.0, 0.06583649471217941
995.0, 0.07119200145726406
996.0, 0.08133006977388049
997.0, 0.0818029789395531
998.0, 0.09589462079512696
999.0, 0.10281287161880805
1000.0, 0.1169852341139862
1001.0, 0.14276181093121557
1002.0, 0.16276325299721434
1003.0, 0.19952059297298833
1004.0, 0.25263193903249387
1005.0, 0.30681762497131937
1006.0, 0.3676174260267407
1007.0, 0.4494507491809788
1008.0, 0.546684215620391
1009.0, 0.6611728287318238
1010.0, 0.7624336614227764
1011.0, 0.8740589987602603
1012.0, 0.9644981193331956
1013.0, 0.9996169144684143
1014.0, 0.9657899308840362
1015.0, 0.8776617239381681
1016.0, 0.7597248049329227
1017.0, 0.6188145033150296
1018.0, 0.4994412073108966
1019.0, 0.3856357371830113
1020.0, 0.31027520120972557
1021.0, 0.24888120159882393
1022.0, 0.20277645913380468
1023.0, 0.16552006235344566
1024.0, 0.14450855045836597
1025.0, 0.14014491344722194
1026.0, 0.12857284135653332
1027.0, 0.10069300403987938
1028.0, 0.09196911632658296
1029.0, 0.0880090377033465
1030.0, 0.09784401663858884
1031.0, 0.09873158727172854
1032.0, 0.09129756507550187
1033.0, 0.09377039094135338
1034.0, 0.09168874896607061
1035.0, 0.09163052589831748
1036.0, 0.1146839384121267
1037.0, 0.11168195289093617
1038.0, 0.10996360046532982
1039.0, 0.11847333898359394
1040.0, 0.11194143416649745
1041.0, 0.11458595305991813
1042.0, 0.10548377777049088
1043.0, 0.09708713001158456
1044.0, 0.09073352192519576
1045.0, 0.08295109747822715
1046.0, 0.07771794484008457
1047.0, 0.07411340825170572
1048.0, 0.06274887645416911
1049.0, 0.06448554593480046
1050.0, 0.059941770243916816
1051.0, 0.05939692134828105
1052.0, 0.05473663443749637
1053.0, 0.04530041597677102
1054.0, 0.03625402248198976
1055.0, 0.03184123771572196
1056.0, 0.031428939131900833
1057.0, 0.03271822483076514
1058.0, 0.03536996438737641
1059.0, 0.022866022450035436
1060.0, 0.025877313122924073
1061.0, 0.0215146294145767
1062.0, 0.02721717177552846
1063.0, 0.02891497328786871
1064.0, 0.02555166095599768
1065.0, 0.027935270894389172
1066.0, 0.03241337435780463
1067.0, 0.029910398916889666
1068.0, 0.029037358830920342
1069.0, 0.02252674495784906
1070.0, 0.04390749999981132
1071.0, 0.034384069517627035
1072.0, 0.02742818490143726
1073.0, 0.02513648072684249
1074.0, 0.01865189715820466
1075.0, 0.02321675756361408
1076.0, 0.02599519335735543
1077.0, 0.02228134214624061
1078.0, 0.027837694999227582
1079.0, 0.02139633250130562
1080.0, 0.021261846013108605
1081.0, 0.011201012366805554
1082.0, 0.025530579375424068
1083.0, 0.035168850676421684
1084.0, 0.022712541341675958
1085.0, 0.026942245226057492
1086.0, 0.030778576445432942
1087.0, 0.02416578774168918
1088.0, 0.018139982551107315
1089.0, 0.013818730475310072
1090.0, 0.013308730217733758
1091.0, 0.010544013969002872
1092.0, 0.013171906217370138
1093.0, 0.017622075211729614
1094.0, 0.01554389018614391
1095.0, 0.010130240884660344
1096.0, 0.012223905059504294
1097.0, 0.019631581364230495
1098.0, 0.018800037648680195
1099.0, 0.013808119819586783
1100.0, 0.018976754240529685
1101.0, 0.0173924491558013
1102.0, 0.01715695851983307
1103.0, 0.014028773120343622
1104.0, 0.013017069947478857
1105.0, 0.013448244298469515
1106.0, 0.013419177266814292
1107.0, 0.01436702180294501
1108.0, 0.019568739020147937
1109.0, 0.019999667785242675
1110.0, 0.016011706440530002
1111.0, 0.01715214481698713
1112.0, 0.013346485554900667
1113.0, 0.011314729170245102
1114.0, 0.015597540727406538
1115.0, 0.0317127942008809
1116.0, 0.029471368358143964
1117.0, 0.04268216323228252
1118.0, 0.048842760851922754
1119.0, 0.04836333639507163
1120.0, 0.052104457735662024
1121.0, 0.05281143513214239
1122.0, 0.04600950715306205
1123.0, 0.04898065658846228
1124.0, 0.0507087042818804
1125.0, 0.04375711410955581
1126.0, 0.04317170870147783
1127.0, 0.03998783392751877
1128.0, 0.01809407782968714
1129.0, 0.01171351803288784
1130.0, 0.014337831372549986
1131.0, 0.01516556929064278
1132.0, 0.016243051797551932
1133.0, 0.018812158683255795
1134.0, 0.016880343194662382
1135.0, 0.011751671171962538
1136.0, 0.010912894595537813
1137.0, 0.012684348137535306
1138.0, 0.01885166080317432
1139.0, 0.009767177688444487
1140.0, 0.017883584132885877
1141.0, 0.01732936361992094
1142.0, 0.014976869770633994
1143.0, 0.013256910925892361
1144.0, 0.012212098593954482
1145.0, 0.013931504549962701
1146.0, 0.015186462625809628
1147.0, 0.01596771605716849
1148.0, 0.02264837830774068
1149.0, 0.011801411875441724
1150.0, 0.022334394109023666
1151.0, 0.01215739043850575
1152.0, 0.006266354208203855
1153.0, 0.008992354481486733
1154.0, 0.00628401288449856
1155.0, 0.006997914122184213
1156.0, 0.008501078538339145
1157.0, 0.0024971849743257897
1158.0, 0.0028176967112857622
1159.0, 0.009704683120791167
1160.0, 0.011530477157391337
1161.0, 0.00497082212999011
1162.0, 0.0013085106400365118
1163.0, 0.007523217624106149
1164.0, 0.009590542728995295
1165.0, 0.010533734709897961
1166.0, 0.007702237694574182
1167.0, 0.0066174539992644305
1168.0, 0.007138098752811451
1169.0, 0.008922943346510039
1170.0, 0.01187120782455503
1171.0, 0.0034998009054836893
1172.0, 0.008500778023251535
1173.0, 0.0019445708387299256
1174.0, 0.005191152962429398
1175.0, 0.0024361074990237575
1176.0, 0.001296453603787237
1177.0, 0.0009265134902062536
1178.0, 0.0012993908774053713
1179.0, 0.002630745292276918
1180.0, 0.004271228859428402
1181.0, 0.005432765877655232
1182.0, 0.007149458525423959
1183.0, 0.009586038715854913
1184.0, 0.006696290040393026
1185.0, 0.004775407374781056
1186.0, 0.009712042952165665
1187.0, 0.0021004706875761103
1188.0, 0.01141065130065454
1189.0, 0.009734003528591264
1190.0, 0.0077717203001010805
1191.0, 0.0061958816922755774
1192.0, 0.009190558442099185
1193.0, 0.01038613106382449
1194.0, 0.0070446785942531115
1195.0, 0.008345089449272765
1196.0, 0.0068941493244494955
1197.0, 0.0009936723118498868
1198.0, 0.0036278167877968645
1199.0, 0.005106365730999573
1200.0, 0.014835113736464569
1201.0, 0.004440377535439539
1202.0, 0.001257950397261939
1203.0, 0.009266719677989373
1204.0, 0.007973549710434083
1205.0, 0.005362934493986945
1206.0, 0.010447581174431782
1207.0, 0.011577875246439244
1208.0, 0.008687141687760691
1209.0, 0.017709213181166018
1210.0, 0.009676700892358857
1211.0, 0.006731314412276514
1212.0, 0.002562181725267803
1213.0, 0.01121398225331659
1214.0, 0.01749126651121687
1215.0, 0.01521193138115009
1216.0, 0.00911103622594328
1217.0, 0.00310065349238218
1218.0, 0.0003326724207359568
1219.0, 0.0027188464684001663
1220.0, 0.005544783349517743
1221.0, 0.004628609176881619
1222.0, 0.004580092933035352
1223.0, 0.0028557720693064463
1224.0, 0.011054474026023182
1225.0, 0.005626078604153874
1226.0, 0.0017540336855322437
1227.0, 0.00938174035294008
1228.0, 0.013951030887057098
1229.0, 0.009983101171604043
1230.0, 0.006825396519320882
1231.0, 0.010097275085870282
1232.0, 0.011306196732766765
1233.0, 0.01106132152992529
1234.0, 0.015294853837599136
1235.0, 0.020033053120420707
1236.0, 0.02348721622627819
1237.0, 0.003999078362764253
1238.0, 0.018926471269607278
1239.0, 0.011877872803683461
1240.0, 0.0069335257342735285
1241.0, 0.009703381853742301
1242.0, 0.015105144842972562
1243.0, 0.009649442773673097
1244.0, 0.0035910450685747233
1245.0, 0.0058327571302037445
1246.0, 0.013861796403899698
1247.0, 0.013531472267876961
1248.0, 0.006925033938366342
1249.0, 0.0118017988787536
1250.0, 0.009728242647689461
1251.0, 0.005479878444416234
1252.0, 0.009632284012053662
1253.0, 0.006149362983610152
1254.0, 0.006099721010261272
1255.0, 0.0045129514504239476
1256.0, 0.0019994656354308726
1257.0, 0.007882857236486249
1258.0, 0.008651277033979532
1259.0, 0.005917914164839875
1260.0, 0.005071186667387424
1261.0, 0.004631104946498663
1262.0, 0.0037805563658717873
1263.0, 0.005349847008827694
1264.0, 0.010265654055113992
1265.0, 0.01677029480776133
1266.0, 0.02020419122112338
1267.0, 0.00968066511733177
1268.0, 0.004903068884325483
1269.0, 0.004316462012558061
1270.0, 0.007992966646385616
1271.0, 0.009349812055913315
1272.0, 0.011971565717596678
1273.0, 0.012789432992603933
1274.0, 0.011986870386440028
1275.0, 0.011923254934284696
1276.0, 0.01005409457978268
1277.0, 0.007082893296566473
1278.0, 0.00762348899073591
1279.0, 0.0038448394516738846
1280.0, 0.004219880739085332
1281.0, 0.011884500052800527
1282.0, 0.0022629705380095835
1283.0, 0.015587318534578957
1284.0, 0.003993728099272539
1285.0, 0.0053271980033806916
1286.0, 0.007775659337747173
1287.0, 0.013248874422165111
1288.0, 0.013107317008478924
1289.0, 0.012555325325627269
1290.0, 0.01461497448994094
1291.0, 0.014308061671254637
1292.0, 0.011423888129196843
1293.0, 0.009143729826442439
1294.0, 0.009433102705499186
1295.0, 0.01028918901632095
1296.0, 0.01657035683853905
1297.0, 0.012804005552845088
1298.0, 0.014165569564191403
1299.0, 0.016632292010464584
1300.0, 0.010252967884600346
1301.0, 0.010467632253747729
1302.0, 0.01482557689870816
1303.0, 0.011848524647004654
1304.0, 0.009612217026877711
1305.0, 0.009780396529721815
1306.0, 0.012182480943927616
1307.0, 0.014700541214835808
1308.0, 0.01243993552740856
1309.0, 0.012822010330107108
1310.0, 0.009612594358849208
1311.0, 0.008880507261890214
1312.0, 0.014047620218649047
1313.0, 0.005326566454035627
1314.0, 0.01334691759188442
1315.0, 0.015901151372193754
1316.0, 0.011371046252149766
1317.0, 0.015228287487791165
1318.0, 0.008892892792524277
1319.0, 0.012211959316329896
1320.0, 0.01813231783081796
1321.0, 0.013849460354923118
1322.0, 0.01249645296904061
1323.0, 0.02047326270965974
1324.0, 0.020959287462417257
1325.0, 0.013388674012066174
1326.0, 0.013964795406042112
1327.0, 0.011654403817685158
1328.0, 0.017600390101744304
1329.0, 0.015622645894004044
1330.0, 0.015233649182559995
1331.0, 0.023381901563102644
1332.0, 0.018844771052959616
1333.0, 0.009083170285977547
1334.0, 0.014251522055595699
1335.0, 0.021370465715939212
1336.0, 0.019011425548021946
1337.0, 0.01755701371184366
1338.0, 0.020438729412788254
1339.0, 0.01579589739086837
1340.0, 0.008518933610243942
1341.0, 0.0153475421411696
1342.0, 0.021350322943492397
1343.0, 0.010861836496611457
1344.0, 0.007257770238060671
1345.0, 0.00945433799361301
1346.0, 0.01142989874431772
1347.0, 0.011479289316686356
1348.0, 0.017211199983924667
1349.0, 0.016848375095081625
1350.0, 0.010813865513753147
1351.0, 0.016693705343331717
1352.0, 0.016717203681658004
1353.0, 0.011302789547446377
1354.0, 0.008357776961100639
1355.0, 0.015041823700355034
1356.0, 0.015371521724673723
1357.0, 0.00996677406375749
1358.0, 0.01640422814520383
1359.0, 0.013567023681063236
1360.0, 0.011751136982963335
1361.0, 0.013725294463440634
1362.0, 0.013053363996225538
1363.0, 0.011966973256100178
1364.0, 0.016707493787587114
1365.0, 0.013367391770795144
1366.0, 0.014512214492588037
1367.0, 0.013974707537734768
1368.0, 0.009825330861456559
1369.0, 0.01156501526373414
1370.0, 0.01424641061168039
1371.0, 0.01224764984137746
1372.0, 0.01178838265016397
1373.0, 0.017768173675859315
1374.0, 0.015969989618507024
1375.0, 0.010974178499824735
1376.0, 0.01308406272235235
1377.0, 0.0062365695146167684
1378.0, 0.012714765692878816
1379.0, 0.013396119335009272
1380.0, 0.014429567166400774
1381.0, 0.014771650613415623
1382.0, 0.014832971462834557
1383.0, 0.011978442129711692
1384.0, 0.012357572738554732
1385.0, 0.013263491840248935
1386.0, 0.010939524915335638
1387.0, 0.01492810015553966
1388.0, 0.018176924804635022
1389.0, 0.018101658012067593
1390.0, 0.012985748512644552
1391.0, 0.009571771974489362
1392.0, 0.00927510465573063
1393.0, 0.010559832425112395
1394.0, 0.013763345026436618
1395.0, 0.015196527753038667
1396.0, 0.01434116434531987
1397.0, 0.014111642560234106
1398.0, 0.009644474004138474
1399.0, 0.00975840623561712
1400.0, 0.009085356535549696
1401.0, 0.013482294819579743
1402.0, 0.008153497673799113
1403.0, 0.015109452375119705
1404.0, 0.009691604672226144
1405.0, 0.01128871335226163
1406.0, 0.011597893437649208
1407.0, 0.0033310656275032454
1408.0, 0.007092015020706013
1409.0, 0.009317669913255965
1410.0, 0.00873080410921681
1411.0, 0.005812636769531567
1412.0, 0.004220051343311315
1413.0, 0.006110054705672126
1414.0, 0.008580938793002847
1415.0, 0.008142308829193147
1416.0, 0.004578155579775156
1417.0, 0.006228577151954174
1418.0, 0.0030228402688938583
1419.0, 0.014203704530370155
1420.0, 0.013206306952183552
1421.0, 0.008786352691689661
1422.0, 0.003462763220651108
1423.0, 0.003446100591517208
1424.0, 0.0031552961941875624
1425.0, 0.011185047573497774
1426.0, 0.0027480657646148255
1427.0, 0.0026182019790152236
1428.0, 0.009709167834921177
1429.0, 0.00725000367991967
1430.0, 0.008605502195251462
1431.0, 0.00547158442634177
1432.0, 0.010501831077586656
1433.0, 0.011931797443025636
1434.0, 0.016581696398090838
1435.0, 0.02474227885902567
1436.0, 0.016693511863665016
1437.0, 0.014192772326145346
1438.0, 0.011622086715593841
1439.0, 0.012368072468612436
1440.0, 0.012391663975044567
1441.0, 0.015831773957383322
1442.0, 0.012821143286257247
1443.0, 0.0004720479848994365
1444.0, 0.004850313185634408
1445.0, 0.016279544727874583
1446.0, 0.002690218385866921
1447.0, 0.010617060355762382
1448.0, 0.005221375076872096
1449.0, 0.0036249576714483807
1450.0, 0.0015898525526215086
1451.0, 0.006405855937173887
1452.0, 0.01017834404523931
1453.0, 0.010628041449280758
1454.0, 0.0047889923551859516
1455.0, 0.001553394008827765
1456.0, 0.010967801270413585
1457.0, 0.011758880259850757
1458.0, 0.008344589825878754
1459.0, 0.014634602997994003
1460.0, 0.006977148884735827
1461.0, 0.005441848077574679
1462.0, 0.002698908954102855
1463.0, 0.0016515816882739665
1464.0, 0.003130362590537483
1465.0, 0.0030464407338093415
1466.0, 0.007279496732965754
1467.0, 0.006349378383982365
1468.0, 0.006845654436933056
1469.0, 0.011134151314235676
1470.0, 0.018386426293599243
1471.0, 0.009311101089223128
1472.0, 0.010714593017526988
1473.0, 0.013090658914646409
1474.0, 0.007188532687440669
1475.0, 0.014790103993863919
1476.0, 0.010387372226888406
1477.0, 0.004451814337450111
1478.0, 0.005273032244218651
1479.0, 0.010101845634004984
1480.0, 0.009041038147575673
1481.0, 0.007103881220360255
1482.0, 0.008956932254309047
1483.0, 0.007715535949072046
1484.0, 0.007220264147456059
1485.0, 0.008672098226376839
1486.0, 0.00796255980704288
1487.0, 0.007045751426351814
1488.0, 0.004411307197090663
1489.0, 0.00647133838559825
1490.0, 0.00693319934940598
1491.0, 0.007914269188772253
1492.0, 0.0093553301633209
1493.0, 0.01179244225647797
1494.0, 0.009823862050456433
1495.0, 0.010216468676886636
1496.0, 0.007855578340628843
1497.0, 0.015518789821103832
1498.0, 0.007175477703648276
1499.0, 0.007627312715325713
1500.0, 0.00538382026185697
1501.0, 0.01451212013733804
1502.0, 0.005889789236879094
1503.0, 0.009973286053246211
1504.0, 0.012322102604889822
1505.0, 0.014622055412572731
1506.0, 0.011909695238775985
1507.0, 0.006997820254638443
1508.0, 0.010541989755672198
1509.0, 0.01293122833598362
1510.0, 0.010888240810894647
1511.0, 0.010020416749280793
1512.0, 0.010408227367019516
1513.0, 0.012041855368834856
1514.0, 0.00425407724591185
1515.0, 0.005335263363523227
1516.0, 0.01582540846924633
1517.0, 0.019955081720090542
1518.0, 0.014150805862480829
1519.0, 0.008079003019381251
1520.0, 0.011148988715618487
1521.0, 0.0012624066180740889
1522.0, 0.0011138093395317147
1523.0, 0.010383627816002137
1524.0, 0.010093599054427551
1525.0, 0.011760557484506214
1526.0, 0.007454651970910348
1527.0, 0.012396855502148585
1528.0, 0.008780044301428236
1529.0, 0.011140289019198455
1530.0, 0.01567874107281176
1531.0, 0.014199049078410582
1532.0, 0.007311378403678178
1533.0, 0.012587617688291454
1534.0, 0.00898631499187804
1535.0, 0.004944541734454372
1536.0, 0.012354942436689326
1537.0, 0.014663088448166366
1538.0, 0.013364650193264549
1539.0, 0.010623206652712018
1540.0, 0.008932024078848343
1541.0, 0.007289647997942022
1542.0, 0.003447740127368003
1543.0, 0.008087870085293275
1544.0, 0.008356144267832443
1545.0, 0.006446970287478433
1546.0, 0.00829605487862521
1547.0, 0.014834258821943454
1548.0, 0.013081380666615483
1549.0, 0.014636325789975882
1550.0, 0.013404677373527737
1551.0, 0.006834916636873965
1552.0, 0.01895606871857011
1553.0, 0.01840255785822551
1554.0, 0.007610469794149902
1555.0, 0.011972762140608774
1556.0, 0.008832928287333258
1557.0, 0.0004043129799433127
1558.0, 0.01091875747573337
1559.0, 0.011697526709234884
1560.0, 0.004757073467197159
1561.0, 0.013078966255261072
1562.0, 0.013559449532533546
1563.0, 0.011239707797792396
1564.0, 0.002916508502508959
1565.0, 0.004221056708459937
1566.0, 0.004529043505051893
1567.0, 0.009222704862761619
1568.0, 0.010646235035740201
1569.0, 0.010050476865440252
1570.0, 0.008920765963236984
1571.0, 0.00737564000558114
1572.0, 0.002858499080952573
1573, 0.0
1574, 0.0
1575, 0.0
1576, 0.0
1577, 0.0
1578, 0.0
1579, 0.0
1580, 0.0
1581, 0.0
1582, 0.0
1583, 0.0
1584, 0.0
1585, 0.0
1586, 0.0
1587, 0.0
1588, 0.0
1589, 0.0
1590, 0.0
1591, 0.0
1592, 0.0
1593, 0.0
1594, 0.0
1595, 0.0
1596, 0.0
1597, 0.0
1598, 0.0
1599, 0.0
