30, 0.0
31, 0.0
32, 0.0
33, 0.0
34, 0.0
35, 0.0
36, 0.0
37, 0.0
38, 0.0
39, 0.0
40, 0.0
41, 0.0
42, 0.0
43, 0.0
44, 0.0
45, 0.0
46, 0.0
47, 0.0
48, 0.0
49, 0.0
50, 0.0
51, 0.0
52, 0.0
53, 0.0
54, 0.0
55, 0.0
56, 0.0
57, 0.0
58, 0.0
59, 0.0
60, 0.0
61, 0.0
62, 0.0
63, 0.0
64, 0.0
65, 0.0
66, 0.0
67, 0.0
68, 0.0
69, 0.0
70, 0.0
71, 0.0
72, 0.0
73, 0.0
74, 0.0
75, 0.0
76, 0.0
77, 0.0
78, 0.0
79, 0.0
80, 0.0
81, 0.0
82, 0.0
83, 0.0
84, 0.0
85, 0.0
86, 0.0
87, 0.0
88, 0.0
89, 0.0
90, 0.0
91, 0.0
92, 0.0
93, 0.0
94, 0.0
95, 0.0
96, 0.0
97, 0.0
98, 0.0
99, 0.0
100, 0.0
101, 0.0
102, 0.0
103, 0.0
104, 0.0
105, 0.0
106, 0.0
107, 0.0
108, 0.0
109, 0.0
110, 0.0
111, 0.0
112, 0.0
113, 0.0
114, 0.0
115, 0.0
116, 0.0
117, 0.0
118, 0.0
119, 0.0
120, 0.0
121, 0.0
122, 0.0
123, 0.0
124.0, 0.004321537968401751
125.0, 0.008483915201747058
126.0, 0.008720498765364265
127.0, 0.023873849927191264
128.0, 0.034646479338134764
129.0, 0.040228814399574375
130.0, 0.04187493867530092
131.0, 0.05768695183352697
132.0, 0.07624558248859983
133.0, 0.09250860085664195
134.0, 0.11342024289602755
135.0, 0.13151676688855363
136.0, 0.15069005215452655
137.0, 0.17991741737351802
138.0, 0.19752553217946991
139.0, 0.21321953066452384
140.0, 0.22880020770738843
141.0, 0.23605574260182877
142.0, 0.23666440316248485
143.0, 0.22754854205503972
144.0, 0.20246613367526425
145.0, 0.1916379183490897
146.0, 0.1778589262481792
147.0, 0.1593186133120678
148.0, 0.13647010394190717
149.0, 0.11679127595789322
150.0, 0.09815848576267544
151.0, 0.07950738899892205
152.0, 0.06643250611825655
153.0, 0.055159962979619455
154.0, 0.04563310134074035
155.0, 0.038343606858625846
156.0, 0.0399182526774613
157.0, 0.03936348991769765
158.0, 0.03409169802865922
159.0, 0.03219339217394194
160.0, 0.026555547148725277
161.0, 0.021007653107152045
162.0, 0.01991907838844692
163.0, 0.020927494575433237
164.0, 0.020839831738539222
165.0, 0.019823321771314958
166.0, 0.020098393936383945
167.0, 0.024541905575823083
168.0, 0.02954435082833991
169.0, 0.033347697993908694
170.0, 0.018848975508436096
171.0, 0.02057980885782809
172.0, 0.02717050458331502
173.0, 0.017562774812534668
174.0, 0.02015089946045911
175.0, 0.024086604095750138
176.0, 0.025241964381524803
177.0, 0.007142103325823386
178.0, 0.00838317973209714
179.0, 0.011739181976318049
180.0, 0.004114246299678423
181.0, 0.0018177859726782534
182.0, 0.004789984833757176
183.0, 0.010893152397504843
184.0, 0.014685867620899322
185.0, 0.016868310836404065
186.0, 0.013709168028467333
187.0, 0.004800019968191831
188.0, 0.00593341926451571
189.0, 0.0036846464135498608
190.0, 0.0040858687828197885
191.0, 0.014273656694855467
192.0, 0.014354288621679803
193.0, 0.009644849038655654
194.0, 0.0037842289723566606
195.0, 0.008448911770880137
196.0, 0.0071024506930010166
197.0, 0.006534942193142201
198.0, 0.009286252851825908
199.0, 0.011207285287920891
200.0, 0.010025208761316042
201.0, 0.006897672658105373
202.0, 0.002891271162912475
203.0, 0.005605390784901456
204.0, 0.007226013233368107
205.0, 0.0068677911398344164
206.0, 0.004322846146734953
207.0, 0.0066673502135979916
208.0, 0.008386635462542365
209.0, 0.007123695527831278
210.0, 0.005820345392242876
211.0, 0.0045598825858165154
212.0, 0.0037291461638415467
213.0, 0.003955273169364927
214.0, 0.0070712643697012955
215.0, 0.005471941525166171
216.0, 0.0009967184322424464
217.0, 0.005403445468459072
218.0, 0.009619804979586038
219.0, 0.012046617467690703
220.0, 0.011886897230909847
221.0, 0.010353309693731577
222.0, 0.009293751236340969
223.0, 0.011136255183203719
224.0, 0.019611409037488623
225.0, 0.02222368840975442
226.0, 0.02582464152540556
227.0, 0.028223183537860665
228.0, 0.018139136377659536
229.0, 0.021707831521833275
230.0, 0.02121887582602057
231.0, 0.010608689186646808
232.0, 0.003397896163756575
233.0, 0.00639602293784613
234.0, 0.010676502852666955
235.0, 0.007044267402988717
236.0, 0.014138717328104662
237.0, 0.01750424340803672
238.0, 0.015293860830214119
239.0, 0.004151655856228935
240.0, 0.005190867942991038
241.0, 0.010526008210345647
242.0, 0.017157989082530033
243.0, 0.01557011035981141
244.0, 0.011597960314659294
245.0, 0.0063842454758416285
246.0, 0.0006265568611050769
247.0, 0.006040056207969709
248.0, 0.016513983643541393
249.0, 0.025339467383999174
250.0, 0.0188652774635446
251.0, 0.01923317922187413
252.0, 0.017425138081627576
253.0, 0.012576217414584187
254.0, 0.00897744517171968
255.0, 0.01194475821116748
256.0, 0.013839099051711828
257.0, 0.01108246279034107
258.0, 0.01251602405041558
259.0, 0.016790142607300294
260.0, 0.019979567238901073
261.0, 0.016990937024637855
262.0, 0.014905909106526198
263.0, 0.014426659299703508
264.0, 0.0143353083294115
265.0, 0.010767759225422557
266.0, 0.008974570636929115
267.0, 0.006305365774611825
268.0, 0.002421949927371603
269.0, 0.0010930005199589064
270.0, 0.0021735197974546857
271.0, 0.003190932934693198
272.0, 0.0024950830875911214
273.0, 0.006112099817822257
274.0, 0.011562503107578856
275.0, 0.0154011027950062
276.0, 0.011861585362766318
277.0, 0.013652252404940234
278.0, 0.012897910510203489
279.0, 0.008838929768873405
280.0, 0.0018656970309722594
281.0, 0.012177191768690592
282.0, 0.01530608554255319
283.0, 0.006093606987814618
284.0, 0.01726232426534428
285.0, 0.019974272796686312
286.0, 0.016040334178283183
287.0, 0.006069763984685566
288.0, 0.012952962059518784
289.0, 0.016419101035476343
290.0, 0.01873857342633975
291.0, 0.0237294697475076
292.0, 0.023549785836797496
293.0, 0.025604758270365038
294.0, 0.02986797179798413
295.0, 0.03340218305430271
296.0, 0.03584889312979958
297.0, 0.040357127143493876
298.0, 0.04700029215689926
299.0, 0.047784496414716215
300.0, 0.04434443534173306
301.0, 0.04286960735747184
302.0, 0.04723710844163752
303.0, 0.04876499786554019
304.0, 0.059220549555973764
305.0, 0.06458491816773643
306.0, 0.04593525126752993
307.0, 0.05683197062840987
308.0, 0.0723892645125025
309.0, 0.08505684113511464
310.0, 0.08011157273565707
311.0, 0.09546627320793524
312.0, 0.10151952313752406
313.0, 0.0996703542786578
314.0, 0.13152971256948637
315.0, 0.14043579081046326
316.0, 0.1478350653459521
317.0, 0.16260412164247523
318.0, 0.18077294125952406
319.0, 0.19135142042814868
320.0, 0.20414157014625664
321.0, 0.22736941030229732
322.0, 0.23565973825605038
323.0, 0.2505295499333285
324.0, 0.26629933306503845
325.0, 0.2736434473013661
326.0, 0.2763624547431226
327.0, 0.27703571020671947
328.0, 0.27628345032805834
329.0, 0.2749528714545341
330.0, 0.2638528320766594
331.0, 0.2587108088991176
332.0, 0.25894682890459914
333.0, 0.2409842671975088
334.0, 0.23761378147577591
335.0, 0.23084599916793544
336.0, 0.21497642561823752
337.0, 0.21871957262745112
338.0, 0.21270324624053513
339.0, 0.20192797559405024
340.0, 0.18975245104624938
341.0, 0.18120364368785846
342.0, 0.17920225167769038
343.0, 0.1786364844151288
344.0, 0.1728521806158581
345.0, 0.17534329932845688
346.0, 0.17245905674847065
347.0, 0.1698735083491856
348.0, 0.18232625447774628
349.0, 0.18398492834662042
350.0, 0.18489092375268573
351.0, 0.18748026973729195
352.0, 0.1948782004822025
353.0, 0.19811708158619043
354.0, 0.20220927692661064
355.0, 0.20782895266561763
356.0, 0.20943949479109966
357.0, 0.21261337210654482
358.0, 0.21484713244409498
359.0, 0.2151813307225115
360.0, 0.2182498968445122
361.0, 0.21261077015774213
362.0, 0.20772646315238788
363.0, 0.21080081481882984
364.0, 0.21359360688549853
365.0, 0.2085175513347294
366.0, 0.20400565187965602
367.0, 0.21046208538357128
368.0, 0.19573305042485636
369.0, 0.19559294248403436
370.0, 0.1991734183200532
371.0, 0.18307202768469433
372.0, 0.1879930433968126
373.0, 0.19373416625461964
374.0, 0.19752340744337135
375.0, 0.198314006090145
376.0, 0.2060462614671811
377.0, 0.21313124318545823
378.0, 0.21977673905381742
379.0, 0.2337705398824638
380.0, 0.24073634250901232
381.0, 0.24770311967777234
382.0, 0.2596228404076509
383.0, 0.295500246215956
384.0, 0.3107969899977506
385.0, 0.3273022704078464
386.0, 0.35487595759989093
387.0, 0.3885765531464184
388.0, 0.4228031953767336
389.0, 0.4504281518815562
390.0, 0.4662498513955708
391.0, 0.46720058231371986
392.0, 0.4919489701769757
393.0, 0.5059565127775556
394.0, 0.4763184179564083
395.0, 0.476191635573583
396.0, 0.4422840954361757
397.0, 0.3953719538822471
398.0, 0.36280742661246795
399.0, 0.3240056151567285
400.0, 0.2690088550803815
401.0, 0.21598143214833904
402.0, 0.197932613483814
403.0, 0.16573926095760605
404.0, 0.13903097779535953
405.0, 0.11846168050708744
406.0, 0.1014659783183962
407.0, 0.08286803619766711
408.0, 0.06927522729129452
409.0, 0.059578080734161994
410.0, 0.04744422371804005
411.0, 0.03406679051928201
412.0, 0.02639373963039675
413.0, 0.024720768647110695
414.0, 0.024270296400813796
415.0, 0.028018411300679315
416.0, 0.021515389426511846
417.0, 0.007650965792625889
418.0, 0.02475368299924508
419.0, 0.016943761238548946
420.0, 0.010869604861231941
421.0, 0.014108435010077176
422.0, 0.011493822146622553
423.0, 0.006078362846278379
424.0, 0.0047836247740361115
425.0, 0.009355856807541824
426.0, 0.004558008856871498
427.0, 0.005920181847236436
428.0, 0.00611429416044273
429.0, 0.0018504837044192733
430.0, 0.004501707549284233
431.0, 0.007427062612674137
432.0, 0.008370377964375017
433.0, 0.005892025153651609
434.0, 0.0027315866163486044
435.0, 0.01690709980959655
436.0, 0.023006227723724737
437.0, 0.002339755093797298
438.0, 0.00918674994949679
439.0, 0.016188954883926358
440.0, 0.019963196598938377
441.0, 0.01738342025378856
442.0, 0.0067392224779088995
443.0, 0.0029437219801033408
444.0, 0.002479698176877613
445.0, 0.0018033700947450299
446.0, 0.0007305938656232133
447.0, 0.017359117731677438
448.0, 0.029480377122579497
449.0, 0.01087481429467859
450.0, 0.01868175383865492
451.0, 0.019853170933624792
452.0, 0.016373976360073643
453.0, 0.011652419777129865
454.0, 0.01595217681505425
455.0, 0.0160701143711721
456.0, 0.019282879152879608
457.0, 0.036557521813560936
458.0, 0.021600736457663798
459.0, 0.01919823661110029
460.0, 0.026702573215528692
461.0, 0.037360577033050166
462.0, 0.021599182200023555
463.0, 0.030872057569463155
464.0, 0.04398009940009936
465.0, 0.02305583235784043
466.0, 0.02977793391807656
467.0, 0.043583109474451626
468.0, 0.052272918108794336
469.0, 0.03796238730003893
470.0, 0.04154921162662834
471.0, 0.04146434743955703
472.0, 0.03678608664425888
473.0, 0.028347393214501134
474.0, 0.034346473912564
475.0, 0.031611751616568616
476.0, 0.028745951160986185
477.0, 0.04310583154037525
478.0, 0.0395844294532213
479.0, 0.03880561519619414
480.0, 0.0386821694259774
481.0, 0.03317900692489761
482.0, 0.03595110328701919
483.0, 0.03127847306707719
484.0, 0.0257163429997814
485.0, 0.031813636223275044
486.0, 0.030636346228463316
487.0, 0.03426599451485373
488.0, 0.03903691923656782
489.0, 0.03795318441536581
490.0, 0.03268866232387922
491.0, 0.03896528334089657
492.0, 0.05094271086060093
493.0, 0.05870094383084373
494.0, 0.04046908489795119
495.0, 0.04528935759249118
496.0, 0.05407570116369594
497.0, 0.03677451321777094
498.0, 0.04145935518849402
499.0, 0.046549397569688
500.0, 0.0460074002883227
501.0, 0.03313037283872012
502.0, 0.038190993843029875
503.0, 0.04137420336834976
504.0, 0.047892823510461265
505.0, 0.06451985024298877
506.0, 0.06368689383877346
507.0, 0.06843216723378948
508.0, 0.07159215672770454
509.0, 0.06533259430792542
510.0, 0.04874657741818926
511.0, 0.04508006582182555
512.0, 0.05075075389344476
513.0, 0.06195140300314792
514.0, 0.05791699839094212
515.0, 0.06713821661550194
516.0, 0.07453628401694883
517.0, 0.06881637623656926
518.0, 0.07734310569143366
519.0, 0.07905872843352434
520.0, 0.08844999686402263
521.0, 0.1124335330702349
522.0, 0.09804273167616528
523.0, 0.09606732110182567
524.0, 0.10765421370496381
525.0, 0.13019473347576457
526.0, 0.1261568319027648
527.0, 0.12211730426406534
528.0, 0.1278957234600945
529.0, 0.1457289366627133
530.0, 0.1542690546660703
531.0, 0.15590115910119626
532.0, 0.16696868663678932
533.0, 0.18321563367452223
534.0, 0.14143562758864248
535.0, 0.15202775590505682
536.0, 0.14979255473979744
537.0, 0.12791944602369532
538.0, 0.1498134017860538
539.0, 0.13097758305652765
540.0, 0.11113306850828049
541.0, 0.10122486614872686
542.0, 0.10458829832911126
543.0, 0.10347406851771852
544.0, 0.09925885540134001
545.0, 0.09456101067849026
546.0, 0.09546840469011578
547.0, 0.10143603375245404
548.0, 0.09513290283753881
549.0, 0.07962165557105715
550.0, 0.06523974974922887
551.0, 0.049372967129702225
552.0, 0.055045727484238055
553.0, 0.06904172278195424
554.0, 0.06881778293330738
555.0, 0.06704216372493468
556.0, 0.05262717838069533
557.0, 0.047910605535396326
558.0, 0.07800870465365703
559.0, 0.06205503497030785
560.0, 0.04901596422964585
561.0, 0.04587239921445152
562.0, 0.056849817358853943
563.0, 0.04675107336119681
564.0, 0.049103529307630754
565.0, 0.0542517977838276
566.0, 0.05513623780312349
567.0, 0.041620522810679295
568.0, 0.054697200267369094
569.0, 0.0479868302375927
570.0, 0.018038171097568393
571.0, 0.0691417014485401
572.0, 0.05287738242622191
573.0, 0.038594883289737744
574.0, 0.044453958669583696
575.0, 0.05681988786523878
576.0, 0.02750199989024994
577.0, 0.03075079401953312
578.0, 0.05429443666586933
579.0, 0.02720267374997392
580.0, 0.031138373443272586
581.0, 0.028361332279995294
582.0, 0.02024735192971054
583.0, 0.017275994885662598
584.0, 0.021656098747228382
585.0, 0.01850746997831907
586.0, 0.017023466892986176
587.0, 0.02894734127111623
588.0, 0.016664396819700788
589.0, 0.007870648275161754
590.0, 0.005379644751067307
591.0, 0.01035026093287618
592.0, 0.0058948724138722704
593.0, 0.009197201358498766
594.0, 0.01772054749833628
595.0, 0.02610236630406359
596.0, 0.005774842597799949
597.0, 0.0013119814598312434
598.0, 0.0031135933222816324
599.0, 0.007629285858985356
600.0, 0.014087247609629157
601.0, 0.012747498473857973
602.0, 0.009897369365641546
603.0, 0.007608278875835721
604.0, 0.00772641987536057
605.0, 0.004033074216842448
606.0, 0.002627440371034015
607.0, 0.004490334624164259
608.0, 0.010067007999965988
609.0, 0.004814097120910409
610.0, 0.004641768578918609
611.0, 0.006769525182540757
612.0, 0.008237741031490008
613.0, 0.016960307449912972
614.0, 0.016336153650884155
615.0, 0.013061114813883647
616.0, 0.011823363702020171
617.0, 0.01699629008862101
618.0, 0.019484081453754788
619.0, 0.020262110703611426
620.0, 0.019811476147255647
621.0, 0.018626917589176527
622.0, 0.023182525770479957
623.0, 0.02831926966497557
624.0, 0.03101987069109775
625.0, 0.026822323406448204
626.0, 0.03414951254601202
627.0, 0.04191160066764448
628.0, 0.04785665215546075
629.0, 0.05038004572905922
630.0, 0.04774846255163245
631.0, 0.0501591301595298
632.0, 0.050954294533391224
633.0, 0.04766099323604954
634.0, 0.07868514929967754
635.0, 0.07217122783852029
636.0, 0.07388313796646215
637.0, 0.09648184850270033
638.0, 0.09523152857664884
639.0, 0.11146924417287994
640.0, 0.12378551202110431
641.0, 0.12641133396371826
642.0, 0.11831918538819236
643.0, 0.13558080306339476
644.0, 0.14268187489588108
645.0, 0.14449878412592454
646.0, 0.15370282009808467
647.0, 0.189703200053303
648.0, 0.19780577599434224
649.0, 0.20036015267306798
650.0, 0.21772285469543853
651.0, 0.2637210622266758
652.0, 0.27820002286894774
653.0, 0.3055408874189529
654.0, 0.35605222223437
655.0, 0.38550943025126655
656.0, 0.43724408737898646
657.0, 0.4792426929642967
658.0, 0.5248273571396126
659.0, 0.6204161197424115
660.0, 0.6609862694975812
661.0, 0.7410108574525839
662.0, 0.8314883582022723
663.0, 0.8885549033929455
664.0, 0.9338220205799552
665.0, 0.9758746154871552
666.0, 0.9923831238858181
667.0, 0.9719783971478435
668.0, 0.9367770809270004
669.0, 0.8762350419407771
670.0, 0.7992772682674274
671.0, 0.7160793166765904
672.0, 0.6492340420570958
673.0, 0.5964818354595277
674.0, 0.5214575513263147
675.0, 0.44721407720948475
676.0, 0.4164779518125334
677.0, 0.35755513625524177
678.0, 0.33052867090848526
679.0, 0.3034248029504012
680.0, 0.25431568161179074
681.0, 0.23709593697389242
682.0, 0.21459490382316845
683.0, 0.19487965673517704
684.0, 0.17765680377031834
685.0, 0.1498603004449038
686.0, 0.14116290761493225
687.0, 0.1308921683008042
688.0, 0.12316564006543583
689.0, 0.1308007003785491
690.0, 0.11326925729998749
691.0, 0.10241219422529477
692.0, 0.09115575476674341
693.0, 0.07450365169942527
694.0, 0.07531884550605823
695.0, 0.06971304547240664
696.0, 0.06687102200710002
697.0, 0.06654583325732334
698.0, 0.05376269452713618
699.0, 0.05750645376725201
700.0, 0.048770260383077677
701.0, 0.04159823137513366
702.0, 0.06654373580838054
703.0, 0.0581902351576557
704.0, 0.04297193007968435
705.0, 0.029507391340277696
706.0, 0.02275864897636478
707.0, 0.008412156003442054
708.0, 0.028663753181812787
709.0, 0.03212339123628499
710.0, 0.017535723819484293
711.0, 0.03945829304898537
712.0, 0.02469684967769216
713.0, 0.016236217807869876
714.0, 0.02232593526506499
715.0, 0.04537997858200568
716.0, 0.024296713462681425
717.0, 0.034259193800104476
718.0, 0.03479101850327336
719.0, 0.008392969680422007
720.0, 0.010606566498337517
721.0, 0.0059457009962926854
722.0, 0.004638317524687434
723.0, 0.00901990318982629
724.0, 0.018030515995288737
725.0, 0.015173482782852799
726.0, 0.013666962690847988
727.0, 0.016862098426150423
728.0, 0.024950583595365852
729.0, 0.005144574913619755
730.0, 0.011892843971778404
731.0, 0.028971684451582408
732.0, 0.041534565288058746
733.0, 0.021893215175694335
734.0, 0.020092238769860295
735.0, 0.01664632458097825
736.0, 0.01464467317418558
737.0, 0.022834005527502352
738.0, 0.005978067119465375
739.0, 0.011852775174038425
740.0, 0.019296402236234366
741.0, 0.014962768874952355
742.0, 0.0043940398027759895
743.0, 0.02117036585475366
744.0, 0.024343639280866122
745.0, 0.012204520406867522
746.0, 0.0030339108285343946
747.0, 0.028295549998698794
748.0, 0.024025260074223277
749.0, 0.008517530006096116
750.0, 0.0026173694739039886
751.0, 0.022110611141704248
752.0, 0.013081554810409603
753.0, 0.01154032301961929
754.0, 0.02000072076984524
755.0, 0.010573158216436597
756.0, 0.030598454451485742
757.0, 0.03629150401639559
758.0, 0.027314530194527568
759.0, 0.010157581642331803
760.0, 0.014390943434239425
761.0, 0.017978209450700562
762.0, 0.022810259295274502
763.0, 0.02546030438757716
764.0, 0.011431259092514159
765.0, 0.02329462967596386
766.0, 0.030752292779347015
767.0, 0.02449198990193751
768.0, 0.0011628462103859226
769.0, 0.038104676906642244
770.0, 0.03997485731207725
771.0, 0.02270573276645129
772.0, 0.007105264362109055
773.0, 0.04117376342677875
774.0, 0.018739482781798347
775.0, 0.0158216914096371
776.0, 0.027714556606475566
777.0, 0.030955041736017666
778.0, 0.024505591523969708
779.0, 0.02643293499758798
780.0, 0.019822360777309245
781.0, 0.007098104836536142
782.0, 0.037229363381311
783.0, 0.0339997289592707
784.0, 0.023756647935939013
785.0, 0.020726914967339045
786.0, 0.0377331261587007
787.0, 0.04574375233547456
788.0, 0.0302601192079938
789.0, 0.028436690361718545
790.0, 0.046650201985331784
791.0, 0.02717826296499436
792.0, 0.029814956149130264
793.0, 0.030985211640346646
794.0, 0.026448110198754274
795.0, 0.017204014321568494
796.0, 0.04886399107206307
797.0, 0.03462429438358036
798.0, 0.023663657326971455
799.0, 0.035335783455496914
800.0, 0.04637368804362688
801.0, 0.024686298411078562
802.0, 0.04045620296049127
803.0, 0.05889989306593014
804.0, 0.02943583829378797
805.0, 0.034346955468578015
806.0, 0.04332309051620382
807.0, 0.04297577274193906
808.0, 0.03945146609374068
809.0, 0.0703796588026837
810.0, 0.03829759492334611
811.0, 0.03521763227412364
812.0, 0.05261814989361652
813.0, 0.06559189521077347
814.0, 0.013071245296709746
815.0, 0.04751298377121051
816.0, 0.07565663769671425
817.0, 0.0753506089734155
818.0, 0.07563259616325599
819.0, 0.050520844338709965
820.0, 0.04544501495571007
821.0, 0.05908456965238676
822.0, 0.07990844471939536
823.0, 0.05489615873501637
824.0, 0.057760571348176144
825.0, 0.06519144778559603
826.0, 0.0643882233339239
827.0, 0.043944841861974254
828.0, 0.07505529504261352
829.0, 0.07733798921698665
830.0, 0.06264586227507955
831.0, 0.045999530372483576
832.0, 0.0546803266118497
833.0, 0.031133923836073673
834.0, 0.04512069527392192
835.0, 0.06429975535043606
836.0, 0.035539413098480514
837.0, 0.046515846946857606
838.0, 0.06158642634302413
839.0, 0.05777519864066101
840.0, 0.039717098967092655
841.0, 0.04838012228601151
842.0, 0.03414043910448851
843.0, 0.03885578442386917
844.0, 0.06315931831048838
845.0, 0.0921977268611613
846.0, 0.037072906607272825
847.0, 0.06319109828231768
848.0, 0.08402155543956873
849.0, 0.08209801123994817
850.0, 0.06844932714351015
851.0, 0.13004022848337554
852.0, 0.13502581714961165
853.0, 0.14103186691881972
854.0, 0.17252020553975264
855.0, 0.19190446387170534
856.0, 0.16777793640449867
857.0, 0.18383048961427265
858.0, 0.21176037904674713
859.0, 0.2114163927724824
860.0, 0.21460502472017065
861.0, 0.21048899660291623
862.0, 0.187068525386142
863.0, 0.17372904637444692
864.0, 0.236101396415438
865.0, 0.1756041304783038
866.0, 0.1525266252166676
867.0, 0.15553333645942466
868.0, 0.16343153936670615
869.0, 0.13200357925940825
870.0, 0.1500042711135291
871.0, 0.12521267328059876
872.0, 0.09444812056195147
873.0, 0.10880115812418585
874.0, 0.10030041839448164
875.0, 0.10400006748482093
876.0, 0.10679993890179174
877.0, 0.09932013646690281
878.0, 0.07222685171901648
879.0, 0.08830553800480796
880.0, 0.07931721544675424
881.0, 0.06108455736267801
882.0, 0.04584354492403472
883.0, 0.038589123232567475
884.0, 0.07131383074250586
885.0, 0.05951014293049874
886.0, 0.042914571220322474
887.0, 0.06343527585557072
888.0, 0.034109836974179644
889.0, 0.03129455728344216
890.0, 0.047134549410669795
891.0, 0.05653252327268883
892.0, 0.023822916205928246
893.0, 0.04951044326084492
894.0, 0.03480239249122507
895.0, 0.023271695451179596
896.0, 0.0317719277538883
897.0, 0.04499177759936341
898.0, 0.017212394319048016
899.0, 0.024676269294676666
900.0, 0.03412027853002643
901.0, 0.019214738840588594
902.0, 0.0073741202745808
903.0, 0.04926409271572473
904.0, 0.04158958080508487
905.0, 0.013394840455420689
906.0, 0.021788056609231228
907.0, 0.03035175108813386
908.0, 0.02401765074510434
909.0, 0.034579486554198825
910.0, 0.045672815476795595
911.0, 0.007814308108896155
912.0, 0.03095994221903549
913.0, 0.04284927460590303
914.0, 0.039418587162963516
915.0, 0.025548694845406734
916.0, 0.020984251803760484
917.0, 0.014758435163720844
918.0, 0.024759903325751523
919.0, 0.037113510245289257
920.0, 0.038012029153723856
921.0, 0.019951432288769555
922.0, 0.021919367878517185
923.0, 0.03239882706524926
924.0, 0.03219957923992552
925.0, 0.01071030055195104
926.0, 0.0519870879947783
927.0, 0.027098953117477106
928.0, 0.032809108640432995
929.0, 0.056562743354532784
930.0, 0.03583154960335618
931.0, 0.018112430048768387
932.0, 0.02901451299214299
933.0, 0.038045886026741395
934.0, 0.0344309215868105
935.0, 0.02452008358689597
936.0, 0.05246983444294816
937.0, 0.03414573369098579
938.0, 0.024957524121413055
939.0, 0.04594015260304792
940.0, 0.04989900484126356
941.0, 0.03867493506026479
942.0, 0.043336035015667566
943.0, 0.038328215337727636
944.0, 0.015543339584965687
945.0, 0.04743887732491295
946.0, 0.06703115228767728
947.0, 0.04533239544377787
948.0, 0.038100615110254574
949.0, 0.08731420870163725
950.0, 0.025935101512497907
951.0, 0.040221536255927975
952.0, 0.06454987112089607
953.0, 0.0738760855844638
954.0, 0.060055215818258394
955.0, 0.07644781214795021
956.0, 0.06418701953711185
957.0, 0.05866176396451451
958.0, 0.067336381660807
959.0, 0.08097135669346123
960.0, 0.04125352715575882
961.0, 0.080098492238658
962.0, 0.0857342870045634
963.0, 0.05140601970814126
964.0, 0.06699839989852366
965.0, 0.08491264639572768
966.0, 0.06926582261857857
967.0, 0.06884191266373156
968.0, 0.0846397363778054
969.0, 0.04720049842582989
970.0, 0.0635056534000171
971.0, 0.08386059810274313
972.0, 0.08763617780296347
973.0, 0.07128027955175753
974.0, 0.061906237461342835
975.0, 0.08588263236302018
976.0, 0.07300376661184761
977.0, 0.06571162583847912
978.0, 0.08587983436758793
979.0, 0.06867969843925348
980.0, 0.06633366554432077
981.0, 0.0913943079075163
982.0, 0.09175822694861752
983.0, 0.04909856574774984
984.0, 0.11083065356270813
985.0, 0.10358030729530472
986.0, 0.08817492334711648
987.0, 0.09870850343030442
988.0, 0.14126168215914817
989.0, 0.10457110644496678
990.0, 0.12328388774896026
991.0, 0.14833815463111572
992.0, 0.15489895389191527
993.0, 0.13921214149226424
994.0, 0.1979617258055586
995.0, 0.18749701180846656
996.0, 0.2051673378631846
997.0, 0.23984365216980313
998.0, 0.2554333175572616
999.0, 0.285303191521125
1000.0, 0.33742991896515345
1001.0, 0.3825161012738121
1002.0, 0.4176838194556871
1003.0, 0.45084094704353106
1004.0, 0.5019141859322983
1005.0, 0.5135017211726224
1006.0, 0.5248660964866669
1007.0, 0.5414804020010029
1008.0, 0.5524955334902643
1009.0, 0.5103149102116248
1010.0, 0.513711536174491
1011.0, 0.47598225031064273
1012.0, 0.40751286513144447
1013.0, 0.3588311617549495
1014.0, 0.3401642607948912
1015.0, 0.2799316056016599
1016.0, 0.217356800968913
1017.0, 0.18248296900764915
1018.0, 0.1921484852891246
1019.0, 0.1468105555137718
1020.0, 0.14047404916727416
1021.0, 0.13101824645304241
1022.0, 0.11557481504592805
1023.0, 0.10805543354173683
1024.0, 0.11373141219567234
1025.0, 0.08990819044431828
1026.0, 0.08535096188934453
1027.0, 0.10825835686367419
1028.0, 0.14074125626389364
1029.0, 0.08202380728709405
1030.0, 0.09379449896514123
1031.0, 0.09046209313035057
1032.0, 0.0822351744055781
1033.0, 0.10575094011904071
1034.0, 0.08007099327297645
1035.0, 0.05895775089056112
1036.0, 0.059903306453127546
1037.0, 0.06795679177472988
1038.0, 0.060732495123181574
1039.0, 0.0570926680407178
1040.0, 0.10251648186072958
1041.0, 0.09097924169164699
1042.0, 0.07043463795265457
1043.0, 0.10908268623646658
1044.0, 0.08425359316308009
1045.0, 0.055387233762010095
1046.0, 0.08791556161198259
1047.0, 0.11588385773413984
1048.0, 0.07269609242482455
1049.0, 0.06760578688769865
1050.0, 0.09214132320043852
1051.0, 0.08872360855230374
1052.0, 0.0720975048470612
1053.0, 0.06414873045042604
1054.0, 0.052831418622423
1055.0, 0.04928565355641535
1056.0, 0.07848091885559352
1057.0, 0.07166603221570864
1058.0, 0.011288891476692837
1059.0, 0.07295133348098296
1060.0, 0.056790789232857866
1061.0, 0.044429358449321804
1062.0, 0.05049644536762748
1063.0, 0.062044259685412675
1064.0, 0.021753733718932952
1065.0, 0.05753656392623788
1066.0, 0.057896640923879104
1067.0, 0.03374742455346409
1068.0, 0.016450979709042374
1069.0, 0.056043051591910045
1070.0, 0.0672069184953874
1071.0, 0.04470028615505978
1072.0, 0.04550116800614685
1073.0, 0.06013157469748805
1074.0, 0.006605919763608576
1075.0, 0.027452160299064714
1076.0, 0.0442362608756431
1077.0, 0.03162510508995877
1078.0, 0.02229490839851952
1079.0, 0.08141949042376206
1080.0, 0.05068542858823899
1081.0, 0.01624367687974668
1082.0, 0.021647496336053392
1083.0, 0.03741783295244874
1084.0, 0.0128566537714777
1085.0, 0.04430977644673259
1086.0, 0.04458046141028252
1087.0, 0.043357301815010074
1088.0, 0.03145131026416765
1089, 0.0
1090, 0.0
1091, 0.0
1092, 0.0
1093, 0.0
1094, 0.0
1095, 0.0
1096, 0.0
1097, 0.0
1098, 0.0
1099, 0.0
1100, 0.0
1101, 0.0
1102, 0.0
1103, 0.0
1104, 0.0
1105, 0.0
1106, 0.0
1107, 0.0
1108, 0.0
1109, 0.0
1110, 0.0
1111, 0.0
1112, 0.0
1113, 0.0
1114, 0.0
1115, 0.0
1116, 0.0
1117, 0.0
1118, 0.0
1119, 0.0
1120, 0.0
1121, 0.0
1122, 0.0
1123, 0.0
1124, 0.0
1125, 0.0
1126, 0.0
1127, 0.0
1128, 0.0
1129, 0.0
1130, 0.0
1131, 0.0
1132, 0.0
1133, 0.0
1134, 0.0
1135, 0.0
1136, 0.0
1137, 0.0
1138, 0.0
1139, 0.0
1140, 0.0
1141, 0.0
1142, 0.0
1143, 0.0
1144, 0.0
1145, 0.0
1146, 0.0
1147, 0.0
1148, 0.0
1149, 0.0
1150, 0.0
1151, 0.0
1152, 0.0
1153, 0.0
1154, 0.0
1155, 0.0
1156, 0.0
1157, 0.0
1158, 0.0
1159, 0.0
1160, 0.0
1161, 0.0
1162, 0.0
1163, 0.0
1164, 0.0
1165, 0.0
1166, 0.0
1167, 0.0
1168, 0.0
1169, 0.0
1170, 0.0
1171, 0.0
1172, 0.0
1173, 0.0
1174, 0.0
1175, 0.0
1176, 0.0
1177, 0.0
1178, 0.0
1179, 0.0
1180, 0.0
1181, 0.0
1182, 0.0
1183, 0.0
1184, 0.0
1185, 0.0
1186, 0.0
1187, 0.0
1188, 0.0
1189, 0.0
1190, 0.0
1191, 0.0
1192, 0.0
1193, 0.0
1194, 0.0
1195, 0.0
1196, 0.0
1197, 0.0
1198, 0.0
1199, 0.0
1200, 0.0
1201, 0.0
1202, 0.0
1203, 0.0
1204, 0.0
1205, 0.0
1206, 0.0
1207, 0.0
1208, 0.0
1209, 0.0
1210, 0.0
1211, 0.0
1212, 0.0
1213, 0.0
1214, 0.0
1215, 0.0
1216, 0.0
1217, 0.0
1218, 0.0
1219, 0.0
1220, 0.0
1221, 0.0
1222, 0.0
1223, 0.0
1224, 0.0
1225, 0.0
1226, 0.0
1227, 0.0
1228, 0.0
1229, 0.0
1230, 0.0
1231, 0.0
1232, 0.0
1233, 0.0
1234, 0.0
1235, 0.0
1236, 0.0
1237, 0.0
1238, 0.0
1239, 0.0
1240, 0.0
1241, 0.0
1242, 0.0
1243, 0.0
1244, 0.0
1245, 0.0
1246, 0.0
1247, 0.0
1248, 0.0
1249, 0.0
1250, 0.0
1251, 0.0
1252, 0.0
1253, 0.0
1254, 0.0
1255, 0.0
1256, 0.0
1257, 0.0
1258, 0.0
1259, 0.0
1260, 0.0
1261, 0.0
1262, 0.0
1263, 0.0
1264, 0.0
1265, 0.0
1266, 0.0
1267, 0.0
1268, 0.0
1269, 0.0
1270, 0.0
1271, 0.0
1272, 0.0
1273, 0.0
1274, 0.0
1275, 0.0
1276, 0.0
1277, 0.0
1278, 0.0
1279, 0.0
1280, 0.0
1281, 0.0
1282, 0.0
1283, 0.0
1284, 0.0
1285, 0.0
1286, 0.0
1287, 0.0
1288, 0.0
1289, 0.0
1290, 0.0
1291, 0.0
1292, 0.0
1293, 0.0
1294, 0.0
1295, 0.0
1296, 0.0
1297, 0.0
1298, 0.0
1299, 0.0
1300, 0.0
1301, 0.0
1302, 0.0
1303, 0.0
1304, 0.0
1305, 0.0
1306, 0.0
1307, 0.0
1308, 0.0
1309, 0.0
1310, 0.0
1311, 0.0
1312, 0.0
1313, 0.0
1314, 0.0
1315, 0.0
1316, 0.0
1317, 0.0
1318, 0.0
1319, 0.0
1320, 0.0
1321, 0.0
1322, 0.0
1323, 0.0
1324, 0.0
1325, 0.0
1326, 0.0
1327, 0.0
1328, 0.0
1329, 0.0
1330, 0.0
1331, 0.0
1332, 0.0
1333, 0.0
1334, 0.0
1335, 0.0
1336, 0.0
1337, 0.0
1338, 0.0
1339, 0.0
1340, 0.0
1341, 0.0
1342, 0.0
1343, 0.0
1344, 0.0
1345, 0.0
1346, 0.0
1347, 0.0
1348, 0.0
1349, 0.0
1350, 0.0
1351, 0.0
1352, 0.0
1353, 0.0
1354, 0.0
1355, 0.0
1356, 0.0
1357, 0.0
1358, 0.0
1359, 0.0
1360, 0.0
1361, 0.0
1362, 0.0
1363, 0.0
1364, 0.0
1365, 0.0
1366, 0.0
1367, 0.0
1368, 0.0
1369, 0.0
1370, 0.0
1371, 0.0
1372, 0.0
1373, 0.0
1374, 0.0
1375, 0.0
1376, 0.0
1377, 0.0
1378, 0.0
1379, 0.0
1380, 0.0
1381, 0.0
1382, 0.0
1383, 0.0
1384, 0.0
1385, 0.0
1386, 0.0
1387, 0.0
1388, 0.0
1389, 0.0
1390, 0.0
1391, 0.0
1392, 0.0
1393, 0.0
1394, 0.0
1395, 0.0
1396, 0.0
1397, 0.0
1398, 0.0
1399, 0.0
1400, 0.0
1401, 0.0
1402, 0.0
1403, 0.0
1404, 0.0
1405, 0.0
1406, 0.0
1407, 0.0
1408, 0.0
1409, 0.0
1410, 0.0
1411, 0.0
1412, 0.0
1413, 0.0
1414, 0.0
1415, 0.0
1416, 0.0
1417, 0.0
1418, 0.0
1419, 0.0
1420, 0.0
1421, 0.0
1422, 0.0
1423, 0.0
1424, 0.0
1425, 0.0
1426, 0.0
1427, 0.0
1428, 0.0
1429, 0.0
1430, 0.0
1431, 0.0
1432, 0.0
1433, 0.0
1434, 0.0
1435, 0.0
1436, 0.0
1437, 0.0
1438, 0.0
1439, 0.0
1440, 0.0
1441, 0.0
1442, 0.0
1443, 0.0
1444, 0.0
1445, 0.0
1446, 0.0
1447, 0.0
1448, 0.0
1449, 0.0
1450, 0.0
1451, 0.0
1452, 0.0
1453, 0.0
1454, 0.0
1455, 0.0
1456, 0.0
1457, 0.0
1458, 0.0
1459, 0.0
1460, 0.0
1461, 0.0
1462, 0.0
1463, 0.0
1464, 0.0
1465, 0.0
1466, 0.0
1467, 0.0
1468, 0.0
1469, 0.0
1470, 0.0
1471, 0.0
1472, 0.0
1473, 0.0
1474, 0.0
1475, 0.0
1476, 0.0
1477, 0.0
1478, 0.0
1479, 0.0
1480, 0.0
1481, 0.0
1482, 0.0
1483, 0.0
1484, 0.0
1485, 0.0
1486, 0.0
1487, 0.0
1488, 0.0
1489, 0.0
1490, 0.0
1491, 0.0
1492, 0.0
1493, 0.0
1494, 0.0
1495, 0.0
1496, 0.0
1497, 0.0
1498, 0.0
1499, 0.0
1500, 0.0
1501, 0.0
1502, 0.0
1503, 0.0
1504, 0.0
1505, 0.0
1506, 0.0
1507, 0.0
1508, 0.0
1509, 0.0
1510, 0.0
1511, 0.0
1512, 0.0
1513, 0.0
1514, 0.0
1515, 0.0
1516, 0.0
1517, 0.0
1518, 0.0
1519, 0.0
1520, 0.0
1521, 0.0
1522, 0.0
1523, 0.0
1524, 0.0
1525, 0.0
1526, 0.0
1527, 0.0
1528, 0.0
1529, 0.0
1530, 0.0
1531, 0.0
1532, 0.0
1533, 0.0
1534, 0.0
1535, 0.0
1536, 0.0
1537, 0.0
1538, 0.0
1539, 0.0
1540, 0.0
1541, 0.0
1542, 0.0
1543, 0.0
1544, 0.0
1545, 0.0
1546, 0.0
1547, 0.0
1548, 0.0
1549, 0.0
1550, 0.0
1551, 0.0
1552, 0.0
1553, 0.0
1554, 0.0
1555, 0.0
1556, 0.0
1557, 0.0
1558, 0.0
1559, 0.0
1560, 0.0
1561, 0.0
1562, 0.0
1563, 0.0
1564, 0.0
1565, 0.0
1566, 0.0
1567, 0.0
1568, 0.0
1569, 0.0
1570, 0.0
1571, 0.0
1572, 0.0
1573, 0.0
1574, 0.0
1575, 0.0
1576, 0.0
1577, 0.0
1578, 0.0
1579, 0.0
1580, 0.0
1581, 0.0
1582, 0.0
1583, 0.0
1584, 0.0
1585, 0.0
1586, 0.0
1587, 0.0
1588, 0.0
1589, 0.0
1590, 0.0
1591, 0.0
1592, 0.0
1593, 0.0
1594, 0.0
1595, 0.0
1596, 0.0
1597, 0.0
1598, 0.0
1599, 0.0
