30, 0.0
31, 0.0
32, 0.0
33, 0.0
34, 0.0
35, 0.0
36, 0.0
37, 0.0
38, 0.0
39, 0.0
40, 0.0
41, 0.0
42, 0.0
43, 0.0
44, 0.0
45, 0.0
46, 0.0
47, 0.0
48, 0.0
49, 0.0
50, 0.0
51, 0.0
52, 0.0
53, 0.0
54, 0.0
55, 0.0
56, 0.0
57, 0.0
58, 0.0
59, 0.0
60, 0.0
61, 0.0
62, 0.0
63, 0.0
64, 0.0
65, 0.0
66, 0.0
67, 0.0
68, 0.0
69, 0.0
70, 0.0
71, 0.0
72, 0.0
73, 0.0
74, 0.0
75, 0.0
76, 0.0
77, 0.0
78, 0.0
79, 0.0
80, 0.0
81, 0.0
82, 0.0
83, 0.0
84, 0.0
85, 0.0
86, 0.0
87, 0.0
88, 0.0
89, 0.0
90, 0.0
91, 0.0
92, 0.0
93, 0.0
94, 0.0
95, 0.0
96, 0.0
97, 0.0
98, 0.0
99, 0.0
100, 0.0
101, 0.0
102, 0.0
103, 0.0
104, 0.0
105, 0.0
106, 0.0
107, 0.0
108, 0.0
109, 0.0
110, 0.0
111, 0.0
112, 0.0
113, 0.0
114, 0.0
115, 0.0
116, 0.0
117, 0.0
118, 0.0
119, 0.0
120, 0.0
121, 0.0
122, 0.0
123, 0.0
124, 0.0
125, 0.0
126, 0.0
127, 0.0
128, 0.0
129, 0.0
130, 0.0
131, 0.0
132, 0.0
133, 0.0
134, 0.0
135, 0.0
136, 0.0
137, 0.0
138, 0.0
139, 0.0
140, 0.0
141, 0.0
142, 0.0
143, 0.0
144, 0.0
145, 0.0
146, 0.0
147, 0.0
148.0, 0.00012850527922687736
149.0, 0.0007063727941870676
150.0, 0.00010888531755266514
151.0, 0.0010415838895810137
152.0, 0.0004908786437893674
153.0, 0.00032318756193668984
154.0, 0.0008311483831651703
155.0, 0.0014290044017734465
156.0, 0.0024838988667193257
157.0, 0.0038773200462948938
158.0, 0.005006845964584435
159.0, 0.004843871000583562
160.0, 0.005229548231075371
161.0, 0.006956950068346698
162.0, 0.009041266847347854
163.0, 0.009405242350887029
164.0, 0.010828565641489773
165.0, 0.011483899985063878
166.0, 0.011261791613403195
167.0, 0.011308949393645337
168.0, 0.011910774218932007
169.0, 0.014104828905141743
170.0, 0.017079605773304588
171.0, 0.019232790043955516
172.0, 0.017981445340209627
173.0, 0.01901367461215836
174.0, 0.020291025752414427
175.0, 0.021326396555578338
176.0, 0.02391142720297703
177.0, 0.023319588903373503
178.0, 0.023095278565328087
179.0, 0.02319933111405522
180.0, 0.022374873406176072
181.0, 0.022793215713863415
182.0, 0.02184008616269502
183.0, 0.020282084682325403
184.0, 0.01967903262657022
185.0, 0.020891015859090305
186.0, 0.0223940574947563
187.0, 0.02200945561128001
188.0, 0.020367095224775256
189.0, 0.020179247869208515
190.0, 0.020384332317749058
191.0, 0.019451880557138496
192.0, 0.01821681300588133
193.0, 0.018072837326128365
194.0, 0.01856952417657453
195.0, 0.0181235029518469
196.0, 0.01705501703695216
197.0, 0.01641512709624005
198.0, 0.017119027657014483
199.0, 0.0161522362663546
200.0, 0.016416478490982402
201.0, 0.016858217242639983
202.0, 0.015107153632887975
203.0, 0.014058629895002141
204.0, 0.014856136190085764
205.0, 0.014944320263131933
206.0, 0.013370410612608295
207.0, 0.013374503303349924
208.0, 0.013511266857850014
209.0, 0.01324867197048985
210.0, 0.012663348813754095
211.0, 0.01195852861971261
212.0, 0.01288435250762197
213.0, 0.013487415128556586
214.0, 0.013205979905591893
215.0, 0.012462097078540455
216.0, 0.013169080685468385
217.0, 0.013108505344517072
218.0, 0.013008279090112143
219.0, 0.013400616674282922
220.0, 0.013898786088030055
221.0, 0.012671408073359352
222.0, 0.013554844648892363
223.0, 0.014603552376974803
224.0, 0.013164648896510733
225.0, 0.01153554281518404
226.0, 0.012009576444762788
227.0, 0.012776305658437397
228.0, 0.01325747354444854
229.0, 0.014176721961835744
230.0, 0.013090367197416521
231.0, 0.013224695711886758
232.0, 0.013597910123101992
233.0, 0.012900731394374696
234.0, 0.013952385082734367
235.0, 0.012047398568801592
236.0, 0.010602048351322892
237.0, 0.010714542924316324
238.0, 0.010227467226667841
239.0, 0.009835642081179369
240.0, 0.00932293013133613
241.0, 0.008781794893904956
242.0, 0.008305181915366864
243.0, 0.007801251089479114
244.0, 0.00904486473797001
245.0, 0.009502357536078292
246.0, 0.008582842179627353
247.0, 0.00826948238688928
248.0, 0.00902126967265131
249.0, 0.008883694392276256
250.0, 0.008997119287134385
251.0, 0.009684462552128383
252.0, 0.007198941075804951
253.0, 0.006405374487385683
254.0, 0.006455699495403439
255.0, 0.006222015568994581
256.0, 0.005281726967905563
257.0, 0.005654032996244197
258.0, 0.005271979361043248
259.0, 0.004916581698751839
260.0, 0.004814483881449585
261.0, 0.0029418724307080264
262.0, 0.0013201653669348621
263.0, 0.001166310734483992
264.0, 0.0012731972196270865
265.0, 0.00014879731889825054
266.0, 0.0008292218862825949
267.0, 0.00017621405188365222
268.0, 0.00048744945270830177
269.0, 0.00016750503980268486
270.0, 0.0006657209119610955
271.0, 0.0016563544500817053
272.0, 0.0020810613553151345
273.0, 0.0018240404321641184
274.0, 0.001566915827207774
275.0, 0.0021730036749213026
276.0, 0.0023384117543108966
277.0, 0.0025047489552115637
278.0, 0.002127153441875552
279.0, 0.00030961981865912965
280.0, 0.0013816577286007467
281.0, 0.0022966174006892057
282.0, 0.002014878953436332
283.0, 0.0011081223037161276
284.0, 0.0011887580382732217
285.0, 0.0010969019740026701
286.0, 0.0003299875484557303
287.0, 0.0009603034499552427
288.0, 0.0015825865798860992
289.0, 0.0017613136505370101
290.0, 0.002744366725429084
291.0, 0.003612146525530884
292.0, 0.004554089439121686
293.0, 0.006809100153778789
294.0, 0.008926138416003357
295.0, 0.011071255669302879
296.0, 0.014362092477543784
297.0, 0.018657473417521917
298.0, 0.02189993349722301
299.0, 0.025989036339822552
300.0, 0.03110074778769925
301.0, 0.03746635617414791
302.0, 0.04456292076494785
303.0, 0.05001307653697743
304.0, 0.057112570110813964
305.0, 0.06660830140769694
306.0, 0.07667683337110726
307.0, 0.08470447384572538
308.0, 0.09140961158568432
309.0, 0.0979789680297209
310.0, 0.1045198763986492
311.0, 0.11204082282634942
312.0, 0.12218830941531844
313.0, 0.1316222765214495
314.0, 0.13831193158657282
315.0, 0.1453811443807048
316.0, 0.1545673882946946
317.0, 0.1620363212347553
318.0, 0.16723861952572852
319.0, 0.17077000867896874
320.0, 0.17059072935264777
321.0, 0.16461432995126046
322.0, 0.15715247007721522
323.0, 0.14721498772096775
324.0, 0.13438637968480513
325.0, 0.1203445259285414
326.0, 0.10849924808084045
327.0, 0.0996379816609267
328.0, 0.09098640765211766
329.0, 0.08348853417380293
330.0, 0.07865097961548254
331.0, 0.07697219768903286
332.0, 0.07816734775883119
333.0, 0.07917191758949117
334.0, 0.07919042824212388
335.0, 0.07895618922696145
336.0, 0.0815146412227336
337.0, 0.0862761381432562
338.0, 0.09114613191731023
339.0, 0.09572928828369417
340.0, 0.10097427317391015
341.0, 0.10728746444569047
342.0, 0.11330965856744044
343.0, 0.1193053721881412
344.0, 0.12604529797782532
345.0, 0.13359652867305977
346.0, 0.1396503356477858
347.0, 0.14602487766426483
348.0, 0.15351744615843835
349.0, 0.16190557276179932
350.0, 0.16965529583312233
351.0, 0.17386083586381654
352.0, 0.1752490051712783
353.0, 0.17462243715836195
354.0, 0.17136326517081749
355.0, 0.16422502634154898
356.0, 0.15569921441814658
357.0, 0.14587911654649757
358.0, 0.13477748982486576
359.0, 0.12383930106728538
360.0, 0.11448982967232767
361.0, 0.10637462674913913
362.0, 0.10055319408842654
363.0, 0.09645314653268762
364.0, 0.0938469801306317
365.0, 0.09487932993881651
366.0, 0.09624438565404454
367.0, 0.09978250997178464
368.0, 0.10647740227430717
369.0, 0.11615865257221672
370.0, 0.128563024562398
371.0, 0.14131483461117186
372.0, 0.15454923052168723
373.0, 0.16859569582512732
374.0, 0.18395336449321378
375.0, 0.20137758004693193
376.0, 0.2157242333634843
377.0, 0.23356172353977422
378.0, 0.25350767882072184
379.0, 0.2689061081683344
380.0, 0.2895449479712105
381.0, 0.315014927528027
382.0, 0.33833808949460437
383.0, 0.3586428173413139
384.0, 0.3790110196519904
385.0, 0.3896621832389859
386.0, 0.3898728484051925
387.0, 0.3792834787166117
388.0, 0.3569034278670441
389.0, 0.32250327571341225
390.0, 0.27916263387056073
391.0, 0.2319382492711255
392.0, 0.18903202694732263
393.0, 0.15409945808390133
394.0, 0.12524532530124238
395.0, 0.10034144155100068
396.0, 0.07942455131820136
397.0, 0.06514390697396306
398.0, 0.0561176548256942
399.0, 0.04742864282602027
400.0, 0.03814506407111537
401.0, 0.032705950612898486
402.0, 0.027505507949538117
403.0, 0.02170607272544217
404.0, 0.01881047853559194
405.0, 0.0168771575312057
406.0, 0.014409756552733856
407.0, 0.01139121036072311
408.0, 0.00878774961854589
409.0, 0.0075252439833786945
410.0, 0.0060686592692941205
411.0, 0.0052965027719628095
412.0, 0.004871052193870227
413.0, 0.003879088557015543
414.0, 0.002126130135083825
415.0, 0.002528766258928732
416.0, 0.0023593587161143416
417.0, 0.0014961091401796836
418.0, 0.0006721851808945412
419.0, 0.0003580239342523983
420.0, 0.0003089968143537155
421.0, 9.195665098691696e-05
422.0, 0.0002817153062053917
423.0, 0.0007492646152091344
424.0, 0.0012350816252620393
425.0, 0.0012161344803178849
426.0, 0.0015940274167919254
427.0, 0.0014297942869135937
428.0, 0.0008463837536979385
429.0, 0.0008451761966424627
430.0, 0.0002486431663150117
431.0, 0.00031084058578672837
432.0, 0.0013593213462332172
433.0, 0.0018638866213449548
434.0, 0.0016844006764161128
435.0, 0.0004659202982458862
436.0, 0.0005553085256752169
437.0, 0.0013271403489096714
438.0, 0.0017722451612659377
439.0, 0.0016190909839987695
440.0, 0.0010473147409647177
441.0, 0.0004805021736595318
442.0, 0.0002321501491792189
443.0, 0.0003206172068936615
444.0, 0.0003712483950920361
445.0, 0.0012615447091305185
446.0, 0.0011658055245812485
447.0, 0.0007562529469218449
448.0, 0.0008131340323332345
449.0, 0.0010977140368083314
450.0, 0.0008622748121521648
451.0, 0.001052744138883213
452.0, 0.0015000688523974296
453.0, 0.0014114930716050363
454.0, 0.0010243133393025685
455.0, 0.0020965205110348747
456.0, 0.0029934850700674247
457.0, 0.0019579111294974255
458.0, 0.001382325667156164
459.0, 0.0018195851256387267
460.0, 0.0009819775344285428
461.0, 0.0021436932035916426
462.0, 0.002245980318526384
463.0, 0.0016894966678584506
464.0, 0.0017367171209229876
465.0, 0.0024465208605705525
466.0, 0.0023825713561511836
467.0, 0.003049623900728168
468.0, 0.0024896303386867592
469.0, 0.0018357551285220176
470.0, 0.00306622268006762
471.0, 0.0023720080325979527
472.0, 0.0029378481198760946
473.0, 0.002975359320026765
474.0, 0.003193867585698345
475.0, 0.004022940835720242
476.0, 0.002547911107957215
477.0, 0.002048385020154201
478.0, 0.0017936883172754508
479.0, 0.002109447914900137
480.0, 0.0031504802740930536
481.0, 0.003712005181063055
482.0, 0.002599285654971741
483.0, 0.004141743594130816
484.0, 0.0040808195809096705
485.0, 0.0021756878667797378
486.0, 0.0027401322573948404
487.0, 0.004606514885934854
488.0, 0.004363982769199701
489.0, 0.004386780440971703
490.0, 0.00554843646945863
491.0, 0.006477677374581384
492.0, 0.0058971448807687635
493.0, 0.00576502115104494
494.0, 0.006941707418690146
495.0, 0.007817708163029893
496.0, 0.007580715195171856
497.0, 0.007853977917360202
498.0, 0.007883090825952531
499.0, 0.009390951957596778
500.0, 0.009187903804186829
501.0, 0.008317089595575785
502.0, 0.010878176707641955
503.0, 0.011221137962577279
504.0, 0.011354985071947158
505.0, 0.010091844239691393
506.0, 0.008685785184309397
507.0, 0.008399924454160037
508.0, 0.005730821613319172
509.0, 0.004860221260181796
510.0, 0.0037527912276766706
511.0, 0.002681215810172886
512.0, 0.002231640050839344
513.0, 0.0018024687546827432
514.0, 0.002558498236877266
515.0, 0.0019558939420778443
516.0, 0.0007619150401502801
517.0, 0.0014182580698820526
518.0, 0.003982827361974463
519.0, 0.003143672980898411
520.0, 0.0029227028458529802
521.0, 0.00259821666920206
522.0, 0.0026041163051230025
523.0, 0.0034189738643750846
524.0, 0.003315972168199088
525.0, 0.0041879827197478115
526.0, 0.004555886238731428
527.0, 0.004282966017070367
528.0, 0.004436451712360507
529.0, 0.005152477056782025
530.0, 0.00392489673756628
531.0, 0.003975881354052583
532.0, 0.0047011600468879694
533.0, 0.00505692198223099
534.0, 0.004688128099250738
535.0, 0.0038649531116917873
536.0, 0.0029199276101925333
537.0, 0.0029060840050194126
538.0, 0.003405918193704579
539.0, 0.003588516700934371
540.0, 0.002957797887887187
541.0, 0.0021657336068962104
542.0, 0.0020365522459760738
543.0, 0.002940844100250497
544.0, 0.003479910288140797
545.0, 0.002463427866190208
546.0, 0.001207475291290908
547.0, 0.002212515654865067
548.0, 0.002742403424969575
549.0, 0.0023140474070743305
550.0, 0.0018834266679971549
551.0, 0.0023802384223787056
552.0, 0.0022094981230417247
553.0, 0.002384965257996166
554.0, 0.0026266834283149897
555.0, 0.0032110849168558346
556.0, 0.0035971436370979756
557.0, 0.002163918322627991
558.0, 0.002503811639474562
559.0, 0.002862723414052592
560.0, 0.002786253973836632
561.0, 0.0029777656404670234
562.0, 0.0034706827522173163
563.0, 0.0010856082329731237
564.0, 0.001623276413623768
565.0, 0.0026339469473136037
566.0, 0.002562279289887125
567.0, 0.0016245086592433606
568.0, 0.0014219151864914516
569.0, 0.0018653706292536966
570.0, 0.001630007030506505
571.0, 0.0007740556930545557
572.0, 0.00014986632282199105
573.0, 0.0005626939689617278
574.0, 0.0008962123366787588
575.0, 0.0006152649218776842
576.0, 0.0005715611306603569
577.0, 0.00037733036140193225
578.0, 0.000570103512406374
579.0, 0.0008846607492286355
580.0, 0.00036367776245337064
581.0, 0.00043766051568375024
582.0, 0.00025984498522566246
583.0, 0.00035380309511778233
584.0, 0.0006569679065557491
585.0, 0.0013783286007967009
586.0, 0.0012060997775342525
587.0, 0.0009616483387020863
588.0, 0.00010760100473928723
589.0, 0.00021211361964749883
590.0, 0.0009189364082634263
591.0, 0.0002832278076599885
592.0, 0.00016454941643370173
593.0, 0.0005351496559766078
594.0, 0.0003290832058283546
595.0, 0.0010980669520405048
596.0, 0.0016471465722502005
597.0, 0.00039867728410945266
598.0, 0.0005765740357464805
599.0, 0.0007096399782050424
600.0, 0.0009850292116304884
601.0, 0.0018184346395995448
602.0, 0.00251106603660377
603.0, 0.0024253721703316974
604.0, 0.0017122021565997658
605.0, 0.002009651816623532
606.0, 0.0032435202012048698
607.0, 0.004108345005220939
608.0, 0.0038917959002418923
609.0, 0.004437529323307618
610.0, 0.005182127405034653
611.0, 0.006557181607309383
612.0, 0.007574546207870993
613.0, 0.007512559252760363
614.0, 0.007900881642687037
615.0, 0.008825656467428639
616.0, 0.008678760765283133
617.0, 0.009543199476972929
618.0, 0.01166261408784517
619.0, 0.013329670933888194
620.0, 0.014024396263692313
621.0, 0.014708194028938245
622.0, 0.015955815639770245
623.0, 0.016368186390997016
624.0, 0.016993060686725757
625.0, 0.019803725311903442
626.0, 0.022275264606417076
627.0, 0.02434399696083736
628.0, 0.026104751462662865
629.0, 0.02875054469696425
630.0, 0.03207931473895326
631.0, 0.03442025226953484
632.0, 0.03580594679983536
633.0, 0.03962669652128012
634.0, 0.0433504279813653
635.0, 0.046586037688127246
636.0, 0.05112428192487262
637.0, 0.057775060925496856
638.0, 0.06225849414000886
639.0, 0.06981538434697304
640.0, 0.07899654142019548
641.0, 0.08809394123530202
642.0, 0.09666173183072752
643.0, 0.10625931302880819
644.0, 0.1231765227199993
645.0, 0.13936268683681197
646.0, 0.1626368643874347
647.0, 0.19164131512033397
648.0, 0.22345581614523374
649.0, 0.26015657851068436
650.0, 0.3026127800155183
651.0, 0.3470963734050964
652.0, 0.3950404981247672
653.0, 0.4452005704471754
654.0, 0.4971003465209798
655.0, 0.552609787172419
656.0, 0.608479105284012
657.0, 0.6662479153107728
658.0, 0.7271878579805052
659.0, 0.7907567602675035
660.0, 0.85495856650655
661.0, 0.9149178360988162
662.0, 0.9647552215692902
663.0, 0.9924447552502298
664.0, 0.9987176167249122
665.0, 0.9725836020087338
666.0, 0.9104535180973873
667.0, 0.823028812865078
668.0, 0.7162196397357813
669.0, 0.6088325058610092
670.0, 0.5110445048160782
671.0, 0.42530717516523414
672.0, 0.35039852873984767
673.0, 0.2873478677478229
674.0, 0.24150419003638107
675.0, 0.20218244133089183
676.0, 0.17178576183571198
677.0, 0.1473126598744491
678.0, 0.12644078530989183
679.0, 0.10940288260501514
680.0, 0.09588435140752452
681.0, 0.0839442704196037
682.0, 0.07455107041567996
683.0, 0.06431348132291766
684.0, 0.056201769754577156
685.0, 0.052326587649633105
686.0, 0.04464334651182218
687.0, 0.04099559456678777
688.0, 0.036779790442578425
689.0, 0.03370603984883927
690.0, 0.031069286526219413
691.0, 0.02734049683106148
692.0, 0.024383370623547937
693.0, 0.023576764652963263
694.0, 0.021841699578861066
695.0, 0.018538437311471506
696.0, 0.016789734764273256
697.0, 0.0167607735498073
698.0, 0.014733131922449325
699.0, 0.013264142131056552
700.0, 0.013018793126315866
701.0, 0.01197741984072722
702.0, 0.009793947217040296
703.0, 0.007826649958013122
704.0, 0.007395067106059725
705.0, 0.007709399145059586
706.0, 0.005935359248150567
707.0, 0.004814804481252095
708.0, 0.004384632148856735
709.0, 0.003978330824310039
710.0, 0.003571488259611277
711.0, 0.0035847883474915674
712.0, 0.003821551387816308
713.0, 0.003128459583838869
714.0, 0.002114377682278
715.0, 0.0018753757527859571
716.0, 0.0023898142821376675
717.0, 0.002271596540834198
718.0, 0.0014818388469710914
719.0, 0.00042770300960951347
720.0, 0.0007387605665782048
721.0, 0.0009143544782675292
722.0, 0.0007469805579451592
723.0, 0.0011906084277799197
724.0, 0.0005088640817255251
725.0, 0.0001727110586971965
726.0, 0.0001248986329716772
727.0, 0.00010999358150292372
728.0, 0.000631816503377577
729.0, 0.0007354626660369539
730.0, 4.403391019888105e-05
731.0, 0.00047783427465312675
732.0, 0.00117263292489069
733.0, 0.0008073631995748775
734.0, 0.0006081249194282294
735.0, 0.0005275681735751421
736.0, 0.0005278141812160499
737.0, 0.0006775820725602584
738.0, 0.0006452900679592051
739.0, 0.0001916045498052501
740.0, 0.00033666986114915995
741.0, 2.3975778955033183e-05
742.0, 0.00010043443884739188
743.0, 0.00011344800883059027
744.0, 0.0006852459278671212
745.0, 0.0007854629045819564
746.0, 0.000334241903313552
747.0, 0.00043896259730049876
748.0, 0.0003734295735058727
749.0, 0.0010804094293267856
750.0, 0.0004151140930732381
751.0, 0.00019864195347437438
752.0, 0.000324725865439838
753.0, 0.00010166064120003876
754.0, 0.000816464634520079
755.0, 0.0009296670596326221
756.0, 0.0005616260684277356
757.0, 0.0011101864591046172
758.0, 0.00027210695239466247
759.0, 0.0003441864380612575
760.0, 0.00041319192128209264
761.0, 0.0012718976314058177
762.0, 0.0013227593247762885
763.0, 0.0010091055611628718
764.0, 0.0009826897819785942
765.0, 0.0004308365339332605
766.0, 0.0008967899390409386
767.0, 0.0012270013560516373
768.0, 0.001254785661705183
769.0, 0.0019446326365904119
770.0, 0.000570097443567276
771.0, 0.0012649224633362562
772.0, 0.0005714222202034944
773.0, 2.8530647933180646e-05
774.0, 0.0008620811460919128
775.0, 0.0019124180599159014
776.0, 0.0015485179616778876
777.0, 0.0014847306594289514
778.0, 0.0008968930009953634
779.0, 0.0015169269457800181
780.0, 0.0018033239559930854
781.0, 0.0013474549746075749
782.0, 0.0014518932937181432
783.0, 0.0022371511198242136
784.0, 0.0008254784573586747
785.0, 0.0008736151362646463
786.0, 0.0020663099582494634
787.0, 0.0018290042606128238
788.0, 0.0013714308996273085
789.0, 0.002116433341556169
790.0, 0.0007912268828213067
791.0, 0.000617923578810501
792.0, 0.0010144193308980847
793.0, 0.00041668477867554436
794.0, 0.0007048173108926167
795.0, 0.001422455895485418
796.0, 0.0006311751058781165
797.0, 0.0012770778017547862
798.0, 0.0009132027800464489
799.0, 0.000317750119541107
800.0, 0.0003237497041417008
801.0, 0.00014031971238043193
802.0, 0.0005750868818215777
803.0, 0.0013029263148088117
804.0, 0.0008836454129587585
805.0, 6.0202895106341536e-05
806.0, 0.0006791709280124705
807.0, 0.0005534842751388184
808.0, 0.00010542578881010724
809.0, 0.0002654074666734409
810.0, 0.0003289127198484093
811.0, 0.00020120250652355193
812.0, 0.0010616684063969317
813.0, 0.00133422252423745
814.0, 0.0012744709356466472
815.0, 0.0011585967011574236
816.0, 0.0011898896122654683
817.0, 0.0018399485232504034
818.0, 0.0016379703156470392
819.0, 0.0003832236380932166
820.0, 0.0024057674855880737
821.0, 0.002285400001576513
822.0, 0.0016699932986868158
823.0, 0.002748528182337589
824.0, 0.0028600730804631894
825.0, 0.0022585774833212497
826.0, 0.0033345836262208294
827.0, 0.003992821393190652
828.0, 0.003580353701469166
829.0, 0.004031259910187029
830.0, 0.0055676788418510354
831.0, 0.006532875413515866
832.0, 0.007190119562862182
833.0, 0.009537418033577995
834.0, 0.011854882078128575
835.0, 0.013933446897563942
836.0, 0.015956537834051075
837.0, 0.018803128704293653
838.0, 0.023562535930782762
839.0, 0.02999761779962626
840.0, 0.038169548766497724
841.0, 0.047001612647193096
842.0, 0.05652691646853295
843.0, 0.06657133669414363
844.0, 0.07766044634477796
845.0, 0.08944357666434699
846.0, 0.09965530024952517
847.0, 0.11005214810949751
848.0, 0.1243182441110745
849.0, 0.1389482206990951
850.0, 0.15342737664518924
851.0, 0.1690910088926204
852.0, 0.1837791135049269
853.0, 0.1912713131700114
854.0, 0.18916770126006408
855.0, 0.17925944833246021
856.0, 0.16244327124080513
857.0, 0.1420652731069108
858.0, 0.12115457783585455
859.0, 0.10027811759539393
860.0, 0.0800898492289855
861.0, 0.06480824645476857
862.0, 0.05490060770103561
863.0, 0.046738284486077496
864.0, 0.039865901464925496
865.0, 0.034299373204510805
866.0, 0.029003184412273425
867.0, 0.024038421631132064
868.0, 0.021087591193655452
869.0, 0.017771505928145765
870.0, 0.01609147714796844
871.0, 0.014242496789170306
872.0, 0.013061901568892385
873.0, 0.011645124403561318
874.0, 0.010241968041115698
875.0, 0.010328698781173434
876.0, 0.00915364451754797
877.0, 0.008900779001232715
878.0, 0.0076583516170153215
879.0, 0.0076882401249563
880.0, 0.008121490177180894
881.0, 0.007047352944782182
882.0, 0.006109925123984218
883.0, 0.007324716813264732
884.0, 0.005540606311461986
885.0, 0.005102549830982735
886.0, 0.0051071094741703205
887.0, 0.004621541235428913
888.0, 0.0035548270556679247
889.0, 0.003182761144578752
890.0, 0.004452616576041376
891.0, 0.004169295681930331
892.0, 0.004640737570452408
893.0, 0.0037199878440848985
894.0, 0.0035362750838710774
895.0, 0.002838412494159842
896.0, 0.0024954140402345818
897.0, 0.0033791277841636845
898.0, 0.0028980665215688323
899.0, 0.002820197152574084
900.0, 0.002339813833119478
901.0, 0.002887387738384996
902.0, 0.001626451247337778
903.0, 0.0011922367271363786
904.0, 0.001873749368460188
905.0, 0.0016338800229511014
906.0, 0.0030071886782917214
907.0, 0.0024317260726558054
908.0, 0.0024700033253354605
909.0, 0.003071710377782562
910.0, 0.0027369570196201965
911.0, 0.0019241023921230322
912.0, 0.001474965958169775
913.0, 0.0012213809515087873
914.0, 0.0009795833377997617
915.0, 0.0020043726569278168
916.0, 0.0024094009134209044
917.0, 0.0018230975402691455
918.0, 0.0020833397278638643
919.0, 0.0019034517739659755
920.0, 0.000941389128806415
921.0, 0.0014019616967877366
922.0, 0.001272538469967938
923.0, 0.0008918806513334609
924.0, 0.0013111463084979906
925.0, 0.0009184530147293682
926.0, 0.00024616916995567656
927.0, 0.0006783230106305049
928.0, 0.0010468985340069154
929.0, 0.0007020632800166507
930.0, 0.00014268955424239646
931.0, 0.00014190417945157235
932.0, 9.440952481853674e-05
933.0, 0.0004998684897179352
934.0, 0.00037193291809594373
935.0, 0.0008345247487027211
936.0, 0.0012212685018971783
937.0, 0.0019068757008123794
938.0, 0.000715868275724966
939.0, 0.0013585318759905482
940.0, 0.0007631828887758855
941.0, 0.0008722886144734716
942.0, 0.0015901067614471302
943.0, 0.0015151575758499992
944.0, 0.00040275305497895514
945.0, 0.0005732637006684898
946.0, 0.00011504428425423056
947.0, 0.0001572028487595024
948.0, 0.0001063791593066938
949.0, 0.00017832619030909772
950.0, 0.0003086878536878729
951.0, 0.0006068959457709508
952.0, 0.0020049329558961934
953.0, 0.0020931284227392872
954.0, 0.0011243739098762563
955.0, 0.0007227482030768376
956.0, 0.001451869601212248
957.0, 0.0017905072531748483
958.0, 0.0033698229095041987
959.0, 0.003412405768112595
960.0, 0.0021104646661092765
961.0, 0.0031988552157983436
962.0, 0.004425593528373573
963.0, 0.00343578770196736
964.0, 0.004416785902020033
965.0, 0.004879019755706205
966.0, 0.004952577677525121
967.0, 0.005344763800278218
968.0, 0.006616134962280261
969.0, 0.007698882406447596
970.0, 0.00686294924478256
971.0, 0.00777519856789166
972.0, 0.008115378998417747
973.0, 0.007651172331043539
974.0, 0.008732137160296964
975.0, 0.009598266540657463
976.0, 0.009668416100461447
977.0, 0.010321637570699684
978.0, 0.0120525011998233
979.0, 0.013943560510603975
980.0, 0.015049441825163172
981.0, 0.015809691820392713
982.0, 0.017621558308771358
983.0, 0.019122244221033275
984.0, 0.021116728558477002
985.0, 0.023632016404870705
986.0, 0.02606932314560742
987.0, 0.029450815008980457
988.0, 0.033652953726499284
989.0, 0.037205197137833525
990.0, 0.043336154029570494
991.0, 0.04890104153847225
992.0, 0.05576680554847833
993.0, 0.06566578524816842
994.0, 0.07587584914187163
995.0, 0.08600666137900274
996.0, 0.1031971262116815
997.0, 0.12308902511464667
998.0, 0.14608596252603745
999.0, 0.17956826485858327
1000.0, 0.2209993097637321
1001.0, 0.2667589220740799
1002.0, 0.3158554967915407
1003.0, 0.37016645807960136
1004.0, 0.4288209286086654
1005.0, 0.48632351650173655
1006.0, 0.5506500110998799
1007.0, 0.617099601190858
1008.0, 0.6889876364371575
1009.0, 0.7646720177289268
1010.0, 0.8391702027398008
1011.0, 0.8975534137460885
1012.0, 0.9329449898801607
1013.0, 0.9414365188820072
1014.0, 0.8905881541409584
1015.0, 0.7927050727829836
1016.0, 0.6687560357660309
1017.0, 0.5424058541277188
1018.0, 0.4328203686037904
1019.0, 0.34165996060405746
1020.0, 0.2722549717140389
1021.0, 0.222525778161439
1022.0, 0.1830027175045767
1023.0, 0.15653819178244952
1024.0, 0.13531471621755808
1025.0, 0.120152900116559
1026.0, 0.10817549553655381
1027.0, 0.10053869701568403
1028.0, 0.09668150526701534
1029.0, 0.09403994926893708
1030.0, 0.09167228375864574
1031.0, 0.09104110006179784
1032.0, 0.09391770563177197
1033.0, 0.09727052872118182
1034.0, 0.10067616102778124
1035.0, 0.10469521224942846
1036.0, 0.11044841417612201
1037.0, 0.11612411861355922
1038.0, 0.12111861931550762
1039.0, 0.12544911398091738
1040.0, 0.12849603717921024
1041.0, 0.13140332784386424
1042.0, 0.13420970496361292
1043.0, 0.13521011542205014
1044.0, 0.13202601312576967
1045.0, 0.12384574334233547
1046.0, 0.11545722627530455
1047.0, 0.10453356475874027
1048.0, 0.09144108540482634
1049.0, 0.07992015124157645
1050.0, 0.067730736111648
1051.0, 0.05864486002002575
1052.0, 0.05110777741129901
1053.0, 0.04234076309945583
1054.0, 0.03660980299267072
1055.0, 0.03265765319617986
1056.0, 0.02877119197335527
1057.0, 0.024392776805484177
1058.0, 0.020065182355620735
1059.0, 0.01713865248639666
1060.0, 0.014663779270697425
1061.0, 0.012705244482443107
1062.0, 0.011681204829732783
1063.0, 0.010420769889206719
1064.0, 0.00908943531918917
1065.0, 0.008410824850748662
1066.0, 0.007298002462227868
1067.0, 0.00559360039543071
1068.0, 0.004388758200369909
1069.0, 0.0032549940441803133
1070.0, 0.00275992807832632
1071.0, 0.002283619846854416
1072.0, 0.0014130662081053118
1073.0, 0.0017152586853495266
1074.0, 0.0010458469321495403
1075.0, 0.0009523605552083738
1076.0, 0.0018201958808034433
1077.0, 0.0017649043958939726
1078.0, 0.0006747755787308384
1079.0, 0.0003016338055817498
1080.0, 0.0003276917154830955
1081.0, 0.00044918994394291424
1082.0, 0.00038084797361909764
1083.0, 0.0005708937500411401
1084.0, 0.00013083696849580916
1085.0, 0.0006002190774186398
1086.0, 0.0009664103855999318
1087.0, 0.00025080473370673456
1088.0, 0.00019705732475275414
1089.0, 0.00022253738977403832
1090.0, 0.0005136518886962432
1091.0, 0.000496144412209373
1092.0, 0.00040290657553795125
1093.0, 0.0003852855215797549
1094.0, 0.0007589560518577286
1095.0, 0.0005751259710569008
1096.0, 0.00036820040393948023
1097.0, 0.000693422502612942
1098.0, 0.0002782017027879304
1099.0, 0.00015341294211871368
1100.0, 3.725900874102402e-05
1101.0, 2.7482659723190162e-05
1102.0, 0.000941706358092463
1103.0, 0.0003349854151228521
1104.0, 0.0003713393124739808
1105.0, 0.00013861281984908942
1106.0, 0.00036549311826822805
1107.0, 0.0006771613705077352
1108.0, 0.0004449458423493711
1109.0, 0.0002753539608985231
1110.0, 0.00010121470771874871
1111.0, 0.0017035647186671558
1112.0, 0.000305631940236688
1113.0, 0.0011049939336956053
1114.0, 0.0007382175504540051
1115.0, 0.0010670592675727768
1116.0, 0.001731896941537455
1117.0, 0.001319936232692033
1118.0, 0.0014759176566264966
1119.0, 0.002550276872717813
1120.0, 0.0019296696830936252
1121.0, 0.002246385951242038
1122.0, 0.002280500296911469
1123.0, 0.001730305789146213
1124.0, 0.002835206047963407
1125.0, 0.0032913281609070503
1126.0, 0.0027420511193389334
1127.0, 0.0029578432537102897
1128.0, 0.0032123370909127686
1129.0, 0.002489587691490588
1130.0, 0.0035788753834371666
1131.0, 0.0039741977199612855
1132.0, 0.0029045559537429965
1133.0, 0.0026750849723033315
1134.0, 0.002693491055425049
1135.0, 0.0028244105285029015
1136.0, 0.0034008942546487845
1137.0, 0.0033625984537735566
1138.0, 0.0029115502544574136
1139.0, 0.0030119058761961725
1140.0, 0.003140838026911335
1141.0, 0.0029707947832671904
1142.0, 0.00161723199644154
1143.0, 0.003438177356196021
1144.0, 0.002897983651083327
1145.0, 0.0026825706228060455
1146.0, 0.0016633106675075443
1147.0, 0.0014375262546803334
1148.0, 0.0016304490458183046
1149.0, 0.0013696319812767348
1150.0, 0.0015382509485812833
1151.0, 0.0016118225072309764
1152.0, 0.0009136546362592971
1153.0, 0.0009968132527252687
1154.0, 0.0003714599107571387
1155.0, 0.0012809013661667652
1156.0, 0.0012143679757136408
1157.0, 0.0002862022975739926
1158.0, 0.0007371686532617119
1159.0, 0.00080527192232751
1160.0, 0.0002422398308750544
1161.0, 0.00039580408911949215
1162.0, 0.0007434066803917811
1163.0, 0.0002181994278881328
1164.0, 0.0008180617409617376
1165.0, 0.0006990296896977088
1166.0, 0.00025918493725877464
1167.0, 0.00042813987349201246
1168.0, 0.00023561862589068362
1169.0, 0.00010378200800198107
1170.0, 0.0002128950489970479
1171.0, 0.00035294946736732434
1172.0, 0.00032384114320277153
1173.0, 0.0002313415138233517
1174.0, 0.0004624209717942168
1175.0, 0.0006875570734058786
1176.0, 0.0004180575765703932
1177.0, 0.0006312437843045093
1178.0, 0.0008140572034815605
1179.0, 0.0005580778643750446
1180.0, 0.00019834921378510025
1181.0, 0.001327897360014423
1182.0, 0.001132964809527413
1183.0, 0.0002894033599632727
1184.0, 0.0003288721085894215
1185.0, 0.0004290858680862695
1186.0, 0.0014570929788579462
1187.0, 0.0006837972413738973
1188.0, 0.00043567944873531845
1189.0, 0.0014371319273598312
1190.0, 0.0011537037694496165
1191.0, 0.0013689022582878132
1192.0, 0.0015638797701233666
1193.0, 0.001505590973304136
1194.0, 0.0015431177383522974
1195.0, 0.001195283050584749
1196.0, 0.0008551153472910866
1197.0, 0.0014221325311919285
1198.0, 0.001305980109923073
1199.0, 0.0008488212229992872
1200.0, 0.001203878816342431
1201.0, 0.0007442387456108846
1202.0, 0.000778070639200969
1203.0, 0.0006771812370730296
1204.0, 0.0013770116747767577
1205.0, 0.0018678988952059044
1206.0, 0.0022015881626512813
1207.0, 0.002364367149462719
1208.0, 0.001713763141771653
1209.0, 0.0011653725119426318
1210.0, 0.0017376499303205372
1211.0, 0.0015796852874058295
1212.0, 0.0011436898437151067
1213.0, 0.0019462733160235265
1214.0, 0.0013724317269302397
1215.0, 0.0007809213287358433
1216.0, 0.0010091504482411964
1217.0, 0.0012238408201349252
1218.0, 0.0011609546012532302
1219.0, 0.0015381649091657603
1220.0, 0.0018992696492562164
1221.0, 0.0013710003741913594
1222.0, 0.0007885208396646663
1223.0, 0.0011903532777628669
1224.0, 0.002010597533379843
1225.0, 0.0014283439529699468
1226.0, 0.0015992823069341823
1227.0, 0.0013810418854956568
1228.0, 0.0010716023546565585
1229.0, 0.0010874134076343134
1230.0, 0.0011628601811387279
1231.0, 0.0009658429419894244
1232.0, 0.0013291788850946587
1233.0, 0.0014361662233753562
1234.0, 0.0008365420288012752
1235.0, 0.0013674689567187133
1236.0, 0.0018401537579867538
1237.0, 0.0017127699606086049
1238.0, 0.0013106672102497668
1239.0, 0.0011950250639560947
1240.0, 0.0013659177697250505
1241.0, 0.000933586724070371
1242.0, 0.0010343373234769624
1243.0, 0.0016272445130900463
1244.0, 0.0014352828425354513
1245.0, 0.0015986205243804761
1246.0, 0.0017920568033754224
1247.0, 0.0013341230739512097
1248.0, 0.001604975216002932
1249.0, 0.0018037810350166944
1250.0, 0.0025186590869272765
1251.0, 0.001489674285323581
1252.0, 0.0012836080037476876
1253.0, 0.0012604633091671937
1254.0, 0.0010123718315429547
1255.0, 0.00095176165056836
1256.0, 0.0017941020221431867
1257.0, 0.00210634893247575
1258.0, 0.0023062669998493465
1259.0, 0.002679574015439343
1260.0, 0.0023280905070050127
1261.0, 0.002016002776946346
1262.0, 0.0021493604954175203
1263.0, 0.001459452238008377
1264.0, 0.002147523620091985
1265.0, 0.0029819184812904195
1266.0, 0.0015849115721990568
1267.0, 0.0012370163014722272
1268.0, 0.0011666778366417232
1269.0, 0.0016496675863734915
1270.0, 0.0023220833098021197
1271.0, 0.0019472611163357705
1272.0, 0.0014021125922832297
1273.0, 0.0015237969151804282
1274.0, 0.0015878589374683722
1275.0, 0.0010753461879849304
1276.0, 0.0007762234357388501
1277.0, 0.0016387443665512706
1278.0, 0.0019044272530849367
1279.0, 0.001284618210077167
1280.0, 0.0011921873813696684
1281.0, 0.0005903203088647049
1282.0, 0.00016993197297233558
1283.0, 0.000660776749814528
1284.0, 0.0011384745219212534
1285.0, 0.0009451290668964653
1286.0, 0.00035724439957348286
1287.0, 0.0004462483016022213
1288.0, 0.0007710184420814779
1289.0, 0.0007928305836417066
1290.0, 0.0007961644232527543
1291.0, 0.0003461062300644462
1292.0, 0.00025301549144283634
1293.0, 0.00021524722747450663
1294.0, 8.869555222776704e-05
1295.0, 9.509268940378345e-05
1296.0, 0.0008083743051176751
1297.0, 0.0008002331476928055
1298.0, 0.0005533241498909303
1299.0, 0.0007434079964588297
1300.0, 0.0004811506059324485
1301.0, 5.422003003276372e-05
1302.0, 0.00011418605712606421
1303.0, 5.007444071793716e-06
1304, 0.0
1305, 0.0
1306, 0.0
1307, 0.0
1308, 0.0
1309, 0.0
1310, 0.0
1311, 0.0
1312, 0.0
1313, 0.0
1314, 0.0
1315, 0.0
1316, 0.0
1317, 0.0
1318, 0.0
1319, 0.0
1320, 0.0
1321, 0.0
1322, 0.0
1323, 0.0
1324, 0.0
1325, 0.0
1326, 0.0
1327, 0.0
1328, 0.0
1329, 0.0
1330, 0.0
1331, 0.0
1332, 0.0
1333, 0.0
1334, 0.0
1335, 0.0
1336, 0.0
1337, 0.0
1338, 0.0
1339, 0.0
1340, 0.0
1341, 0.0
1342, 0.0
1343, 0.0
1344, 0.0
1345, 0.0
1346, 0.0
1347, 0.0
1348, 0.0
1349, 0.0
1350, 0.0
1351, 0.0
1352, 0.0
1353, 0.0
1354, 0.0
1355, 0.0
1356, 0.0
1357, 0.0
1358, 0.0
1359, 0.0
1360, 0.0
1361, 0.0
1362, 0.0
1363, 0.0
1364, 0.0
1365, 0.0
1366, 0.0
1367, 0.0
1368, 0.0
1369, 0.0
1370, 0.0
1371, 0.0
1372, 0.0
1373, 0.0
1374, 0.0
1375, 0.0
1376, 0.0
1377, 0.0
1378, 0.0
1379, 0.0
1380, 0.0
1381, 0.0
1382, 0.0
1383, 0.0
1384, 0.0
1385, 0.0
1386, 0.0
1387, 0.0
1388, 0.0
1389, 0.0
1390, 0.0
1391, 0.0
1392, 0.0
1393, 0.0
1394, 0.0
1395, 0.0
1396, 0.0
1397, 0.0
1398, 0.0
1399, 0.0
1400, 0.0
1401, 0.0
1402, 0.0
1403, 0.0
1404, 0.0
1405, 0.0
1406, 0.0
1407, 0.0
1408, 0.0
1409, 0.0
1410, 0.0
1411, 0.0
1412, 0.0
1413, 0.0
1414, 0.0
1415, 0.0
1416, 0.0
1417, 0.0
1418, 0.0
1419, 0.0
1420, 0.0
1421, 0.0
1422, 0.0
1423, 0.0
1424, 0.0
1425, 0.0
1426, 0.0
1427, 0.0
1428, 0.0
1429, 0.0
1430, 0.0
1431, 0.0
1432, 0.0
1433, 0.0
1434, 0.0
1435, 0.0
1436, 0.0
1437, 0.0
1438, 0.0
1439, 0.0
1440, 0.0
1441, 0.0
1442, 0.0
1443, 0.0
1444, 0.0
1445, 0.0
1446, 0.0
1447, 0.0
1448, 0.0
1449, 0.0
1450, 0.0
1451, 0.0
1452, 0.0
1453, 0.0
1454, 0.0
1455, 0.0
1456, 0.0
1457, 0.0
1458, 0.0
1459, 0.0
1460, 0.0
1461, 0.0
1462, 0.0
1463, 0.0
1464, 0.0
1465, 0.0
1466, 0.0
1467, 0.0
1468, 0.0
1469, 0.0
1470, 0.0
1471, 0.0
1472, 0.0
1473, 0.0
1474, 0.0
1475, 0.0
1476, 0.0
1477, 0.0
1478, 0.0
1479, 0.0
1480, 0.0
1481, 0.0
1482, 0.0
1483, 0.0
1484, 0.0
1485, 0.0
1486, 0.0
1487, 0.0
1488, 0.0
1489, 0.0
1490, 0.0
1491, 0.0
1492, 0.0
1493, 0.0
1494, 0.0
1495, 0.0
1496, 0.0
1497, 0.0
1498, 0.0
1499, 0.0
1500, 0.0
1501, 0.0
1502, 0.0
1503, 0.0
1504, 0.0
1505, 0.0
1506, 0.0
1507, 0.0
1508, 0.0
1509, 0.0
1510, 0.0
1511, 0.0
1512, 0.0
1513, 0.0
1514, 0.0
1515, 0.0
1516, 0.0
1517, 0.0
1518, 0.0
1519, 0.0
1520, 0.0
1521, 0.0
1522, 0.0
1523, 0.0
1524, 0.0
1525, 0.0
1526, 0.0
1527, 0.0
1528, 0.0
1529, 0.0
1530, 0.0
1531, 0.0
1532, 0.0
1533, 0.0
1534, 0.0
1535, 0.0
1536, 0.0
1537, 0.0
1538, 0.0
1539, 0.0
1540, 0.0
1541, 0.0
1542, 0.0
1543, 0.0
1544, 0.0
1545, 0.0
1546, 0.0
1547, 0.0
1548, 0.0
1549, 0.0
1550, 0.0
1551, 0.0
1552, 0.0
1553, 0.0
1554, 0.0
1555, 0.0
1556, 0.0
1557, 0.0
1558, 0.0
1559, 0.0
1560, 0.0
1561, 0.0
1562, 0.0
1563, 0.0
1564, 0.0
1565, 0.0
1566, 0.0
1567, 0.0
1568, 0.0
1569, 0.0
1570, 0.0
1571, 0.0
1572, 0.0
1573, 0.0
1574, 0.0
1575, 0.0
1576, 0.0
1577, 0.0
1578, 0.0
1579, 0.0
1580, 0.0
1581, 0.0
1582, 0.0
1583, 0.0
1584, 0.0
1585, 0.0
1586, 0.0
1587, 0.0
1588, 0.0
1589, 0.0
1590, 0.0
1591, 0.0
1592, 0.0
1593, 0.0
1594, 0.0
1595, 0.0
1596, 0.0
1597, 0.0
1598, 0.0
1599, 0.0
