30, 0.0
31, 0.0
32, 0.0
33, 0.0
34, 0.0
35, 0.0
36, 0.0
37, 0.0
38, 0.0
39, 0.0
40, 0.0
41, 0.0
42, 0.0
43, 0.0
44, 0.0
45, 0.0
46, 0.0
47, 0.0
48, 0.0
49, 0.0
50, 0.0
51, 0.0
52, 0.0
53, 0.0
54, 0.0
55, 0.0
56, 0.0
57, 0.0
58, 0.0
59, 0.0
60, 0.0
61, 0.0
62, 0.0
63, 0.0
64, 0.0
65, 0.0
66, 0.0
67, 0.0
68, 0.0
69, 0.0
70, 0.0
71, 0.0
72, 0.0
73, 0.0
74, 0.0
75, 0.0
76, 0.0
77, 0.0
78, 0.0
79, 0.0
80, 0.0
81, 0.0
82, 0.0
83, 0.0
84, 0.0
85, 0.0
86, 0.0
87, 0.0
88, 0.0
89, 0.0
90, 0.0
91, 0.0
92, 0.0
93, 0.0
94, 0.0
95, 0.0
96, 0.0
97, 0.0
98, 0.0
99, 0.0
100, 0.0
101, 0.0
102, 0.0
103, 0.0
104, 0.0
105, 0.0
106, 0.0
107, 0.0
108, 0.0
109, 0.0
110, 0.0
111, 0.0
112, 0.0
113, 0.0
114, 0.0
115, 0.0
116, 0.0
117, 0.0
118, 0.0
119, 0.0
120, 0.0
121, 0.0
122, 0.0
123, 0.0
124, 0.0
125, 0.0
126, 0.0
127, 0.0
128, 0.0
129, 0.0
130, 0.0
131, 0.0
132, 0.0
133, 0.0
134, 0.0
135, 0.0
136, 0.0
137, 0.0
138, 0.0
139, 0.0
140, 0.0
141, 0.0
142, 0.0
143, 0.0
144, 0.0
145, 0.0
146, 0.0
147, 0.0
148, 0.0
149.0, 1.6914114919324254e-05
150.0, 0.00036210013368099734
151.0, 0.0008884434378011487
152.0, 0.0007201769220444181
153.0, 0.0004757404864705477
154.0, 0.0009895848666231753
155.0, 0.0018337234905927233
156.0, 0.0016177543403099513
157.0, 0.00134378301742929
158.0, 0.0013079260106524447
159.0, 0.0015201862343058124
160.0, 0.0017165686336373706
161.0, 0.0014493659270142622
162.0, 0.0012232142190940196
163.0, 0.0014991252390847765
164.0, 0.001738725428332156
165.0, 0.0012375981792274319
166.0, 0.0005892137662129398
167.0, 0.0008030564236727491
168.0, 0.0004926009961468929
169.0, 0.00017013246228840252
170.0, 0.00019550517739895488
171.0, 0.00032454691123388934
172.0, 0.000639509079808711
173.0, 0.0003432352058376878
174.0, 0.0002606794831475469
175.0, 0.0005396555070764456
176.0, 0.0009764611552138644
177.0, 0.0014746909871279506
178.0, 0.0012194146850287957
179.0, 0.0007769215355866413
180.0, 0.0006981763152353325
181.0, 0.0010848277133712818
182.0, 0.0014165171808931528
183.0, 0.002792269762347849
184.0, 0.0034677947983717317
185.0, 0.00413454165347007
186.0, 0.004559813815206752
187.0, 0.004544850104897705
188.0, 0.006166001346458569
189.0, 0.005520323658931236
190.0, 0.006193730896144447
191.0, 0.007255103404440437
192.0, 0.007835760334255915
193.0, 0.008021809031177276
194.0, 0.008100809838784627
195.0, 0.009213056670799611
196.0, 0.00970074141081547
197.0, 0.010131931228615833
198.0, 0.011349289042030995
199.0, 0.01155589487033853
200.0, 0.010868495718031494
201.0, 0.011453595803837114
202.0, 0.012384608100459216
203.0, 0.013118696127630319
204.0, 0.013821949092950734
205.0, 0.012842577291947932
206.0, 0.015017551673143451
207.0, 0.015889393092142576
208.0, 0.016393605380995813
209.0, 0.018173352444748932
210.0, 0.019666208743118793
211.0, 0.020646921394301073
212.0, 0.022142235490933464
213.0, 0.024100990623448955
214.0, 0.025967285458388178
215.0, 0.027080094599425442
216.0, 0.028643633593197215
217.0, 0.029130638972972626
218.0, 0.03018148595632471
219.0, 0.03152719310605059
220.0, 0.032344544095747337
221.0, 0.03170702917852474
222.0, 0.03316949573258141
223.0, 0.03397041829851221
224.0, 0.03386001749580942
225.0, 0.03346214016130641
226.0, 0.03359787410851399
227.0, 0.03384277728478001
228.0, 0.03213282104497237
229.0, 0.03152859357305102
230.0, 0.03073057848974435
231.0, 0.029083537559985818
232.0, 0.027432536497407917
233.0, 0.027529208621459595
234.0, 0.026263234365414456
235.0, 0.02547865589965249
236.0, 0.024707193014199273
237.0, 0.02325828016960471
238.0, 0.021795771602427443
239.0, 0.019931461296664198
240.0, 0.019219998318475307
241.0, 0.018864693950487642
242.0, 0.018338592695205234
243.0, 0.01750035554014209
244.0, 0.016731325688769897
245.0, 0.015334206529916284
246.0, 0.015820291183582826
247.0, 0.016082457673027847
248.0, 0.015077317842237105
249.0, 0.014168290534941482
250.0, 0.015221761392335971
251.0, 0.01465746260130342
252.0, 0.014653955952110076
253.0, 0.01478082267341035
254.0, 0.014414556157377308
255.0, 0.014719260716467095
256.0, 0.014326771347774296
257.0, 0.014411027061930221
258.0, 0.015452498697566647
259.0, 0.01695793789427261
260.0, 0.017641862308298527
261.0, 0.015247546585827904
262.0, 0.01368661826252307
263.0, 0.014099476318789548
264.0, 0.014573333357204172
265.0, 0.014616135193269937
266.0, 0.015533756773831455
267.0, 0.01483998358264212
268.0, 0.014960632410694112
269.0, 0.0146559543153362
270.0, 0.014392619714388915
271.0, 0.014706793015054937
272.0, 0.01534393900405621
273.0, 0.014793797395210676
274.0, 0.015070281342681107
275.0, 0.016068045912411375
276.0, 0.016721263299066258
277.0, 0.01629294622318995
278.0, 0.016448785306381695
279.0, 0.017448629967553787
280.0, 0.01700498701475862
281.0, 0.01756613291585995
282.0, 0.01910730813334452
283.0, 0.01982684024637452
284.0, 0.020203226594392252
285.0, 0.02182150333808725
286.0, 0.022767511185910905
287.0, 0.024185897167897725
288.0, 0.026029330110016926
289.0, 0.02671789144906058
290.0, 0.02898986072200604
291.0, 0.030007983713642043
292.0, 0.031216547216608388
293.0, 0.03334234778427645
294.0, 0.03585724024990835
295.0, 0.036695965594248495
296.0, 0.03928394634190784
297.0, 0.04275007078554913
298.0, 0.04533141629029889
299.0, 0.047453258494118425
300.0, 0.04989812352990158
301.0, 0.052031026161943904
302.0, 0.054380548959133065
303.0, 0.056513971139534214
304.0, 0.059147498964164935
305.0, 0.061351667656988684
306.0, 0.06213413177016878
307.0, 0.06370216162211981
308.0, 0.06486356137966705
309.0, 0.06541265030335869
310.0, 0.06456724732875678
311.0, 0.06341102472509583
312.0, 0.06339149986770144
313.0, 0.060165404355815244
314.0, 0.05894447987289574
315.0, 0.05656038835232214
316.0, 0.05470081732162571
317.0, 0.05312002406304794
318.0, 0.04956047782349466
319.0, 0.046281775907955965
320.0, 0.04317514771029306
321.0, 0.040090250922786466
322.0, 0.03723471443712867
323.0, 0.03501070709818097
324.0, 0.0337194133207925
325.0, 0.030873212033643394
326.0, 0.02794476419690595
327.0, 0.026832313141405193
328.0, 0.02571252554459105
329.0, 0.023487840470001898
330.0, 0.021687673248091448
331.0, 0.02048712961442061
332.0, 0.018880700458068445
333.0, 0.017191061340991597
334.0, 0.01596670068989797
335.0, 0.015423110445030374
336.0, 0.015050893723259712
337.0, 0.014505000089013946
338.0, 0.013593197171355775
339.0, 0.012794639182357268
340.0, 0.01220518057257292
341.0, 0.011639766314927554
342.0, 0.010693514125310746
343.0, 0.010482668269550263
344.0, 0.010412599976302285
345.0, 0.009736036472424764
346.0, 0.00917732254200459
347.0, 0.009140604008964558
348.0, 0.007757628692452267
349.0, 0.008694797798961396
350.0, 0.008324151526025126
351.0, 0.007776815904473967
352.0, 0.007509442926637927
353.0, 0.0075592757430737205
354.0, 0.007923192374188858
355.0, 0.007214468366089352
356.0, 0.007639769290081961
357.0, 0.0073174615348103106
358.0, 0.006834200592560152
359.0, 0.007257038899141541
360.0, 0.007218010684724166
361.0, 0.007005778830149932
362.0, 0.006314963031507419
363.0, 0.006034957336324666
364.0, 0.005755548152516242
365.0, 0.005088241069669521
366.0, 0.005689808562704912
367.0, 0.0056631751122038386
368.0, 0.004309695318537266
369.0, 0.003332355794791808
370.0, 0.002867814009119062
371.0, 0.002538420750687841
372.0, 0.003106284321706414
373.0, 0.001846029677536491
374.0, 0.0020047315504167535
375.0, 0.0017200367453822569
376.0, 0.0011189840031904056
377.0, 0.0010918737211668443
378.0, 0.0014969251681905581
379.0, 0.0008230381923259667
380.0, 0.0006533852201641436
381.0, 0.0003977581355174765
382.0, 0.00019641195652200745
383.0, 0.00028268371836373687
384.0, 0.00020320550621364522
385.0, 0.0003940280302366228
386.0, 0.00031831447590546596
387.0, 0.00047425013287358053
388.0, 0.0005935808032644867
389.0, 0.00040783958839156747
390.0, 0.00037729047932319953
391.0, 0.000340421775402539
392.0, 0.0003186861625193897
393.0, 0.0006380428885328722
394.0, 0.0008862773864998631
395.0, 0.0006517698340498268
396.0, 0.00010806311990497682
397.0, 0.0002696700114070223
398.0, 0.00018610612391070395
399.0, 0.00024016174741632015
400.0, 0.0002978446598164264
401.0, 0.0003058191728117258
402.0, 0.0005463076005896831
403.0, 0.00036971768434884824
404.0, 0.0009166304183646262
405.0, 0.0007275676396648146
406.0, 0.00033671391676186736
407.0, 0.0003611203832383825
408.0, 0.0006881401335463716
409.0, 0.0003220385053670417
410.0, 0.00047116176665364877
411.0, 0.0004798690829903025
412.0, 0.0006217801710180788
413.0, 0.0007074070731661584
414.0, 0.00024372797067084547
415.0, 0.0011435777596580238
416.0, 0.0007243436200919843
417.0, 0.0010611891526629102
418.0, 0.0008526399145475692
419.0, 0.00035214620439111917
420.0, 0.0008312182626100763
421.0, 0.0005565058009538748
422.0, 0.0011189240263590285
423.0, 0.0012257934970102092
424.0, 0.0011847619453698472
425.0, 0.0011974691081571402
426.0, 0.0012170333971097476
427.0, 0.0009644982862143302
428.0, 0.0010911235803144357
429.0, 0.000960168756917029
430.0, 0.0009880079150252576
431.0, 0.0010509144858970561
432.0, 0.0008478326950501255
433.0, 0.00034009379992874984
434.0, 0.00023028533565261212
435.0, 0.0002020057544619723
436.0, 0.0003344915693475055
437.0, 0.0005623757655685809
438.0, 0.0007492810608053684
439.0, 0.0008155678526339634
440.0, 0.001594300753094806
441.0, 0.0022880407249923334
442.0, 0.0026936794705413533
443.0, 0.003017777528601327
444.0, 0.003264323408315965
445.0, 0.0033007329803897115
446.0, 0.004013742355666632
447.0, 0.004055101161509807
448.0, 0.004559679162045378
449.0, 0.005010485654702443
450.0, 0.00574898553088158
451.0, 0.007153726674686158
452.0, 0.0072822720899847005
453.0, 0.0077891556223126926
454.0, 0.0075945076196687975
455.0, 0.008438314259551653
456.0, 0.009424628116707861
457.0, 0.009612541953386742
458.0, 0.01059716094960784
459.0, 0.011519303224295526
460.0, 0.012959869181359447
461.0, 0.013512948890235138
462.0, 0.013670488909284715
463.0, 0.014015845475544526
464.0, 0.014553216825057778
465.0, 0.015977297253324103
466.0, 0.016831538501864873
467.0, 0.017414250594650085
468.0, 0.018238370662162877
469.0, 0.019141397264801532
470.0, 0.0198152049390949
471.0, 0.021507665647493186
472.0, 0.020995146261487144
473.0, 0.02205049328501798
474.0, 0.02286873063523033
475.0, 0.023659212702173325
476.0, 0.024608123371131458
477.0, 0.023823467231064578
478.0, 0.024938514230218405
479.0, 0.025171336420736656
480.0, 0.025127571206725693
481.0, 0.025155157942281327
482.0, 0.02515258740421712
483.0, 0.024637852160263127
484.0, 0.023393429840906584
485.0, 0.023199012954499366
486.0, 0.02232855233513411
487.0, 0.020823785418658168
488.0, 0.01958686532479074
489.0, 0.01931936002313085
490.0, 0.01905171904062727
491.0, 0.01755032112378606
492.0, 0.017620105138882274
493.0, 0.017131665811233973
494.0, 0.015540407474699064
495.0, 0.0138529339683608
496.0, 0.013831904322875392
497.0, 0.013450064432330424
498.0, 0.012471793014619576
499.0, 0.012382461538108252
500.0, 0.012161354611086026
501.0, 0.01130765345347709
502.0, 0.010348658842450394
503.0, 0.010455947174440068
504.0, 0.010978252133065115
505.0, 0.011224110659420028
506.0, 0.011327081646104154
507.0, 0.011161234450936253
508.0, 0.011031564403302933
509.0, 0.011807964698255687
510.0, 0.011214991993795356
511.0, 0.011285730283960758
512.0, 0.01112025836053304
513.0, 0.010947282839284667
514.0, 0.010840473738867984
515.0, 0.010700496393032955
516.0, 0.010916001210920756
517.0, 0.0107028587486656
518.0, 0.01065881988061976
519.0, 0.010177021244091377
520.0, 0.009598848684228809
521.0, 0.00926865106678294
522.0, 0.008863330681358148
523.0, 0.00818564926821139
524.0, 0.007712845186258197
525.0, 0.0073349285267279764
526.0, 0.0065738306003338435
527.0, 0.006104149445155612
528.0, 0.00663026217394294
529.0, 0.006279213224308594
530.0, 0.004842737210924857
531.0, 0.00438585372219816
532.0, 0.004558204000054931
533.0, 0.00454918580892235
534.0, 0.00420187954832953
535.0, 0.004227053697367614
536.0, 0.004110191076433311
537.0, 0.004580386853914899
538.0, 0.003965804774830029
539.0, 0.003515383655212784
540.0, 0.0037239764373711093
541.0, 0.0038668235429126733
542.0, 0.0024463827391928957
543.0, 0.003188976514254705
544.0, 0.0034104868015986316
545.0, 0.0038240684675209346
546.0, 0.003711651359245119
547.0, 0.003191000465270806
548.0, 0.0032260226016951753
549.0, 0.0034229808148543007
550.0, 0.0035498621703769066
551.0, 0.0031856827833710213
552.0, 0.003728082455071782
553.0, 0.00400161606088554
554.0, 0.0037258099323766777
555.0, 0.004970448269209566
556.0, 0.003976163018419664
557.0, 0.00510987719502145
558.0, 0.004681464280552498
559.0, 0.004462773841923524
560.0, 0.0052129805644325405
561.0, 0.006049918646696333
562.0, 0.005412544742020155
563.0, 0.005774724382035522
564.0, 0.006399246180001634
565.0, 0.006385093970823884
566.0, 0.006959280374849577
567.0, 0.007715807714680455
568.0, 0.007325176032337523
569.0, 0.008092555923499622
570.0, 0.009143012748868027
571.0, 0.008954827951132184
572.0, 0.009529587653877401
573.0, 0.010574975983482329
574.0, 0.011243425011070148
575.0, 0.011467796026472337
576.0, 0.012605794255960631
577.0, 0.013463895091417124
578.0, 0.014030293732233082
579.0, 0.015153718298760313
580.0, 0.016483094182674046
581.0, 0.01773114715896126
582.0, 0.01959574471609031
583.0, 0.021007888937026237
584.0, 0.022422155384442366
585.0, 0.02343883553448847
586.0, 0.025423194923306604
587.0, 0.028366590569104583
588.0, 0.0311257106633893
589.0, 0.032787363718600006
590.0, 0.03635803293993396
591.0, 0.04108496478430983
592.0, 0.04513987250607542
593.0, 0.05057685773798986
594.0, 0.05673622899035033
595.0, 0.061723058677610604
596.0, 0.0676632636709218
597.0, 0.07650435853048745
598.0, 0.08360117799327994
599.0, 0.09133124722049785
600.0, 0.1001091567795839
601.0, 0.10863359632356026
602.0, 0.11569731548086908
603.0, 0.12354046335818442
604.0, 0.13016426094684078
605.0, 0.13807926545273302
606.0, 0.1448743762519915
607.0, 0.15280928390612736
608.0, 0.16139199731838116
609.0, 0.16855324550190826
610.0, 0.182438118170088
611.0, 0.19219716016031774
612.0, 0.20377459986406277
613.0, 0.21703991565195754
614.0, 0.23026398392308892
615.0, 0.24365343666547762
616.0, 0.25846527357171334
617.0, 0.26909686617250717
618.0, 0.2773391232081748
619.0, 0.2835581741617684
620.0, 0.2892503571103365
621.0, 0.2926481180815149
622.0, 0.2919279759451691
623.0, 0.28759873524820695
624.0, 0.28332203698577263
625.0, 0.27233208966452327
626.0, 0.26354259296560606
627.0, 0.25252023194477613
628.0, 0.24053476160162027
629.0, 0.22868454609897795
630.0, 0.21572674078275011
631.0, 0.20424167039979974
632.0, 0.1933176027525984
633.0, 0.18154397713501902
634.0, 0.17111626448185752
635.0, 0.16027865273578704
636.0, 0.1496241392915987
637.0, 0.14230880246942595
638.0, 0.13354111451906192
639.0, 0.1291336774126409
640.0, 0.12281934565873945
641.0, 0.12111031048374822
642.0, 0.12215445852733918
643.0, 0.12407995407914425
644.0, 0.1282227151545344
645.0, 0.134415283487722
646.0, 0.14634058650589424
647.0, 0.16165845899879147
648.0, 0.17988426511469097
649.0, 0.201882069107453
650.0, 0.22868718326236712
651.0, 0.26079951275973035
652.0, 0.29795781208063693
653.0, 0.3384881581574929
654.0, 0.38736118614218196
655.0, 0.4393487838944056
656.0, 0.49297563398749783
657.0, 0.5463581781807673
658.0, 0.5969933222921643
659.0, 0.6440828701033583
660.0, 0.6872946413802408
661.0, 0.7175519722117405
662.0, 0.7394182659591827
663.0, 0.7442452279874792
664.0, 0.7323716654787583
665.0, 0.7104199119805186
666.0, 0.6794555634776018
667.0, 0.6372592460802557
668.0, 0.5917521366664342
669.0, 0.5406437239796996
670.0, 0.49010128875213077
671.0, 0.4410242606685134
672.0, 0.3937295763915852
673.0, 0.35320228087521943
674.0, 0.31783132815396536
675.0, 0.28154067947726097
676.0, 0.251886267122992
677.0, 0.223506080536024
678.0, 0.1993827200566763
679.0, 0.18041586114009903
680.0, 0.16101086308129225
681.0, 0.1439527981098827
682.0, 0.1303323525254168
683.0, 0.11767208903542199
684.0, 0.10597604090460641
685.0, 0.0953048759866096
686.0, 0.08582823034309194
687.0, 0.0774760330338148
688.0, 0.06937388989450102
689.0, 0.06414312384196823
690.0, 0.059645255653511135
691.0, 0.05447874657205271
692.0, 0.05073838361103382
693.0, 0.046711794625389116
694.0, 0.040668914106423044
695.0, 0.03683527055722298
696.0, 0.03652739889981365
697.0, 0.03459113540390612
698.0, 0.03245343283048821
699.0, 0.03007346653810574
700.0, 0.0280001665736789
701.0, 0.02634758886685863
702.0, 0.024546893872483395
703.0, 0.023722286724573827
704.0, 0.021620584343870083
705.0, 0.020432318323118176
706.0, 0.019586786925167014
707.0, 0.01864155193327159
708.0, 0.01764816023019948
709.0, 0.01682794122559784
710.0, 0.015893337105152023
711.0, 0.01510279035488798
712.0, 0.014059328309200998
713.0, 0.013046867487856247
714.0, 0.012270042007456686
715.0, 0.011632403425335712
716.0, 0.01095617608422377
717.0, 0.010313591895665265
718.0, 0.010311757707245874
719.0, 0.00924308032656996
720.0, 0.008256249755320485
721.0, 0.0077581319563780095
722.0, 0.007744442088523885
723.0, 0.008140684715171594
724.0, 0.008426216639345794
725.0, 0.007000192662520805
726.0, 0.006759307665876502
727.0, 0.005107847357563698
728.0, 0.004630126427797307
729.0, 0.004659133293711945
730.0, 0.004666050079031784
731.0, 0.0046390740391695695
732.0, 0.0045604729249615825
733.0, 0.0038673091095185862
734.0, 0.00468610016291295
735.0, 0.0042036064070619565
736.0, 0.004298020497784052
737.0, 0.0037268561295724445
738.0, 0.0027091372760947217
739.0, 0.0026255719189230324
740.0, 0.0022926791781966785
741.0, 0.0023678357350878847
742.0, 0.0016952565445420948
743.0, 0.0012677593161071739
744.0, 0.0012365329669317433
745.0, 0.0014258612619265094
746.0, 0.0012950790286848878
747.0, 0.0005519879278170771
748.0, 0.0008093007066189453
749.0, 0.0008669641327736262
750.0, 0.0004786815044402365
751.0, 0.00039625896331990515
752.0, 0.0003497921661185328
753.0, 0.0002061164394238244
754.0, 8.682112336436136e-05
755.0, 5.3078754483084606e-05
756.0, 9.175795096793763e-05
757.0, 0.00030234824495296256
758.0, 0.0005294906611125124
759.0, 0.0005399749279745343
760.0, 0.0007541082509539041
761.0, 0.0008552805059222459
762.0, 0.0003496615515984148
763.0, 0.000217970492286343
764.0, 0.0001647059046113886
765.0, 0.00012722986113968644
766.0, 0.0003254550977576724
767.0, 0.0007396457889227387
768.0, 0.0007913246744652598
769.0, 0.0005821713767775607
770.0, 0.0008897080658698724
771.0, 0.0013766155441140076
772.0, 0.00015054682368393355
773.0, 0.0007366309285380813
774.0, 0.0013576793125898235
775.0, 0.0013418673928291334
776.0, 0.001024736808594506
777.0, 0.001081486985403305
778.0, 0.0016246834297703313
779.0, 0.001449533905750127
780.0, 0.0003786690017887356
781.0, 0.0014529784305285071
782.0, 0.001009428614976881
783.0, 0.0016026107585218436
784.0, 0.002331956509151934
785.0, 0.0016411725460993446
786.0, 0.001257916597141247
787.0, 0.0013525852546292091
788.0, 0.0010114812066518385
789.0, 0.001114344867721773
790.0, 0.0014617767837906465
791.0, 0.001385531787714574
792.0, 0.0011036584911333254
793.0, 0.0010670439002582613
794.0, 0.001152423989891046
795.0, 0.002044336211430147
796.0, 0.0011217604363298838
797.0, 0.0003049668322065585
798.0, 0.0009305917911365895
799.0, 0.001295956477309094
800.0, 0.0007310480464307722
801.0, 0.00013308065013239605
802.0, 0.0003780782447219606
803.0, 0.000677135665109918
804.0, 0.00011356839337064637
805.0, 0.00019461887877540344
806.0, 0.00045539394593335477
807.0, 0.0004766261412302853
808.0, 0.0002404107727032686
809.0, 0.00016478126253132995
810.0, 0.000634786230841582
811.0, 0.0007690975180355791
812.0, 0.0003156720916554091
813.0, 0.00031991104522072775
814.0, 0.000716432862265088
815.0, 0.0007282163521849393
816.0, 0.0004140239771901083
817.0, 0.0006606748983604776
818.0, 0.0017750001743416796
819.0, 0.0010519799450384353
820.0, 0.0008317583310922507
821.0, 0.0019782135615791473
822.0, 0.0018637846410748168
823.0, 0.002229966588490576
824.0, 0.0023929845469554756
825.0, 0.0019791052196292507
826.0, 0.002748088485956441
827.0, 0.00331751279616779
828.0, 0.004214684899198879
829.0, 0.004477155342890215
830.0, 0.004855070152011363
831.0, 0.004389396751656685
832.0, 0.004463010248657303
833.0, 0.005080346367062059
834.0, 0.004938704570897732
835.0, 0.006830702247508309
836.0, 0.006069268798041963
837.0, 0.00630993796829366
838.0, 0.007726135558826886
839.0, 0.00860307535526477
840.0, 0.008924250594545033
841.0, 0.009832892560625407
842.0, 0.011744830371289674
843.0, 0.013101947558694722
844.0, 0.013544655292498351
845.0, 0.015803652844845667
846.0, 0.01801658094631064
847.0, 0.019738215321980626
848.0, 0.021231977106518793
849.0, 0.023699069974795574
850.0, 0.02741664622271639
851.0, 0.03059839445052448
852.0, 0.03246088630365013
853.0, 0.03641764799755229
854.0, 0.03994609465942582
855.0, 0.04317491399952148
856.0, 0.04755536798643229
857.0, 0.0513710222435372
858.0, 0.054222271657924856
859.0, 0.05793541999550969
860.0, 0.06065264722580976
861.0, 0.06426040227033805
862.0, 0.06563197403530985
863.0, 0.06788906285697627
864.0, 0.0687590082657342
865.0, 0.06728122013482754
866.0, 0.06413231531365052
867.0, 0.06045708772915173
868.0, 0.056846605816819
869.0, 0.05407922514468203
870.0, 0.049970766037740505
871.0, 0.04588936343684124
872.0, 0.04227368344478359
873.0, 0.03947805638120792
874.0, 0.03765193063066497
875.0, 0.03683266128686451
876.0, 0.03664619869910123
877.0, 0.03595078979188679
878.0, 0.036926084247367916
879.0, 0.037203490433542666
880.0, 0.03864437939441833
881.0, 0.04130785441029473
882.0, 0.04394806250096593
883.0, 0.04702962528069358
884.0, 0.05064344135252069
885.0, 0.05314269433631567
886.0, 0.058795534017857164
887.0, 0.06438357824540188
888.0, 0.06952936913306934
889.0, 0.07621371699652661
890.0, 0.08418285307298147
891.0, 0.09287160733800646
892.0, 0.10345510564141698
893.0, 0.11684957552016778
894.0, 0.13083593658072748
895.0, 0.14915675822344052
896.0, 0.16858818685138233
897.0, 0.19097937669327122
898.0, 0.21849937635609282
899.0, 0.25099121343921466
900.0, 0.2892684773920558
901.0, 0.33487226772119755
902.0, 0.3879018573415411
903.0, 0.4466342076430781
904.0, 0.5208726980997413
905.0, 0.5885725029557711
906.0, 0.6690079069748912
907.0, 0.7425925025252719
908.0, 0.8148265843304382
909.0, 0.8794810808628115
910.0, 0.9292319579446867
911.0, 0.9710270400245105
912.0, 0.9998525261916128
913.0, 0.9973529701172531
914.0, 0.9953544388727308
915.0, 0.9777966229941374
916.0, 0.9550662366757169
917.0, 0.926778122783363
918.0, 0.8900613643434006
919.0, 0.8465931238271027
920.0, 0.7996618623645807
921.0, 0.7442283662950693
922.0, 0.6831289135925616
923.0, 0.6205497042789699
924.0, 0.5617009408162551
925.0, 0.5079026421669505
926.0, 0.4556035496548016
927.0, 0.4049397977240139
928.0, 0.36044670572026294
929.0, 0.3242278252493338
930.0, 0.2896094180654421
931.0, 0.26227313578361255
932.0, 0.23831326485121748
933.0, 0.21783854600775143
934.0, 0.19845748071049946
935.0, 0.18172483422803293
936.0, 0.1676327662273584
937.0, 0.15497897558076382
938.0, 0.14366483062363833
939.0, 0.13240658168391822
940.0, 0.1232893375118917
941.0, 0.1162689745451799
942.0, 0.10994101234917807
943.0, 0.10417698429803511
944.0, 0.09924170592905229
945.0, 0.09541286279892902
946.0, 0.09258085291709213
947.0, 0.0905356483983504
948.0, 0.08974120418626853
949.0, 0.08888490825852742
950.0, 0.08859083915726293
951.0, 0.08840614296906055
952.0, 0.08862208785078587
953.0, 0.08968815771942641
954.0, 0.09100983279618911
955.0, 0.09187152513651257
956.0, 0.09219018738143932
957.0, 0.09232353655005536
958.0, 0.09434392370100514
959.0, 0.09609046736787395
960.0, 0.09599686080687624
961.0, 0.09605968721722533
962.0, 0.09698057418793911
963.0, 0.09843978250752557
964.0, 0.09921558737133881
965.0, 0.09815465254281835
966.0, 0.09583326656460806
967.0, 0.0954330084808638
968.0, 0.0959266673684819
969.0, 0.096039539658544
970.0, 0.09534582701086428
971.0, 0.0951702962855496
972.0, 0.09434251372207729
973.0, 0.09359420381992138
974.0, 0.09377629548615476
975.0, 0.09367002920432184
976.0, 0.0933678281736629
977.0, 0.09481494132037901
978.0, 0.0972598252701558
979.0, 0.09780941692887962
980.0, 0.0990641076384279
981.0, 0.10248616035373803
982.0, 0.10868882183254605
983.0, 0.11509437735310432
984.0, 0.1197468139001296
985.0, 0.12586421862156316
986.0, 0.1334437281048902
987.0, 0.1412876073204653
988.0, 0.15254998685871768
989.0, 0.15984690268747495
990.0, 0.1691644843938679
991.0, 0.18109146037418652
992.0, 0.19247268335443593
993.0, 0.20211614167842493
994.0, 0.21142791731251753
995.0, 0.21967002647658926
996.0, 0.22606154466899
997.0, 0.22846688772459234
998.0, 0.22969053747780974
999.0, 0.22759259207332572
1000.0, 0.22412827337624913
1001.0, 0.21833253023831664
1002.0, 0.2091850209806377
1003.0, 0.1990132779298101
1004.0, 0.1904996458022676
1005.0, 0.17966918459631961
1006.0, 0.16934613571109192
1007.0, 0.1601804974791214
1008.0, 0.1489107649118466
1009.0, 0.1401789301835012
1010.0, 0.1311386621875176
1011.0, 0.1229850328538667
1012.0, 0.11609673165837378
1013.0, 0.1099014001184984
1014.0, 0.10466039882742312
1015.0, 0.09607300422812264
1016.0, 0.09099777280203568
1017.0, 0.08708195074813684
1018.0, 0.08185607219430677
1019.0, 0.07804018325823527
1020.0, 0.07375055805726662
1021.0, 0.07086267806521541
1022.0, 0.06804856306662795
1023.0, 0.06383991337667276
1024.0, 0.06180470203624812
1025.0, 0.0597633771522866
1026.0, 0.056081124724314854
1027.0, 0.05509095989818253
1028.0, 0.052129750470078146
1029.0, 0.05045430569541916
1030.0, 0.04835230252343803
1031.0, 0.04596480863006113
1032.0, 0.04473872817260224
1033.0, 0.044064498468287104
1034.0, 0.04190972073659749
1035.0, 0.04010696373619619
1036.0, 0.03876497136694337
1037.0, 0.03759400617189047
1038.0, 0.03457886859788652
1039.0, 0.03293934344540158
1040.0, 0.03173259763236044
1041.0, 0.0312278679364145
1042.0, 0.030880269411916243
1043.0, 0.029884383428621247
1044.0, 0.028248504233469873
1045.0, 0.025885804929189665
1046.0, 0.02581489101556455
1047.0, 0.025044145148674174
1048.0, 0.023618427733188375
1049.0, 0.02310588033858219
1050.0, 0.023042096896386425
1051.0, 0.021521571483236194
1052.0, 0.020349919442727665
1053.0, 0.019725746774546138
1054.0, 0.017845912970698836
1055.0, 0.01676338004221261
1056.0, 0.017226090974661035
1057.0, 0.017120123099702806
1058.0, 0.015573954879970283
1059.0, 0.016226643017011395
1060.0, 0.01559114603321692
1061.0, 0.014160308010033491
1062.0, 0.013654083916888597
1063.0, 0.0132059525158939
1064.0, 0.012161770662695573
1065.0, 0.012155816031321697
1066.0, 0.012332795321599149
1067.0, 0.012084389699139345
1068.0, 0.012175672508853092
1069.0, 0.011049578997433331
1070.0, 0.011321036601363906
1071.0, 0.011304773619357495
1072.0, 0.011508124811581968
1073.0, 0.011420297160173067
1074.0, 0.010596708644191963
1075.0, 0.010343104747065667
1076.0, 0.0111190079632184
1077.0, 0.008977619074224983
1078.0, 0.011289484579938738
1079.0, 0.009392444365559163
1080.0, 0.009401251947059083
1081.0, 0.010897072579692139
1082.0, 0.010387691346001635
1083.0, 0.009414952562632948
1084.0, 0.009192230578237058
1085.0, 0.009431307555303711
1086.0, 0.009905917544121646
1087.0, 0.010139557194629027
1088.0, 0.009032680968459378
1089.0, 0.009233132179907958
1090.0, 0.00809781846600149
1091.0, 0.006516427673629634
1092.0, 0.005150008368123883
1093.0, 0.005002168831974987
1094.0, 0.0047174989301944775
1095.0, 0.003887176872559197
1096.0, 0.0029553541350681753
1097.0, 0.002055025114036476
1098.0, 0.0015285244504848825
1099.0, 0.001354956204460812
1100.0, 0.00032910560046408915
1101.0, 4.402160114237815e-05
1102.0, 6.189340181992522e-05
1103.0, 0.00031983454632867573
1104.0, 0.0005757094094426962
1105.0, 0.0009926346393217913
1106.0, 0.0009213772936326024
1107.0, 0.0008732962520601559
1108.0, 0.0016888620829034133
1109.0, 0.0016693319492720095
1110.0, 0.0001884923888942211
1111.0, 0.0010888239508902468
1112.0, 0.0009670156774324919
1113.0, 0.0007997144030351768
1114.0, 0.0019859027770076504
1115.0, 0.0011698457658892718
1116.0, 0.0008486260521638938
1117.0, 0.0007732050941102232
1118.0, 0.000602801138549496
1119.0, 0.0014216275419663797
1120.0, 0.002514721948652514
1121.0, 0.0024596885135921807
1122.0, 0.002354783751813238
1123.0, 0.002875105055195847
1124.0, 0.0021477014626193718
1125.0, 0.0014075521943197346
1126.0, 0.00041741072824299347
1127.0, 0.0006353699661334846
1128.0, 0.0008667750240556243
1129.0, 0.0006702421252681528
1130.0, 0.00044214100419800794
1131.0, 0.0004664208928884934
1132.0, 0.001276313460044816
1133.0, 0.000761601404492031
1134.0, 0.0009645200696742776
1135.0, 0.0008685580026300544
1136.0, 0.0007569685161776126
1137.0, 0.0008165181737632613
1138.0, 0.0008086249448284639
1139.0, 0.0008236370564102291
1140.0, 0.000874188397174149
1141.0, 0.0009380640897047691
1142.0, 0.0010399518702010528
1143.0, 0.0011630306911951955
1144.0, 0.0012240646165823839
1145.0, 0.001173927187446215
1146.0, 0.0011992321155403275
1147.0, 0.0010170178033464946
1148.0, 0.000961822950629733
1149.0, 0.0007699305428190155
1150.0, 0.00042748774427042794
1151.0, 0.00040955384384112827
1152.0, 0.00031517531761023196
1153.0, 0.00020578656404400235
1154.0, 0.0003565844072390419
1155.0, 0.0004809220254282237
1156.0, 0.0008676814397705826
1157.0, 0.0008215890704309142
1158.0, 0.0011883113663525133
1159.0, 0.00020043063105643815
1160.0, 0.000559453616110231
1161.0, 0.0005355352053826158
1162.0, 0.0002097263871794841
1163.0, 8.210189889995318e-05
1164.0, 7.976203870322289e-05
1165.0, 0.00041497136051008444
1166.0, 0.0006573264559352424
1167.0, 0.00012483474019443064
1168.0, 0.00011770554778525418
1169.0, 0.00025842356588935586
1170.0, 0.0008662159376743411
1171.0, 0.0006612978450523652
1172.0, 0.0007501984892634904
1173.0, 0.0009245042471298611
1174.0, 0.0007950183892813229
1175.0, 0.000323774201431416
1176.0, 5.125274212863717e-05
1177.0, 0.00028698036289467936
1178.0, 0.0004357156905847044
1179.0, 0.00048809427525706064
1180.0, 0.0013453938295064998
1181.0, 0.0013819087507051942
1182.0, 0.001697475258689866
1183.0, 0.001490108267944757
1184.0, 0.0018475899357352917
1185.0, 0.0012583166939772856
1186.0, 0.0013098554364549175
1187.0, 0.0014504203675713848
1188.0, 0.0011019766106570277
1189.0, 0.0011907226793672551
1190.0, 0.0013178188593208275
1191.0, 0.0009098785907355962
1192.0, 0.000671032228503562
1193.0, 0.0003426320898538023
1194.0, 0.0006574682761588701
1195.0, 0.000761326966500957
1196.0, 0.0006751532830954568
1197.0, 0.0009419673800941336
1198.0, 0.0005384704829811246
1199.0, 0.001520658462452971
1200.0, 0.000985812012392315
1201.0, 0.001058427992446903
1202.0, 0.0014347436812262042
1203.0, 0.0010193412502039617
1204.0, 0.0007408991949924714
1205.0, 0.0011670227917834578
1206.0, 0.001451931479074565
1207.0, 0.0015896958252870918
1208.0, 0.0006752510560147809
1209.0, 0.0016363931867554985
1210.0, 0.002292560538015794
1211.0, 0.0012566550367235016
1212.0, 0.0015048826594489145
1213.0, 0.0023016270330474533
1214.0, 0.0021714637866777154
1215.0, 0.0019425533133593268
1216.0, 0.002325517170196785
1217.0, 0.0024466204292912176
1218.0, 0.002101487503133425
1219.0, 0.002263452914221124
1220.0, 0.0017168706676557502
1221.0, 0.00240459174998666
1222.0, 0.0030251726040701555
1223.0, 0.0029435506632900952
1224.0, 0.0028173479447677757
1225.0, 0.0030848622951431346
1226.0, 0.003370450349743935
1227.0, 0.002764398999325214
1228.0, 0.0026243922442188683
1229.0, 0.0032279380845991537
1230.0, 0.0032453365366674996
1231.0, 0.0026840760849668618
1232.0, 0.0029874769578666725
1233.0, 0.0037391034284338666
1234.0, 0.0036413717336998435
1235.0, 0.0030068036933687116
1236.0, 0.002675360293534769
1237.0, 0.0018639011221739477
1238.0, 0.0019523077856056267
1239.0, 0.0026918567162348226
1240.0, 0.002709319707597127
1241.0, 0.0021681805034701874
1242.0, 0.002249859975107454
1243.0, 0.0022319261544942845
1244.0, 0.0022646370547704654
1245.0, 0.0025804757221416274
1246.0, 0.0022083444086148972
1247.0, 0.0031332460998708227
1248.0, 0.003037883527269422
1249.0, 0.003986945915842015
1250.0, 0.003993731544343505
1251.0, 0.0034442010317401036
1252.0, 0.00319725140263147
1253.0, 0.003795820908219556
1254.0, 0.0037054306699343805
1255.0, 0.00414468520461579
1256.0, 0.003669051852145277
1257.0, 0.0030104636671749044
1258.0, 0.0032107618589026147
1259.0, 0.0038965913039765913
1260.0, 0.00449807863800342
1261.0, 0.0038619060424667537
1262.0, 0.003288682168520951
1263.0, 0.004410478605198616
1264.0, 0.0032254513632562687
1265.0, 0.0038148012075755614
1266.0, 0.004275602715437261
1267.0, 0.0037166657618298744
1268.0, 0.0036441669028597595
1269.0, 0.004207093699027775
1270.0, 0.0032769428898154138
1271.0, 0.0031094166979770163
1272.0, 0.002873562173060362
1273.0, 0.002565585581785776
1274.0, 0.003386349101499109
1275.0, 0.003398297499792304
1276.0, 0.003756471381987077
1277.0, 0.002778911051223627
1278.0, 0.0019981016976033435
1279.0, 0.003588411920035995
1280.0, 0.002844464462005265
1281.0, 0.003508820814399402
1282.0, 0.0028299585491134544
1283.0, 0.0027776320840225757
1284.0, 0.002583735493462567
1285.0, 0.002398920300281797
1286.0, 0.002271717724484742
1287.0, 0.0023495001335119975
1288.0, 0.0029059404827346904
1289.0, 0.0030952378566003616
1290.0, 0.0022784653951734846
1291.0, 0.0021348775627083143
1292.0, 0.0026360457108596516
1293.0, 0.0022094394400424
1294.0, 0.003535792527583335
1295.0, 0.002502322404891742
1296.0, 0.002603786770582903
1297.0, 0.0030918795418012407
1298.0, 0.002978462889922315
1299.0, 0.003187856150713015
1300.0, 0.0030037733036841906
1301.0, 0.0025152789441806093
1302.0, 0.0023039355956238116
1303.0, 0.0025865997075055053
1304.0, 0.002874194297988658
1305.0, 0.0027519702484448184
1306.0, 0.002458821132994811
1307.0, 0.002310802914866913
1308.0, 0.0029380542724286554
1309.0, 0.00289585237109147
1310.0, 0.0028566539997438196
1311.0, 0.002940811866674111
1312.0, 0.003441829746245888
1313.0, 0.003150368700439049
1314.0, 0.00345403180105614
1315.0, 0.003498044953235769
1316.0, 0.0035198203985611536
1317.0, 0.003537136038018143
1318.0, 0.003828195564702304
1319.0, 0.003739974844821691
1320.0, 0.003523780750788911
1321.0, 0.004029810135609723
1322.0, 0.004343362577822912
1323.0, 0.0036426032960159603
1324.0, 0.0030970924921141195
1325.0, 0.0040806870529811485
1326.0, 0.0018585347439778214
1327.0, 0.003011710217102115
1328.0, 0.003547558537825284
1329.0, 0.0023173657861698237
1330.0, 0.0031837524281214946
1331.0, 0.003406025772724065
1332.0, 0.0034937540923852344
1333.0, 0.003930586674414007
1334.0, 0.004085747135559312
1335.0, 0.003933871253674009
1336.0, 0.0035894309514476887
1337.0, 0.0032352017166320324
1338.0, 0.003103484462642064
1339.0, 0.0030086383749653492
1340.0, 0.003030774683220508
1341.0, 0.0032972048942859567
1342.0, 0.0025600682859029038
1343.0, 0.0028805657002730577
1344.0, 0.003467172212478864
1345.0, 0.003874731842007632
1346.0, 0.003378119116747179
1347.0, 0.0032960259380751416
1348.0, 0.0024898622554002815
1349.0, 0.0027355542222093354
1350.0, 0.0034033171373673036
1351.0, 0.0030103062415954202
1352.0, 0.0029154495711412624
1353.0, 0.0032082145611246776
1354.0, 0.0030959301382667546
1355.0, 0.0031302819543723185
1356.0, 0.003251734963837054
1357.0, 0.002937347205517223
1358.0, 0.003129139016834557
1359.0, 0.0026305768796533423
1360.0, 0.0031240184214741964
1361.0, 0.002603085797534981
1362.0, 0.003064903808928615
1363.0, 0.001977626408576008
1364.0, 0.002250697339284701
1365.0, 0.00231938953669793
1366.0, 0.0024581775949517573
1367.0, 0.0026259379276528053
1368.0, 0.0027600694862728982
1369.0, 0.002678543677214337
1370.0, 0.002959350476482338
1371.0, 0.0031898679136608456
1372.0, 0.0028025522236895667
1373.0, 0.002656645943336204
1374.0, 0.0028707216697721532
1375.0, 0.0028854467969586287
1376.0, 0.003129503140716684
1377.0, 0.0028336949073582162
1378.0, 0.003229255016555812
1379.0, 0.0031524086571693504
1380.0, 0.002598934605479871
1381.0, 0.0030235252122278585
1382.0, 0.004125917327050269
1383.0, 0.00241350773750075
1384.0, 0.0018795692017163097
1385.0, 0.002489182035341008
1386.0, 0.003115089211083913
1387.0, 0.0018099593887449584
1388.0, 0.0027371023582677704
1389.0, 0.002510943575199974
1390.0, 0.0017620821367697792
1391.0, 0.0022739091086274683
1392.0, 0.002299432891332562
1393.0, 0.0018106639483291432
1394.0, 0.0017936775653710063
1395.0, 0.0014921460069835832
1396.0, 0.0016647050085296026
1397.0, 0.0018328254470248476
1398.0, 0.0019759152928529723
1399.0, 0.001884735163351311
1400.0, 0.0008077132575152466
1401.0, 0.0015639945833431184
1402.0, 0.0020485008794950636
1403.0, 0.0004465547320697445
1404.0, 0.0013289545246676613
1405.0, 0.0011742967295492249
1406.0, 0.002726275960238422
1407.0, 0.001698396206789593
1408.0, 0.0014963151812531195
1409.0, 0.0017836898000812593
1410.0, 0.0014897538417296538
1411.0, 0.001245068636903904
1412.0, 0.0016466342027307516
1413.0, 0.0018290908175395745
1414.0, 0.001197897092070747
1415.0, 0.0006155249742723167
1416.0, 0.0009378899990756874
1417.0, 0.0014543847697758008
1418.0, 0.0009328925972762624
1419.0, 0.0011800546811409102
1420.0, 0.0006933301005045268
1421.0, 0.0009438144585616919
1422.0, 0.0012371215336205326
1423.0, 0.001694879778982112
1424.0, 0.003120608554615933
1425.0, 0.0003881969508449136
1426.0, 0.0016144873239275557
1427.0, 0.0009709090092238771
1428.0, 0.000756681435509473
1429.0, 0.0011388028460450604
1430.0, 0.0007836578893051865
1431.0, 0.0012946274919769035
1432.0, 0.001141351701255875
1433.0, 0.0009682933533531115
1434.0, 0.0013134509888215135
1435.0, 0.0011697265548699792
1436.0, 0.0010043558281979076
1437.0, 0.0013939489229850977
1438.0, 0.0016924777227533975
1439.0, 0.0014866188708833365
1440.0, 0.000877309721857381
1441.0, 0.0014072367701813927
1442.0, 0.000960110176878851
1443.0, 0.0009560367883965736
1444.0, 0.0011743286880870946
1445.0, 0.0011801923034948085
1446.0, 0.0014949133737660089
1447.0, 0.0021543354566451378
1448.0, 0.0027242778926603924
1449.0, 0.0028600412451606043
1450.0, 0.0030808828616841768
1451.0, 0.002656723308069914
1452.0, 0.002713656459280243
1453.0, 0.0022174153600666565
1454.0, 0.002217236479205822
1455.0, 0.002766842487577894
1456.0, 0.002440952407314824
1457.0, 0.002787409070838293
1458.0, 0.002430832370870171
1459.0, 0.0017024416865078318
1460.0, 0.0018070800218670331
1461.0, 0.0023293210819687457
1462.0, 0.002971254003127856
1463.0, 0.0020631824094235023
1464.0, 0.0005755813471554765
1465.0, 0.0016134374799533278
1466.0, 0.0020171634124497174
1467.0, 0.0016932789530429845
1468.0, 0.002673200516168678
1469.0, 0.0014573777776543608
1470.0, 0.0018296594102418964
1471.0, 0.0013715716952682243
1472.0, 0.0006987851797246963
1473.0, 0.00034219625335127216
1474.0, 0.000752856219267614
1475.0, 0.0013662327571323351
1476.0, 0.00133665184081423
1477.0, 0.001001597847847421
1478.0, 0.0011675730531085563
1479.0, 0.0010315390547052695
1480.0, 0.0015048199373792804
1481.0, 0.0014980081974513167
1482.0, 0.0010725344968513682
1483.0, 0.0009615920114845587
1484.0, 0.0004591046868827854
1485.0, 0.00024349109121212203
1486.0, 0.0003413320991624151
1487.0, 0.0003386252764277732
1488.0, 0.00031201014850554124
1489.0, 0.00035464759733618196
1490.0, 0.0005677718971418848
1491.0, 0.0004069838468199247
1492.0, 0.0003869153449577671
1493.0, 0.00012414900823350664
1494.0, 0.00038185928694404016
1495.0, 0.0008486688451789973
1496.0, 0.0002443887788711908
1497.0, 0.00010756565895193068
1498.0, 0.0006195530113911988
1499.0, 0.00016595477743568848
1500.0, 0.0005461832253227481
1501.0, 0.0004894108593795863
1502.0, 6.428006426862352e-05
1503.0, 0.00024081698819359052
1504.0, 0.00041163306132682205
1505.0, 0.0004635532721650565
1506.0, 0.001092155015560237
1507.0, 0.00034506739053521426
1508.0, 0.0008315753801926952
1509.0, 0.0015303932915192284
1510.0, 0.0010677967426490542
1511.0, 0.0008778338632707764
1512.0, 0.000879663534816972
1513.0, 0.0006247525975808154
1514.0, 0.0003722958961815647
1515.0, 0.0003103438037052755
1516.0, 0.00017719097949816316
1517.0, 0.0004649318109497359
1518.0, 0.0008312987927608359
1519.0, 0.0006905167607588068
1520.0, 0.001056441222482055
1521.0, 0.001208617770297527
1522.0, 0.0003509471134186025
1523.0, 0.0005286338586091638
1524.0, 0.0006853467075109778
1525.0, 0.0003113166006824345
1526.0, 0.0011319420195893086
1527.0, 0.0017229123070224518
1528.0, 0.0009142844021142898
1529.0, 0.0007795818485901508
1530.0, 0.001213261990698661
1531.0, 0.0007052600064658547
1532.0, 0.0010865034119513467
1533.0, 0.0009692837768441683
1534.0, 0.000874473269563073
1535.0, 0.0010182195079756684
1536.0, 0.0005879542027127805
1537.0, 0.0012851056313332825
1538.0, 0.0014717346649015142
1539.0, 0.002113120201314084
1540.0, 0.0013235377946367035
1541.0, 0.0008999310946210897
1542.0, 0.00022317510074344542
1543.0, 0.0008472476994997777
1544.0, 0.0005491069477959913
1545.0, 0.0013021292714222512
1546.0, 0.0010529399027461013
1547.0, 0.0015287015962221994
1548.0, 0.001502609989664007
1549.0, 0.0005973391090855008
1550.0, 0.0006085052137577404
1551.0, 0.001233165414731049
1552.0, 0.0012407459254468415
1553.0, 0.00094957048617213
1554.0, 0.0010129844543564396
1555.0, 0.001118308091817407
1556.0, 0.0007827978980822734
1557.0, 0.0006504835836375305
1558.0, 0.0012674787509947393
1559.0, 0.001088901065227693
1560.0, 0.0002813520545578241
1561.0, 0.0007456216316067951
1562.0, 0.0004771049810360084
1563, 0.0
1564, 0.0
1565, 0.0
1566, 0.0
1567, 0.0
1568, 0.0
1569, 0.0
1570, 0.0
1571, 0.0
1572, 0.0
1573, 0.0
1574, 0.0
1575, 0.0
1576, 0.0
1577, 0.0
1578, 0.0
1579, 0.0
1580, 0.0
1581, 0.0
1582, 0.0
1583, 0.0
1584, 0.0
1585, 0.0
1586, 0.0
1587, 0.0
1588, 0.0
1589, 0.0
1590, 0.0
1591, 0.0
1592, 0.0
1593, 0.0
1594, 0.0
1595, 0.0
1596, 0.0
1597, 0.0
1598, 0.0
1599, 0.0
