30, 0.0
31, 0.0
32, 0.0
33, 0.0
34, 0.0
35, 0.0
36, 0.0
37, 0.0
38, 0.0
39, 0.0
40, 0.0
41, 0.0
42, 0.0
43, 0.0
44, 0.0
45, 0.0
46, 0.0
47, 0.0
48, 0.0
49, 0.0
50, 0.0
51, 0.0
52, 0.0
53, 0.0
54, 0.0
55, 0.0
56, 0.0
57, 0.0
58, 0.0
59, 0.0
60, 0.0
61, 0.0
62, 0.0
63, 0.0
64, 0.0
65, 0.0
66, 0.0
67, 0.0
68, 0.0
69, 0.0
70, 0.0
71, 0.0
72, 0.0
73, 0.0
74, 0.0
75, 0.0
76, 0.0
77, 0.0
78, 0.0
79, 0.0
80, 0.0
81, 0.0
82, 0.0
83, 0.0
84, 0.0
85, 0.0
86, 0.0
87, 0.0
88, 0.0
89, 0.0
90, 0.0
91, 0.0
92, 0.0
93, 0.0
94, 0.0
95, 0.0
96, 0.0
97, 0.0
98, 0.0
99, 0.0
100, 0.0
101, 0.0
102, 0.0
103, 0.0
104, 0.0
105, 0.0
106, 0.0
107, 0.0
108, 0.0
109, 0.0
110, 0.0
111, 0.0
112, 0.0
113, 0.0
114, 0.0
115, 0.0
116, 0.0
117, 0.0
118, 0.0
119, 0.0
120, 0.0
121, 0.0
122, 0.0
123, 0.0
124, 0.0
125, 0.0
126, 0.0
127, 0.0
128, 0.0
129, 0.0
130, 0.0
131, 0.0
132, 0.0
133, 0.0
134, 0.0
135, 0.0
136, 0.0
137, 0.0
138, 0.0
139, 0.0
140, 0.0
141, 0.0
142, 0.0
143, 0.0
144, 0.0
145, 0.0
146, 0.0
147, 0.0
148, 0.0
149, 0.0
150, 0.0
151, 0.0
152, 0.0
153, 0.0
154, 0.0
155, 0.0
156, 0.0
157, 0.0
158, 0.0
159, 0.0
160, 0.0
161, 0.0
162, 0.0
163, 0.0
164, 0.0
165, 0.0
166, 0.0
167, 0.0
168, 0.0
169, 0.0
170, 0.0
171, 0.0
172, 0.0
173, 0.0
174, 0.0
175, 0.0
176, 0.0
177, 0.0
178, 0.0
179, 0.0
180, 0.0
181, 0.0
182, 0.0
183, 0.0
184, 0.0
185, 0.0
186.0, 0.0013925715082341306
187.0, 0.0011920540131424506
188.0, 0.0015406188826130925
189.0, 0.004304896041528712
190.0, 0.006868686684257619
191.0, 0.009949621937046578
192.0, 0.012980431466974671
193.0, 0.015647516704791684
194.0, 0.018078441208099132
195.0, 0.02075200373371652
196.0, 0.022424485690637732
197.0, 0.02392412879890888
198.0, 0.025663070999629833
199.0, 0.027324172564406248
200.0, 0.028420657045371646
201.0, 0.028929255703293376
202.0, 0.028385634866331843
203.0, 0.028810275227574376
204.0, 0.026769085149294797
205.0, 0.022021631584191764
206.0, 0.019295838235728013
207.0, 0.013227124624588705
208.0, 0.014273951777954508
209.0, 0.01354130066859748
210.0, 0.012596525348083594
211.0, 0.015829880204974646
212.0, 0.014812129638698142
213.0, 0.01622004399029655
214.0, 0.01929262342782214
215.0, 0.02214349739500999
216.0, 0.02531887408051229
217.0, 0.03311000143575604
218.0, 0.03179131303775359
219.0, 0.03672615766160881
220.0, 0.040060791015920375
221.0, 0.042394854736886485
222.0, 0.04786059534884396
223.0, 0.05378874232208229
224.0, 0.061696998717043434
225.0, 0.06785563260360583
226.0, 0.07187780560584076
227.0, 0.07444722651787339
228.0, 0.07698104065232879
229.0, 0.08551243506673412
230.0, 0.08907057978305147
231.0, 0.0916279195205231
232.0, 0.09322218233334811
233.0, 0.09289065218188088
234.0, 0.09491453943143596
235.0, 0.09583676720493561
236.0, 0.0955678747465135
237.0, 0.09409039187231044
238.0, 0.0914293309790359
239.0, 0.0877702094026632
240.0, 0.08807247574186888
241.0, 0.08662494541555897
242.0, 0.08461943538797981
243.0, 0.08248792086022118
244.0, 0.08012595745763114
245.0, 0.0767247439455108
246.0, 0.07573694602641173
247.0, 0.07460369229168497
248.0, 0.07167463824338735
249.0, 0.068114162800916
250.0, 0.06721319942227197
251.0, 0.0644996544112989
252.0, 0.060181709952275585
253.0, 0.057197879601083815
254.0, 0.05364313962113609
255.0, 0.04908002086259252
256.0, 0.04996835096582372
257.0, 0.05111396218406856
258.0, 0.05011868639646223
259.0, 0.05414554914606102
260.0, 0.05751273262639613
261.0, 0.050299284223985795
262.0, 0.05334469625767683
263.0, 0.041643758832457814
264.0, 0.03249422133776025
265.0, 0.028256485763918884
266.0, 0.02714333106809567
267.0, 0.025521216825730005
268.0, 0.02460761490193571
269.0, 0.02381153949497081
270.0, 0.021840900242857918
271.0, 0.021547531581389046
272.0, 0.02405486092425803
273.0, 0.019965664946538543
274.0, 0.020034023504406168
275.0, 0.023055913783270803
276.0, 0.023528021969651085
277.0, 0.021197698295147373
278.0, 0.020202831353711197
279.0, 0.022095806335653317
280.0, 0.02523273803683127
281.0, 0.02630354604320368
282.0, 0.026926614412354256
283.0, 0.028468737148530737
284.0, 0.030217941184285575
285.0, 0.02927036989127581
286.0, 0.03348802680804814
287.0, 0.033478134740643935
288.0, 0.03259758260800454
289.0, 0.036043960624625934
290.0, 0.03894251275749592
291.0, 0.0422076110981264
292.0, 0.04633956236393065
293.0, 0.04802500913251987
294.0, 0.04942179141382351
295.0, 0.05466169855965274
296.0, 0.05604320905518615
297.0, 0.059911845520347826
298.0, 0.06057783168939622
299.0, 0.06163448052087088
300.0, 0.06388820912079123
301.0, 0.06358003543129007
302.0, 0.06275006948342397
303.0, 0.06288766169202518
304.0, 0.06317420194090421
305.0, 0.0635464217748518
306.0, 0.06371240087800895
307.0, 0.06262064156712341
308.0, 0.06060602000101718
309.0, 0.057508586681171675
310.0, 0.05745931846698318
311.0, 0.05704100299240149
312.0, 0.05307549689429276
313.0, 0.053930938235928094
314.0, 0.05424756889122255
315.0, 0.05300299130250611
316.0, 0.05169695499005491
317.0, 0.05090645361606008
318.0, 0.05025826080352926
319.0, 0.04877469201136945
320.0, 0.04893534621815524
321.0, 0.04884270444113576
322.0, 0.04877033775123041
323.0, 0.04898043416527677
324.0, 0.049279428934384105
325.0, 0.04807272698555402
326.0, 0.04819109318720673
327.0, 0.049191283129326364
328.0, 0.04866578403279629
329.0, 0.04730398327566497
330.0, 0.04976349514232618
331.0, 0.05034544887389501
332.0, 0.04926736160870387
333.0, 0.04902584669284995
334.0, 0.04996564416151103
335.0, 0.0510712150228676
336.0, 0.050420891239911024
337.0, 0.05465829740180535
338.0, 0.053977727714644555
339.0, 0.05189968631443391
340.0, 0.05266253147313321
341.0, 0.056817277780988315
342.0, 0.056447109031525826
343.0, 0.05698395140136548
344.0, 0.057004641804090365
345.0, 0.054906674063635356
346.0, 0.05329777961774139
347.0, 0.05423341107060221
348.0, 0.052191920878348765
349.0, 0.05202148196185676
350.0, 0.051997661663015664
351.0, 0.05355708307848926
352.0, 0.05507779991061917
353.0, 0.05401001651559198
354.0, 0.05119678422725595
355.0, 0.0536430393895455
356.0, 0.050579062354920046
357.0, 0.04748035608674624
358.0, 0.044996640199130584
359.0, 0.041214753323492725
360.0, 0.04138147672962827
361.0, 0.03483897378355197
362.0, 0.03609736977280466
363.0, 0.032675643715519564
364.0, 0.025371127455544762
365.0, 0.02396636611112038
366.0, 0.02309210332601657
367.0, 0.01992217935783932
368.0, 0.017404213193737278
369.0, 0.013847433975862354
370.0, 0.011095605857276867
371.0, 0.011527299948104065
372.0, 0.004151663416240906
373.0, 0.0036439980406822127
374.0, 0.00468106076252849
375.0, 0.005953886671343993
376.0, 0.005012380924280618
377.0, 0.0005979533715893702
378.0, 0.0032677161005247573
379.0, 0.0032142557426463013
380.0, 0.0025903045970673945
381.0, 0.002279877872781017
382.0, 0.0031116785281431643
383.0, 0.0050594811525016235
384.0, 0.0038549671741173086
385.0, 0.0024119391760210685
386.0, 0.0025277051624383474
387.0, 0.003613434396980813
388.0, 0.005075732078020172
389.0, 0.006862530986803704
390.0, 0.010250256625185944
391.0, 0.009588262921594114
392.0, 0.008592658963160475
393.0, 0.009358683397575963
394.0, 0.010151599387891187
395.0, 0.008391787202818687
396.0, 0.00933816622743983
397.0, 0.011007376592444707
398.0, 0.011765412869565063
399.0, 0.011768345218582539
400.0, 0.01104452467896279
401.0, 0.010648768106512108
402.0, 0.015851475137064037
403.0, 0.01162994622710481
404.0, 0.012162098559473014
405.0, 0.012197690763120491
406.0, 0.009853809522717024
407.0, 0.007467149009239876
408.0, 0.010989122736885824
409.0, 0.010156035342100501
410.0, 0.009978812004890997
411.0, 0.00992388382157609
412.0, 0.007016130453509212
413.0, 0.00149289745793622
414.0, 0.0029509719253426625
415.0, 0.0029515908029464416
416.0, 0.0048145983003810705
417.0, 0.0059687113756819975
418.0, 0.007994450810566442
419.0, 0.012689381181777978
420.0, 0.018842840988789605
421.0, 0.02185966374362637
422.0, 0.025297152369153465
423.0, 0.028255286367431433
424.0, 0.031179764098159514
425.0, 0.035256613219274986
426.0, 0.041199756061226896
427.0, 0.040078123364321004
428.0, 0.04379563953554468
429.0, 0.04587091005959208
430.0, 0.04896540549228819
431.0, 0.05216895597274983
432.0, 0.04994267879996791
433.0, 0.04583865971138513
434.0, 0.04618827068689577
435.0, 0.047308785966883836
436.0, 0.04640275903428806
437.0, 0.04363874867395096
438.0, 0.04143996490095631
439.0, 0.04154741222373724
440.0, 0.040021171191598884
441.0, 0.039019680587671364
442.0, 0.03851114273494167
443.0, 0.03792910144245585
444.0, 0.03739680850345583
445.0, 0.03923589699751932
446.0, 0.03871325841958688
447.0, 0.03775926718230289
448.0, 0.035133911373720676
449.0, 0.03439206115331731
450.0, 0.03763719945213597
451.0, 0.04142241260171102
452.0, 0.04622906531344312
453.0, 0.042900194642060574
454.0, 0.04548313116420065
455.0, 0.04809479001581228
456.0, 0.04732033564268324
457.0, 0.04805085246591359
458.0, 0.05188118363485236
459.0, 0.05826368710213368
460.0, 0.060673963554902524
461.0, 0.062439565186339065
462.0, 0.06478317280797348
463.0, 0.06676316877825511
464.0, 0.06914783692058077
465.0, 0.07164056992915388
466.0, 0.073687228705658
467.0, 0.07713044973208098
468.0, 0.07995853731748806
469.0, 0.08064099107649254
470.0, 0.08206378513877484
471.0, 0.08623869932284742
472.0, 0.08748825414036664
473.0, 0.09091430421994406
474.0, 0.09351586841170663
475.0, 0.09411804211352016
476.0, 0.09597122515817788
477.0, 0.10060210985547947
478.0, 0.09743456509950806
479.0, 0.09999717841033318
480.0, 0.10153111729884785
481.0, 0.10238216087090787
482.0, 0.1052007412684709
483.0, 0.10053338157755327
484.0, 0.09643745416805417
485.0, 0.09486100277500223
486.0, 0.0927382966544951
487.0, 0.0902803865693549
488.0, 0.0881310334946
489.0, 0.08552066942905444
490.0, 0.0821751599720816
491.0, 0.08253135923384082
492.0, 0.08058313610804324
493.0, 0.07920028768182893
494.0, 0.07816456999656331
495.0, 0.07564450245478715
496.0, 0.07854460561892627
497.0, 0.07785189052716958
498.0, 0.07613063369889735
499.0, 0.07533599937080301
500.0, 0.07471712651999214
501.0, 0.07484694403378857
502.0, 0.07961251754498383
503.0, 0.0787352603454981
504.0, 0.08292375369461143
505.0, 0.08433115108050017
506.0, 0.08668128313415106
507.0, 0.09139168584104834
508.0, 0.09567926215833095
509.0, 0.09785739286987505
510.0, 0.10659935493782458
511.0, 0.10936174627998697
512.0, 0.11510352983239638
513.0, 0.1215030035757468
514.0, 0.12474743876926027
515.0, 0.12814925584082787
516.0, 0.12962319678836745
517.0, 0.13271668870682446
518.0, 0.1360424794870504
519.0, 0.13955598781556283
520.0, 0.14278240362252856
521.0, 0.1441773173211346
522.0, 0.1406143354732597
523.0, 0.1429803029311766
524.0, 0.14073851243662813
525.0, 0.13948314661693736
526.0, 0.14073820327302847
527.0, 0.14200891543894475
528.0, 0.13888886932661088
529.0, 0.1331201671506461
530.0, 0.13362911264996463
531.0, 0.1275407209903948
532.0, 0.12442757557046283
533.0, 0.12318968599976941
534.0, 0.11829465464732018
535.0, 0.11635634813443745
536.0, 0.11472903924855814
537.0, 0.11524275496315184
538.0, 0.11149892157776012
539.0, 0.10537568040094669
540.0, 0.09987955145640885
541.0, 0.09658797744050233
542.0, 0.09788539852760564
543.0, 0.09635568634056432
544.0, 0.0921540766890688
545.0, 0.0893327896625197
546.0, 0.0876795884655803
547.0, 0.08513330621773436
548.0, 0.08123282759406426
549.0, 0.08350708014773045
550.0, 0.07822127375028623
551.0, 0.07277891536639741
552.0, 0.07038009683017689
553.0, 0.0691749453088117
554.0, 0.06606458372144432
555.0, 0.06261848654385171
556.0, 0.06501168624884121
557.0, 0.06594583834657067
558.0, 0.0655727229070473
559.0, 0.06662868779451661
560.0, 0.06964136998879587
561.0, 0.07221208202884073
562.0, 0.07174246336498562
563.0, 0.07316545140119236
564.0, 0.07434403567867927
565.0, 0.07444592073417698
566.0, 0.07405679079736842
567.0, 0.07436847557153639
568.0, 0.0753106917546738
569.0, 0.0698348559021338
570.0, 0.07239166514526969
571.0, 0.07182075710714433
572.0, 0.0691675138016838
573.0, 0.06825641378503307
574.0, 0.06933812945008824
575.0, 0.06732860822805355
576.0, 0.07238026299795655
577.0, 0.07339025695939158
578.0, 0.07463300006933048
579.0, 0.0756799142984825
580.0, 0.07741672891060183
581.0, 0.08028436149178923
582.0, 0.08206345013204627
583.0, 0.08915282923368112
584.0, 0.09606614588485002
585.0, 0.10052717508518588
586.0, 0.1054775313308125
587.0, 0.1121686071898504
588.0, 0.1209538530544836
589.0, 0.13475946436374014
590.0, 0.15170609519288433
591.0, 0.1585234784086007
592.0, 0.17292113742727686
593.0, 0.1957713168762489
594.0, 0.21560377913652
595.0, 0.2248482185997871
596.0, 0.24349512708790835
597.0, 0.267479050110627
598.0, 0.2920133620988308
599.0, 0.3196066326592888
600.0, 0.35145596936767776
601.0, 0.3889071312070846
602.0, 0.4301859931994983
603.0, 0.4637163063105886
604.0, 0.5123875177870577
605.0, 0.555301742053134
606.0, 0.6050633078900365
607.0, 0.6563452852676533
608.0, 0.7046987404870434
609.0, 0.7530754512319292
610.0, 0.8071961223906229
611.0, 0.856510017075069
612.0, 0.9026132246744731
613.0, 0.9378926253993383
614.0, 0.9674615266238978
615.0, 0.9893189808233006
616.0, 0.996563725202401
617.0, 0.9999831846383681
618.0, 0.996620112311988
619.0, 0.9765285106130972
620.0, 0.9518232969620634
621.0, 0.9199047282516813
622.0, 0.88171795629001
623.0, 0.8473065059409026
624.0, 0.829466953278522
625.0, 0.7867788013963383
626.0, 0.7441491457913838
627.0, 0.7153508043606179
628.0, 0.6912283438917619
629.0, 0.6687666881995853
630.0, 0.6510781312716041
631.0, 0.6286002271216479
632.0, 0.6048592280178015
633.0, 0.5840400746463933
634.0, 0.5639472984464012
635.0, 0.5451073119179288
636.0, 0.5262528537793962
637.0, 0.5100785105655833
638.0, 0.508655243592834
639.0, 0.47347461257218615
640.0, 0.45084436834360675
641.0, 0.446130935503198
642.0, 0.44048331612123676
643.0, 0.4275123073565237
644.0, 0.41697776517996643
645.0, 0.42276069009882955
646.0, 0.43179773002203586
647.0, 0.4572416250222158
648.0, 0.48204818298734264
649.0, 0.5142119173411795
650.0, 0.5560296480772288
651.0, 0.602177597917553
652.0, 0.6461689009869896
653.0, 0.6954135662070852
654.0, 0.7339678191916532
655.0, 0.7714391157154356
656.0, 0.80517463142302
657.0, 0.8311799803949986
658.0, 0.8453804200511597
659.0, 0.8462876823425489
660.0, 0.8416203501948271
661.0, 0.8266069383385004
662.0, 0.8015407260711233
663.0, 0.77255546062402
664.0, 0.7389230307546143
665.0, 0.7014078302143549
666.0, 0.6625105354609968
667.0, 0.6195112507088301
668.0, 0.5783958553877393
669.0, 0.5428548044229051
670.0, 0.5088604380500259
671.0, 0.4726855287319433
672.0, 0.4386141528724525
673.0, 0.4118784900927823
674.0, 0.387828319485217
675.0, 0.3553488242432855
676.0, 0.3398066936299006
677.0, 0.3182535842597409
678.0, 0.29725591075437136
679.0, 0.2778005877467218
680.0, 0.25931940822806343
681.0, 0.24428132756018944
682.0, 0.23025171376703552
683.0, 0.21778293873435614
684.0, 0.20404116577125966
685.0, 0.19487119969806624
686.0, 0.18496875755825562
687.0, 0.17648709749270658
688.0, 0.1735714425594372
689.0, 0.1605427786073435
690.0, 0.15483419330948808
691.0, 0.14753943807074132
692.0, 0.14115327965711189
693.0, 0.138501522993447
694.0, 0.1325083212966657
695.0, 0.12335972932128733
696.0, 0.1262679200942529
697.0, 0.12110184393001817
698.0, 0.11532874856714428
699.0, 0.11398599979063088
700.0, 0.10870291450230185
701.0, 0.1029041586341578
702.0, 0.09925103788092463
703.0, 0.09569948393099621
704.0, 0.09328337447309472
705.0, 0.088790005957944
706.0, 0.08330426246775134
707.0, 0.07974149452948562
708.0, 0.07666070599595289
709.0, 0.07285030958809423
710.0, 0.06903487745067122
711.0, 0.06700109536247359
712.0, 0.06404505033831948
713.0, 0.06111070278754546
714.0, 0.05546815094411126
715.0, 0.05315761277939042
716.0, 0.04999117105401694
717.0, 0.04692361241461526
718.0, 0.04821859010942197
719.0, 0.04654081759825587
720.0, 0.04861680819081992
721.0, 0.05210603557239859
722.0, 0.05223261982017751
723.0, 0.054472154039719826
724.0, 0.05812946065121413
725.0, 0.05958399263952786
726.0, 0.05881613166493116
727.0, 0.06238770569787429
728.0, 0.0658940627482209
729.0, 0.06895670145057554
730.0, 0.06844737021848137
731.0, 0.06715896855529926
732.0, 0.0660453098427128
733.0, 0.06450343412031738
734.0, 0.0628546780341942
735.0, 0.05502225685823352
736.0, 0.055007681335589004
737.0, 0.05004324971928207
738.0, 0.04612972465036804
739.0, 0.040691346576825826
740.0, 0.033751835091375616
741.0, 0.028958469077098987
742.0, 0.024070319362390357
743.0, 0.017752370376749142
744.0, 0.011912197285612002
745.0, 0.012233400379975149
746.0, 0.010028979803178085
747.0, 0.006726052145058233
748.0, 0.004939189651822
749.0, 0.00277334406678946
750.0, 0.0017089860902049967
751.0, 0.0029590802168187225
752.0, 0.004515374624201157
753.0, 0.0055270352690494125
754.0, 0.005768370427830357
755.0, 0.006066647902235872
756.0, 0.007788645371995659
757.0, 0.011079022662509777
758.0, 0.011756084277291018
759.0, 0.01062769448190553
760.0, 0.012566403236491287
761.0, 0.007050728074796169
762.0, 0.0059205201820082855
763.0, 0.009871373702127647
764.0, 0.01412524893668588
765.0, 0.01999119169367064
766.0, 0.017424458034100074
767.0, 0.016085772499357914
768.0, 0.015250276496234848
769.0, 0.016321075991383473
770.0, 0.017060784096499436
771.0, 0.016969229741956648
772.0, 0.016699428660297635
773.0, 0.015598257180089071
774.0, 0.01318698756087397
775.0, 0.012984690602316832
776.0, 0.009377392268506667
777.0, 0.010153672091290379
778.0, 0.008450582406238421
779.0, 0.005643410768175784
780.0, 0.005507645642374141
781.0, 0.0023881915231584935
782.0, 0.0010696578733238745
783.0, 0.0007875889938482838
784.0, 0.0063860173814933915
785.0, 0.00758037876699125
786.0, 0.010234044822140189
787.0, 0.015463251397519048
788.0, 0.019191243121529446
789.0, 0.021659886713113634
790.0, 0.030386229970985654
791.0, 0.034236237877191295
792.0, 0.036252002001812215
793.0, 0.04347391161398802
794.0, 0.05113427211132325
795.0, 0.057951303418953486
796.0, 0.06417234386267437
797.0, 0.06787036181305418
798.0, 0.0757772343371606
799.0, 0.07811695860929468
800.0, 0.08272265599914365
801.0, 0.09027384847313237
802.0, 0.09336861273909207
803.0, 0.09483156226666693
804.0, 0.09805676858648629
805.0, 0.09949221535282236
806.0, 0.10191959976667761
807.0, 0.10217176872177841
808.0, 0.10207530142203133
809.0, 0.10520801017189223
810.0, 0.10609680078927979
811.0, 0.10703059009516458
812.0, 0.10970180397183507
813.0, 0.11085582880812651
814.0, 0.11062173580713118
815.0, 0.11472866429380059
816.0, 0.11308895545267834
817.0, 0.11545210871676848
818.0, 0.12000956126002607
819.0, 0.12181410204073974
820.0, 0.12085164051603559
821.0, 0.12178736819510678
822.0, 0.126658838064752
823.0, 0.12865057942163513
824.0, 0.12986312206536604
825.0, 0.1326749265062288
826.0, 0.1364066095697194
827.0, 0.14006192913995183
828.0, 0.14383774743034147
829.0, 0.14809279061086902
830.0, 0.15236292274872357
831.0, 0.15729555253688215
832.0, 0.16257668178118295
833.0, 0.16779766961895937
834.0, 0.17529644566246994
835.0, 0.18448984094051132
836.0, 0.1921928558333739
837.0, 0.19786553629080034
838.0, 0.2037889910203233
839.0, 0.20955397140013096
840.0, 0.22262478094105334
841.0, 0.22514500739747367
842.0, 0.2359424180434539
843.0, 0.24368935677774797
844.0, 0.2502437674687686
845.0, 0.25690353269740235
846.0, 0.26246454049285917
847.0, 0.27004314136967694
848.0, 0.2833847672743976
849.0, 0.29043841411901206
850.0, 0.2954305779424454
851.0, 0.30249286868230835
852.0, 0.30704151734446533
853.0, 0.31106458880666993
854.0, 0.3184651076153587
855.0, 0.32681969366763364
856.0, 0.32795854839409716
857.0, 0.33570348953541884
858.0, 0.33827848090019424
859.0, 0.345661254263354
860.0, 0.346415913161527
861.0, 0.3479260485589392
862.0, 0.3500525221740708
863.0, 0.3499619044831372
864.0, 0.3528417334986999
865.0, 0.35168507382724595
866.0, 0.3526708718163156
867.0, 0.34988140048769656
868.0, 0.34723992606830334
869.0, 0.34384011551409915
870.0, 0.34068668246929207
871.0, 0.3379249466556198
872.0, 0.3333681331305032
873.0, 0.32654815097142326
874.0, 0.3299879042543246
875.0, 0.32299234573670793
876.0, 0.31950360054249516
877.0, 0.3190172148490477
878.0, 0.31872656726346865
879.0, 0.31854680425862764
880.0, 0.32017990812104674
881.0, 0.32494438168773543
882.0, 0.332594558357226
883.0, 0.3384703327988533
884.0, 0.3550623501130831
885.0, 0.3619038986296956
886.0, 0.3748593892087358
887.0, 0.38996234629000615
888.0, 0.40383768099822853
889.0, 0.4171409310676559
890.0, 0.43062134566421917
891.0, 0.4449670357917426
892.0, 0.4590356429820027
893.0, 0.47100825180431444
894.0, 0.4848536049499562
895.0, 0.5036892927512405
896.0, 0.5238440920183737
897.0, 0.5452545276370631
898.0, 0.5702190038446638
899.0, 0.5970053766196158
900.0, 0.6191744524439701
901.0, 0.6423577258628295
902.0, 0.6657166841914665
903.0, 0.6837677612115419
904.0, 0.7007001639390452
905.0, 0.7142846825912752
906.0, 0.7197368900623728
907.0, 0.7193113255579097
908.0, 0.7181833838968765
909.0, 0.7049701622890546
910.0, 0.6914263851257522
911.0, 0.6743663296148582
912.0, 0.6629969568357881
913.0, 0.6460535268787494
914.0, 0.6271969788302884
915.0, 0.6176388986873349
916.0, 0.6134476775489972
917.0, 0.596634255099033
918.0, 0.5714645961014833
919.0, 0.5675400483767251
920.0, 0.5597627194404006
921.0, 0.5474670726864329
922.0, 0.5493297672870133
923.0, 0.5518517740568415
924.0, 0.5472559091126844
925.0, 0.5466569304569325
926.0, 0.5571302996996497
927.0, 0.5545754073879027
928.0, 0.5436662900979105
929.0, 0.540334874030653
930.0, 0.5359948499667789
931.0, 0.5233624822777492
932.0, 0.5122823781347714
933.0, 0.4955068479321069
934.0, 0.47342395330995574
935.0, 0.4551403674265618
936.0, 0.43468092578757145
937.0, 0.41585144988691436
938.0, 0.3947426126250085
939.0, 0.37378181698410473
940.0, 0.355578362960112
941.0, 0.3383509751805356
942.0, 0.32249065695815016
943.0, 0.3079477851553005
944.0, 0.2942982176888537
945.0, 0.28217080281612333
946.0, 0.271335998460405
947.0, 0.26120569691188433
948.0, 0.25389143551009713
949.0, 0.2463551040273522
950.0, 0.24087781493062743
951.0, 0.23652307584855767
952.0, 0.23202153187894484
953.0, 0.2269650891353572
954.0, 0.2221588059150776
955.0, 0.21859997758287394
956.0, 0.21014216173548378
957.0, 0.206453341495259
958.0, 0.20116564756010338
959.0, 0.19440782652140334
960.0, 0.18626582393554345
961.0, 0.17998211655721166
962.0, 0.17482315833306408
963.0, 0.1682841740763669
964.0, 0.16226370581943306
965.0, 0.15917166332666915
966.0, 0.1539885931408376
967.0, 0.15054680609003793
968.0, 0.14406608818223945
969.0, 0.141939821257299
970.0, 0.1384830136210176
971.0, 0.13527807896731514
972.0, 0.13340086893234065
973.0, 0.13165162793284374
974.0, 0.13355944313813525
975.0, 0.12740792032756448
976.0, 0.13199388428881895
977.0, 0.12356092662643856
978.0, 0.12035386672007875
979.0, 0.1176237975071766
980.0, 0.11453256809232644
981.0, 0.11171748292891664
982.0, 0.10926392860932374
983.0, 0.10702724045266596
984.0, 0.10517250476157268
985.0, 0.10688747729282022
986.0, 0.10062701948675329
987.0, 0.09545441032830455
988.0, 0.09203762602870376
989.0, 0.09283592107184474
990.0, 0.09141091896848469
991.0, 0.08764012682677813
992.0, 0.08385019643952664
993.0, 0.0791880660061274
994.0, 0.07869333607760026
995.0, 0.07391195637621549
996.0, 0.07185129995210299
997.0, 0.07095587792718233
998.0, 0.06945443078635018
999.0, 0.06535004473119335
1000.0, 0.06354428834515571
1001.0, 0.06136383321222472
1002.0, 0.057763738257584546
1003.0, 0.058459816593729653
1004.0, 0.055377987773462714
1005.0, 0.050968386674640986
1006.0, 0.04842141035158128
1007.0, 0.046802859024720624
1008.0, 0.04349089037562442
1009.0, 0.044272656026522916
1010.0, 0.04428342841494301
1011.0, 0.04325809000155916
1012.0, 0.042265528160756426
1013.0, 0.03947167261971307
1014.0, 0.0406176922989269
1015.0, 0.03806483615604658
1016.0, 0.039272061406753385
1017.0, 0.03710269512486268
1018.0, 0.03584532279852623
1019.0, 0.03373898156950359
1020.0, 0.03278119189539104
1021.0, 0.03206085528645861
1022.0, 0.03064332918929319
1023.0, 0.029889747780646403
1024.0, 0.02902206249406958
1025.0, 0.028064972590224647
1026.0, 0.027611156275623085
1027.0, 0.026641741036741023
1028.0, 0.025143000015069545
1029.0, 0.024146706018966242
1030.0, 0.02465967328272343
1031.0, 0.02588337747249208
1032.0, 0.024971894564779128
1033.0, 0.023278759357263673
1034.0, 0.026195166358293706
1035.0, 0.02508188848329741
1036.0, 0.02276401764495236
1037.0, 0.026000091511196467
1038.0, 0.023559656270612787
1039.0, 0.023088697432514294
1040.0, 0.0283338463906413
1041.0, 0.02968565623809948
1042.0, 0.02649044667164262
1043.0, 0.02360387642015766
1044.0, 0.021818603583584218
1045.0, 0.02502386994376178
1046.0, 0.021052531505896727
1047.0, 0.026374784911529642
1048.0, 0.02330497809107682
1049.0, 0.022443629644321807
1050.0, 0.02040403557546413
1051.0, 0.018470017922025645
1052.0, 0.017651024574833904
1053.0, 0.017669590739614164
1054.0, 0.017105680567337064
1055.0, 0.01464377789376848
1056.0, 0.013754566163760409
1057.0, 0.016031464596040972
1058.0, 0.014772631279017338
1059.0, 0.015088282194755885
1060.0, 0.014053526005480144
1061.0, 0.01240088284085343
1062.0, 0.010696767363709243
1063.0, 0.011020317002455711
1064.0, 0.013195339091240621
1065.0, 0.01374775764346494
1066.0, 0.011869819243084556
1067.0, 0.012386055492372526
1068.0, 0.01048982192702947
1069.0, 0.00938777938015604
1070.0, 0.011175216831054264
1071.0, 0.009823805326709097
1072.0, 0.006637009478367873
1073.0, 0.006795903628854483
1074.0, 0.009643953021085585
1075.0, 0.008984621422452509
1076.0, 0.005178064944149449
1077.0, 0.0076942888826628635
1078.0, 0.007377723147078482
1079.0, 0.009211540201568459
1080.0, 0.01236091905502954
1081.0, 0.009278866070794384
1082.0, 0.010379518734148439
1083.0, 0.011439263624630696
1084.0, 0.00991547958960584
1085.0, 0.009764814023059924
1086.0, 0.010565325198141793
1087.0, 0.008804719916365037
1088.0, 0.008385746014461213
1089.0, 0.004056483196485196
1090.0, 0.0011194332784111303
1091.0, 0.0006801665778578172
1092.0, 0.0022379374144719417
1093.0, 0.0023718503091592594
1094.0, 0.0034492392718633146
1095.0, 0.0024255383118991242
1096.0, 0.002501946605885582
1097.0, 0.0035068994942279294
1098.0, 0.0032015805357238527
1099.0, 0.006139336449763186
1100.0, 0.00476678210244269
1101.0, 0.0031928028029634204
1102.0, 0.005552551237272287
1103.0, 0.0018515858235726742
1104.0, 0.0042784545080091635
1105.0, 0.0050001723155872375
1106.0, 0.00682014548803537
1107.0, 0.008176302051001118
1108.0, 0.005491863683418645
1109.0, 0.002970657657630596
1110.0, 0.005804608114899795
1111.0, 0.004985320728459532
1112.0, 0.0015897853771673265
1113.0, 0.003357575081834433
1114.0, 0.0010492121854804581
1115.0, 0.0035554213832711895
1116.0, 0.0021217386886990108
1117.0, 0.00231111376288142
1118.0, 0.0014916296825319042
1119.0, 0.00042264075165218234
1120.0, 0.0005079136069479138
1121.0, 0.00048198660141035294
1122.0, 0.0012419582754281113
1123.0, 0.0004717035887315793
1124.0, 0.0006375439779183334
1125.0, 0.002084873168643809
1126.0, 0.0030558962254161066
1127.0, 0.001103145085723018
1128.0, 0.0006318157394836567
1129.0, 0.0015525579791576072
1130.0, 0.0023563222861360308
1131.0, 0.0028516165838051665
1132.0, 0.0025121553985616918
1133.0, 0.0017994200233120493
1134.0, 0.003182486318273655
1135.0, 0.0010155933877734665
1136.0, 0.0005081366040832093
1137.0, 0.0012429791261646275
1138.0, 0.0003187640197442591
1139.0, 0.0010551467790851045
1140.0, 0.0019426028849313637
1141.0, 0.0014983976850960678
1142.0, 0.0016412096935369519
1143.0, 0.0015751616774994683
1144.0, 0.0014538622096608243
1145.0, 0.0025763080904567825
1146.0, 0.0011947865371397038
1147.0, 0.0012554626837538994
1148.0, 0.0010160389657190524
1149.0, 0.001012366185248718
1150.0, 0.0008012233703268701
1151.0, 0.0006267517203043623
1152.0, 0.000667636038168773
1153.0, 0.00035705625005680487
1154.0, 0.00026349540496054934
1155.0, 0.0002587897129273957
1156.0, 0.00037743072584731807
1157.0, 0.0011078403296878765
1158.0, 0.002027863020615548
1159.0, 0.0038885525029706495
1160.0, 0.006634858455693752
1161.0, 0.007177414218735801
1162.0, 0.0070185313015062615
1163.0, 0.005720060904079515
1164.0, 0.004485733911946153
1165.0, 0.00359948124361377
1166.0, 0.0031351369716985013
1167.0, 0.0049840816520632875
1168.0, 0.005911723317385795
1169.0, 0.0037840083865521763
1170.0, 0.003994596638631509
1171.0, 0.005014428393531155
1172.0, 0.0030677536528781364
1173.0, 0.0031105578173752433
1174.0, 0.0029167158825598523
1175.0, 0.0014560313537738544
1176.0, 0.004143924405639896
1177.0, 0.005418590438325335
1178.0, 0.007172050469018407
1179.0, 0.007246889522060714
1180.0, 0.009817860778867154
1181.0, 0.01222252556032395
1182.0, 0.008868626775023645
1183.0, 0.008380109401234733
1184.0, 0.0051915802968905125
1185.0, 0.008550045891677566
1186.0, 0.008109935617173977
1187.0, 0.007530422962756409
1188.0, 0.0049768449091163805
1189.0, 0.00533484794775708
1190.0, 0.008104902531965295
1191.0, 0.007896587869707442
1192.0, 0.006819556377460993
1193.0, 0.007918321664148908
1194.0, 0.008992305335484334
1195.0, 0.008035433519322512
1196.0, 0.007715765976674994
1197.0, 0.008190385874628638
1198.0, 0.008580395221995248
1199.0, 0.0065963998833471725
1200.0, 0.010813678447130652
1201.0, 0.009242736381979207
1202.0, 0.007436684296816386
1203.0, 0.009040377643940395
1204.0, 0.007642229778616945
1205.0, 0.007749351642329609
1206.0, 0.00901941500777995
1207.0, 0.009514241666574278
1208.0, 0.009920909964227684
1209.0, 0.007331376241452412
1210.0, 0.007381433714884973
1211.0, 0.006822735277079163
1212.0, 0.0102271899959572
1213.0, 0.009125523806188873
1214.0, 0.011090343733914215
1215.0, 0.010904146836488767
1216.0, 0.01002379955225916
1217.0, 0.011167732843466888
1218.0, 0.011328345851937751
1219.0, 0.011458127256731256
1220.0, 0.01142042523382618
1221.0, 0.009734567392703166
1222.0, 0.008020862288864073
1223.0, 0.007057733843763233
1224.0, 0.010536497155136085
1225.0, 0.007956961684990663
1226.0, 0.009964593320521875
1227.0, 0.008900374274005082
1228.0, 0.009024063998043624
1229.0, 0.007886944320012816
1230.0, 0.008756965731772466
1231.0, 0.009031175431183527
1232.0, 0.008108249316584609
1233.0, 0.007097921059362507
1234.0, 0.006602639016846374
1235.0, 0.0065801497170157345
1236.0, 0.006397830366617548
1237.0, 0.005479951858476333
1238.0, 0.0050751930783403025
1239.0, 0.005240331278385802
1240.0, 0.005679618876608376
1241.0, 0.004989805491483975
1242.0, 0.005189775722274253
1243.0, 0.005082188478306104
1244.0, 0.005476277263375513
1245.0, 0.004775041368164
1246.0, 0.004080704411225636
1247.0, 0.004482686251421263
1248.0, 0.005699199255524689
1249.0, 0.005631824979304179
1250.0, 0.004205977120505447
1251.0, 0.005914443915115112
1252.0, 0.004538506850720529
1253.0, 0.003748669673279772
1254.0, 0.004941923027842425
1255.0, 0.003960542214624993
1256.0, 0.0066219912217840345
1257.0, 0.004207846395534665
1258.0, 0.00294205326361614
1259.0, 0.004109100142898559
1260.0, 0.00458810911666723
1261.0, 0.00392475559277655
1262.0, 0.003138987328958222
1263.0, 0.003272186069539409
1264.0, 0.0040674994855850796
1265.0, 0.004167759026819667
1266.0, 0.005642770516507106
1267.0, 0.0033648319779718116
1268.0, 0.0037943332591951233
1269.0, 0.00648699565420693
1270.0, 0.0010307662645871298
1271.0, 0.0010356014472687849
1272.0, 0.002875929190274517
1273.0, 0.0012443396869265292
1274.0, 0.00113716176202951
1275.0, 0.0008864778182351875
1276.0, 0.001402718401790365
1277.0, 0.001792654495891157
1278.0, 0.0011651243347162938
1279.0, 0.002707739035666651
1280.0, 0.004625529668982675
1281.0, 0.004510653483188284
1282.0, 0.004574129183315368
1283.0, 0.004361257762660245
1284.0, 0.0028155920688085474
1285.0, 0.001649571924045312
1286.0, 0.0003584930012540453
1287.0, 0.00020228417608865522
1288.0, 0.0010650196058457281
1289.0, 0.0017909870455083932
1290.0, 0.001744631070986075
1291.0, 0.0013518272245172307
1292.0, 0.001238135136925802
1293.0, 0.0015451944892837155
1294.0, 0.002346261025337173
1295.0, 0.0033038756231364612
1296.0, 0.0031109283108018923
1297.0, 0.002920206415325826
1298.0, 0.0031998065625520084
1299.0, 0.0019034943580088616
1300.0, 0.001647153052517068
1301.0, 0.0025755193802471537
1302.0, 0.0019053411316001352
1303.0, 0.001636441001857711
1304.0, 0.0013525755527059426
1305.0, 0.0009292029150928054
1306.0, 0.0006595386563787707
1307.0, 0.003017463538421786
1308.0, 0.003812795500654139
1309.0, 0.002611510842253348
1310.0, 0.003328160215037764
1311.0, 0.002300041102748501
1312.0, 0.005774031693420074
1313.0, 0.0050186319820954275
1314.0, 0.0038470988093219026
1315.0, 0.002603419594335073
1316.0, 0.004467429055888729
1317.0, 0.0007037419868611196
1318.0, 0.004051174761424598
1319.0, 0.002686937032353922
1320.0, 0.0016113803973334527
1321.0, 0.002661192280257335
1322.0, 0.004480964942210222
1323.0, 0.003632267816537531
1324.0, 0.0015271853326679534
1325.0, 0.0025167711219804944
1326.0, 0.004850073980760608
1327.0, 0.004003636406110002
1328.0, 0.0030320159814786365
1329.0, 0.0043678919250461756
1330.0, 0.0007002285361186112
1331.0, 0.0019353164892773706
1332.0, 0.0024225794684665635
1333.0, 0.00406172820718484
1334.0, 0.0035802098416601526
1335.0, 0.0019025680006161919
1336.0, 0.004347384497782704
1337.0, 0.002263071308911633
1338.0, 0.0033369996427487243
1339.0, 0.004992013678561451
1340.0, 0.0038560427876847187
1341.0, 0.0034654906207919117
1342.0, 0.005771350694037169
1343.0, 0.0067973559617864904
1344.0, 0.006025420609546039
1345.0, 0.008782569697015808
1346.0, 0.005751109403728813
1347.0, 0.004194213402159965
1348.0, 0.0017018181822406962
1349.0, 0.0035307508739578783
1350.0, 0.0044577744988775325
1351.0, 0.005858890647360077
1352.0, 0.006413615785876197
1353.0, 0.006395768855197906
1354.0, 0.007010092810618915
1355.0, 0.005821027702027141
1356.0, 0.005449235218430419
1357.0, 0.005376234791867191
1358.0, 0.004063688136560206
1359.0, 0.003175536487400883
1360.0, 0.0030855130039209888
1361.0, 0.003057460938780179
1362.0, 0.0043821969805763455
1363.0, 0.004535405921648989
1364.0, 0.004914717373218962
1365.0, 0.00534041795215723
1366.0, 0.004654165121680448
1367.0, 0.0052871582005380524
1368.0, 0.0036426592105456776
1369.0, 0.005354146037834492
1370.0, 0.007727417838417633
1371.0, 0.008175735440140289
1372.0, 0.00811582774620924
1373.0, 0.007812567846858662
1374.0, 0.006276339322614929
1375.0, 0.004771769297611435
1376.0, 0.0033259881537312194
1377.0, 0.003970691407665055
1378.0, 0.00537730659723969
1379.0, 0.004364396091371318
1380.0, 0.004015189126292116
1381.0, 0.0022989308583096445
1382.0, 0.0019269467849366458
1383.0, 0.0049409914928114605
1384.0, 0.004795025370443977
1385.0, 0.0025602821868925926
1386.0, 0.005510621682504192
1387.0, 0.003214255401100358
1388.0, 0.005078327505008774
1389.0, 0.0040867381770651814
1390.0, 0.004720081140553878
1391.0, 0.0032635997967860467
1392.0, 0.0032436745335261614
1393.0, 0.003539400247166244
1394.0, 0.0027898631163817845
1395.0, 0.0025864389595119876
1396.0, 0.002003336277467605
1397.0, 0.0017030849380794623
1398.0, 0.003052067097423383
1399.0, 0.0031417811692721646
1400.0, 0.0031293196379872748
1401.0, 0.0027259627908664983
1402.0, 0.0036296579469912186
1403.0, 0.005555643820932861
1404.0, 0.003985176861817922
1405.0, 0.001460101537327957
1406.0, 0.005792350396222794
1407.0, 0.004558377347400402
1408.0, 0.0016190036767622432
1409.0, 0.0036088219554082004
1410.0, 0.005601657433892955
1411.0, 0.006461211607150823
1412.0, 0.0037391123902344447
1413.0, 0.0033640875972892523
1414.0, 0.003823307447580225
1415.0, 0.0031994102539799956
1416.0, 0.004181065170459215
1417.0, 0.00425955057759862
1418.0, 0.003062140254458148
1419.0, 0.004969294456417985
1420.0, 0.005504637982197639
1421.0, 0.006323137840782013
1422.0, 0.005342837196578818
1423.0, 0.00530621037360405
1424.0, 0.0073411736076932094
1425.0, 0.008048276643167835
1426.0, 0.006642286585048407
1427.0, 0.0080122265447502
1428.0, 0.004738444279570594
1429.0, 0.00500997714174582
1430.0, 0.004194661357890425
1431.0, 0.006344262885625219
1432.0, 0.004664472025549248
1433.0, 0.004506311620332454
1434.0, 0.005127264023339152
1435.0, 0.003287562710800981
1436.0, 0.0049199237807542855
1437.0, 0.005282564665046106
1438.0, 0.0036301000653189796
1439.0, 0.005031948111597794
1440.0, 0.003208696030283536
1441.0, 0.001645796020222643
1442.0, 0.004431206296342169
1443.0, 0.005981213902346772
1444.0, 0.0037636447643065226
1445.0, 0.0037800382685965143
1446.0, 0.005820457566341356
1447.0, 0.0015527302051941898
1448.0, 0.005767497198725491
1449.0, 0.0043539387565131645
1450.0, 0.006230174142961024
1451.0, 0.00482389617440102
1452.0, 0.0031715409678597624
1453.0, 0.007399689406388129
1454.0, 0.006158455758291393
1455.0, 0.00484666614383968
1456.0, 0.004359400965304839
1457.0, 0.0024402226907148648
1458.0, 0.002404174080412971
1459.0, 0.004139917197233185
1460.0, 0.003278639788743741
1461.0, 0.0016847040412609003
1462.0, 0.0016759241495977644
1463.0, 0.0007418462556485269
1464.0, 0.0015829903217485987
1465.0, 0.003564611152829905
1466.0, 0.0011715912364327883
1467.0, 0.002102105055877673
1468.0, 0.0036990222728106475
1469.0, 0.002633873635904172
1470.0, 0.006974010180165922
1471.0, 0.004094313292340587
1472.0, 0.005535486258958646
1473.0, 0.006082321511755041
1474.0, 0.0019965372416102063
1475.0, 0.004192365808907722
1476.0, 0.0029060269927141807
1477.0, 0.0007934599909352656
1478.0, 0.0006840278767187975
1479.0, 0.0017449261580882607
1480.0, 0.002824975520402069
1481.0, 0.004223074431032965
1482.0, 0.00394507653061601
1483.0, 0.001814995911400369
1484.0, 0.0012078083428224363
1485.0, 0.0021794876335833593
1486.0, 0.0019520411732915535
1487.0, 0.0015568669797584667
1488.0, 0.0026167918721916443
1489.0, 0.003589131637807414
1490.0, 0.0035850374199024567
1491.0, 0.0010025343975760613
1492.0, 0.0016085547535454297
1493.0, 0.0008239293128004946
1494.0, 0.004586262138197944
1495.0, 0.0009003032569104446
1496.0, 0.002984095840267471
1497.0, 0.0007567027113510279
1498.0, 0.0040917758414303436
1499.0, 0.0015481391390173955
1500.0, 0.0021107364829694615
1501.0, 0.0030983726420347516
1502.0, 0.0007281902292057026
1503.0, 0.0021045588758680633
1504.0, 0.0023555524766437222
1505.0, 0.0021271031822988943
1506.0, 0.0032327946810059324
1507.0, 0.0036481238979550403
1508.0, 0.003921820635842218
1509.0, 0.003680134012932822
1510.0, 0.004110246634212634
1511.0, 0.004240795349157668
1512.0, 0.00222945612841711
1513.0, 0.002035711199027065
1514.0, 0.0036811479436385363
1515.0, 0.002869756973470554
1516.0, 0.0024043490869604515
1517.0, 0.001733603840480681
1518.0, 0.0006787202955103153
1519.0, 0.002190579706107241
1520.0, 0.0020945004575661725
1521.0, 0.0012266417160526994
1522.0, 0.004208532650222477
1523.0, 0.004183999111258984
1524.0, 0.0014151288244153705
1525.0, 0.005415485663962147
1526.0, 0.0025278976649391076
1527.0, 0.0026763355627151464
1528.0, 0.0015723624840313821
1529.0, 0.002393719452184114
1530.0, 0.004087469560485685
1531.0, 0.001112805492151045
1532.0, 0.0022981480844215937
1533.0, 0.0015452461692223734
1534.0, 0.0017461234830010784
1535.0, 0.0009739261941256756
1536.0, 0.0017996105130075593
1537.0, 0.003712618935591047
1538.0, 0.0046927771260486814
1539.0, 0.0025400940603288917
1540.0, 0.0012999873259777767
1541.0, 0.0019804976228318455
1542.0, 0.0012842126172643972
1543.0, 0.0019573663333101446
1544.0, 0.002392761900040073
1545.0, 0.0009706244422239428
1546.0, 0.002709849406639506
1547.0, 0.0031947843388840636
1548.0, 0.003893449574339772
1549.0, 0.0028382746993007245
1550.0, 0.002844175990581575
1551.0, 0.0045736689468658005
1552.0, 0.0049981007323646595
1553.0, 0.0037202473918667486
1554.0, 0.004767507034325977
1555.0, 0.00092671019840156
1556.0, 0.0016521435985181858
1557.0, 0.00432520852856721
1558.0, 0.0030276458187913705
1559.0, 0.00424696089023196
1560.0, 0.004626028587329225
1561.0, 0.0007037138994362517
1562.0, 0.0033294987679344133
1563.0, 0.0009524169831816884
1564.0, 3.767896097811783e-05
1565, 0.0
1566, 0.0
1567, 0.0
1568, 0.0
1569, 0.0
1570, 0.0
1571, 0.0
1572, 0.0
1573, 0.0
1574, 0.0
1575, 0.0
1576, 0.0
1577, 0.0
1578, 0.0
1579, 0.0
1580, 0.0
1581, 0.0
1582, 0.0
1583, 0.0
1584, 0.0
1585, 0.0
1586, 0.0
1587, 0.0
1588, 0.0
1589, 0.0
1590, 0.0
1591, 0.0
1592, 0.0
1593, 0.0
1594, 0.0
1595, 0.0
1596, 0.0
1597, 0.0
1598, 0.0
1599, 0.0
