30, 0.0
31, 0.0
32, 0.0
33, 0.0
34, 0.0
35, 0.0
36, 0.0
37, 0.0
38, 0.0
39, 0.0
40, 0.0
41, 0.0
42, 0.0
43, 0.0
44, 0.0
45, 0.0
46, 0.0
47, 0.0
48, 0.0
49, 0.0
50, 0.0
51, 0.0
52, 0.0
53, 0.0
54, 0.0
55, 0.0
56, 0.0
57, 0.0
58, 0.0
59, 0.0
60, 0.0
61, 0.0
62, 0.0
63, 0.0
64, 0.0
65, 0.0
66, 0.0
67, 0.0
68, 0.0
69, 0.0
70, 0.0
71, 0.0
72, 0.0
73, 0.0
74, 0.0
75, 0.0
76, 0.0
77, 0.0
78, 0.0
79, 0.0
80, 0.0
81, 0.0
82, 0.0
83, 0.0
84, 0.0
85, 0.0
86, 0.0
87, 0.0
88, 0.0
89, 0.0
90, 0.0
91, 0.0
92, 0.0
93, 0.0
94, 0.0
95, 0.0
96, 0.0
97, 0.0
98, 0.0
99, 0.0
100, 0.0
101, 0.0
102, 0.0
103, 0.0
104, 0.0
105, 0.0
106, 0.0
107, 0.0
108, 0.0
109, 0.0
110, 0.0
111, 0.0
112, 0.0
113, 0.0
114, 0.0
115, 0.0
116, 0.0
117, 0.0
118, 0.0
119, 0.0
120, 0.0
121, 0.0
122, 0.0
123, 0.0
124, 0.0
125, 0.0
126, 0.0
127, 0.0
128, 0.0
129, 0.0
130, 0.0
131, 0.0
132, 0.0
133, 0.0
134, 0.0
135, 0.0
136, 0.0
137, 0.0
138, 0.0
139, 0.0
140, 0.0
141, 0.0
142, 0.0
143, 0.0
144, 0.0
145, 0.0
146, 0.0
147, 0.0
148, 0.0
149, 0.0
150, 0.0
151, 0.0
152, 0.0
153, 0.0
154, 0.0
155, 0.0
156, 0.0
157, 0.0
158, 0.0
159, 0.0
160, 0.0
161, 0.0
162, 0.0
163, 0.0
164, 0.0
165, 0.0
166, 0.0
167, 0.0
168, 0.0
169, 0.0
170, 0.0
171, 0.0
172, 0.0
173, 0.0
174, 0.0
175, 0.0
176, 0.0
177, 0.0
178, 0.0
179, 0.0
180, 0.0
181, 0.0
182, 0.0
183, 0.0
184, 0.0
185, 0.0
186, 0.0
187, 0.0
188, 0.0
189, 0.0
190, 0.0
191, 0.0
192, 0.0
193, 0.0
194, 0.0
195, 0.0
196, 0.0
197, 0.0
198, 0.0
199, 0.0
200, 0.0
201, 0.0
202, 0.0
203, 0.0
204.0, 0.00015643293664525565
205.0, 0.0031711515382872027
206.0, 0.010224259461173724
207.0, 0.017440659009550843
208.0, 0.022105897638513422
209.0, 0.026362492355266682
210.0, 0.02533954787729659
211.0, 0.022613227750264336
212.0, 0.02170238528441027
213.0, 0.019645960686391847
214.0, 0.017651234120675516
215.0, 0.01593808315935543
216.0, 0.014777217879007038
217.0, 0.014933896955513507
218.0, 0.019346268323764716
219.0, 0.02139376110505542
220.0, 0.02196742150021178
221.0, 0.023746236559657827
222.0, 0.02494616920925725
223.0, 0.026998612504867625
224.0, 0.028748430765355215
225.0, 0.029576330015441084
226.0, 0.029910702069783215
227.0, 0.029268305025206855
228.0, 0.02928599482133656
229.0, 0.02950850120476158
230.0, 0.028789486597397305
231.0, 0.027083037430074525
232.0, 0.026769167702130323
233.0, 0.025819912180293385
234.0, 0.024203147271444864
235.0, 0.02458779170257335
236.0, 0.025700328559259255
237.0, 0.02781754396503945
238.0, 0.031085993454088513
239.0, 0.035014790839180084
240.0, 0.03741063575751631
241.0, 0.04058259964373367
242.0, 0.042663935817185396
243.0, 0.04396961647201297
244.0, 0.045989284306161234
245.0, 0.046437644872641355
246.0, 0.04721462467373906
247.0, 0.04902483540105542
248.0, 0.04989228247083163
249.0, 0.04547775198536717
250.0, 0.04206118433044313
251.0, 0.040434509445821706
252.0, 0.03878286717136334
253.0, 0.03615275736902359
254.0, 0.03801658343094648
255.0, 0.036737949196164674
256.0, 0.03308120416558326
257.0, 0.03107051171071593
258.0, 0.03201088562756239
259.0, 0.029853967703387767
260.0, 0.02590733154060474
261.0, 0.022333843915257653
262.0, 0.020262038609438784
263.0, 0.016910994413866277
264.0, 0.015537663277474276
265.0, 0.014291749695075897
266.0, 0.012582927988868982
267.0, 0.014237740384955271
268.0, 0.012278093929931061
269.0, 0.009441625489031507
270.0, 0.006555493658405858
271.0, 0.003181123160522306
272.0, 0.002792042247195877
273.0, 0.0012675945457424399
274.0, 0.0015709582115477094
275.0, 0.0035343269232441694
276.0, 0.001644912850396188
277.0, 0.00022827438155420508
278.0, 0.0011746492422322202
279.0, 0.001074061577541226
280.0, 0.00017818981406128397
281.0, 0.001016901757828297
282.0, 0.0022979677319436647
283.0, 0.003090798439438349
284.0, 0.0029970929018250047
285.0, 0.0017814751248255243
286.0, 0.0013128749402310487
287.0, 0.001425406880227572
288.0, 0.0013565374238876297
289.0, 0.0013754719729338013
290.0, 0.0029745558706469138
291.0, 0.0010196747367276176
292.0, 0.00014474921326525103
293.0, 0.0006324910321143585
294.0, 0.0005076024454329091
295.0, 0.0002612986383823875
296.0, 0.00042578734882379
297.0, 0.0008725349878009192
298.0, 0.0007108391666821994
299.0, 0.0006129923165183666
300.0, 0.0011717748552369162
301.0, 0.0024964637151439874
302.0, 0.0044171722318187435
303.0, 0.00554937053514831
304.0, 0.0044985446271253405
305.0, 0.006689988095976222
306.0, 0.008191010035559602
307.0, 0.00957035115598743
308.0, 0.012432690539623316
309.0, 0.01395865713340726
310.0, 0.014293499951581691
311.0, 0.014587544986158833
312.0, 0.015305178904026025
313.0, 0.01599846637696366
314.0, 0.014695813101934544
315.0, 0.01693479699109733
316.0, 0.017523927789596244
317.0, 0.015387386147458649
318.0, 0.015797572932322184
319.0, 0.016202906805684543
320.0, 0.014628049978198452
321.0, 0.013967407465687677
322.0, 0.015611215410078677
323.0, 0.01504324028696101
324.0, 0.015072572525468723
325.0, 0.013986550809852014
326.0, 0.013903615056900237
327.0, 0.0167840766780804
328.0, 0.016432273457396954
329.0, 0.015095086085933115
330.0, 0.015371372527587074
331.0, 0.01707475231241957
332.0, 0.017717784251802215
333.0, 0.012530418470307099
334.0, 0.012050715956560168
335.0, 0.014764580476871243
336.0, 0.0158656173105302
337.0, 0.013306049018015962
338.0, 0.013482979303025482
339.0, 0.014643805796438725
340.0, 0.01539357795759544
341.0, 0.01583847386739748
342.0, 0.017133794664710766
343.0, 0.015572747361582118
344.0, 0.016046033616291113
345.0, 0.017958161962682077
346.0, 0.0191985968498826
347.0, 0.02157987716698879
348.0, 0.02234744464198041
349.0, 0.024774437401584533
350.0, 0.027265153880974786
351.0, 0.02666601272114958
352.0, 0.027332678568066333
353.0, 0.029592840268490034
354.0, 0.03414633407349755
355.0, 0.03882073723025278
356.0, 0.04052301967735247
357.0, 0.04219220271043464
358.0, 0.046279460000878056
359.0, 0.051500612121407406
360.0, 0.055166467029843944
361.0, 0.05596482406303175
362.0, 0.06018188028000352
363.0, 0.06523232252385394
364.0, 0.06764688823335784
365.0, 0.06843170853322916
366.0, 0.07222515274634346
367.0, 0.07491548478578047
368.0, 0.0726211246985785
369.0, 0.06576865128816782
370.0, 0.05841129555331629
371.0, 0.058487542282119546
372.0, 0.05414630357722219
373.0, 0.04975990636980676
374.0, 0.04400196329571258
375.0, 0.03646987788573108
376.0, 0.034067035155231996
377.0, 0.030662037889862152
378.0, 0.02713080939132313
379.0, 0.024735892646744886
380.0, 0.023121965231559696
381.0, 0.020116170656059796
382.0, 0.014837304673608451
383.0, 0.010744703385328479
384.0, 0.009493188650072265
385.0, 0.009721118442794288
386.0, 0.007081187989591434
387.0, 0.00684431710215867
388.0, 0.005620867968940455
389.0, 0.004305362619321553
390.0, 0.005037073814187018
391.0, 0.0036576699060685944
392.0, 0.004193964699137629
393.0, 0.002691445733135171
394.0, 0.0006150815279197179
395.0, 0.0012339882429533047
396.0, 0.0007461470448460278
397.0, 0.00011930061546697968
398.0, 0.00011122998899407566
399.0, 0.00011045874547461722
400.0, 0.0004391865691116186
401.0, 0.0010424515149653594
402.0, 0.00037192955783655295
403.0, 0.000561780402391612
404.0, 0.001112076195917107
405.0, 0.0031022269285102028
406.0, 0.0020848842013519394
407.0, 0.0019633195252223897
408.0, 0.005567086601777336
409.0, 0.009592356634156689
410.0, 0.009850377512757611
411.0, 0.012053107138348599
412.0, 0.013846120323945046
413.0, 0.016717175431550994
414.0, 0.019280814735913088
415.0, 0.019305856033228257
416.0, 0.019811590350206958
417.0, 0.025454658522050904
418.0, 0.029750757817922323
419.0, 0.029653082723738275
420.0, 0.027712089779083928
421.0, 0.02881725046804363
422.0, 0.030194451249865625
423.0, 0.03202044315269808
424.0, 0.03323243425401919
425.0, 0.0324771859332618
426.0, 0.030005802348314983
427.0, 0.028920602978800326
428.0, 0.02889531927443422
429.0, 0.030099189343002458
430.0, 0.0322719820725577
431.0, 0.03281267791535326
432.0, 0.029491540449622714
433.0, 0.03047522200965571
434.0, 0.03407483034645487
435.0, 0.035353206501528865
436.0, 0.03584979246842809
437.0, 0.041674324245380194
438.0, 0.0458563588361424
439.0, 0.047293997195272594
440.0, 0.04977148262200425
441.0, 0.056871376072733806
442.0, 0.06187460154323377
443.0, 0.06524449188697826
444.0, 0.06987320067291962
445.0, 0.07632829389016532
446.0, 0.08136794150771212
447.0, 0.08203091375119333
448.0, 0.08518283200069934
449.0, 0.08898352982502
450.0, 0.09168757644676749
451.0, 0.09407870117185199
452.0, 0.0948474347912425
453.0, 0.09410573730303724
454.0, 0.09160183463993349
455.0, 0.0884158751596073
456.0, 0.0861252114741831
457.0, 0.08272352122004516
458.0, 0.07621990465524618
459.0, 0.07129400875085444
460.0, 0.06575106005618424
461.0, 0.05628043275566646
462.0, 0.052068665714761986
463.0, 0.04711085167206418
464.0, 0.0457380851003955
465.0, 0.044105739070369264
466.0, 0.03796311524789448
467.0, 0.03317020101459976
468.0, 0.030283786618691456
469.0, 0.030106188498179386
470.0, 0.029335925703002697
471.0, 0.0269830850438008
472.0, 0.02739192065829152
473.0, 0.02472738615877594
474.0, 0.02383192363624604
475.0, 0.023512295933938405
476.0, 0.02204853982172419
477.0, 0.020528071924903735
478.0, 0.01919854750857414
479.0, 0.01634203021668737
480.0, 0.01562973973693231
481.0, 0.015453563598154122
482.0, 0.01152980206067984
483.0, 0.008323015324812858
484.0, 0.004650946778876697
485.0, 0.004283951958383197
486.0, 0.0034438117832456664
487.0, 0.0005230645519947832
488.0, 0.002317372999837138
489.0, 0.0024900962084480967
490.0, 0.0026308115610605854
491.0, 0.0019190808631182818
492.0, 3.1698870338238965e-05
493.0, 0.00016000184628341138
494.0, 0.0009904950473170716
495.0, 0.003459491113983884
496.0, 0.0030362742103867365
497.0, 0.0003884146318911703
498.0, 0.0004090857022760298
499.0, 0.000485951090329247
500.0, 0.0004026873184758971
501.0, 0.0006715954538123227
502.0, 0.00022026436962464786
503.0, 0.002250956769775759
504.0, 6.405196872211059e-05
505.0, 2.1708128452974687e-05
506.0, 7.896608582550914e-05
507.0, 0.0007684674976762241
508.0, 0.0023073083019296494
509.0, 0.000527365769776362
510.0, 0.0012761898803168724
511.0, 0.0019557249189974244
512.0, 0.0005643356799417466
513.0, 0.0005222889139324369
514.0, 0.0011149863315435466
515.0, 0.0005020847719670252
516.0, 0.0009955202376655751
517.0, 0.0009773970985351421
518.0, 0.002333338732954382
519.0, 0.00044596987025615284
520.0, 0.0009611678780145653
521.0, 0.0010241877698502274
522.0, 0.0003218782963438495
523.0, 0.0009737348535291499
524.0, 0.0015254872107308085
525.0, 0.0015390968614068432
526.0, 0.0012187613382037572
527.0, 0.0024017498985933524
528.0, 0.0035625164727953952
529.0, 0.0035118539864194285
530.0, 0.0024250729544038003
531.0, 0.0010165947743301315
532.0, 0.0015215822868976418
533.0, 0.0029470147052465595
534.0, 0.00391748736978795
535.0, 0.0038520644396276647
536.0, 0.003588658375654112
537.0, 0.005712718500920005
538.0, 0.0058459697650806944
539.0, 0.0059834167010164715
540.0, 0.006402758838098646
541.0, 0.0059773465630217106
542.0, 0.006080838005423521
543.0, 0.004500996665717076
544.0, 0.003939168020501618
545.0, 0.004584617053469499
546.0, 0.005556349730967692
547.0, 0.005969782739869405
548.0, 0.0060261159647349615
549.0, 0.007843210339640262
550.0, 0.008853192169809707
551.0, 0.008924767782105315
552.0, 0.009974015251022107
553.0, 0.012448005576934519
554.0, 0.010231942734652978
555.0, 0.008785834367328013
556.0, 0.009206526190821355
557.0, 0.009868767854840917
558.0, 0.010015843033902091
559.0, 0.011437483404785084
560.0, 0.012770286152618575
561.0, 0.012217812399482575
562.0, 0.01265163521180801
563.0, 0.01445460211578863
564.0, 0.011525123070821706
565.0, 0.012622499413543625
566.0, 0.01363216816386424
567.0, 0.014261478569545502
568.0, 0.01450272601827167
569.0, 0.014042199395967965
570.0, 0.014721033770134097
571.0, 0.01734276081869132
572.0, 0.01696999281447575
573.0, 0.015735502044151067
574.0, 0.016311005143393613
575.0, 0.01738379588172082
576.0, 0.01888281367728623
577.0, 0.01945323139508858
578.0, 0.019400822508722687
579.0, 0.020174018957573103
580.0, 0.022268249342601645
581.0, 0.023908066155947295
582.0, 0.025281636733776883
583.0, 0.028977753306560036
584.0, 0.030926435106644307
585.0, 0.03166198186928685
586.0, 0.03561161815952988
587.0, 0.03989910940119749
588.0, 0.039354307633278816
589.0, 0.0399533719387395
590.0, 0.041442574173341185
591.0, 0.04245813428937718
592.0, 0.04415371051880407
593.0, 0.045129791923424395
594.0, 0.047132925451754654
595.0, 0.04784799522204207
596.0, 0.04820112953692267
597.0, 0.050307844279975346
598.0, 0.053676721150608904
599.0, 0.05523703945717321
600.0, 0.055984109625953356
601.0, 0.058043412821276064
602.0, 0.06214790106209822
603.0, 0.0670225320545952
604.0, 0.07030214299026824
605.0, 0.0767900237270746
606.0, 0.08296272213076487
607.0, 0.09192497940345101
608.0, 0.10276226209288776
609.0, 0.11262118324767573
610.0, 0.12812692536584724
611.0, 0.1412207549581754
612.0, 0.15602606885281176
613.0, 0.17501916998355174
614.0, 0.19773407495766668
615.0, 0.22089963041333063
616.0, 0.24572184160008162
617.0, 0.2804225018491988
618.0, 0.3175168992445149
619.0, 0.35399727858800795
620.0, 0.39394860513717955
621.0, 0.43820839083168084
622.0, 0.4767782344402777
623.0, 0.5068753376991703
624.0, 0.5217622636581627
625.0, 0.5160778651938134
626.0, 0.48693383112508554
627.0, 0.43363793022727876
628.0, 0.3658039114539576
629.0, 0.30093067703587495
630.0, 0.2417277327143739
631.0, 0.19361288664118106
632.0, 0.15772522992220814
633.0, 0.12626502892966812
634.0, 0.10413641348406581
635.0, 0.08797330869951686
636.0, 0.07473807122009822
637.0, 0.06327285747510271
638.0, 0.05360836483367483
639.0, 0.0457072136619203
640.0, 0.037172582443635215
641.0, 0.03413841662021962
642.0, 0.03314401601810495
643.0, 0.02961427337958388
644.0, 0.024525992626124298
645.0, 0.02325898221279365
646.0, 0.02065942498563921
647.0, 0.020039449275179852
648.0, 0.021551127003291617
649.0, 0.023238494221323475
650.0, 0.023756730198934282
651.0, 0.023760912634676543
652.0, 0.02279625119221798
653.0, 0.023166360613079476
654.0, 0.022220504705252192
655.0, 0.02189834096614023
656.0, 0.022844345542898596
657.0, 0.018642415828070594
658.0, 0.0166631162710024
659.0, 0.014644201486187702
660.0, 0.011534636067512236
661.0, 0.007476215777700079
662.0, 0.0033033432421530886
663.0, 0.0008888108506303543
664.0, 0.0033430551153176735
665.0, 0.0015954456110057816
666.0, 0.0008264231803365221
667.0, 0.0006985876476625417
668.0, 0.0017441567910117138
669.0, 0.004589024980078184
670.0, 0.0012086593832657138
671.0, 0.0013475412836141207
672.0, 0.0024119366406730293
673.0, 0.0008706973147171228
674.0, 0.0019136881486055313
675.0, 0.0005435270356194342
676.0, 0.0008255297696512803
677.0, 8.578608435222729e-05
678.0, 0.0005694626752888959
679.0, 0.0012868047166183227
680.0, 0.0014833277756775387
681.0, 0.001686887748264964
682.0, 0.0013586377616413231
683.0, 0.00044566099880817816
684.0, 0.001444852961858588
685.0, 0.002945675060998142
686.0, 0.001720672319011216
687.0, 9.693035287628961e-05
688.0, 0.0029480488865323874
689.0, 0.004005571502666343
690.0, 0.006174640401702063
691.0, 0.007817631522246002
692.0, 0.0071165353603491925
693.0, 0.005896730951256491
694.0, 0.00799264939326669
695.0, 0.004733171185226254
696.0, 0.006069558637738183
697.0, 0.007011204711174413
698.0, 0.005508433944793493
699.0, 0.004669552265743185
700.0, 0.005497797601493214
701.0, 0.004317081990930964
702.0, 0.0027648586191649322
703.0, 0.002581016793252218
704.0, 0.0028043263360896364
705.0, 0.0030156021339916065
706.0, 0.00449803578589444
707.0, 0.006645329387329339
708.0, 0.009952281334011931
709.0, 0.006501240095892376
710.0, 0.003518490015417467
711.0, 0.003858585456349681
712.0, 0.0026684575534454266
713.0, 0.0019442981913512247
714.0, 0.0030177896285683106
715.0, 0.0012370592435528211
716.0, 0.0017926774746529765
717.0, 0.0021399027695317313
718.0, 0.00032151998584044203
719.0, 0.0027998733033276603
720.0, 0.0041252926802654525
721.0, 0.00599639425690322
722.0, 0.005678540891982331
723.0, 0.005074404181821033
724.0, 0.006213847232095404
725.0, 0.006947413719322296
726.0, 0.0035321459385229768
727.0, 0.005641603806243653
728.0, 0.005374135934011987
729.0, 0.002856552055732027
730.0, 0.0006557697679546871
731.0, 0.0005480231275362535
732.0, 0.004243547593521653
733.0, 0.0007195044962806406
734.0, 0.0021268134788725995
735.0, 0.003031260581249287
736.0, 0.0019646629526280392
737.0, 0.001828956164869222
738.0, 0.0037298151018771023
739.0, 0.0032689006677820934
740.0, 0.004490583104504013
741.0, 0.0012726066322955208
742.0, 0.0007287097086453804
743.0, 0.0015415910753239428
744.0, 0.0020765070030121305
745.0, 0.002142684800398328
746.0, 0.004196465301739804
747.0, 0.004331273708617363
748.0, 0.005787630447526684
749.0, 0.004784063608498621
750.0, 0.0018261371065485387
751.0, 0.0031377395539589647
752.0, 0.004248725221998987
753.0, 0.0009948785275161129
754.0, 0.0017251049343807853
755.0, 0.0005298935950842159
756.0, 0.0011193133923434232
757.0, 0.0007717929003175597
758.0, 0.0011461167973257236
759.0, 0.0009973219210538075
760.0, 0.001074623717981808
761.0, 0.0031871365243380423
762.0, 0.0033033926245970235
763.0, 0.002620583770935017
764.0, 0.0030820795340680057
765.0, 0.004481359430818955
766.0, 0.005843888842170112
767.0, 0.006003884811330592
768.0, 0.005910624036076991
769.0, 0.004232114184634102
770.0, 0.004047157402558058
771.0, 0.007502316981177963
772.0, 0.0036195548046537205
773.0, 0.0047446687253093565
774.0, 0.006395209226329039
775.0, 0.005965816732822639
776.0, 0.004916554536210942
777.0, 0.005977548535906458
778.0, 0.007875229134305616
779.0, 0.005644364916375688
780.0, 0.003418506848910807
781.0, 0.002640021387027727
782.0, 0.0026764862239814762
783.0, 0.003853845168738068
784.0, 0.005197371481104789
785.0, 0.004249929325984242
786.0, 0.006235718156148174
787.0, 0.002267329399106211
788.0, 0.002563985592112127
789.0, 0.004194779792311588
790.0, 0.004193748487883758
791.0, 0.004353163103818518
792.0, 0.00575931721036394
793.0, 0.008275168999481138
794.0, 0.0097419572582564
795.0, 0.008874325384408127
796.0, 0.006825434355143695
797.0, 0.005580149540159716
798.0, 0.005783271962771241
799.0, 0.005989204272936645
800.0, 0.005296193692160466
801.0, 0.007301948411723555
802.0, 0.0075045537408127095
803.0, 0.005270161523596613
804.0, 0.004606146598709198
805.0, 0.006983823233940452
806.0, 0.00489354380874742
807.0, 0.0028251020085972886
808.0, 0.005168300389111572
809.0, 0.0067743002906406335
810.0, 0.006409688854563186
811.0, 0.006151815275662437
812.0, 0.006175073680503058
813.0, 0.00518264992016904
814.0, 0.005961293767431354
815.0, 0.0032964016601727424
816.0, 0.0029483555241626284
817.0, 0.003006907626038025
818.0, 0.0028318918670827056
819.0, 0.004697116093391737
820.0, 0.0058157835280899925
821.0, 0.008353405722964518
822.0, 0.007521984690467276
823.0, 0.0073531562384543635
824.0, 0.007161793046021633
825.0, 0.0075246500241292116
826.0, 0.008768755779293255
827.0, 0.004785987256420479
828.0, 0.0032803936121979464
829.0, 0.0006505817189423377
830.0, 0.00010152968248610292
831.0, 0.0006208294829832495
832.0, 0.0018884539629244533
833.0, 0.0011921949185326286
834.0, 0.00042653629186764354
835.0, 0.0010698200570331599
836.0, 0.0018391567847780028
837.0, 0.0014638553488450477
838.0, 0.00033770009178018693
839.0, 0.00216823419340331
840.0, 0.005883812766794089
841.0, 0.004947948965076523
842.0, 0.005818239393442698
843.0, 0.005766768782514619
844.0, 0.0047174418694898405
845.0, 0.004296029020994126
846.0, 0.0035708112303657323
847.0, 0.0029575128132447704
848.0, 0.004018040761792577
849.0, 0.001752794352269236
850.0, 0.001316477359243723
851.0, 0.0013975750129570955
852.0, 0.00035350509655124464
853.0, 0.00043063260064344884
854.0, 0.00011596313247649696
855.0, 0.0013208449255934528
856.0, 0.0035530223826768267
857.0, 0.002967401340122538
858.0, 0.0037448570530555685
859.0, 0.004844191210914109
860.0, 0.0032614322118831676
861.0, 0.00284728375339554
862.0, 0.004142626014360165
863.0, 0.00028633374785445436
864.0, 0.0032400516281308363
865.0, 0.0012134863392646474
866.0, 0.0015214153985234216
867.0, 0.0021828624328403884
868.0, 0.0025856223045939487
869.0, 0.002911931750863382
870.0, 0.0015724728080608013
871.0, 0.0017475825014348345
872.0, 0.002726257436760857
873.0, 0.005238776969052843
874.0, 0.0033098943128606682
875.0, 0.001655101694789766
876.0, 0.0032045380273328134
877.0, 0.004486042176026676
878.0, 0.00431912574977457
879.0, 0.004551605184692148
880.0, 0.0011477614701449423
881.0, 0.00043749386177924666
882.0, 0.0014367001999146393
883.0, 0.002124829657820587
884.0, 0.0028150333856971034
885.0, 0.003534522597969856
886.0, 0.0018016568404941053
887.0, 0.0019226603991427042
888.0, 0.001823438349403239
889.0, 0.004810432347932121
890.0, 0.004145869058774278
891.0, 0.0021646116294731063
892.0, 0.0035489607513615193
893.0, 0.004376935289271218
894.0, 0.007895701404414285
895.0, 0.0045869082004361735
896.0, 0.002638780910795971
897.0, 0.004332879158165062
898.0, 0.004585986331158638
899.0, 0.0024794641796122333
900.0, 0.003535635941393369
901.0, 0.007765141099825349
902.0, 0.007204656578271413
903.0, 0.0050232074217138305
904.0, 0.004606118131330097
905.0, 0.0042722149555695045
906.0, 0.003223559219039456
907.0, 0.003242545863291373
908.0, 0.005074036039748869
909.0, 0.005847153374989755
910.0, 0.0032327664404660124
911.0, 0.002330247917509376
912.0, 0.0016275273091591572
913.0, 0.003357181600691202
914.0, 0.0035751291405990157
915.0, 0.001646131095642833
916.0, 0.0030653725581587478
917.0, 0.0028235132271876066
918.0, 0.004958222534004546
919.0, 0.002313040034271293
920.0, 0.003697753310219101
921.0, 0.00536233067268273
922.0, 0.004380843440108649
923.0, 0.0033220728806475034
924.0, 0.004357982948732905
925.0, 0.005216590784079936
926.0, 0.0028945558220477455
927.0, 0.0015615494997758984
928.0, 0.0038222037835319925
929.0, 0.0035330025190708153
930.0, 0.0015161727348182966
931.0, 0.0024322097882361533
932.0, 0.004019327407614806
933.0, 0.002653080772506469
934.0, 0.00648915239940425
935.0, 0.006342659091218727
936.0, 0.005942397419255697
937.0, 0.0063675209159623405
938.0, 0.006820239192706651
939.0, 0.007607361644430248
940.0, 0.00860471399725895
941.0, 0.005900821565166847
942.0, 0.0033545834825709627
943.0, 0.002268429177824482
944.0, 0.002362332191079328
945.0, 0.0038873695598641744
946.0, 0.005789291630368191
947.0, 0.006189513827474518
948.0, 0.00488901117203138
949.0, 0.004576952033329059
950.0, 0.004175128940948158
951.0, 0.0029344144116841904
952.0, 0.0012393757853204814
953.0, 0.00020535710886567134
954.0, 0.001192510442929446
955.0, 0.0027907004376811835
956.0, 0.0037989522380536943
957.0, 0.000931922687292618
958.0, 0.0012441960620826887
959.0, 0.0008597352195737187
960.0, 0.003142429727372548
961.0, 0.0042960769258479845
962.0, 0.0066424111215018814
963.0, 0.008393095184476606
964.0, 0.0076465574597020065
965.0, 0.00919486611911579
966.0, 0.009621594647761706
967.0, 0.010324614172593323
968.0, 0.014690355705095859
969.0, 0.01707810005116901
970.0, 0.016727686269834542
971.0, 0.01846111720684767
972.0, 0.021844709218140086
973.0, 0.02310964548168229
974.0, 0.025972230316402247
975.0, 0.029081127043277075
976.0, 0.0374980197497386
977.0, 0.049472172129216126
978.0, 0.0642507299767844
979.0, 0.08717619218430123
980.0, 0.11230869852352866
981.0, 0.13190628548281816
982.0, 0.1534132305296635
983.0, 0.17792519881439514
984.0, 0.21047148901478635
985.0, 0.2549799842980408
986.0, 0.3290812376404043
987.0, 0.43677541979893064
988.0, 0.5744472728665747
989.0, 0.7455989655347474
990.0, 0.9183741180201841
991.0, 0.9924583634063436
992.0, 0.8408745425941058
993.0, 0.5690846038111886
994.0, 0.3403518898445017
995.0, 0.19487108768531697
996.0, 0.1173493753101018
997.0, 0.07701191825655604
998.0, 0.05373672574644432
999.0, 0.03987628103861065
1000.0, 0.030416150424576398
1001.0, 0.024666036808389174
1002.0, 0.020623201079868366
1003.0, 0.018713417000695603
1004.0, 0.013931933223835825
1005.0, 0.010635640611248444
1006.0, 0.010013085268206358
1007.0, 0.00923770859750395
1008.0, 0.009322021878644157
1009.0, 0.010272120473607751
1010.0, 0.009811733479723868
1011.0, 0.010214097081676437
1012.0, 0.00946861472956157
1013.0, 0.006685514216027952
1014.0, 0.004753183248723877
1015.0, 0.0045803932787063
1016.0, 0.004261611617753009
1017.0, 0.0032362445219611727
1018.0, 0.002933731203584185
1019.0, 0.004288572992113708
1020.0, 0.002427310603319724
1021.0, 0.001061616522460886
1022.0, 0.0009662523989529963
1023.0, 0.0005950568345573577
1024.0, 0.00010959014623813712
1025.0, 0.000648126227964651
1026.0, 0.001903771478097044
1027.0, 0.003196625915233011
1028.0, 0.004196239313840189
1029.0, 0.0002710459291679543
1030.0, 0.0002783655745160556
1031.0, 0.0011771902427892892
1032.0, 0.0007215840255867548
1033.0, 0.0013623122977826064
1034.0, 0.001280832147858852
1035.0, 0.0025439306161592823
1036.0, 0.0011722876201009404
1037.0, 0.002420552497814392
1038.0, 0.0010802301570953584
1039.0, 0.0014374272145228457
1040.0, 0.0012917196314673098
1041.0, 0.0015517762782528367
1042.0, 0.0031253328201092346
1043.0, 4.903802866109818e-05
1044.0, 0.0031292626954855076
1045.0, 0.004820272132915695
1046.0, 0.005281043470625768
1047.0, 0.0033715856231583837
1048.0, 0.002945137690811049
1049.0, 0.0015424150470183284
1050.0, 0.0018507942903011549
1051.0, 0.0039237486847172685
1052.0, 0.0038253801437430116
1053.0, 0.0029704747497517605
1054.0, 0.00523708549947919
1055.0, 0.004822188018587616
1056.0, 0.004734897720368457
1057.0, 0.007655933501864624
1058.0, 0.009542856605679639
1059.0, 0.012876201799490488
1060.0, 0.01678669133505508
1061.0, 0.020932923477146773
1062.0, 0.027399992221458495
1063.0, 0.0363919860305643
1064.0, 0.04414849643446438
1065.0, 0.04999613982604956
1066.0, 0.061013132533892324
1067.0, 0.07642148484818594
1068.0, 0.09778851433819606
1069.0, 0.12436020017936252
1070.0, 0.15832680790383985
1071.0, 0.1932373571214172
1072.0, 0.2158065581766972
1073.0, 0.2150331955836005
1074.0, 0.18619668073425885
1075.0, 0.14209403502370802
1076.0, 0.09917147147735647
1077.0, 0.07122840908573756
1078.0, 0.052696342432517196
1079.0, 0.041665939622693444
1080.0, 0.03642435093090377
1081.0, 0.033111290955154284
1082.0, 0.03051608767387329
1083.0, 0.029451237116859385
1084.0, 0.027412481847256864
1085.0, 0.027015447769299778
1086.0, 0.026231064938473728
1087.0, 0.025976325253893866
1088.0, 0.02565945979624522
1089.0, 0.02250938972106646
1090.0, 0.01926423601992776
1091.0, 0.020377991494510177
1092.0, 0.024031360401288518
1093.0, 0.02526803061581951
1094.0, 0.024479878129019646
1095.0, 0.022739520895456115
1096.0, 0.021186481074794095
1097.0, 0.02295918787016932
1098.0, 0.02157320386107059
1099.0, 0.023244905848979574
1100.0, 0.02579559093259117
1101.0, 0.026389661947527548
1102.0, 0.025333595527783293
1103.0, 0.024027054175739002
1104.0, 0.025106876846438926
1105.0, 0.02546541842716894
1106.0, 0.02884030060181375
1107.0, 0.027052112246298207
1108.0, 0.02487216488358007
1109.0, 0.02278874300124999
1110.0, 0.02285762523076798
1111.0, 0.02515391390339436
1112.0, 0.02603309077142965
1113.0, 0.024742486362609707
1114.0, 0.025464052396696985
1115.0, 0.026121223806540167
1116.0, 0.027579639794975512
1117.0, 0.02633346115768088
1118.0, 0.026022574598505023
1119.0, 0.029684937428175236
1120.0, 0.03204285022834148
1121.0, 0.029751694596976873
1122.0, 0.027234665440955756
1123.0, 0.02554790608159513
1124.0, 0.022326703029134965
1125.0, 0.022416705817488402
1126.0, 0.019745431820556436
1127.0, 0.020322617454546343
1128.0, 0.021149633193780486
1129.0, 0.01871917948111441
1130.0, 0.019029040383289685
1131.0, 0.017308083719903576
1132.0, 0.014227353298076171
1133.0, 0.015002857327248572
1134.0, 0.01964389116690179
1135.0, 0.02286444978895915
1136.0, 0.019000097998703232
1137.0, 0.01670790535456212
1138.0, 0.01353801634795526
1139.0, 0.010352220630105963
1140.0, 0.008680556231461963
1141.0, 0.010336081076792882
1142.0, 0.009819486112417142
1143.0, 0.006825474024743207
1144.0, 0.005405160872130601
1145.0, 0.006172877411140401
1146.0, 0.0068691162970816394
1147.0, 0.00697264779273681
1148.0, 0.009247157261632439
1149.0, 0.008954939565661655
1150.0, 0.005300351805568381
1151.0, 0.0030388245530038544
1152.0, 0.006268013504078682
1153.0, 0.006618582905574826
1154.0, 0.003783215949113304
1155.0, 0.0018455776836916859
1156.0, 0.001498646699231482
1157.0, 0.0015644393116921067
1158.0, 0.0008047656361492041
1159.0, 0.0009624533849088683
1160.0, 0.0002400312668297339
1161.0, 0.00025717533582644234
1162.0, 0.0023490186813810688
1163.0, 0.000263713687893169
1164.0, 0.0006272858737306872
1165.0, 0.00018331704613299392
1166.0, 5.4140483387287006e-05
1167.0, 0.00037548369249321465
1168.0, 0.0010231539948946842
1169.0, 0.0013543872315678776
1170.0, 0.0019309268815296565
1171.0, 0.0022004292940936945
1172.0, 0.0018917514877045574
1173.0, 0.002593853013656481
1174.0, 0.0056145310197888015
1175.0, 0.0043986132023247524
1176.0, 0.0065408678702339
1177.0, 0.007810305266865349
1178.0, 0.004595046168356508
1179.0, 0.0016437198823212892
1180.0, 0.0016465213012981472
1181.0, 0.003952511815907331
1182.0, 0.00427239931551593
1183.0, 0.0038522807054535957
1184.0, 0.003337200349825038
1185.0, 0.004637589817072048
1186.0, 0.0010803387808545905
1187.0, 0.002242191563366921
1188.0, 0.0018266623441864516
1189.0, 0.0001421260283597409
1190.0, 0.0009509681149781843
1191.0, 0.000298292690642545
1192.0, 0.0017331118385338347
1193.0, 0.0012464520893234814
1194.0, 0.0011911934997510553
1195.0, 0.0009862581595901294
1196.0, 0.0030931549276085003
1197.0, 0.006595729527700258
1198.0, 0.006088607416902532
1199.0, 0.006003139065702647
1200.0, 0.005298022087432267
1201.0, 0.005064813830129367
1202.0, 0.004595595521312129
1203.0, 0.0026434996115319255
1204.0, 0.002441909378581765
1205.0, 0.0049419839448875645
1206.0, 0.00557962216554435
1207.0, 0.0053263274096809286
1208.0, 0.0053522873691545
1209.0, 0.01042704925424433
1210.0, 0.007414162064365052
1211.0, 0.008100336320897378
1212.0, 0.0075951992475116895
1213.0, 0.007891406186527623
1214.0, 0.00822027630591655
1215.0, 0.007009843473198369
1216.0, 0.005713397119858481
1217.0, 0.0038285996346736494
1218.0, 0.003525049586642419
1219.0, 0.005409527447870665
1220.0, 0.0019353711933179955
1221.0, 0.003949191028161294
1222.0, 0.0024000266146479952
1223.0, 0.0023306119901336003
1224.0, 0.0023382731662122376
1225.0, 0.004488429961596758
1226.0, 0.005770558685724984
1227.0, 0.00626441882159289
1228.0, 0.005208782002383772
1229.0, 0.003112772401743049
1230.0, 0.004000969635171203
1231.0, 0.004616901661508926
1232.0, 0.0010928535786244047
1233.0, 0.004316564224877019
1234.0, 0.004253377159300349
1235.0, 0.0028754365929778993
1236.0, 0.0011717504063055524
1237.0, 0.00392068899259902
1238.0, 0.0024933668491772232
1239.0, 0.00117507355572386
1240.0, 0.0011395174156512509
1241.0, 0.0014356318215485977
1242.0, 0.00214895475691872
1243.0, 0.0023713839814097208
1244.0, 0.0032269327360805
1245.0, 0.0023836060591614534
1246.0, 0.004561674417170389
1247.0, 0.006370115661345785
1248.0, 0.005954809721412073
1249.0, 0.0060392446936836
1250.0, 0.005104748487610562
1251.0, 0.004611625715208587
1252.0, 0.004424812281530704
1253.0, 0.00416547657199189
1254.0, 0.0012123286542391981
1255.0, 0.0016814297276438695
1256.0, 0.0003649843119292722
1257.0, 0.0035963500336458195
1258.0, 0.00886506533786149
1259.0, 0.005556256800155382
1260.0, 0.00831963710967999
1261.0, 0.009755859401968704
1262.0, 0.010085327523382724
1263.0, 0.009528655368165218
1264.0, 0.011432321138797543
1265.0, 0.009952404386972435
1266.0, 0.005659973120121005
1267.0, 0.0056648224315538655
1268.0, 0.005426259209851186
1269.0, 0.00582041447674751
1270.0, 0.009650996115689045
1271.0, 0.009023119415733173
1272.0, 0.0035743654154429955
1273.0, 0.0039008763673830196
1274.0, 0.0056106059961883005
1275.0, 0.006014290533413619
1276.0, 0.0026445839795414157
1277.0, 0.005332370106221138
1278.0, 0.0053098637970753785
1279.0, 0.005025904085763179
1280.0, 0.0050102054229308945
1281.0, 0.005018951691155352
1282.0, 0.006260492366115735
1283.0, 0.005216145435100368
1284.0, 0.0034616575227378265
1285.0, 0.004531351224504759
1286.0, 0.005753874394180418
1287.0, 0.004811444224473309
1288.0, 0.002669118716684836
1289.0, 0.0020663536437623884
1290.0, 0.0028530429216118165
1291.0, 0.0012680262652150587
1292.0, 0.0012268744908231293
1293.0, 0.004753414957577561
1294.0, 0.0030651845353301854
1295.0, 0.006753443567550679
1296.0, 0.0025625031617188126
1297.0, 0.0013551031605943805
1298.0, 0.0018124563504123045
1299.0, 2.2590738717019107e-05
1300.0, 0.0017079259908050082
1301.0, 0.002050277873704972
1302, 0.0
1303, 0.0
1304, 0.0
1305, 0.0
1306, 0.0
1307, 0.0
1308, 0.0
1309, 0.0
1310, 0.0
1311, 0.0
1312, 0.0
1313, 0.0
1314, 0.0
1315, 0.0
1316, 0.0
1317, 0.0
1318, 0.0
1319, 0.0
1320, 0.0
1321, 0.0
1322, 0.0
1323, 0.0
1324, 0.0
1325, 0.0
1326, 0.0
1327, 0.0
1328, 0.0
1329, 0.0
1330, 0.0
1331, 0.0
1332, 0.0
1333, 0.0
1334, 0.0
1335, 0.0
1336, 0.0
1337, 0.0
1338, 0.0
1339, 0.0
1340, 0.0
1341, 0.0
1342, 0.0
1343, 0.0
1344, 0.0
1345, 0.0
1346, 0.0
1347, 0.0
1348, 0.0
1349, 0.0
1350, 0.0
1351, 0.0
1352, 0.0
1353, 0.0
1354, 0.0
1355, 0.0
1356, 0.0
1357, 0.0
1358, 0.0
1359, 0.0
1360, 0.0
1361, 0.0
1362, 0.0
1363, 0.0
1364, 0.0
1365, 0.0
1366, 0.0
1367, 0.0
1368, 0.0
1369, 0.0
1370, 0.0
1371, 0.0
1372, 0.0
1373, 0.0
1374, 0.0
1375, 0.0
1376, 0.0
1377, 0.0
1378, 0.0
1379, 0.0
1380, 0.0
1381, 0.0
1382, 0.0
1383, 0.0
1384, 0.0
1385, 0.0
1386, 0.0
1387, 0.0
1388, 0.0
1389, 0.0
1390, 0.0
1391, 0.0
1392, 0.0
1393, 0.0
1394, 0.0
1395, 0.0
1396, 0.0
1397, 0.0
1398, 0.0
1399, 0.0
1400, 0.0
1401, 0.0
1402, 0.0
1403, 0.0
1404, 0.0
1405, 0.0
1406, 0.0
1407, 0.0
1408, 0.0
1409, 0.0
1410, 0.0
1411, 0.0
1412, 0.0
1413, 0.0
1414, 0.0
1415, 0.0
1416, 0.0
1417, 0.0
1418, 0.0
1419, 0.0
1420, 0.0
1421, 0.0
1422, 0.0
1423, 0.0
1424, 0.0
1425, 0.0
1426, 0.0
1427, 0.0
1428, 0.0
1429, 0.0
1430, 0.0
1431, 0.0
1432, 0.0
1433, 0.0
1434, 0.0
1435, 0.0
1436, 0.0
1437, 0.0
1438, 0.0
1439, 0.0
1440, 0.0
1441, 0.0
1442, 0.0
1443, 0.0
1444, 0.0
1445, 0.0
1446, 0.0
1447, 0.0
1448, 0.0
1449, 0.0
1450, 0.0
1451, 0.0
1452, 0.0
1453, 0.0
1454, 0.0
1455, 0.0
1456, 0.0
1457, 0.0
1458, 0.0
1459, 0.0
1460, 0.0
1461, 0.0
1462, 0.0
1463, 0.0
1464, 0.0
1465, 0.0
1466, 0.0
1467, 0.0
1468, 0.0
1469, 0.0
1470, 0.0
1471, 0.0
1472, 0.0
1473, 0.0
1474, 0.0
1475, 0.0
1476, 0.0
1477, 0.0
1478, 0.0
1479, 0.0
1480, 0.0
1481, 0.0
1482, 0.0
1483, 0.0
1484, 0.0
1485, 0.0
1486, 0.0
1487, 0.0
1488, 0.0
1489, 0.0
1490, 0.0
1491, 0.0
1492, 0.0
1493, 0.0
1494, 0.0
1495, 0.0
1496, 0.0
1497, 0.0
1498, 0.0
1499, 0.0
1500, 0.0
1501, 0.0
1502, 0.0
1503, 0.0
1504, 0.0
1505, 0.0
1506, 0.0
1507, 0.0
1508, 0.0
1509, 0.0
1510, 0.0
1511, 0.0
1512, 0.0
1513, 0.0
1514, 0.0
1515, 0.0
1516, 0.0
1517, 0.0
1518, 0.0
1519, 0.0
1520, 0.0
1521, 0.0
1522, 0.0
1523, 0.0
1524, 0.0
1525, 0.0
1526, 0.0
1527, 0.0
1528, 0.0
1529, 0.0
1530, 0.0
1531, 0.0
1532, 0.0
1533, 0.0
1534, 0.0
1535, 0.0
1536, 0.0
1537, 0.0
1538, 0.0
1539, 0.0
1540, 0.0
1541, 0.0
1542, 0.0
1543, 0.0
1544, 0.0
1545, 0.0
1546, 0.0
1547, 0.0
1548, 0.0
1549, 0.0
1550, 0.0
1551, 0.0
1552, 0.0
1553, 0.0
1554, 0.0
1555, 0.0
1556, 0.0
1557, 0.0
1558, 0.0
1559, 0.0
1560, 0.0
1561, 0.0
1562, 0.0
1563, 0.0
1564, 0.0
1565, 0.0
1566, 0.0
1567, 0.0
1568, 0.0
1569, 0.0
1570, 0.0
1571, 0.0
1572, 0.0
1573, 0.0
1574, 0.0
1575, 0.0
1576, 0.0
1577, 0.0
1578, 0.0
1579, 0.0
1580, 0.0
1581, 0.0
1582, 0.0
1583, 0.0
1584, 0.0
1585, 0.0
1586, 0.0
1587, 0.0
1588, 0.0
1589, 0.0
1590, 0.0
1591, 0.0
1592, 0.0
1593, 0.0
1594, 0.0
1595, 0.0
1596, 0.0
1597, 0.0
1598, 0.0
1599, 0.0
