30, 0.0
31, 0.0
32, 0.0
33, 0.0
34, 0.0
35, 0.0
36, 0.0
37, 0.0
38, 0.0
39, 0.0
40, 0.0
41, 0.0
42, 0.0
43, 0.0
44, 0.0
45, 0.0
46, 0.0
47, 0.0
48, 0.0
49, 0.0
50, 0.0
51, 0.0
52, 0.0
53, 0.0
54, 0.0
55, 0.0
56, 0.0
57, 0.0
58, 0.0
59, 0.0
60, 0.0
61, 0.0
62, 0.0
63, 0.0
64, 0.0
65, 0.0
66, 0.0
67, 0.0
68, 0.0
69, 0.0
70, 0.0
71, 0.0
72, 0.0
73, 0.0
74, 0.0
75, 0.0
76, 0.0
77, 0.0
78, 0.0
79, 0.0
80, 0.0
81, 0.0
82, 0.0
83, 0.0
84, 0.0
85, 0.0
86, 0.0
87, 0.0
88, 0.0
89, 0.0
90, 0.0
91, 0.0
92, 0.0
93, 0.0
94, 0.0
95, 0.0
96, 0.0
97, 0.0
98, 0.0
99, 0.0
100, 0.0
101, 0.0
102, 0.0
103, 0.0
104, 0.0
105, 0.0
106, 0.0
107, 0.0
108, 0.0
109, 0.0
110, 0.0
111, 0.0
112, 0.0
113, 0.0
114, 0.0
115, 0.0
116, 0.0
117, 0.0
118, 0.0
119, 0.0
120, 0.0
121, 0.0
122, 0.0
123, 0.0
124, 0.0
125, 0.0
126, 0.0
127, 0.0
128, 0.0
129, 0.0
130, 0.0
131, 0.0
132, 0.0
133, 0.0
134, 0.0
135, 0.0
136, 0.0
137, 0.0
138, 0.0
139, 0.0
140, 0.0
141, 0.0
142, 0.0
143, 0.0
144, 0.0
145, 0.0
146, 0.0
147.0, 0.002142427861950718
148.0, 0.002264349405654364
149.0, 0.000662153646995415
150.0, 0.0014622124259730648
151.0, 0.0017669653405038162
152.0, 0.009501373845735586
153.0, 0.018122904240373706
154.0, 0.02677592896850029
155.0, 0.035085089096009554
156.0, 0.04319322589336611
157.0, 0.05280380872544819
158.0, 0.061140218631986036
159.0, 0.07003224333384749
160.0, 0.08123673854087003
161.0, 0.09316559852677345
162.0, 0.10647581318770766
163.0, 0.12293875304295804
164.0, 0.14095152270047134
165.0, 0.15630759828857468
166.0, 0.17513416710156923
167.0, 0.1916254112765884
168.0, 0.20759031800856442
169.0, 0.2280666199525016
170.0, 0.24986875112307835
171.0, 0.27543050543818887
172.0, 0.2996847169768786
173.0, 0.32147116637192846
174.0, 0.35170856706638226
175.0, 0.3801601714734146
176.0, 0.41027995854145405
177.0, 0.4425927746803596
178.0, 0.4716635466746192
179.0, 0.49153429220850114
180.0, 0.48606237733712304
181.0, 0.4556646210888347
182.0, 0.41174154689002285
183.0, 0.36800881750777115
184.0, 0.3332292551706517
185.0, 0.30778108942801635
186.0, 0.2888229826327137
187.0, 0.27186999383372024
188.0, 0.2618175412383359
189.0, 0.2560007588591261
190.0, 0.25261388202489127
191.0, 0.2520588790451395
192.0, 0.25452803666423207
193.0, 0.25780564059004757
194.0, 0.25937327967507307
195.0, 0.2588016442564297
196.0, 0.2600478864161903
197.0, 0.2601344381707978
198.0, 0.265307920585171
199.0, 0.27895735930698756
200.0, 0.29537718111170136
201.0, 0.31047301223195073
202.0, 0.32536964044807
203.0, 0.34144200159527316
204.0, 0.3603516640034655
205.0, 0.37698669271225227
206.0, 0.40120410185959515
207.0, 0.4300154984180711
208.0, 0.4607805011243683
209.0, 0.49904424804780073
210.0, 0.5416352977964354
211.0, 0.5914336154855883
212.0, 0.6492180993653619
213.0, 0.7145534057233482
214.0, 0.7874118365137792
215.0, 0.8567533166220747
216.0, 0.9233261190462841
217.0, 0.9811351993076103
218.0, 0.9996355162737719
219.0, 0.9872898704197829
220.0, 0.9473201290713535
221.0, 0.8857334573620653
222.0, 0.8123458684373372
223.0, 0.738355396239785
224.0, 0.6679692023811521
225.0, 0.606787848689603
226.0, 0.5581730023134955
227.0, 0.5179174069231187
228.0, 0.4783898758607699
229.0, 0.44796830946320965
230.0, 0.4274467174941982
231.0, 0.40908076903092394
232.0, 0.4006010498820024
233.0, 0.3996339428910492
234.0, 0.40256856165299887
235.0, 0.40525253609373263
236.0, 0.4038984029349875
237.0, 0.3979215130410568
238.0, 0.3763448416862184
239.0, 0.33635111814560414
240.0, 0.28281122624411914
241.0, 0.21844826677489482
242.0, 0.15752427706944472
243.0, 0.10816208397135889
244.0, 0.07298198932052172
245.0, 0.04623682703301824
246.0, 0.027051202660151777
247.0, 0.013738981703731237
248.0, 0.004023968890960613
249.0, 0.004455682620595453
250.0, 0.013214470771073175
251.0, 0.01882568762390245
252.0, 0.02096580879509861
253.0, 0.0207616167077208
254.0, 0.020356947074119964
255.0, 0.016519649948108932
256.0, 0.012812084207292657
257.0, 0.0074200900874268096
258.0, 0.0028912963864207147
259.0, 0.011254570156760518
260.0, 0.02250554392703603
261.0, 0.03478401443044833
262.0, 0.04789502423238798
263.0, 0.0670761071147606
264.0, 0.08586040348755936
265.0, 0.10635144840140213
266.0, 0.1297109286706396
267.0, 0.15583881686470943
268.0, 0.18526213794317212
269.0, 0.22580941984302155
270.0, 0.2729195984627105
271.0, 0.3208202593188695
272.0, 0.3637582962891823
273.0, 0.39566993923272253
274.0, 0.4092858098477079
275.0, 0.40396911771440897
276.0, 0.3843604275831338
277.0, 0.3569495404625802
278.0, 0.3214718079422481
279.0, 0.2871357163207833
280.0, 0.25799165157372267
281.0, 0.23357788320075157
282.0, 0.21416608349535768
283.0, 0.19722304140111846
284.0, 0.18194424974309267
285.0, 0.16852066635859128
286.0, 0.1577769821484795
287.0, 0.15124031848343508
288.0, 0.1439427246584638
289.0, 0.1379074072988963
290.0, 0.13615360068861784
291.0, 0.13395577088444316
292.0, 0.1315349693913473
293.0, 0.13075653580276234
294.0, 0.13335532192391417
295.0, 0.13935352288422279
296.0, 0.14315874895921962
297.0, 0.1493060241685139
298.0, 0.15662706867991805
299.0, 0.16297166407216312
300.0, 0.16766664588775373
301.0, 0.1634429676211817
302.0, 0.15704853151515294
303.0, 0.14442618671059962
304.0, 0.12195179769045994
305.0, 0.10176099145045679
306.0, 0.08922101159903877
307.0, 0.07809403036550981
308.0, 0.06626830587236451
309.0, 0.05515098473513354
310.0, 0.040561618081300356
311.0, 0.029278639430177184
312.0, 0.018860344554116528
313.0, 0.006967160964934731
314.0, 0.005029662109361173
315.0, 0.0161969876479549
316.0, 0.023966639535743746
317.0, 0.028747258774110333
318.0, 0.030805087293297027
319.0, 0.029123055405842195
320.0, 0.026072337470926805
321.0, 0.02120154754401574
322.0, 0.015476529692194227
323.0, 0.009584412133603733
324.0, 0.0024210375955109765
325.0, 0.015647144543764823
326.0, 0.03376126137653637
327.0, 0.054626686748444835
328.0, 0.07784417405557863
329.0, 0.09272763193173912
330.0, 0.10605271713272628
331.0, 0.11859362013208465
332.0, 0.13185468996629468
333.0, 0.15097767773867926
334.0, 0.1591160631258829
335.0, 0.16533350050398046
336.0, 0.16986368217369566
337.0, 0.1708438633116839
338.0, 0.1701753775619968
339.0, 0.16625617595087228
340.0, 0.16548523811832572
341.0, 0.16910905207045387
342.0, 0.17588987993559094
343.0, 0.18831687516227505
344.0, 0.20279457720819408
345.0, 0.21804470246439558
346.0, 0.2363112676000802
347.0, 0.2595265170584071
348.0, 0.2807087941255009
349.0, 0.2993249074077925
350.0, 0.3133392986622569
351.0, 0.3147320961171316
352.0, 0.2952292684407337
353.0, 0.2685154591154544
354.0, 0.2509814638330176
355.0, 0.24335917739436486
356.0, 0.24244591129497137
357.0, 0.2468817963668878
358.0, 0.2522521453268387
359.0, 0.25916014104963964
360.0, 0.2659459337448182
361.0, 0.2716696307612482
362.0, 0.27756535737135785
363.0, 0.28666022047142514
364.0, 0.29621300562595865
365.0, 0.30473636431740114
366.0, 0.3121990511120573
367.0, 0.3196231656546821
368.0, 0.3261718248688529
369.0, 0.3348357116552433
370.0, 0.344397710735472
371.0, 0.35312251506385145
372.0, 0.36280255328973954
373.0, 0.3655622460928539
374.0, 0.3678648497314165
375.0, 0.3710530959060712
376.0, 0.3732837387332526
377.0, 0.37468412456063355
378.0, 0.3808518102824304
379.0, 0.38404647362910405
380.0, 0.38596351617041097
381.0, 0.39347507322885994
382.0, 0.4004834715399807
383.0, 0.4108141181067679
384.0, 0.4191545007904063
385.0, 0.42694855532719617
386.0, 0.4384340850639387
387.0, 0.44666533178712914
388.0, 0.4583251339200135
389.0, 0.47144054351939296
390.0, 0.4837329072159964
391.0, 0.49565124487478807
392.0, 0.5106531977494605
393.0, 0.5251859908450365
394.0, 0.5378847328027184
395.0, 0.5495541594471978
396.0, 0.5606571512724967
397.0, 0.5687593434305068
398.0, 0.575116075620852
399.0, 0.5734667005033055
400.0, 0.5618562350513793
401.0, 0.5425104367804682
402.0, 0.5198909373719773
403.0, 0.49635134824572325
404.0, 0.4708462416053375
405.0, 0.44985144044907466
406.0, 0.44169098739143287
407.0, 0.4322622197983045
408.0, 0.4286458708669079
409.0, 0.42699190167707346
410.0, 0.4259739965505925
411.0, 0.4290724459910679
412.0, 0.4365847389317309
413.0, 0.4476691607451843
414.0, 0.460702818907296
415.0, 0.4777265009905585
416.0, 0.5017031595103849
417.0, 0.5283203244182701
418.0, 0.5554973323239917
419.0, 0.5804567749855941
420.0, 0.597111006952205
421.0, 0.6001420914447106
422.0, 0.591583502654313
423.0, 0.5783480602701915
424.0, 0.5620836931954012
425.0, 0.5465520044095636
426.0, 0.5357892299858754
427.0, 0.5265028369936972
428.0, 0.512673090772491
429.0, 0.4972485029997328
430.0, 0.4808082337982644
431.0, 0.46107648466578055
432.0, 0.43390802106462945
433.0, 0.40814841259587237
434.0, 0.3845732426197259
435.0, 0.3616952908133037
436.0, 0.34013496483188266
437.0, 0.32387058874717484
438.0, 0.31378090585762103
439.0, 0.3109515808650305
440.0, 0.31106145930478485
441.0, 0.3111731633069432
442.0, 0.31479737237540295
443.0, 0.31755758699053027
444.0, 0.3219205460283194
445.0, 0.3270615963636759
446.0, 0.33073654566500127
447.0, 0.3317708058873497
448.0, 0.3327120260980983
449.0, 0.33211215013108397
450.0, 0.3283577477197301
451.0, 0.32033321294529443
452.0, 0.30708783836920167
453.0, 0.2809896337478147
454.0, 0.24352754221220743
455.0, 0.19779628394080528
456.0, 0.14736170012205024
457.0, 0.09767616640086577
458.0, 0.05507412702917705
459.0, 0.02642782164752254
460.0, 0.009044141253448674
461.0, 0.0020681233642275243
462.0, 0.009039892786027055
463.0, 0.011675195447765843
464.0, 0.013872096051509374
465.0, 0.01530818252621317
466.0, 0.015613183309492842
467.0, 0.015310864689989332
468.0, 0.015221093622427498
469.0, 0.014254731796122815
470.0, 0.012975570537526125
471.0, 0.011444254985822489
472.0, 0.009665476030886917
473.0, 0.008222628364690234
474.0, 0.00699926962947642
475.0, 0.00562680164613485
476.0, 0.00409528857799093
477.0, 0.00221791139484845
478.0, 0.0005098373633425873
479.0, 0.001905018022721976
480.0, 0.003788677298925798
481.0, 0.006060351812452589
482.0, 0.008326441475145815
483.0, 0.010091989915055371
484.0, 0.010888489813561993
485.0, 0.014054189351530888
486.0, 0.01621712155948918
487.0, 0.017632067521926774
488.0, 0.020635550808320698
489.0, 0.023740697635199346
490.0, 0.024407403451337857
491.0, 0.02624788134969992
492.0, 0.028754654371693264
493.0, 0.030482486652720915
494.0, 0.03213099050098028
495.0, 0.03374354379645787
496.0, 0.03512653987594438
497.0, 0.0374141286777627
498.0, 0.040296632718015
499.0, 0.04215958186776835
500.0, 0.04377085959540642
501.0, 0.04574390452691319
502.0, 0.04813560240364306
503.0, 0.05018576905873453
504.0, 0.052162392910726094
505.0, 0.05647823243718382
506.0, 0.058913303769121794
507.0, 0.061517407281624824
508.0, 0.06500292441077996
509.0, 0.0686746317812882
510.0, 0.07164946776642182
511.0, 0.07656349645526668
512.0, 0.07977075246636701
513.0, 0.08298440881913528
514.0, 0.08693395554479694
515.0, 0.09020682912379292
516.0, 0.09334694314950508
517.0, 0.09611988270008671
518.0, 0.09792666160515498
519.0, 0.0987141287375988
520.0, 0.09747842173389991
521.0, 0.09243785735887897
522.0, 0.08555585321917564
523.0, 0.0793110364384925
524.0, 0.07240567094021078
525.0, 0.06450229108499617
526.0, 0.05728955545492751
527.0, 0.05063859403694751
528.0, 0.04404933312227281
529.0, 0.03727236369764517
530.0, 0.03092110737046623
531.0, 0.025820998291938225
532.0, 0.0220226956852456
533.0, 0.017191576739045977
534.0, 0.012011286319868269
535.0, 0.008725779568132658
536.0, 0.007400360947630439
537.0, 0.005600938658284244
538.0, 0.0037455455594593654
539.0, 0.002666951851049534
540.0, 0.00140221113975764
541.0, 0.0005719023998646813
542.0, 0.00040610722245541943
543.0, 0.0017869486933110074
544.0, 0.002440263348148219
545.0, 0.0024066255475519217
546.0, 0.002082581148618781
547.0, 0.0016879817267930945
548.0, 0.0018070715227707932
549.0, 0.0020796574419063196
550.0, 0.0029035182597627438
551.0, 0.002619218571554368
552.0, 0.0024821018062338813
553.0, 0.0037548061988716525
554.0, 0.003485902982320855
555.0, 0.0022597966133629257
556.0, 0.0004882508704080386
557.0, 0.00034655604082661486
558.0, 0.0005756648078834544
559.0, 0.002123397585073272
560.0, 0.0016164152463993256
561.0, 0.0009644049207649034
562.0, 7.102066559141828e-05
563.0, 0.0011298769748658267
564.0, 0.001695535549356171
565.0, 0.0012844334891239121
566.0, 0.001467226305877897
567.0, 0.002380714604018772
568.0, 0.0027537641511224515
569.0, 0.003070445543544101
570.0, 0.004152469322718452
571.0, 0.003887181748811527
572.0, 0.005038942644981969
573.0, 0.007734852079167457
574.0, 0.00963787823370925
575.0, 0.010216168351618659
576.0, 0.011086222416323909
577.0, 0.012096758922996107
578.0, 0.014201465893459735
579.0, 0.016387660130953087
580.0, 0.018543777120358776
581.0, 0.020686136902876358
582.0, 0.022180620923849093
583.0, 0.02498980360752965
584.0, 0.026461627185706816
585.0, 0.02876312318798018
586.0, 0.031953275570769
587.0, 0.034454872969869446
588.0, 0.03813860400849306
589.0, 0.041751056784324315
590.0, 0.0458830557183135
591.0, 0.05106449721513547
592.0, 0.056394424368195493
593.0, 0.06069871842408579
594.0, 0.06704405289472616
595.0, 0.0730259912673799
596.0, 0.08087568550544107
597.0, 0.09037987077391721
598.0, 0.09969802907744128
599.0, 0.10853437896739429
600.0, 0.11792841073676527
601.0, 0.1309241337212717
602.0, 0.14466733826599001
603.0, 0.15800654635754524
604.0, 0.1718524237961492
605.0, 0.18667951878903516
606.0, 0.20133833940762963
607.0, 0.21362883090463106
608.0, 0.22562638040871755
609.0, 0.2351054868353489
610.0, 0.23983026393641124
611.0, 0.24629101634925676
612.0, 0.2500765661499245
613.0, 0.2548429562702615
614.0, 0.2589778310583751
615.0, 0.2598419589625713
616.0, 0.2569696926209261
617.0, 0.25105642572799514
618.0, 0.23823848563767905
619.0, 0.21499202197902922
620.0, 0.18394876123066783
621.0, 0.14974225639272504
622.0, 0.11679398743058197
623.0, 0.09190445528385154
624.0, 0.07628110575778331
625.0, 0.06867921015405533
626.0, 0.06717452026893482
627.0, 0.07008594029552587
628.0, 0.07658350313132106
629.0, 0.08527461907805553
630.0, 0.09667035334692543
631.0, 0.11191321151167258
632.0, 0.12967269173174217
633.0, 0.14894652714221945
634.0, 0.17035254956741186
635.0, 0.19210530795259195
636.0, 0.21446525560802918
637.0, 0.23328103143066026
638.0, 0.24627338307570257
639.0, 0.25062119438391806
640.0, 0.24298918734715358
641.0, 0.2294855132539481
642.0, 0.209820862946719
643.0, 0.1860359896714981
644.0, 0.1579772691630312
645.0, 0.12679106313626753
646.0, 0.09677819269016738
647.0, 0.06860260519534879
648.0, 0.04800278632241191
649.0, 0.03682788568549564
650.0, 0.03305398949886688
651.0, 0.03485147213111029
652.0, 0.04336246945205337
653.0, 0.05647210104475733
654.0, 0.07372220117166553
655.0, 0.09489122780486388
656.0, 0.11626539709751317
657.0, 0.13711070403157236
658.0, 0.1620729035845853
659.0, 0.19283373900936085
660.0, 0.2280910239933261
661.0, 0.265887293008281
662.0, 0.3071695286353138
663.0, 0.3548256795328572
664.0, 0.4097121779528493
665.0, 0.4665727941803832
666.0, 0.5233682467578313
667.0, 0.5799089112619064
668.0, 0.6302968042483706
669.0, 0.6668077850261627
670.0, 0.6839716030947773
671.0, 0.6655935092801486
672.0, 0.622568992157023
673.0, 0.560197798407546
674.0, 0.49824672439755185
675.0, 0.4502598620481876
676.0, 0.41339987034832903
677.0, 0.3847840073705313
678.0, 0.3624678747275888
679.0, 0.3438603792409839
680.0, 0.3259957823337871
681.0, 0.31019907310180955
682.0, 0.29923787123411216
683.0, 0.2895907698543985
684.0, 0.2795226928459863
685.0, 0.27259218065687196
686.0, 0.2634425823083206
687.0, 0.25315290478012975
688.0, 0.24602726337688846
689.0, 0.2374079512504477
690.0, 0.2288764909930338
691.0, 0.2183574830503253
692.0, 0.20640210623826546
693.0, 0.19496792034664281
694.0, 0.18329771934950265
695.0, 0.16855513047024334
696.0, 0.15536871687402554
697.0, 0.1373427246070566
698.0, 0.11885550211048296
699.0, 0.10029166802165722
700.0, 0.0813544154322778
701.0, 0.06462736492986751
702.0, 0.049938448053946614
703.0, 0.039980191679159754
704.0, 0.030187498067903634
705.0, 0.023899037848629744
706.0, 0.02020907979879684
707.0, 0.014207884126529024
708.0, 0.010831059961629318
709.0, 0.00929627484853351
710.0, 0.007859366243082038
711.0, 0.005780148606547878
712.0, 0.004505945979626674
713.0, 0.004379827139155094
714.0, 0.002470847928258067
715.0, 0.00036740351236243723
716.0, 0.0002094763893399086
717.0, 0.00019714671943477893
718.0, 0.0001638687955024195
719.0, 0.0007050413124264429
720.0, 0.0020035412673407266
721.0, 0.002324853874148556
722.0, 0.0017640493775204272
723.0, 0.0018281511653071476
724.0, 0.001508915530123259
725.0, 0.0015728759384234273
726.0, 0.0033629336292791893
727.0, 0.0036025555616329913
728.0, 0.0025206542885992237
729.0, 0.0024578457053799894
730.0, 0.002590889639121639
731.0, 0.0018063474998193235
732.0, 0.0015840035517148386
733.0, 0.0035166445770670332
734.0, 0.001834074050729393
735.0, 0.0016802017940632402
736.0, 0.0021823076564547695
737.0, 0.0018932516928033337
738.0, 0.001002776239927478
739.0, 0.0006378737696866778
740.0, 0.0009013737532102306
741.0, 0.0015540184747059006
742.0, 0.0007484574504576498
743.0, 0.0002387342329358949
744.0, 0.0004174972749951655
745.0, 0.00012427571717352494
746.0, 0.000343268123629286
747.0, 0.0001752635622153081
748.0, 0.001103058897951862
749.0, 0.0019144510175048506
750.0, 0.0018836472635888784
751.0, 0.0017459344296230257
752.0, 0.002326595415867458
753.0, 0.0025352917809145074
754.0, 0.0029940907657570524
755.0, 0.003945275370153588
756.0, 0.00497399015777758
757.0, 0.005136700058359889
758.0, 0.005102346006469768
759.0, 0.005917891168829895
760.0, 0.004859180661342
761.0, 0.005131286361018682
762.0, 0.005608939051930933
763.0, 0.005834666304223003
764.0, 0.006550219979382037
765.0, 0.00746626299546997
766.0, 0.006864327894489881
767.0, 0.00704551241479568
768.0, 0.007851308672211206
769.0, 0.008301834393834017
770.0, 0.008528263180513735
771.0, 0.008718898655803931
772.0, 0.008741408861813018
773.0, 0.008835997064255073
774.0, 0.009398466639783566
775.0, 0.009654641621854105
776.0, 0.009243231709143462
777.0, 0.00906927330588127
778.0, 0.009235337891681093
779.0, 0.009058017412421258
780.0, 0.009390928419951776
781.0, 0.010139076554377053
782.0, 0.00976242043879101
783.0, 0.009165277188666032
784.0, 0.009103353225792879
785.0, 0.009569350882224168
786.0, 0.010092564147909825
787.0, 0.010440312639958788
788.0, 0.010029245768717754
789.0, 0.010226831495505915
790.0, 0.01028152416687803
791.0, 0.010056232851188857
792.0, 0.010239850299243056
793.0, 0.00983150281053344
794.0, 0.009418973434633266
795.0, 0.007984226917152858
796.0, 0.008034533550000483
797.0, 0.007573360747669929
798.0, 0.006977612376062899
799.0, 0.007587112981535288
800.0, 0.007108656512358445
801.0, 0.006569525693096944
802.0, 0.007339900450943574
803.0, 0.00706273129467613
804.0, 0.00681485974196535
805.0, 0.006719571193951958
806.0, 0.005969556979717875
807.0, 0.00580197661961058
808.0, 0.006496119197753452
809.0, 0.00945503036123513
810.0, 0.008708462261608143
811.0, 0.006865973786843405
812.0, 0.006297523875104437
813.0, 0.005838827452053272
814.0, 0.005917703837466576
815.0, 0.005331353873315584
816.0, 0.004969097431554727
817.0, 0.005605840599161991
818.0, 0.005899734407040282
819.0, 0.00550942929549181
820.0, 0.005335815744505587
821.0, 0.005784506223990364
822.0, 0.005365902416057008
823.0, 0.005889009103814282
824.0, 0.005783918887725859
825.0, 0.0060048201666643335
826.0, 0.00634778985319818
827.0, 0.005977804163954408
828.0, 0.005818043830684672
829.0, 0.005370764243826204
830.0, 0.004345820630225325
831.0, 0.004969476624335523
832.0, 0.0049287712190957044
833.0, 0.004461257435552026
834.0, 0.0051291024434535325
835.0, 0.005814722566597769
836.0, 0.004677990914219049
837.0, 0.004159769260302117
838.0, 0.005541031018100797
839.0, 0.004810358856013426
840.0, 0.0033992441139587227
841.0, 0.0037629408224099815
842.0, 0.0038750180482859083
843.0, 0.003036563065635247
844.0, 0.0036469783345946423
845.0, 0.0033945426964928555
846.0, 0.002895394324955479
847.0, 0.0024173573149546507
848.0, 0.001839764760780481
849.0, 0.0017751945718332994
850.0, 0.003039908639798942
851.0, 0.0020933260620909647
852.0, 0.0026517181693289124
853.0, 0.0024842034958712134
854.0, 0.0021927467046768782
855.0, 0.0018635566140561756
856.0, 0.001543603172049672
857.0, 0.0030676390184875635
858.0, 0.001236720035593459
859.0, 0.0011211164041947262
860.0, 0.00032594827326613217
861.0, 0.0008454440452890974
862.0, 0.0018062315157191448
863.0, 0.0017758632214425905
864.0, 0.0021038086890700332
865.0, 0.001620834847906295
866.0, 0.0005792891615632416
867.0, 0.00047166631987192445
868.0, 0.0010094341042562547
869.0, 0.0013423769319275255
870.0, 0.0005110854362194602
871.0, 0.0007182983839205127
872.0, 0.0008308947341555612
873.0, 0.0008527200594671399
874.0, 0.00030998055081126396
875.0, 1.4095894390095305e-05
876.0, 2.8385841013492402e-05
877.0, 0.0005084332216415031
878.0, 0.0011780418418774745
879.0, 0.0009139368278930546
880.0, 0.00048474006879177517
881.0, 0.001711288527470617
882.0, 0.001990357375616441
883.0, 0.002086990211394641
884.0, 0.0022667491428826035
885.0, 0.0017020854034392261
886.0, 0.000600593705745546
887.0, 0.0008992560814849215
888.0, 0.0012356718788149828
889.0, 0.0011341533186998822
890.0, 0.0009853429998666397
891.0, 0.001118314330501295
892.0, 0.0014839933876424109
893.0, 0.0013779072881016413
894.0, 0.00041204927056619775
895.0, 4.6231463305118566e-05
896.0, 0.0012144105597354862
897.0, 0.0018657960207508352
898.0, 0.0018200344848751623
899.0, 0.002000506576426757
900.0, 0.001730775211151277
901.0, 0.0010708578066035543
902.0, 0.0017425606833428415
903.0, 0.0013286904043058997
904.0, 0.0031492198316618635
905.0, 0.0029871636621776323
906.0, 0.0026017014635099393
907.0, 0.002900105740583109
908.0, 0.003032589151684178
909.0, 0.0029255351870713354
910.0, 0.003484758268217133
911.0, 0.003390839330281998
912.0, 0.0018162279471606183
913.0, 0.002975002740423253
914.0, 0.0036765665110326602
915.0, 0.0035685649501248514
916.0, 0.0032439294891019503
917.0, 0.002502178299204118
918.0, 0.003416768189455458
919.0, 0.0043656225699070725
920.0, 0.004918811895411615
921.0, 0.003098510204989919
922.0, 0.0028330970235058922
923.0, 0.004005262622416902
924.0, 0.003912055044385166
925.0, 0.0024392100549431154
926.0, 0.0019203612719876707
927.0, 0.003983866994122525
928.0, 0.004166682419568142
929.0, 0.0033748416489065448
930.0, 0.003350331643005599
931.0, 0.00573399817336674
932.0, 0.00664217884234875
933.0, 0.003257112374289746
934.0, 0.0033223446516989917
935.0, 0.0037238180301491816
936.0, 0.0038727237688347977
937.0, 0.0036264403081277432
938.0, 0.0022148796164161632
939.0, 0.001953763656839782
940.0, 0.0027667197982982577
941.0, 0.0021682834215454435
942.0, 0.0016927971939692252
943.0, 0.0034164324317215583
944.0, 0.002195360717519388
945.0, 0.0017839138129106063
946.0, 0.0016404871827754993
947.0, 0.000869886372185278
948.0, 0.0009927630036357664
949.0, 0.0022535358973579263
950.0, 0.001814460313018071
951.0, 0.0008988893664563513
952.0, 0.0020756706203896853
953.0, 0.0017428859419443268
954.0, 0.001016987103550621
955.0, 0.00042715499429312555
956.0, 0.00046034537147029785
957.0, 0.001568754179290189
958.0, 0.002368479687174566
959.0, 0.000166767269620482
960.0, 0.0028372100606578227
961.0, 0.0017905435093724105
962.0, 0.00043433311068780047
963.0, 0.0009250005637046338
964.0, 0.00016715580089095297
965.0, 0.000553558153140563
966.0, 0.00016799639516332937
967.0, 0.0008432419173719806
968.0, 0.00036981360754382545
969.0, 0.0002778186422831531
970.0, 0.00011728341837689225
971.0, 0.0004990759932053331
972.0, 0.0003754877484712071
973.0, 0.0003262548722573993
974.0, 0.00017264170112731134
975.0, 0.0004046163585225931
976.0, 0.000531617409177364
977.0, 0.000749371772375225
978.0, 0.000809853067003898
979.0, 0.0006559694232800865
980.0, 0.0018941758341084402
981.0, 0.0022664746253695683
982.0, 0.0011845872338166218
983.0, 0.0013547066276965829
984.0, 0.00017448848444211732
985.0, 0.0005569966052648644
986.0, 0.0006235078369300993
987.0, 0.0014577555671511113
988.0, 0.0019828508140871176
989.0, 0.0021367675661977596
990.0, 0.0017291435871244223
991.0, 0.0011264398497546997
992.0, 0.0007845947854868602
993.0, 0.0010475504620104745
994.0, 0.0013778736373843783
995.0, 0.0012683067638928948
996.0, 0.0010185080776083325
997.0, 0.0009891225941393762
998.0, 0.0007535075226903709
999.0, 0.0003028166283838989
1000.0, 0.0006278314791687085
1001.0, 0.001625460362874101
1002.0, 0.0015134255471087655
1003.0, 0.002918484947004026
1004.0, 0.003772473282805624
1005.0, 0.0019492019305807646
1006.0, 0.0012715580311222527
1007.0, 0.001607538947116276
1008.0, 0.0015706215422149228
1009.0, 0.0019733643148924116
1010.0, 0.0005742524051251539
1011.0, 0.00012428715171997772
1012.0, 0.0016167590967844513
1013.0, 0.002621947121449654
1014.0, 0.0013201608698799093
1015.0, 0.0011416289380861934
1016.0, 0.0021085276663145632
1017.0, 0.0019030032384867318
1018.0, 0.0006995252397479022
1019.0, 0.0007098719434717189
1020.0, 0.0006108926639558092
1021.0, 0.0003480128680798564
1022.0, 0.0004275537009708624
1023.0, 0.0006443865276987464
1024.0, 0.0016202696204228755
1025.0, 0.0019485785760088089
1026.0, 0.0013729326283585925
1027.0, 0.0016992398914575906
1028.0, 0.0012036486570650199
1029.0, 0.0008344667760672108
1030.0, 0.00042529894846456
1031.0, 0.0008304175766962297
1032.0, 0.0013532666311580166
1033.0, 0.001893249042513736
1034.0, 0.0022924023035529395
1035.0, 0.00224473978737141
1036.0, 0.0016939630763267157
1037.0, 0.0008838485801225753
1038.0, 0.00033110834715185125
1039.0, 0.001306670768514494
1040.0, 0.0021094632437644928
1041.0, 0.0017637445552250361
1042.0, 0.0016038573550768342
1043.0, 0.0018580550399753106
1044.0, 0.0018481331523013973
1045.0, 0.0011230169871009842
1046.0, 0.00048318518120655683
1047.0, 0.002328586688402583
1048.0, 0.0015856058870175503
1049.0, 0.001713346341726465
1050.0, 0.0012274077474516347
1051.0, 0.0016230657188385212
1052.0, 0.0014602864505898802
1053.0, 0.0006290056150169264
1054.0, 0.0004799446867833505
1055.0, 0.00035836592512237777
1056.0, 9.06988276631855e-05
1057.0, 0.00020306235068814508
1058.0, 0.0003996096768937709
1059.0, 0.0014994962827148417
1060.0, 0.0016637415373986948
1061.0, 0.00134195985405956
1062.0, 0.0009145351025661678
1063.0, 0.0007166482684469
1064.0, 0.001175570372533039
1065.0, 0.0010424812429304271
1066.0, 0.00022081004473631057
1067.0, 0.0015335963069746195
1068.0, 0.0005329374965890605
1069.0, 1.3241948971253157e-05
1070.0, 0.00031471795577979467
1071.0, 0.0008231845410934871
1072.0, 0.0009524608579345652
1073.0, 0.0008004912398562629
1074.0, 0.0008416434391345796
1075.0, 0.001022343222105164
1076.0, 0.0016259094590408737
1077.0, 0.0004973773688635513
1078.0, 0.0015949577159287615
1079.0, 0.0013605361284488463
1080.0, 0.001498948652368444
1081.0, 0.0008647670105355294
1082.0, 0.0010386676511989366
1083.0, 0.0025863860141866163
1084.0, 0.0021029130667414167
1085.0, 0.0021541571387313635
1086.0, 0.001721352695344986
1087.0, 0.0013615989550038942
1088.0, 0.00046912557855973834
1089.0, 0.0012497202574600203
1090.0, 0.0018461864996376922
1091.0, 0.0020158124480371487
1092.0, 0.002153131081806042
1093.0, 0.0013619319805346648
1094.0, 0.00013381530218454688
1095.0, 0.00011111821809510512
1096.0, 0.00046302379633510963
1097.0, 0.0003872625063711911
1098.0, 0.0014803146008006299
1099.0, 0.0019043251481531739
1100.0, 0.0025887677388620927
1101.0, 0.0011645757629960155
1102.0, 2.671049953298913e-05
1103.0, 0.0007245077775419384
1104.0, 0.0008806706798678344
1105.0, 0.0016724341021158596
1106.0, 0.0005110508254970047
1107.0, 0.00020223783942883026
1108.0, 0.0010629649381853298
1109.0, 0.0011169894096537919
1110.0, 0.0009923735954040591
1111.0, 0.0009678704891533275
1112.0, 0.0009657265672131036
1113.0, 0.0003996247366497191
1114.0, 0.000539342280051466
1115.0, 0.0023951841365799204
1116.0, 0.00030807384000463574
1117.0, 0.0008727375737746362
1118.0, 0.00047997788874905566
1119.0, 0.00021132016080201087
1120.0, 0.00014563745579938158
1121.0, 0.0006586316488296286
1122.0, 0.0006381121898197716
1123.0, 0.00011998778509641381
1124.0, 8.20063105553865e-05
1125.0, 0.0003258309242416612
1126.0, 0.0010461132889843829
1127.0, 0.0006464407653790863
1128.0, 0.00020755530992453225
1129.0, 0.0012357192062369296
1130.0, 0.001115128707763695
1131.0, 0.0016836565951105851
1132.0, 0.0011052594085368202
1133.0, 0.0005447680081811323
1134.0, 0.00037175295726214926
1135.0, 0.00038837024547605677
1136.0, 0.0011823564746499106
1137.0, 0.0008134946623431222
1138.0, 0.000814422113168345
1139.0, 0.0004231059870906908
1140.0, 0.000766080745081576
1141.0, 0.0012992873116076814
1142.0, 2.001199375314093e-05
1143.0, 0.000795309567253552
1144.0, 0.0017875241844973126
1145.0, 0.0017057558357127568
1146.0, 0.0019395077933240064
1147.0, 0.0014376455628691423
1148.0, 0.001889744012186461
1149.0, 0.0011878397017324512
1150.0, 0.0015416727446276558
1151.0, 0.0017773061294003314
1152.0, 0.0025534038833047936
1153.0, 0.0019341133009941481
1154.0, 0.0008687139821679012
1155.0, 0.001801448022435908
1156.0, 0.0022244304963887455
1157.0, 0.0014107078854373699
1158.0, 0.0023458232401294935
1159.0, 0.0013067783282154702
1160.0, 0.001980673664190969
1161.0, 0.0024786774580000492
1162.0, 0.0017961306127179933
1163.0, 0.0014026885101490584
1164.0, 0.0022688909816959194
1165.0, 0.002306183500773959
1166.0, 0.0026588667935435817
1167.0, 0.0028458405213186693
1168.0, 0.00211382530145939
1169.0, 0.0014963798512244001
1170.0, 0.00076681578414944
1171.0, 0.0008493519191461536
1172.0, 0.0016581137124784624
1173.0, 0.001180685096998719
1174.0, 0.002080467213011822
1175.0, 0.0015166940176092657
1176.0, 0.0013298597873201404
1177.0, 0.0016179848993363782
1178.0, 0.0008649132277461354
1179.0, 0.0005639990481854174
1180.0, 0.0013341232602669135
1181.0, 0.0016004698955872196
1182.0, 0.0019550220466440656
1183.0, 0.0010211077892912997
1184.0, 0.0031654928025630674
1185.0, 0.001778051166436246
1186.0, 0.0010071569355669663
1187.0, 0.0008636581008600329
1188.0, 0.0015169042838941212
1189.0, 0.0027919440405403803
1190.0, 0.0027464395290657233
1191.0, 0.0025183935830475554
1192.0, 0.0025232572349318245
1193.0, 0.0008240691768112171
1194.0, 0.0004872346834541981
1195.0, 0.0017879188722687526
1196.0, 0.001141664166026537
1197.0, 0.0008659693768335568
1198.0, 0.0014047709035602605
1199.0, 0.0018423031672667458
1200.0, 0.002297645156994213
1201.0, 0.00325331783243888
1202.0, 0.002321598250506648
1203.0, 0.0016293303463876365
1204.0, 0.0024261484718645743
1205.0, 0.0022837183166264426
1206.0, 0.002177174900548128
1207.0, 0.0008846008750554523
1208.0, 0.0008667971052707515
1209.0, 0.001887670696970874
1210.0, 0.0013557865516586952
1211.0, 0.0010772965990170282
1212.0, 0.0008984730629029972
1213.0, 0.0012905434098060336
1214.0, 0.002147376656546261
1215.0, 0.0016924433963161846
1216.0, 0.0004890783857596209
1217.0, 0.0006021173966319125
1218.0, 0.0012664004128983444
1219.0, 0.0015998159970706982
1220.0, 0.0011123840690013538
1221.0, 0.0008490435046215888
1222.0, 0.0005466817878790257
1223.0, 0.0023487184491021522
1224.0, 0.0012156460283631212
1225.0, 0.0014137308597307588
1226.0, 0.0015429569162695716
1227.0, 0.0014584102729485288
1228.0, 0.001507681972734026
1229.0, 0.0014279587068074095
1230.0, 0.0017270896641097917
1231.0, 0.001363413570008952
1232.0, 0.00025479081663593034
1233.0, 0.00028115276001030535
1234.0, 0.002281760991009613
1235.0, 0.0026093492906226145
1236.0, 7.418273531864766e-05
1237.0, 0.000772640709772377
1238.0, 0.0005862330606073078
1239.0, 9.158805930533148e-05
1240.0, 0.0020187816703367894
1241.0, 0.00291451654200168
1242.0, 0.000941161171593734
1243.0, 0.0005960522331050435
1244.0, 0.001008548942436327
1245.0, 0.00011572937882103014
1246.0, 0.0005126548526731177
1247.0, 0.0018112580852038124
1248.0, 0.0012980618787880446
1249.0, 0.0015902370491699676
1250.0, 0.000625822822139567
1251.0, 0.0022036395332861148
1252.0, 0.0018464507093669865
1253.0, 0.0009455203728059418
1254.0, 0.0013628679189968591
1255.0, 0.0009324340130963594
1256.0, 0.0004301964739104562
1257.0, 0.001451978114097316
1258.0, 0.0013389077073766907
1259.0, 0.0011532297203210792
1260.0, 0.00042630445840050854
1261.0, 0.0006817274292385621
1262.0, 0.001945287256048418
1263.0, 0.0008077882901342851
1264.0, 0.0006724152417137919
1265.0, 0.0014469170069011438
1266.0, 0.0010508087237890021
1267.0, 0.0020191701536511875
1268.0, 0.00298775312824264
1269.0, 0.0020478658932891257
1270.0, 0.00047727218331038396
1271.0, 0.00012160866611459002
1272.0, 0.0007841316925957474
1273.0, 0.0013491723528025372
1274.0, 0.0007371828003813955
1275.0, 0.001082216827042675
1276.0, 0.0009210721365986438
1277.0, 0.00044974959739386814
1278.0, 0.001124511728917254
1279.0, 0.0011094142450004296
1280.0, 0.0016533700443865282
1281.0, 0.002085619831498723
1282.0, 0.0015314853965625135
1283.0, 0.001450283718834175
1284.0, 0.0019726636609337187
1285.0, 0.0017733534190317731
1286.0, 0.0017923212835444266
1287.0, 0.0022219558169469093
1288.0, 0.0014755695474125453
1289.0, 0.0007697446711812403
1290.0, 0.0013554977359879418
1291.0, 0.00014333931899966455
1292.0, 0.0012337887397341858
1293.0, 0.0015741690228814101
1294.0, 0.002871721824784771
1295.0, 0.0026211686231288785
1296.0, 0.002442366073635423
1297.0, 0.0008251351325169498
1298.0, 0.0003165343941225443
1299.0, 0.0012185255161132993
1300.0, 0.0008961946710506198
1301.0, 0.00017699203193748106
1302.0, 0.0010400864236519618
1303.0, 0.002171106886536864
1304.0, 0.00023065524855624066
1305.0, 0.0001622488012537481
1306, 0.0
1307, 0.0
1308, 0.0
1309, 0.0
1310, 0.0
1311, 0.0
1312, 0.0
1313, 0.0
1314, 0.0
1315, 0.0
1316, 0.0
1317, 0.0
1318, 0.0
1319, 0.0
1320, 0.0
1321, 0.0
1322, 0.0
1323, 0.0
1324, 0.0
1325, 0.0
1326, 0.0
1327, 0.0
1328, 0.0
1329, 0.0
1330, 0.0
1331, 0.0
1332, 0.0
1333, 0.0
1334, 0.0
1335, 0.0
1336, 0.0
1337, 0.0
1338, 0.0
1339, 0.0
1340, 0.0
1341, 0.0
1342, 0.0
1343, 0.0
1344, 0.0
1345, 0.0
1346, 0.0
1347, 0.0
1348, 0.0
1349, 0.0
1350, 0.0
1351, 0.0
1352, 0.0
1353, 0.0
1354, 0.0
1355, 0.0
1356, 0.0
1357, 0.0
1358, 0.0
1359, 0.0
1360, 0.0
1361, 0.0
1362, 0.0
1363, 0.0
1364, 0.0
1365, 0.0
1366, 0.0
1367, 0.0
1368, 0.0
1369, 0.0
1370, 0.0
1371, 0.0
1372, 0.0
1373, 0.0
1374, 0.0
1375, 0.0
1376, 0.0
1377, 0.0
1378, 0.0
1379, 0.0
1380, 0.0
1381, 0.0
1382, 0.0
1383, 0.0
1384, 0.0
1385, 0.0
1386, 0.0
1387, 0.0
1388, 0.0
1389, 0.0
1390, 0.0
1391, 0.0
1392, 0.0
1393, 0.0
1394, 0.0
1395, 0.0
1396, 0.0
1397, 0.0
1398, 0.0
1399, 0.0
1400, 0.0
1401, 0.0
1402, 0.0
1403, 0.0
1404, 0.0
1405, 0.0
1406, 0.0
1407, 0.0
1408, 0.0
1409, 0.0
1410, 0.0
1411, 0.0
1412, 0.0
1413, 0.0
1414, 0.0
1415, 0.0
1416, 0.0
1417, 0.0
1418, 0.0
1419, 0.0
1420, 0.0
1421, 0.0
1422, 0.0
1423, 0.0
1424, 0.0
1425, 0.0
1426, 0.0
1427, 0.0
1428, 0.0
1429, 0.0
1430, 0.0
1431, 0.0
1432, 0.0
1433, 0.0
1434, 0.0
1435, 0.0
1436, 0.0
1437, 0.0
1438, 0.0
1439, 0.0
1440, 0.0
1441, 0.0
1442, 0.0
1443, 0.0
1444, 0.0
1445, 0.0
1446, 0.0
1447, 0.0
1448, 0.0
1449, 0.0
1450, 0.0
1451, 0.0
1452, 0.0
1453, 0.0
1454, 0.0
1455, 0.0
1456, 0.0
1457, 0.0
1458, 0.0
1459, 0.0
1460, 0.0
1461, 0.0
1462, 0.0
1463, 0.0
1464, 0.0
1465, 0.0
1466, 0.0
1467, 0.0
1468, 0.0
1469, 0.0
1470, 0.0
1471, 0.0
1472, 0.0
1473, 0.0
1474, 0.0
1475, 0.0
1476, 0.0
1477, 0.0
1478, 0.0
1479, 0.0
1480, 0.0
1481, 0.0
1482, 0.0
1483, 0.0
1484, 0.0
1485, 0.0
1486, 0.0
1487, 0.0
1488, 0.0
1489, 0.0
1490, 0.0
1491, 0.0
1492, 0.0
1493, 0.0
1494, 0.0
1495, 0.0
1496, 0.0
1497, 0.0
1498, 0.0
1499, 0.0
1500, 0.0
1501, 0.0
1502, 0.0
1503, 0.0
1504, 0.0
1505, 0.0
1506, 0.0
1507, 0.0
1508, 0.0
1509, 0.0
1510, 0.0
1511, 0.0
1512, 0.0
1513, 0.0
1514, 0.0
1515, 0.0
1516, 0.0
1517, 0.0
1518, 0.0
1519, 0.0
1520, 0.0
1521, 0.0
1522, 0.0
1523, 0.0
1524, 0.0
1525, 0.0
1526, 0.0
1527, 0.0
1528, 0.0
1529, 0.0
1530, 0.0
1531, 0.0
1532, 0.0
1533, 0.0
1534, 0.0
1535, 0.0
1536, 0.0
1537, 0.0
1538, 0.0
1539, 0.0
1540, 0.0
1541, 0.0
1542, 0.0
1543, 0.0
1544, 0.0
1545, 0.0
1546, 0.0
1547, 0.0
1548, 0.0
1549, 0.0
1550, 0.0
1551, 0.0
1552, 0.0
1553, 0.0
1554, 0.0
1555, 0.0
1556, 0.0
1557, 0.0
1558, 0.0
1559, 0.0
1560, 0.0
1561, 0.0
1562, 0.0
1563, 0.0
1564, 0.0
1565, 0.0
1566, 0.0
1567, 0.0
1568, 0.0
1569, 0.0
1570, 0.0
1571, 0.0
1572, 0.0
1573, 0.0
1574, 0.0
1575, 0.0
1576, 0.0
1577, 0.0
1578, 0.0
1579, 0.0
1580, 0.0
1581, 0.0
1582, 0.0
1583, 0.0
1584, 0.0
1585, 0.0
1586, 0.0
1587, 0.0
1588, 0.0
1589, 0.0
1590, 0.0
1591, 0.0
1592, 0.0
1593, 0.0
1594, 0.0
1595, 0.0
1596, 0.0
1597, 0.0
1598, 0.0
1599, 0.0
