30, 0.0
31, 0.0
32, 0.0
33, 0.0
34, 0.0
35, 0.0
36, 0.0
37, 0.0
38, 0.0
39, 0.0
40, 0.0
41, 0.0
42, 0.0
43, 0.0
44, 0.0
45, 0.0
46, 0.0
47, 0.0
48, 0.0
49, 0.0
50.0, 7.601727410043797e-05
51.0, 0.00027116456336116843
52.0, 0.0007118770042640248
53.0, 0.0017341439695038553
54.0, 0.0027847627030789164
55.0, 0.0037272185142475074
56.0, 0.004835066283159405
57.0, 0.005980640103520899
58.0, 0.007390589673299013
59.0, 0.009590574913754592
60.0, 0.010688047363096604
61.0, 0.01192380323607635
62.0, 0.013592671908997244
63.0, 0.014661940292441502
64.0, 0.015343412261658062
65.0, 0.015694453587680093
66.0, 0.015693760486325613
67.0, 0.014634341860567342
68.0, 0.013562892764798407
69.0, 0.012740215734177548
70.0, 0.01229025252930483
71.0, 0.011931380685271602
72.0, 0.011619678620091455
73.0, 0.011303063049401272
74.0, 0.01127942285498286
75.0, 0.010825859731902795
76.0, 0.009879054855957617
77.0, 0.00996305948777755
78.0, 0.009665256939233296
79.0, 0.009040422642966117
80.0, 0.008048628658142654
81.0, 0.006940858434301254
82.0, 0.005751418257518604
83.0, 0.0045512851774908445
84.0, 0.004006717221208205
85.0, 0.0033145679687335947
86.0, 0.0027926002640962276
87.0, 0.0028392666141390695
88.0, 0.0019558226023262365
89.0, 0.001270533922937487
90.0, 0.0008611275632368059
91.0, 0.0002740109053638648
92.0, 0.00021718048971835956
93.0, 0.0003440015644385697
94.0, 0.00041463389293960027
95.0, 0.00016740245711897774
96.0, 0.00027489791060892753
97.0, 0.0005895709531837987
98.0, 0.00016557225079065604
99.0, 0.00017023083160836212
100.0, 0.00025992045666076147
101.0, 0.0002435711552251574
102.0, 0.00013361867477108773
103.0, 0.0001610726621324859
104.0, 0.0003181980538241335
105.0, 0.0005857556693813968
106.0, 0.0003300402475864479
107.0, 0.0001917801186397817
108.0, 0.00044657936578303825
109.0, 0.0005395532127940297
110.0, 0.0007752587639359487
111.0, 0.0010888081221929172
112.0, 0.001359619804770028
113.0, 0.00214211890566277
114.0, 0.0027688284544469394
115.0, 0.00308383778928899
116.0, 0.003710382191884515
117.0, 0.003631750294873666
118.0, 0.0034472496830903164
119.0, 0.0039508269158973035
120.0, 0.004032760618765375
121.0, 0.00429350368172311
122.0, 0.00477916455679817
123.0, 0.005103612747567839
124.0, 0.005636085160365948
125.0, 0.006126798126153579
126.0, 0.006357717764859592
127.0, 0.006639912750984188
128.0, 0.00709837676709201
129.0, 0.007675296157344708
130.0, 0.008125738760216255
131.0, 0.008793149522725098
132.0, 0.009552856043484525
133.0, 0.01035763659949686
134.0, 0.011340375468288068
135.0, 0.012385476666443277
136.0, 0.013525395567682046
137.0, 0.014857958422362516
138.0, 0.016433001481701518
139.0, 0.01803078822161472
140.0, 0.019603534010689868
141.0, 0.02125510300542288
142.0, 0.02334349886457243
143.0, 0.02483795652595463
144.0, 0.024377546659277452
145.0, 0.02554567248696386
146.0, 0.025919588108819416
147.0, 0.025623090208549464
148.0, 0.026727708734501712
149.0, 0.02712184176417369
150.0, 0.027584983364922114
151.0, 0.028580197676208053
152.0, 0.028416149747229294
153.0, 0.02837686119891546
154.0, 0.028562665932346912
155.0, 0.029215765974882357
156.0, 0.029130495086335837
157.0, 0.029426062403337463
158.0, 0.0302979179918134
159.0, 0.02980523692745689
160.0, 0.030024699987768667
161.0, 0.030876852707286028
162.0, 0.03243274770200331
163.0, 0.0320331927267713
164.0, 0.03208735861703783
165.0, 0.0328141507855174
166.0, 0.03413831392163181
167.0, 0.035096890695346966
168.0, 0.03568505749169485
169.0, 0.035860251957592515
170.0, 0.03744619082750694
171.0, 0.03883215740454373
172.0, 0.03988831127360414
173.0, 0.040284563373039324
174.0, 0.04241737902278294
175.0, 0.04419412755004589
176.0, 0.04535670336716265
177.0, 0.04737950538078302
178.0, 0.048652856444669476
179.0, 0.049786493544363944
180.0, 0.05123148793067467
181.0, 0.050148020167549774
182.0, 0.047891776753400964
183.0, 0.045203170061480245
184.0, 0.04392191929448743
185.0, 0.041175918084778045
186.0, 0.03883215949816127
187.0, 0.037461138967428094
188.0, 0.03664855538133898
189.0, 0.03520707590194913
190.0, 0.03393318712676908
191.0, 0.03372752411790368
192.0, 0.032999277777878026
193.0, 0.032830915503707696
194.0, 0.03282338082635462
195.0, 0.031141762181479148
196.0, 0.030813556001221508
197.0, 0.03071722880039955
198.0, 0.03043988361861081
199.0, 0.0300828393452149
200.0, 0.030145040906368756
201.0, 0.030169115744398442
202.0, 0.029549406036634307
203.0, 0.02986938709738649
204.0, 0.0299856580155375
205.0, 0.030053024921133802
206.0, 0.03131351995850842
207.0, 0.03223965765310815
208.0, 0.0332495181014011
209.0, 0.0345672875310616
210.0, 0.037390407034245086
211.0, 0.039644706826453505
212.0, 0.04212723821710912
213.0, 0.045987539701868016
214.0, 0.04898642013085061
215.0, 0.052777568533368485
216.0, 0.05724054804658263
217.0, 0.061049097814261925
218.0, 0.0637240867112152
219.0, 0.06549492807427225
220.0, 0.06625722581686273
221.0, 0.06252157198564527
222.0, 0.059923687631182575
223.0, 0.05697936016424712
224.0, 0.05170034580403855
225.0, 0.04913788510896206
226.0, 0.046083927284668515
227.0, 0.04250213487738142
228.0, 0.039471836887742424
229.0, 0.037764186390420965
230.0, 0.03605940368494311
231.0, 0.033963155047182274
232.0, 0.03308836199457887
233.0, 0.032428993053740404
234.0, 0.03200267781858984
235.0, 0.031872209778050026
236.0, 0.032583616903771574
237.0, 0.03210926295486381
238.0, 0.03075450799560719
239.0, 0.029697914164190944
240.0, 0.027036476636532036
241.0, 0.024022155074290688
242.0, 0.02100184193705144
243.0, 0.018078976019719462
244.0, 0.01512423263290437
245.0, 0.012449355711473598
246.0, 0.01033006177313282
247.0, 0.008520535196742838
248.0, 0.007273348415446432
249.0, 0.006488159460984661
250.0, 0.006029895932634257
251.0, 0.0053039070098363445
252.0, 0.00479377633568309
253.0, 0.004504791127591178
254.0, 0.003973977625351053
255.0, 0.003388021671575623
256.0, 0.002959995833759022
257.0, 0.0027915955006228696
258.0, 0.0023168198897487785
259.0, 0.0020142634163613444
260.0, 0.0018138675925579548
261.0, 0.001646063287859223
262.0, 0.001414679023916028
263.0, 0.0011393345503208213
264.0, 0.0009010751937539914
265.0, 0.0009482384260153569
266.0, 0.0006525080130778602
267.0, 0.0003804722405641362
268.0, 0.00026731132000674094
269.0, 0.0005951485392455239
270.0, 0.00046810628599085137
271.0, 0.00024374450996307077
272.0, 0.0001494748404377896
273.0, 0.00031345141479847515
274.0, 0.00022386447410550458
275.0, 0.0001834733471824134
276.0, 0.000689671386468431
277.0, 0.0005928824890415097
278.0, 0.0003525848188567559
279.0, 0.00015568798361362244
280.0, 0.0004883687924845674
281.0, 0.0003071228047078849
282.0, 0.00024518825135228894
283.0, 0.00045667698329439013
284.0, 0.0003401474000974613
285.0, 0.00028767649474344706
286.0, 0.0003854803890341154
287.0, 0.0007113748950353022
288.0, 0.000719339746718572
289.0, 0.0008559347966459673
290.0, 0.0013486829786267794
291.0, 0.0026092278069368958
292.0, 0.002458834316942197
293.0, 0.002957402329531528
294.0, 0.003955256636342524
295.0, 0.004127976462139593
296.0, 0.005681811094512279
297.0, 0.0075386381202389285
298.0, 0.009293650471865776
299.0, 0.010151066934467627
300.0, 0.011316105793898554
301.0, 0.012024661448290772
302.0, 0.011787237243448361
303.0, 0.01227017434870253
304.0, 0.011933704546874199
305.0, 0.011109707086870365
306.0, 0.010163460715290291
307.0, 0.01016365892982441
308.0, 0.009609083616675172
309.0, 0.008741956800057953
310.0, 0.008451127915659853
311.0, 0.008355823076140656
312.0, 0.007906834505834166
313.0, 0.007251633155724557
314.0, 0.007827722813303205
315.0, 0.006942397494664176
316.0, 0.005854178534428767
317.0, 0.005078129883986876
318.0, 0.004398558096518187
319.0, 0.00425073882127279
320.0, 0.004195076629079391
321.0, 0.0038814927296227956
322.0, 0.003981784588788951
323.0, 0.004821355432905225
324.0, 0.005763355863812768
325.0, 0.00581292624594779
326.0, 0.007485543978709512
327.0, 0.008823046621289167
328.0, 0.010139498773177394
329.0, 0.012923698710356939
330.0, 0.015316777185931215
331.0, 0.017740177587165055
332.0, 0.02031433490455155
333.0, 0.023171879639669296
334.0, 0.026384816254913564
335.0, 0.029452740084890596
336.0, 0.032162967651797846
337.0, 0.03462617446245116
338.0, 0.03798557754064195
339.0, 0.042300239179269436
340.0, 0.04768830437054489
341.0, 0.0559468131894016
342.0, 0.07128294896882949
343.0, 0.09316297474997028
344.0, 0.12150577504403469
345.0, 0.17925956225120585
346.0, 0.26393945064128743
347.0, 0.37800956216663817
348.0, 0.5306786825138692
349.0, 0.7252241999258334
350.0, 0.8842599690927041
351.0, 0.9868405171722909
352.0, 0.9979737513750904
353.0, 0.8484133774020365
354.0, 0.6550434739571018
355.0, 0.4617209950412585
356.0, 0.3412360431393123
357.0, 0.25242802101552375
358.0, 0.19016760263570645
359.0, 0.15253382634080626
360.0, 0.12531236237760363
361.0, 0.10560784000739823
362.0, 0.09190125717075517
363.0, 0.08340874875312118
364.0, 0.07586938141590953
365.0, 0.07090311634573926
366.0, 0.06660584021046521
367.0, 0.06069451751931129
368.0, 0.05897971222979953
369.0, 0.057341123588927845
370.0, 0.05542179966575508
371.0, 0.05293483711313175
372.0, 0.052544289872356834
373.0, 0.05109034840961727
374.0, 0.049142228170041734
375.0, 0.049368083515883315
376.0, 0.047806066337334106
377.0, 0.04672029456249209
378.0, 0.046302083866188476
379.0, 0.04534903594157426
380.0, 0.04475091592165083
381.0, 0.04468683033167203
382.0, 0.045008284659359486
383.0, 0.04418955198763877
384.0, 0.04380794930923841
385.0, 0.04370711147632409
386.0, 0.043798899787419666
387.0, 0.04372671637421081
388.0, 0.04404788728250732
389.0, 0.04436229573135227
390.0, 0.04442298589785832
391.0, 0.044929633961490655
392.0, 0.045092523507121444
393.0, 0.04530778097336133
394.0, 0.045948549237846484
395.0, 0.0464491310285501
396.0, 0.04634935478059328
397.0, 0.046083490601812147
398.0, 0.04621657965209496
399.0, 0.04560624654106338
400.0, 0.04512136188912416
401.0, 0.04441904012133566
402.0, 0.04279483878001223
403.0, 0.041275849050189085
404.0, 0.04004851211938155
405.0, 0.0385949934544768
406.0, 0.035641231369118474
407.0, 0.034682482465565156
408.0, 0.0333511470593961
409.0, 0.03182189742762976
410.0, 0.03175192948091432
411.0, 0.031922283776854604
412.0, 0.03133099000788082
413.0, 0.030405930815684414
414.0, 0.03176503602728968
415.0, 0.03188046486419804
416.0, 0.032394678681976825
417.0, 0.03372478417020897
418.0, 0.0355949304236135
419.0, 0.03688094624268293
420.0, 0.03829539942729876
421.0, 0.039749077230548
422.0, 0.038728128089550506
423.0, 0.038912973040353425
424.0, 0.03857826523494234
425.0, 0.03713666613615347
426.0, 0.03669407096382168
427.0, 0.03616755982054148
428.0, 0.03522392221502363
429.0, 0.033785946647662775
430.0, 0.033625402660034845
431.0, 0.031992938569683285
432.0, 0.029869292242002268
433.0, 0.027910956164203835
434.0, 0.026840114287557296
435.0, 0.02485020307378548
436.0, 0.02325488319067363
437.0, 0.023022099257171823
438.0, 0.021463652017836673
439.0, 0.020917758191517994
440.0, 0.020862490865457065
441.0, 0.020839193988740096
442.0, 0.01995420722260585
443.0, 0.02005321984282012
444.0, 0.020512055390802638
445.0, 0.020695816612055818
446.0, 0.02102498938646299
447.0, 0.021609920778517738
448.0, 0.02209134367976771
449.0, 0.02204653508937973
450.0, 0.02287608484218689
451.0, 0.022147351074292502
452.0, 0.02124979500839578
453.0, 0.02203278637474068
454.0, 0.01967467805677053
455.0, 0.017191454896678515
456.0, 0.014417303882836824
457.0, 0.010945603712328689
458.0, 0.007990281443290493
459.0, 0.005993005085885542
460.0, 0.004449600002686622
461.0, 0.0026000435966712565
462.0, 0.0018550222563875156
463.0, 0.0011807963947693993
464.0, 0.0006378803087518217
465.0, 0.0004244820926536311
466.0, 0.0004743826820367468
467.0, 0.0003192926036569778
468.0, 9.002253022519127e-05
469.0, 4.765335691418325e-05
470.0, 0.00012557858347770614
471.0, 0.00021171222625123926
472.0, 0.0002673190633875695
473.0, 0.00023975489298202696
474.0, 0.00038572615654502426
475.0, 0.0005009790536642034
476.0, 0.000538360027762021
477.0, 0.00044030116797267904
478.0, 0.00028919168056643096
479.0, 0.00020953368348719043
480.0, 0.00022151786015667718
481.0, 0.00034754137205574915
482.0, 0.00032637290447134614
483.0, 0.00019464773187383483
484.0, 0.00015735858940454383
485.0, 0.0005494602851648234
486.0, 0.00029006966349182285
487.0, 9.60572789702897e-05
488.0, 5.766367008716228e-05
489.0, 0.0002462053009428969
490.0, 0.00038835620567418804
491.0, 0.000422377620895107
492.0, 0.00035382223262325226
493.0, 0.0001931354529053896
494.0, 0.00027744576836737913
495.0, 0.00033812545262550125
496.0, 0.0003396050307448886
497.0, 0.0002499450389754146
498.0, 0.0003801942176630497
499.0, 0.000428727713262483
500.0, 0.0003639475898527845
501.0, 0.00015959657225957165
502.0, 0.0007901709502981328
503.0, 0.000872637978745173
504.0, 0.0007564459303090271
505.0, 0.0008949855802003244
506.0, 0.0007511877002570568
507.0, 0.0008010690594113879
508.0, 0.0009395743060230275
509.0, 0.0010494986745188375
510.0, 0.0013881770924932615
511.0, 0.0015726246718315811
512.0, 0.0016475365472303858
513.0, 0.00165959683429291
514.0, 0.0018262301665047938
515.0, 0.002131285529571857
516.0, 0.002581713979667672
517.0, 0.003152837048236158
518.0, 0.0030470850533887654
519.0, 0.0029208938298045965
520.0, 0.0029344811860655775
521.0, 0.003158664888442435
522.0, 0.0029092197033777903
523.0, 0.0025340968448026536
524.0, 0.002402175653124707
525.0, 0.0026058382521709643
526.0, 0.0017395836763428444
527.0, 0.0014670450782252385
528.0, 0.0013707905427060077
529.0, 0.0012202899721340725
530.0, 0.0008123128424692652
531.0, 0.0006387063482582677
532.0, 0.0005058808428850869
533.0, 0.00033366927269627125
534.0, 0.00010828601525238484
535.0, 0.0002464372665367082
536.0, 0.00028952434396361566
537.0, 0.00019714437474517067
538.0, 0.00044846294847865977
539.0, 0.00032910258343525026
540.0, 0.0002744667130165764
541.0, 0.0003433137462711776
542.0, 0.00036560303651938446
543.0, 0.00027655867284387436
544.0, 0.0002087891708483382
545.0, 0.00020857507712056597
546.0, 0.00033240225703573816
547.0, 0.0002762959604711693
548.0, 0.00021571825149625164
549.0, 0.0001603845876362771
550.0, 8.370090316383827e-05
551.0, 0.00011404962183670572
552.0, 0.00014417428728160148
553.0, 0.00019183081786110933
554.0, 0.00029683976247703406
555.0, 0.00031840401707395244
556.0, 0.00028125433952279246
557.0, 0.00033414875252927304
558.0, 0.0006396618405655995
559.0, 0.0006290752115658297
560.0, 0.0006675261937788354
561.0, 0.0006505942994460297
562.0, 0.0005102716288231204
563.0, 0.0007010470044720133
564.0, 0.0006524868204644689
565.0, 0.0007091268349532554
566.0, 0.0010354086236743988
567.0, 0.0011107099557092117
568.0, 0.0011528851593433373
569.0, 0.0012040261368330633
570.0, 0.0012936483609339914
571.0, 0.001484107360596248
572.0, 0.0017675551146406423
573.0, 0.001868701926903025
574.0, 0.0017957409256253885
575.0, 0.0019142025862499677
576.0, 0.0016635724323606554
577.0, 0.0018289112580823258
578.0, 0.002239552925901813
579.0, 0.0020409082429761727
580.0, 0.0024923886578944233
581.0, 0.0027956123749503783
582.0, 0.002919501953210163
583.0, 0.0029806833606403128
584.0, 0.003123641242893721
585.0, 0.003317355276513369
586.0, 0.0035236450500149333
587.0, 0.0036989647642565273
588.0, 0.003586665460321631
589.0, 0.0037609878342504577
590.0, 0.004019276720445826
591.0, 0.004217136652397683
592.0, 0.0047833109185600785
593.0, 0.004955016165230634
594.0, 0.005066527121272089
595.0, 0.0053446324297447565
596.0, 0.00610587866401309
597.0, 0.006242222593973884
598.0, 0.006383097310290211
599.0, 0.006781404564683379
600.0, 0.007565990416230969
601.0, 0.007992303322531842
602.0, 0.00881808800518118
603.0, 0.01000385455501972
604.0, 0.011063165780505337
605.0, 0.012109971355863997
606.0, 0.013207510749421364
607.0, 0.014083848712980613
608.0, 0.014317619752885489
609.0, 0.0157472942167909
610.0, 0.016133490576701444
611.0, 0.016137910454786828
612.0, 0.01648115608564499
613.0, 0.01703462626176121
614.0, 0.018072094607962313
615.0, 0.018913366594749372
616.0, 0.019112647634217796
617.0, 0.01844657877714154
618.0, 0.018192521308266086
619.0, 0.017654248206089608
620.0, 0.016391605919071947
621.0, 0.013665898081809971
622.0, 0.01134785192524501
623.0, 0.009452209078550313
624.0, 0.007996233416744917
625.0, 0.007010155308313689
626.0, 0.0060691230684524556
627.0, 0.00552524788665426
628.0, 0.005385837324185931
629.0, 0.005606138163252767
630.0, 0.005489217108319324
631.0, 0.0059487163864860495
632.0, 0.00654057308101216
633.0, 0.006962551661148372
634.0, 0.008107541612348257
635.0, 0.009301909881567597
636.0, 0.010398654891214217
637.0, 0.011497278081145767
638.0, 0.013455050570818234
639.0, 0.013875885982565502
640.0, 0.014087481728580611
641.0, 0.014251959317181836
642.0, 0.013923593470418926
643.0, 0.012924715750486497
644.0, 0.011774009406040897
645.0, 0.010444477359979708
646.0, 0.008822693673360308
647.0, 0.007540207340742786
648.0, 0.006088733801835706
649.0, 0.004850946925560344
650.0, 0.004171073682661602
651.0, 0.0043984838833253425
652.0, 0.004259516437309446
653.0, 0.004499227664951869
654.0, 0.00530648493338039
655.0, 0.006014716087089519
656.0, 0.006797677603182292
657.0, 0.007877578911682523
658.0, 0.009082193766007296
659.0, 0.009907375016031138
660.0, 0.011845752856359627
661.0, 0.01388631236866361
662.0, 0.015857777479588393
663.0, 0.017699195529611567
664.0, 0.021966735002155104
665.0, 0.025538776992547457
666.0, 0.029306963690449807
667.0, 0.0336852581020372
668.0, 0.03735870834990682
669.0, 0.040296344569276846
670.0, 0.041861834924613706
671.0, 0.04201903730029229
672.0, 0.04131181659103812
673.0, 0.03944943393720494
674.0, 0.036775551608097964
675.0, 0.033227434980111145
676.0, 0.028671750533882875
677.0, 0.027607193180202397
678.0, 0.0255910588161318
679.0, 0.023815070385309056
680.0, 0.023188744245130233
681.0, 0.022454374227714933
682.0, 0.0212140059430277
683.0, 0.020534417214335077
684.0, 0.020409697926468386
685.0, 0.019236871678373808
686.0, 0.018874388604888815
687.0, 0.018535842736444024
688.0, 0.018102670365807646
689.0, 0.017601836409264097
690.0, 0.01718950432429651
691.0, 0.016424966055601172
692.0, 0.015748107792080253
693.0, 0.015492162174495143
694.0, 0.014989597445388725
695.0, 0.014179423879197458
696.0, 0.013521728997566785
697.0, 0.012883982090591547
698.0, 0.011070016243588303
699.0, 0.009907267809402922
700.0, 0.008595097194840706
701.0, 0.0072410635577653945
702.0, 0.006236565425035878
703.0, 0.00554023748875401
704.0, 0.004643611020166106
705.0, 0.0038261366330848
706.0, 0.0033116237850519797
707.0, 0.0030223609009462178
708.0, 0.0026784464256212307
709.0, 0.0024483880395110057
710.0, 0.002288117613961994
711.0, 0.001868342523765
712.0, 0.0016195386204163043
713.0, 0.001635967986025621
714.0, 0.001697152609995333
715.0, 0.001490863658630535
716.0, 0.0015835653461015505
717.0, 0.0016350500354023571
718.0, 0.0015773259842816459
719.0, 0.0013864992215911363
720.0, 0.0011724594019674245
721.0, 0.0010057273058138728
722.0, 0.0009352388522028065
723.0, 0.0009446946346936946
724.0, 0.0009655278792994657
725.0, 0.000918516686517603
726.0, 0.0008788439931028583
727.0, 0.0008386561944799417
728.0, 0.0007839459903821605
729.0, 0.0007006661563125073
730.0, 0.0006409428196691903
731.0, 0.0005677824153583028
732.0, 0.00047869260377627764
733.0, 0.0004259447907363903
734.0, 0.00039967896080780077
735.0, 0.000411488316466083
736.0, 0.0004907132092968684
737.0, 0.0006723428991334511
738.0, 0.00038516699017054163
739.0, 0.0003993784627598967
740.0, 0.0003476404896474718
741.0, 0.00011915608063220407
742.0, 0.0005228968130027402
743.0, 0.0003628005156192918
744.0, 0.00032743008445179677
745.0, 0.00038919166027569756
746.0, 0.00012922840747143848
747.0, 0.00037686964950853533
748.0, 0.00026477645683923597
749.0, 0.0001920753848829184
750.0, 0.0004566902970926409
751.0, 0.0001790250371576799
752.0, 0.00012819345859364306
753.0, 0.0001348599452714802
754.0, 0.00012739416539964702
755.0, 7.371638897328903e-05
756.0, 0.0002642997615928321
757.0, 0.00020871670413568516
758.0, 0.00014028044624119697
759.0, 0.0003244113692715768
760.0, 0.000122036424705316
761.0, 5.4592485326973225e-05
762.0, 0.0001338417269033254
763.0, 0.00031024983968032117
764.0, 0.00040243720134136286
765.0, 0.00023013742042103468
766.0, 0.0001347389057588551
767.0, 8.982211421039581e-05
768.0, 8.762355154143411e-06
769.0, 5.2839984273986636e-05
770.0, 5.083177393019368e-05
771.0, 0.00015472399212581605
772.0, 0.0003253659434220813
773.0, 0.00010672703297857412
774.0, 0.0003955790669788458
775.0, 0.00044580736797040246
776.0, 0.00027698047298756044
777.0, 9.617998057616527e-05
778.0, 0.0003354714043169712
779.0, 0.0004445523190975178
780.0, 0.0003476227447215221
781.0, 9.264443812716346e-05
782.0, 3.6404630609296714e-05
783.0, 0.00018675814861792586
784.0, 0.00021857151746457995
785.0, 0.00013360789783436919
786.0, 2.0488478552271345e-05
787.0, 6.128075333044674e-05
788.0, 6.750877343567283e-05
789.0, 4.479388300554778e-05
790.0, 3.8410017767848844e-05
791.0, 0.00021934898340526305
792.0, 0.00024362069113592434
793.0, 0.00016689233638725253
794.0, 0.00010486866326429414
795.0, 0.00019072783307620355
796.0, 7.488942182092543e-05
797.0, 0.000222411852263122
798.0, 0.00027177142686503277
799.0, 0.00011724193952894581
800.0, 6.0040766598126166e-05
801.0, 0.00012255963323339942
802.0, 0.00022546574367143056
803.0, 0.0002777482084884593
804.0, 0.00019545400975352377
805.0, 0.0002123311369233293
806.0, 0.00022882610511571765
807.0, 0.0002055371885760102
808.0, 0.0001368693611208978
809.0, 5.973500243686337e-05
810.0, 5.4671273380739615e-05
811.0, 3.7639849522818204e-05
812.0, 1.4812958233200026e-05
813.0, 3.3486285555552326e-06
814.0, 1.9407773465334965e-05
815.0, 5.8829189485065146e-05
816.0, 0.00018747357350545405
817.0, 0.00030179222282172163
818.0, 9.550196856936641e-05
819.0, 0.00019797224976373642
820.0, 0.000228833402178398
821.0, 0.00016131053883422297
822.0, 3.964713895711386e-05
823.0, 0.00018007391143186002
824.0, 7.419076088538742e-05
825.0, 8.209598066695416e-05
826.0, 0.0001877971677671874
827.0, 0.00018818366562347615
828.0, 0.0001002859515137334
829.0, 8.578117421879149e-05
830.0, 8.207582257395089e-05
831.0, 7.996777428331272e-05
832.0, 0.00022921317473459184
833.0, 0.00010506888093317523
834.0, 0.00016355189315625713
835.0, 0.00026210101733443726
836.0, 0.00014026388857674567
837.0, 0.0003352001158228347
838.0, 0.00017628785770785238
839.0, 8.17385184260283e-05
840.0, 0.00015497939255629343
841.0, 0.00016811112343776183
842.0, 8.570549223893656e-05
843.0, 0.00010616751349080718
844.0, 0.00019355050208925864
845.0, 0.000271704782811315
846.0, 0.00013781111892401246
847.0, 4.108643149344496e-05
848.0, 5.729418053566256e-05
849.0, 0.00011202280577580476
850.0, 4.096741926626889e-05
851.0, 2.712741357298928e-05
852.0, 4.999339190497325e-05
853.0, 4.9856798549166515e-05
854.0, 7.115104659441744e-05
855.0, 0.00041308179426779773
856.0, 0.00021955813149424706
857.0, 0.00014242335707195854
858.0, 0.00013013355705483476
859.0, 5.207917207595986e-05
860.0, 0.0001276674250118692
861.0, 0.00023743170142856134
862.0, 0.00018262219305723417
863.0, 4.0887051526389604e-05
864.0, 0.00010005929691451999
865.0, 0.0001440110597246322
866.0, 0.00037768799575310576
867.0, 0.00039732480644386086
868.0, 0.00016095191729129384
869.0, 0.0005803519420911915
870.0, 0.00042775143618429954
871.0, 0.0002970697073393068
872.0, 0.00022746186208096814
873.0, 0.00017674512862032356
874.0, 0.0003096099722820335
875.0, 0.00038259072215971737
876.0, 0.00041690055318442226
877.0, 0.00035368243833616914
878.0, 6.859632837889114e-05
879.0, 0.000312861332522276
880.0, 0.0002022489689796135
881.0, 0.0001448822928683862
882.0, 0.00032435828579501695
883.0, 0.0004417580982042208
884.0, 0.0006127628401643186
885.0, 0.0006347005580002169
886.0, 0.0004997697289209945
887.0, 0.000271500329139417
888.0, 0.0002829768812633203
889.0, 0.0003563937633488377
890.0, 0.0002782355370268536
891.0, 0.0002353415921748053
892.0, 0.0006140406208028987
893.0, 0.000460920042857348
894.0, 0.0002842156553520574
895.0, 0.00026429227531851577
896.0, 0.00037065903273008396
897.0, 0.0002654293172180573
898.0, 0.0006879874621344331
899.0, 0.0006048616942694877
900.0, 0.0004128450551230091
901.0, 0.0004745255750978598
902.0, 0.0006646977725670866
903.0, 0.0004396102265403306
904.0, 0.0003080934982966185
905.0, 0.00030389833455174805
906.0, 0.0003348133648004613
907.0, 0.0002330120211181347
908.0, 0.00026553869643508495
909.0, 0.00028396518427713696
910.0, 0.0002840325928735752
911.0, 0.00035054708212008714
912.0, 0.0004658961068903874
913.0, 0.00047077213406775933
914.0, 0.0004916792494636974
915.0, 0.0005677694764971878
916.0, 0.0006078389748657907
917.0, 0.0004944348325691156
918.0, 0.00046994239638898944
919.0, 0.0004760827539325019
920.0, 0.0004531188794040981
921.0, 0.00041677810798871956
922.0, 0.0004829080954925714
923.0, 0.0005182178210037503
924.0, 0.0005936732048069375
925.0, 0.000773011859047596
926.0, 0.0006616279963278615
927.0, 0.0006498896388314763
928.0, 0.0006348804063972201
929.0, 0.0005512774267006936
930.0, 0.0003603672430565986
931.0, 0.0005206216216408054
932.0, 0.0006123236775225064
933.0, 0.0005237165914994162
934.0, 0.00039885802357679924
935.0, 0.0006632447434181016
936.0, 0.0005316667413964487
937.0, 0.0006058489050111069
938.0, 0.0006030530925890364
939.0, 0.00048606343331599546
940.0, 0.0007320386341273559
941.0, 0.0009118885391097691
942.0, 0.0007748639154344275
943.0, 0.0005427649197994941
944.0, 0.0004268642140643682
945.0, 0.0004660204691436068
946.0, 0.00042512065251744423
947.0, 0.00036423152997958655
948.0, 0.000373532074288648
949.0, 0.00048458119746095366
950.0, 0.0002977257992333651
951.0, 0.000451820606586818
952.0, 0.0005401241200977014
953.0, 0.000545068221476395
954.0, 0.0005617598275668678
955.0, 0.0003594403279986198
956.0, 0.0003256814704457427
957.0, 0.0003095444885745098
958.0, 0.0002770317066697775
959.0, 0.0002571480553556342
960.0, 0.0002952188386468438
961.0, 0.0003448963247795784
962.0, 0.0003369466236978704
963.0, 0.0003137258060614895
964.0, 0.00042686584517630867
965.0, 0.0005248341458439375
966.0, 0.000523720175325993
967.0, 0.000517367103518585
968.0, 0.0004917024232548957
969.0, 0.0002680384606004254
970.0, 0.0003958183611526684
971.0, 0.00033884523628616983
972.0, 0.00022919973372665119
973.0, 0.0002284987889865515
974.0, 0.0005214792303978402
975.0, 0.00026816965286446514
976.0, 0.0004103383978249805
977.0, 0.0006013022734892271
978.0, 0.0005610326117111652
979.0, 0.0005079484873866378
980.0, 0.0002627403855712916
981.0, 0.00032157460124379545
982.0, 0.0003878690622017261
983.0, 0.00022466134628197732
984.0, 0.00024758265909676327
985.0, 0.0004971250525652534
986.0, 0.0005584837556663248
987.0, 0.0004375280485410081
988.0, 0.0002853989309778979
989.0, 0.0005668751463459038
990.0, 0.0004408335994475238
991.0, 0.00020454140472206807
992.0, 5.703300944256481e-05
993.0, 0.00013251866863873813
994.0, 0.00028778922730201574
995.0, 0.0003105539745593277
996.0, 0.0002515709329265382
997.0, 0.00017669960533578968
998.0, 0.0001482274403987169
999.0, 0.0001281829032394872
1000.0, 0.00025780219190691116
1001.0, 0.00034518703511411604
1002.0, 0.00038640577369690395
1003.0, 0.00042993861890662846
1004.0, 0.00037611986101042795
1005.0, 0.0005229098853653558
1006.0, 0.0004338614657399472
1007.0, 0.00020168998651881823
1008.0, 0.00013145538485025718
1009.0, 0.000442741205096043
1010.0, 0.0004005271881878053
1011.0, 0.00033385737057973797
1012.0, 0.00037153749933343643
1013.0, 0.0005149797135600017
1014.0, 0.00021799522896750806
1015.0, 0.000490711952839803
1016.0, 0.000544073132965475
1017.0, 0.000379926117705132
1018.0, 0.0003488795603604917
1019.0, 0.0006389832696226702
1020.0, 0.000291471180241086
1021.0, 0.00025316644246459674
1022.0, 0.0003820959863707604
1023.0, 0.00014347861205783844
1024.0, 0.00028649263783926237
1025.0, 0.000330933664095758
1026.0, 0.00035319298915528866
1027.0, 0.00027820878443960036
1028.0, 3.553140958939674e-05
1029.0, 0.00030032316588127846
1030.0, 0.000265167470824584
1031.0, 0.0003836324933380941
1032.0, 0.0005042530222099227
1033.0, 0.0003203723853613376
1034.0, 0.00040326358529136844
1035.0, 0.0005630413003858438
1036.0, 0.0005890354565859736
1037.0, 0.00047810873251289565
1038.0, 0.00031346138080743014
1039.0, 0.00021282823627461262
1040.0, 0.00020381523063968472
1041.0, 0.0002010016063476359
1042.0, 0.0002181916077354903
1043.0, 0.0002845675221577412
1044.0, 0.0003366617686224836
1045.0, 0.00037497289067065935
1046.0, 0.00030876488627474733
1047.0, 0.00031137280436193727
1048.0, 0.0004782324807635124
1049.0, 0.00014872445575462277
1050.0, 0.0001662697740765496
1051.0, 0.00019524897286319996
1052.0, 0.0002436652057948946
1053.0, 0.0003287536246549827
1054.0, 0.00022761205494494524
1055.0, 0.0002358688881047542
1056.0, 0.0002776055561959976
1057.0, 0.00028021777268741
1058.0, 0.000209784228993305
1059.0, 0.00013978562422810998
1060.0, 8.370618088633205e-05
1061.0, 0.0004107649526703265
1062.0, 0.0005390275878056483
1063.0, 0.00020997294726987636
1064.0, 7.888765122073929e-05
1065.0, 0.00043989349737332803
1066.0, 0.00027065022331114274
1067.0, 0.00022274022682174853
1068.0, 0.00050615639540031
1069.0, 0.0004662021256466772
1070.0, 0.00032244138176157024
1071.0, 0.000343647562023708
1072.0, 0.00037357755042655074
1073.0, 0.0003684220872030425
1074.0, 0.00042021846516494355
1075.0, 0.0003494991079523886
1076.0, 0.00035002591813807827
1077.0, 0.0003567293962031435
1078.0, 0.0002874494291658013
1079.0, 8.131311998706815e-05
1080.0, 0.0003014072026810811
1081.0, 0.0002883461364907778
1082.0, 0.0002608572809210647
1083.0, 0.00034567746479644717
1084.0, 0.0005585108980916611
1085.0, 0.0003352034178705953
1086.0, 9.833572893462081e-05
1087.0, 1.570610254872254e-05
1088.0, 9.8020200622417e-05
1089.0, 0.0002600592727834211
1090.0, 0.00022051465355376633
1091.0, 0.00016687582256952213
1092.0, 0.00023062467970380024
1093.0, 0.0003038103990935331
1094.0, 0.00028473505423570283
1095.0, 0.00021551830491367262
1096.0, 0.0002590553945154676
1097.0, 0.0002679124354892828
1098.0, 0.00027882842519426246
1099.0, 0.0003187499954796767
1100.0, 0.00037013655932070474
1101.0, 0.0004364000256690448
1102.0, 0.0004425822461942977
1103.0, 0.0003713472844567672
1104.0, 0.0002874154948867739
1105.0, 0.0003241538567192884
1106.0, 0.00040585010568507107
1107.0, 0.00028034508337415246
1108.0, 0.00030532252522730914
1109.0, 0.0003866971905332203
1110.0, 0.00027810375319476695
1111.0, 0.0006213172171233198
1112.0, 0.00048293924378912847
1113.0, 0.0003604211459250151
1114.0, 0.0003039061906977589
1115.0, 0.00024748502663072663
1116.0, 0.00019069298159557886
1117.0, 0.000287266503186782
1118.0, 0.0003788793862570619
1119.0, 0.00035326681110515367
1120.0, 0.0002563937846197055
1121.0, 0.00043115687297254747
1122.0, 0.0007243772307902403
1123.0, 0.0007068395667890766
1124.0, 0.0006421600756090832
1125.0, 0.0006188624044093743
1126.0, 0.0005194945264644555
1127.0, 0.0005231152635351272
1128.0, 0.000530146284513202
1129.0, 0.0005014342686755056
1130.0, 0.00046971842788435343
1131.0, 0.00047229478271244363
1132.0, 0.0003073174047752568
1133.0, 0.0003151095211801303
1134.0, 0.0003114082846720442
1135.0, 0.00020719458906660047
1136.0, 3.7412375264989364e-05
1137.0, 0.0001283246659904138
1138.0, 0.00023908484901310486
1139.0, 0.000297318160499119
1140.0, 0.0003324552747437762
1141.0, 0.000359577222142828
1142.0, 0.00036184770558681434
1143.0, 0.0003750840193958395
1144.0, 0.0002978195318935004
1145.0, 0.00027228448937438327
1146.0, 0.00024382125607491298
1147.0, 8.760259808802367e-05
1148.0, 0.00015943358724763057
1149.0, 6.139906441200967e-05
1150.0, 8.126717285712447e-06
1151.0, 7.024514269913403e-05
1152.0, 0.00021115820610137205
1153.0, 0.00019682910626256085
1154.0, 0.00020604473007786693
1155.0, 0.00018414630715550187
1156.0, 0.00017790443264671462
1157.0, 0.00023113169891964181
1158.0, 0.0003620514734862051
1159.0, 0.00019401552507613325
1160.0, 0.00018684611131316166
1161.0, 0.00012700920274306496
1162.0, 8.81051680446274e-05
1163.0, 0.0002206990205395992
1164.0, 0.0001323394102599384
1165.0, 0.0003037778938792766
1166.0, 0.00033276100754164623
1167.0, 0.0002017587270111972
1168.0, 8.113176064707336e-05
1169.0, 0.00036505196885894617
1170.0, 0.00045299270105724816
1171.0, 0.00044200322408585236
1172.0, 0.00033549634469141437
1173.0, 0.00025110620759707394
1174.0, 0.00035733443094806115
1175.0, 0.0001600328967472329
1176.0, 0.0002707434488917313
1177.0, 0.0003239246671884499
1178.0, 0.0003556733067094875
1179.0, 0.0004469748648760716
1180.0, 0.0003413106952754559
1181.0, 0.0004661713048730898
1182.0, 0.0003150194849722289
1183.0, 0.00012496627245064704
1184.0, 6.1012226729247205e-05
1185.0, 9.424183872151873e-05
1186.0, 0.0003251571611830286
1187.0, 0.0001488054411671082
1188.0, 0.0002026985658103283
1189.0, 0.00036859068395593314
1190.0, 0.0003211724595476949
1191.0, 0.00046309993999051876
1192.0, 0.0004366348530364745
1193.0, 0.0004245473389971023
1194.0, 0.00045241430899361547
1195.0, 0.0005493146003773815
1196.0, 0.0007713637546723369
1197.0, 0.00047843103951299756
1198.0, 0.0003685658186339441
1199.0, 0.00018624174819126436
1200.0, 0.00014069586588515848
1201.0, 0.00048495059964433435
1202.0, 0.0004086820701866196
1203.0, 0.000179220260512831
1204.0, 0.00019445564276883564
1205.0, 0.00024748812860086577
1206.0, 0.0002056847438532861
1207.0, 0.00020910163065931332
1208.0, 0.0003041341206204339
1209.0, 0.00020389989932180028
1210.0, 0.0002091504313055297
1211.0, 0.0002386962160397405
1212.0, 0.00011490416140763691
1213.0, 0.00021035737370063475
1214.0, 0.00043135928554469604
1215.0, 0.0005491028087956886
1216.0, 0.0004471016619813828
1217.0, 0.0003080121032977396
1218.0, 0.000638470672314409
1219.0, 0.000401419437671297
1220.0, 0.0002679600133405995
1221.0, 0.0003517080680539069
1222.0, 0.0003849307010267947
1223.0, 0.00018958138269585051
1224.0, 0.0005803637751528645
1225.0, 0.0003067337795601725
1226.0, 0.00032227731103887607
1227.0, 0.0003880641347783302
1228.0, 0.00035772850664226756
1229.0, 0.0003258018546042364
1230.0, 0.00026503295092712524
1231.0, 0.00017730892529015726
1232.0, 0.00022917962556317646
1233.0, 0.0003459681029216972
1234.0, 0.00038693791609879395
1235.0, 0.00026140400308280714
1236.0, 0.00018199992460024033
1237.0, 0.0002668614180876657
1238.0, 0.00023441424826279081
1239.0, 0.00012037746028546048
1240.0, 0.0001517895628518677
1241.0, 2.6705868977057503e-05
1242.0, 0.00014840926983767703
1243.0, 0.00034639136640793886
1244.0, 0.000377599825050746
1245.0, 0.00022818085591910683
1246.0, 0.0002668351964804241
1247.0, 0.0007211860790190227
1248.0, 0.0005131682340097981
1249.0, 0.00026548041499210856
1250.0, 0.0002756072524377778
1251.0, 0.0005178107337359494
1252.0, 0.0004548887970884338
1253.0, 0.0005104447443931648
1254.0, 0.00044824448469240355
1255.0, 0.0004004674267737909
1256.0, 0.0004195163569841458
1257.0, 0.00044319612210860445
1258.0, 0.0003487276411359101
1259.0, 0.0004174310028536031
1260.0, 0.00039896849137691814
1261.0, 0.0004231956091020955
1262.0, 0.0005122023401949909
1263.0, 0.0003750042223033992
1264.0, 0.0006092697912030524
1265.0, 0.0005307952457267506
1266.0, 0.0002812632608682144
1267.0, 0.00011276016846403341
1268.0, 0.0001926689005000956
1269.0, 0.00028556947770257417
1270.0, 0.00015193329268528718
1271.0, 0.00016801855703409648
1272.0, 0.00013247882349640434
1273.0, 8.306796169949685e-05
1274.0, 0.00021029020580757782
1275.0, 0.0002245026857175502
1276.0, 0.00028382168628858506
1277.0, 0.00025044837840377106
1278.0, 0.00024353606879847634
1279.0, 0.00033622168865814656
1280.0, 0.0004672130392660433
1281.0, 0.00041807851031275647
1282.0, 0.0005124614997663531
1283.0, 0.000527541017293823
1284.0, 0.0004453962870662483
1285.0, 0.00031107263550140933
1286.0, 0.0001518214519575778
1287.0, 0.0003520450705418776
1288.0, 0.00021700256070072293
1289.0, 0.00017642179455878878
1290.0, 0.00032361312604696854
1291.0, 0.00046793208980232145
1292.0, 0.00013509151917298281
1293.0, 0.0002901230427938443
1294.0, 0.0001607428490523352
1295.0, 3.892574011857384e-05
1296.0, 2.6355566707956367e-05
1297.0, 4.078017852390017e-05
1298.0, 0.00017501817637891666
1299.0, 0.00010484565254064671
1300.0, 7.97995109107074e-05
1301.0, 0.00013706834363462746
1302.0, 0.00026592480763999276
1303.0, 0.00041861621003804064
1304.0, 0.00036800488105725776
1305.0, 0.0001282043875741416
1306.0, 0.00030641520974867187
1307.0, 0.0005973936491172668
1308.0, 0.0005728750852408019
1309.0, 4.490927778819608e-05
1310.0, 0.000309305921035437
1311.0, 0.00012949627652951475
1312.0, 0.00028502396412082487
1313.0, 0.0004948795101078029
1314.0, 0.0005038734718823732
1315.0, 0.0007299624938922519
1316.0, 0.0004423911403967583
1317.0, 0.0003455712808720283
1318.0, 0.0002594736627389384
1319.0, 0.00017711910228482438
1320.0, 0.00013645001031457117
1321.0, 9.97814918964002e-05
1322.0, 3.253455634466263e-05
1323.0, 0.0003111870186573731
1324.0, 0.00044788117947139355
1325.0, 0.00037638016101513953
1326.0, 0.0002968796630233015
1327.0, 0.00046630308292969837
1328.0, 0.0003137135046537601
1329.0, 0.00030459173175354133
1330.0, 0.00043955837915683835
1331.0, 0.0005333299748807016
1332.0, 0.0004519333217784734
1333.0, 0.0005564479743755819
1334.0, 0.0003461591198462107
1335.0, 0.00047499339687788553
1336.0, 0.0005672672875922244
1337.0, 0.0004436565724094442
1338.0, 0.00022358454285211374
1339.0, 0.0004241197198767733
1340.0, 0.0002676107827412548
1341.0, 0.00015852207674853014
1342.0, 0.0002273230159174198
1343.0, 0.0003044280581196487
1344.0, 0.00015683114268265
1345.0, 0.000136789422965981
1346.0, 0.00047025300019317296
1347.0, 0.0004574065175185631
1348.0, 0.0003506876844831721
1349.0, 0.00023791172911836415
1350.0, 6.248261563890355e-05
1351.0, 4.236081875090783e-05
1352.0, 0.00012323708580382303
1353.0, 0.00013078009785581638
1354.0, 0.00014188301274814516
1355.0, 0.00021410574212772106
1356.0, 0.00032492897976248245
1357.0, 0.00027006324474776775
1358.0, 0.0003043209022621918
1359.0, 0.0003804314744463529
1360.0, 0.00032516082713578555
1361.0, 0.0003468265100707162
1362.0, 0.0006481754367464621
1363.0, 0.00019940226719393711
1364.0, 0.0004771962333311454
1365.0, 0.00023848827772963757
1366.0, 0.0001306600084760977
1367.0, 0.00036968783543022375
1368.0, 0.0006682478344772126
1369.0, 0.0005348255061051972
1370.0, 0.00014393143193704933
1371.0, 0.0002542970080338233
1372.0, 0.00033918091522188695
1373.0, 0.00022891421480692538
1374.0, 0.00013476760197822174
1375.0, 0.0004929914175920125
1376.0, 0.00011888648375779588
1377.0, 0.0002656684769662671
1378.0, 0.00044883590691671086
1379.0, 0.00044002753243769214
1380.0, 0.0003444413613970687
1381.0, 0.0005780943548343038
1382.0, 0.0002471811965363429
1383.0, 0.00020788142127927615
1384.0, 0.0005621276886868829
1385.0, 0.0008385041653178136
1386.0, 0.0006164734449008768
1387.0, 0.00017224269282612012
1388.0, 0.00043913735324611013
1389.0, 0.0001869431804772176
1390.0, 9.309064736542085e-05
1391.0, 0.00031758410451726256
1392.0, 0.0005804245011284183
1393.0, 0.00032461263312250896
1394.0, 0.000558991399706951
1395.0, 0.0004966264885782356
1396.0, 0.0002651311896804147
1397.0, 0.00036506976718088765
1398.0, 0.0006414334591507819
1399.0, 0.00016799427135524487
1400.0, 0.0004804690658583126
1401.0, 0.000694799777779153
1402.0, 0.0004814281543848232
1403.0, 0.00028226597062383556
1404.0, 0.0003120496725666908
1405.0, 0.0003649780904856198
1406.0, 0.00025222563405594725
1407.0, 0.0004563591633658072
1408.0, 0.00038831550400908097
1409.0, 0.00041484134507842763
1410.0, 0.0005664928002185007
1411.0, 0.0006269408028334751
1412.0, 0.0008095650963725566
1413.0, 0.0007488810390872575
1414.0, 0.000578353242373157
1415.0, 0.0003519396341589094
1416.0, 0.00046127012798271216
1417.0, 0.0009721367772811573
1418.0, 0.0008128071996348018
1419.0, 0.0001654320221547313
1420.0, 0.0006677767542867615
1421.0, 0.0007358376318392637
1422.0, 0.0004936040532817133
1423.0, 0.00042269913177818105
1424.0, 0.00044548378269356414
1425.0, 0.00016590563116833032
1426.0, 0.00044086578613399376
1427.0, 0.0004864274784955684
1428.0, 0.0005165510602074668
1429.0, 0.0006127481918216048
1430.0, 0.0005363986610037731
1431.0, 0.0004160327702898555
1432.0, 0.0006494007230427108
1433.0, 0.0004991698478945827
1434.0, 0.0005973347693953129
1435.0, 0.0006970932546289952
1436.0, 0.0003138875378362793
1437.0, 0.0003577753700393043
1438.0, 0.00013728482314616237
1439.0, 0.00024173012735762646
1440.0, 0.0004359788259450972
1441.0, 0.00041699733851729027
1442.0, 0.00022083794951819837
1443.0, 0.0003851434561225372
1444.0, 0.0002618012310109956
1445.0, 0.0003479028891062779
1446.0, 0.0007484838093896339
1447.0, 0.0006270784611926276
1448.0, 8.740189739789426e-05
1449.0, 0.0001903958315529259
1450.0, 0.0007716395958199188
1451.0, 0.0006798263713350308
1452.0, 0.0006253683598963437
1453.0, 0.0003268661459373696
1454.0, 1.460794721708775e-05
1455.0, 0.00011114220341954513
1456.0, 0.0005738528375412312
1457.0, 0.0006422505013574638
1458.0, 0.0005391931051160984
1459.0, 0.0006152032999141366
1460.0, 0.0006348154359667043
1461.0, 0.0005386669794351684
1462.0, 0.0006785332681550405
1463.0, 0.0007136818918681803
1464.0, 0.0005015541953018864
1465.0, 0.00039236008467744953
1466.0, 0.0004631388377125202
1467.0, 0.0004676606350273783
1468.0, 0.0002133383404208003
1469.0, 0.000249595905622832
1470.0, 0.0002397362788217444
1471.0, 0.0005461927172228809
1472.0, 0.0006215232772905931
1473.0, 0.0005637892483058355
1474.0, 0.0005509810051264575
1475.0, 0.0004921616672541419
1476.0, 0.00043322544774287595
1477.0, 0.00033079172459824294
1478.0, 0.0004314430507117162
1479.0, 0.0005364683581763468
1480.0, 0.0006481904741840756
1481.0, 0.0007568855105724002
1482.0, 0.00021321183002314764
1483.0, 0.00053466378158095
1484.0, 0.0002734056715253693
1485.0, 0.00033479159650228157
1486.0, 0.00044417326546105404
1487.0, 0.00034857369272046766
1488.0, 0.0003961368834957896
1489.0, 0.0002662219909497545
1490.0, 0.00031812311136547106
1491.0, 0.0005765393952822775
1492.0, 0.0007079780800622215
1493.0, 0.0007050208358820509
1494.0, 0.0007077726007603141
1495.0, 0.0005720161575744223
1496.0, 0.0007383411866083269
1497.0, 0.0007120779534949128
1498.0, 0.0005591728948976157
1499.0, 0.0005978917608482702
1500.0, 0.0007771842743940718
1501.0, 0.000728249273773833
1502.0, 0.000977141614837505
1503.0, 0.0004606808558459114
1504.0, 0.0004487066073176958
1505.0, 0.0006219835593407707
1506.0, 0.0006687727522813748
1507.0, 0.0005841353207822092
1508.0, 0.0007140208001884346
1509.0, 0.000832183975673183
1510.0, 0.0006293025040472466
1511.0, 0.0007386672189419775
1512.0, 0.0006714146159670873
1513.0, 0.0004371188278592129
1514.0, 0.0004958969311242737
1515.0, 0.0008891534467280296
1516.0, 0.0008176170708860438
1517.0, 0.00024994327350837266
1518.0, 0.000495347227431565
1519.0, 0.0006684758306731149
1520.0, 0.00026038723013216533
1521, 0.0
1522, 0.0
1523, 0.0
1524, 0.0
1525, 0.0
1526, 0.0
1527, 0.0
1528, 0.0
1529, 0.0
1530, 0.0
1531, 0.0
1532, 0.0
1533, 0.0
1534, 0.0
1535, 0.0
1536, 0.0
1537, 0.0
1538, 0.0
1539, 0.0
1540, 0.0
1541, 0.0
1542, 0.0
1543, 0.0
1544, 0.0
1545, 0.0
1546, 0.0
1547, 0.0
1548, 0.0
1549, 0.0
1550, 0.0
1551, 0.0
1552, 0.0
1553, 0.0
1554, 0.0
1555, 0.0
1556, 0.0
1557, 0.0
1558, 0.0
1559, 0.0
1560, 0.0
1561, 0.0
1562, 0.0
1563, 0.0
1564, 0.0
1565, 0.0
1566, 0.0
1567, 0.0
1568, 0.0
1569, 0.0
1570, 0.0
1571, 0.0
1572, 0.0
1573, 0.0
1574, 0.0
1575, 0.0
1576, 0.0
1577, 0.0
1578, 0.0
1579, 0.0
1580, 0.0
1581, 0.0
1582, 0.0
1583, 0.0
1584, 0.0
1585, 0.0
1586, 0.0
1587, 0.0
1588, 0.0
1589, 0.0
1590, 0.0
1591, 0.0
1592, 0.0
1593, 0.0
1594, 0.0
1595, 0.0
1596, 0.0
1597, 0.0
1598, 0.0
1599, 0.0
