30, 0.0
31, 0.0
32, 0.0
33, 0.0
34, 0.0
35, 0.0
36, 0.0
37, 0.0
38, 0.0
39, 0.0
40, 0.0
41, 0.0
42, 0.0
43, 0.0
44, 0.0
45, 0.0
46, 0.0
47, 0.0
48, 0.0
49, 0.0
50, 0.0
51, 0.0
52, 0.0
53, 0.0
54, 0.0
55, 0.0
56, 0.0
57, 0.0
58, 0.0
59, 0.0
60, 0.0
61, 0.0
62, 0.0
63, 0.0
64, 0.0
65, 0.0
66, 0.0
67, 0.0
68, 0.0
69, 0.0
70, 0.0
71, 0.0
72, 0.0
73, 0.0
74, 0.0
75, 0.0
76, 0.0
77, 0.0
78, 0.0
79, 0.0
80, 0.0
81, 0.0
82, 0.0
83, 0.0
84, 0.0
85, 0.0
86, 0.0
87, 0.0
88, 0.0
89, 0.0
90, 0.0
91, 0.0
92, 0.0
93, 0.0
94, 0.0
95, 0.0
96, 0.0
97, 0.0
98, 0.0
99, 0.0
100, 0.0
101, 0.0
102, 0.0
103, 0.0
104, 0.0
105, 0.0
106, 0.0
107, 0.0
108, 0.0
109, 0.0
110, 0.0
111, 0.0
112, 0.0
113, 0.0
114, 0.0
115, 0.0
116.0, 0.003056905601391675
117.0, 0.0005841052949589309
118.0, 0.011855128557560473
119.0, 0.028647990038314457
120.0, 0.04912815317855359
121.0, 0.06776067447625689
122.0, 0.07862986990415716
123.0, 0.08591171613247699
124.0, 0.0789625875767968
125.0, 0.06028146577881793
126.0, 0.038235838537116616
127.0, 0.022809755810582134
128.0, 0.027649964018984313
129.0, 0.03968869117766175
130.0, 0.048835972922603096
131.0, 0.0680281565697433
132.0, 0.09450916468957712
133.0, 0.12670727490072112
134.0, 0.1621652205334689
135.0, 0.19804599766358028
136.0, 0.2437025242881533
137.0, 0.28978489234160626
138.0, 0.33347735822735386
139.0, 0.37701819457952795
140.0, 0.388022743363743
141.0, 0.3791775330818754
142.0, 0.36112108028903345
143.0, 0.3407485303600912
144.0, 0.32316626282369737
145.0, 0.32131361602711256
146.0, 0.3354968570124562
147.0, 0.3608720182493282
148.0, 0.3860724000108998
149.0, 0.41605907461247
150.0, 0.4542611326341348
151.0, 0.49588571464077846
152.0, 0.5311028943445825
153.0, 0.5726369148103508
154.0, 0.6158135093610481
155.0, 0.6557738164300354
156.0, 0.689271746236429
157.0, 0.702465216382796
158.0, 0.6935726489315539
159.0, 0.6554029178571545
160.0, 0.5828855025390385
161.0, 0.49774307394844997
162.0, 0.41153769917961
163.0, 0.3309464723431943
164.0, 0.2636039078015081
165.0, 0.2146266754344539
166.0, 0.1749731876665746
167.0, 0.1433386892489973
168.0, 0.12294164895886346
169.0, 0.11442329860329305
170.0, 0.10509751949988858
171.0, 0.097513004222192
172.0, 0.09548164092668458
173.0, 0.09984614947644112
174.0, 0.10343141358817166
175.0, 0.10820429560473835
176.0, 0.11519609909126455
177.0, 0.12191883775972912
178.0, 0.12274521520456583
179.0, 0.12719665883609244
180.0, 0.12982597357595346
181.0, 0.12466877664943248
182.0, 0.11273172575851811
183.0, 0.10778939562635254
184.0, 0.09638249544060591
185.0, 0.08563967787488061
186.0, 0.080013094498266
187.0, 0.06669106401081201
188.0, 0.05679131212620799
189.0, 0.04679743136668248
190.0, 0.038782939283259085
191.0, 0.040480753453504804
192.0, 0.0337979825521664
193.0, 0.03125794731476407
194.0, 0.03576629202957436
195.0, 0.04299177725808347
196.0, 0.040475088257670204
197.0, 0.04325185554738554
198.0, 0.050405571850684505
199.0, 0.05589138826799914
200.0, 0.052431773071297046
201.0, 0.05131575229999579
202.0, 0.0478749855565278
203.0, 0.04158107454158836
204.0, 0.03806607122250636
205.0, 0.03877493707907688
206.0, 0.03369293924106091
207.0, 0.02834791742180269
208.0, 0.02764672883307699
209.0, 0.023064595112687006
210.0, 0.021895768609156208
211.0, 0.02552970385239596
212.0, 0.03136598624083898
213.0, 0.03430611631266485
214.0, 0.03934865462194413
215.0, 0.04594038423692485
216.0, 0.05460881729049421
217.0, 0.06492377175595977
218.0, 0.07274261189675697
219.0, 0.07904747954337743
220.0, 0.08336962088146452
221.0, 0.08338949928578897
222.0, 0.07859667417874934
223.0, 0.07561571056750496
224.0, 0.06951977540506916
225.0, 0.061713849948934876
226.0, 0.053080565659348225
227.0, 0.0379315400223565
228.0, 0.023705224921471146
229.0, 0.008097302065634394
230.0, 0.0036169323790282587
231.0, 0.003199254045305417
232.0, 0.01459956239736975
233.0, 0.01897317757416673
234.0, 0.016899542883444564
235.0, 0.014614595095284092
236.0, 0.00694575100116256
237.0, 0.0077735867221673804
238.0, 0.007560337780940655
239.0, 0.0017019431966243184
240.0, 0.010453436636848326
241.0, 0.013858238204865373
242.0, 0.011639755322126867
243.0, 0.012640337512493816
244.0, 0.021353113707642195
245.0, 0.02854496506616803
246.0, 0.03415269359046489
247.0, 0.040586593282773226
248.0, 0.04980359664128381
249.0, 0.06301053169846692
250.0, 0.08109849663492767
251.0, 0.09894979770618503
252.0, 0.11748137944092323
253.0, 0.13664653788273845
254.0, 0.15129974185111342
255.0, 0.16995836803417902
256.0, 0.1901544302992733
257.0, 0.2091943892058801
258.0, 0.22704547511186265
259.0, 0.24559111549033033
260.0, 0.270735798725671
261.0, 0.2928261100092562
262.0, 0.3101150421617643
263.0, 0.3324244162411455
264.0, 0.3494758874132887
265.0, 0.36888900433853933
266.0, 0.3907721620193453
267.0, 0.4094462942803312
268.0, 0.4180910463547743
269.0, 0.4293231966959293
270.0, 0.4386893163736149
271.0, 0.4437775083988311
272.0, 0.446169816025851
273.0, 0.44703461933947136
274.0, 0.44379406934337096
275.0, 0.4348101210194995
276.0, 0.42280749790068545
277.0, 0.41676833327633844
278.0, 0.39089201650520145
279.0, 0.3647513912810954
280.0, 0.34379378470565924
281.0, 0.3233411482607234
282.0, 0.2918000693964565
283.0, 0.2623249888937648
284.0, 0.2407897347007677
285.0, 0.22389432333215148
286.0, 0.20420735494600709
287.0, 0.18785337236775745
288.0, 0.17338670426214667
289.0, 0.16057867871922638
290.0, 0.14916037402498208
291.0, 0.13942079600706503
292.0, 0.12651931437073602
293.0, 0.1147848361007805
294.0, 0.10417036391463189
295.0, 0.0934137183891974
296.0, 0.08518226768088945
297.0, 0.08167542035949761
298.0, 0.07551758607029913
299.0, 0.06794025462673849
300.0, 0.06337323428776427
301.0, 0.05886009478447474
302.0, 0.05529832648698259
303.0, 0.05141488217971812
304.0, 0.048068034865079615
305.0, 0.04897746120846932
306.0, 0.04511601882102516
307.0, 0.03592645898732186
308.0, 0.02848365699766355
309.0, 0.026452054711688613
310.0, 0.02140327500160248
311.0, 0.015915145058089553
312.0, 0.009794310336460704
313.0, 0.006760983239761398
314.0, 0.005674622772444659
315.0, 0.0026295470966424153
316.0, 0.004024099049576305
317.0, 0.005928097550020755
318.0, 0.008974512531512666
319.0, 0.011293111455842865
320.0, 0.018292253267700342
321.0, 0.016674947933967108
322.0, 0.010387329649084932
323.0, 0.005262132263171433
324.0, 0.0036736191745911956
325.0, 0.004580502817047315
326.0, 0.0020077218567672774
327.0, 0.0059023715438097585
328.0, 0.009225063425983995
329.0, 0.017444997462728373
330.0, 0.02259244688774673
331.0, 0.03555485901031219
332.0, 0.04640882582568665
333.0, 0.05077043656452086
334.0, 0.06287338330586836
335.0, 0.0730154430465123
336.0, 0.08420767229736173
337.0, 0.09779274773813573
338.0, 0.11253446589787369
339.0, 0.12563157179611784
340.0, 0.1394906869520849
341.0, 0.15696691400989365
342.0, 0.17372905017076679
343.0, 0.18614791620457719
344.0, 0.19772314772789146
345.0, 0.21251290249219754
346.0, 0.2278185250154427
347.0, 0.24380899012269902
348.0, 0.260156639376842
349.0, 0.2737650908402547
350.0, 0.29082241076799753
351.0, 0.3060602239357323
352.0, 0.318213170626208
353.0, 0.3286686708986449
354.0, 0.3378201353692501
355.0, 0.3421717079565956
356.0, 0.34038538573754906
357.0, 0.336621313391723
358.0, 0.3343175723949042
359.0, 0.32042922128747453
360.0, 0.3061851135438751
361.0, 0.29320213536931955
362.0, 0.27928548880117465
363.0, 0.26267551513058784
364.0, 0.24942360676818784
365.0, 0.237145649254894
366.0, 0.22674348369925795
367.0, 0.2177146497788314
368.0, 0.20883909080429255
369.0, 0.20232151460855213
370.0, 0.20267396069875268
371.0, 0.19565806428065077
372.0, 0.18366247543648315
373.0, 0.1773146770064083
374.0, 0.17653576979624916
375.0, 0.17090519224079107
376.0, 0.15766421967792907
377.0, 0.14280436966359653
378.0, 0.1309180307542882
379.0, 0.11712454302651527
380.0, 0.10496177886515616
381.0, 0.09444747542836203
382.0, 0.08389764705790548
383.0, 0.07219316783436545
384.0, 0.06079095076770875
385.0, 0.051710474411033006
386.0, 0.044217616664153525
387.0, 0.03779635848308294
388.0, 0.03220865884741996
389.0, 0.028218961104154026
390.0, 0.02548079731689584
391.0, 0.018976890259011347
392.0, 0.012426129587064875
393.0, 0.010142966801268036
394.0, 0.008878570767264782
395.0, 0.002005024703511233
396.0, 0.000899485912136374
397.0, 0.0036333905471719074
398.0, 0.004606574278728108
399.0, 0.004162443421996619
400.0, 0.007598693594507485
401.0, 0.010342800395282792
402.0, 0.011728854598692943
403.0, 0.012009677706952297
404.0, 0.01046609649379505
405.0, 0.013723038349683567
406.0, 0.014133028540582604
407.0, 0.014593772093596592
408.0, 0.018944823726959353
409.0, 0.022988145633507776
410.0, 0.025290997325047183
411.0, 0.026640806516871847
412.0, 0.03366464948224972
413.0, 0.04339070665604265
414.0, 0.049342552282363505
415.0, 0.06368577538874746
416.0, 0.0725280314141477
417.0, 0.08284027220990639
418.0, 0.09613247220910003
419.0, 0.10855974307314813
420.0, 0.1243196214858271
421.0, 0.13277275477905245
422.0, 0.14642267539130385
423.0, 0.16567973691838112
424.0, 0.18315316020144004
425.0, 0.1980480815516193
426.0, 0.20931193595146486
427.0, 0.22531364569950593
428.0, 0.24180867297554676
429.0, 0.2563681022648358
430.0, 0.27540707481502463
431.0, 0.29331747549887915
432.0, 0.3094826082121686
433.0, 0.32177747261906214
434.0, 0.3318236063852844
435.0, 0.344757862180973
436.0, 0.3640192460504477
437.0, 0.38121776724745376
438.0, 0.3955444910571523
439.0, 0.4062664029024564
440.0, 0.4118652840113065
441.0, 0.42062130670454473
442.0, 0.42837102663777676
443.0, 0.4274231144123225
444.0, 0.41961877378755874
445.0, 0.41023911305558103
446.0, 0.3949182616373486
447.0, 0.3758459887058892
448.0, 0.35382704597496395
449.0, 0.3307945012525925
450.0, 0.30749875755276124
451.0, 0.2835606831705608
452.0, 0.2627843330295396
453.0, 0.24448960457727967
454.0, 0.22816228918899004
455.0, 0.21403630633484538
456.0, 0.20174594738065985
457.0, 0.18758649618928416
458.0, 0.18058451190578642
459.0, 0.17139439889952537
460.0, 0.1592171074363
461.0, 0.15148954099298775
462.0, 0.14903924497489868
463.0, 0.14561842549921605
464.0, 0.1367678655106427
465.0, 0.1313745899028528
466.0, 0.12841814138309832
467.0, 0.11956539300889218
468.0, 0.11458451125379417
469.0, 0.11067319507747866
470.0, 0.10780255923426098
471.0, 0.10202549442816976
472.0, 0.0955024807483402
473.0, 0.10172271106503325
474.0, 0.09179964917230742
475.0, 0.08666866592690994
476.0, 0.08451517547410632
477.0, 0.07926544267205708
478.0, 0.07593545896212579
479.0, 0.07023927627136434
480.0, 0.059517170446548036
481.0, 0.05078412557052422
482.0, 0.04457938222683022
483.0, 0.03860130909081604
484.0, 0.03444144140947645
485.0, 0.024605899015405684
486.0, 0.020386341782343602
487.0, 0.01574292261105607
488.0, 0.007444562407565183
489.0, 0.001817452239644915
490.0, 0.0034189999412906377
491.0, 0.005887063265865455
492.0, 0.004753804845373686
493.0, 0.003366141599284208
494.0, 0.004414563072441881
495.0, 0.0011288037119904382
496.0, 0.0017797156290145048
497.0, 0.004425464760026498
498.0, 0.00908012295243746
499.0, 0.01628102106763641
500.0, 0.024053764587121877
501.0, 0.03176789178252441
502.0, 0.039137829414755576
503.0, 0.04488754813210993
504.0, 0.05147810467524077
505.0, 0.0609804706770156
506.0, 0.07277168996347025
507.0, 0.0748788590735999
508.0, 0.08063915307184971
509.0, 0.08731284344096304
510.0, 0.091332908291281
511.0, 0.09420919351800823
512.0, 0.09689417499039946
513.0, 0.10025095916197127
514.0, 0.098891476908391
515.0, 0.09732435800557569
516.0, 0.09758151461470935
517.0, 0.09294643766580123
518.0, 0.0892636577754108
519.0, 0.08126559399908503
520.0, 0.07768700396015746
521.0, 0.078268722374014
522.0, 0.07578207212348322
523.0, 0.06681186110708764
524.0, 0.0649631372076055
525.0, 0.06393892125713412
526.0, 0.06261349458414196
527.0, 0.06109013548185866
528.0, 0.058686988377123835
529.0, 0.0573423855003162
530.0, 0.05500836307676289
531.0, 0.053018140051023024
532.0, 0.05112339522546119
533.0, 0.04857236120100178
534.0, 0.04536191688659481
535.0, 0.040245259030066455
536.0, 0.03816199817128875
537.0, 0.03575019027424641
538.0, 0.032585425068862785
539.0, 0.029799713655809593
540.0, 0.025839312080571417
541.0, 0.021414960970774437
542.0, 0.019928554941884863
543.0, 0.01447269090639104
544.0, 0.00983160711704199
545.0, 0.01012190283397079
546.0, 0.004943685580109993
547.0, 0.005321302381130023
548.0, 0.004260886573073417
549.0, 0.0005563814825975989
550.0, 0.004684208257469804
551.0, 0.004791867774326918
552.0, 0.007231445988982027
553.0, 0.005443554271956024
554.0, 0.003010867987920291
555.0, 0.0010481518532986789
556.0, 0.000688277830565487
557.0, 0.0029631654999304614
558.0, 0.005186854467830126
559.0, 0.004157085993859983
560.0, 0.0037684598136605166
561.0, 0.005348048786874832
562.0, 0.00539042011210865
563.0, 0.0022576692910439068
564.0, 0.004234718195153971
565.0, 0.001156212863414488
566.0, 0.0009837933086526566
567.0, 0.0020796623972533864
568.0, 0.0011352197018209347
569.0, 0.003975001277060366
570.0, 0.004274091671903675
571.0, 0.003998054380223455
572.0, 0.005790790883409906
573.0, 0.006899323424244612
574.0, 0.006752406375517394
575.0, 0.008067584712015732
576.0, 0.01109531421850598
577.0, 0.014870984326681594
578.0, 0.016585014576399833
579.0, 0.01594864014200856
580.0, 0.014748095228741097
581.0, 0.015377780836717486
582.0, 0.018470753283980578
583.0, 0.020459458195578026
584.0, 0.022865926966538525
585.0, 0.023954499539358718
586.0, 0.0250161983569036
587.0, 0.028510259727875145
588.0, 0.030050634125813748
589.0, 0.028881472771307218
590.0, 0.02977749653443484
591.0, 0.032753119672077155
592.0, 0.03535674536351056
593.0, 0.03569557312772928
594.0, 0.03545258447730355
595.0, 0.04030762748029331
596.0, 0.04121983308908855
597.0, 0.04049873808057686
598.0, 0.042205304139069415
599.0, 0.04384446785529157
600.0, 0.043155044617629874
601.0, 0.045626034232705844
602.0, 0.04722838923961607
603.0, 0.04758150737956282
604.0, 0.04843691353123982
605.0, 0.049754425603580524
606.0, 0.04908164805651715
607.0, 0.0525277322470309
608.0, 0.05284258506234497
609.0, 0.0512247206041676
610.0, 0.050929118914904335
611.0, 0.052861719998356704
612.0, 0.053836426140264626
613.0, 0.04998781609947669
614.0, 0.04995555913107924
615.0, 0.05007869055978227
616.0, 0.0495953963969412
617.0, 0.04910174604442802
618.0, 0.047852704707816836
619.0, 0.04912811230723184
620.0, 0.04592605061875778
621.0, 0.042814481277387156
622.0, 0.04259085691728579
623.0, 0.04208229112887992
624.0, 0.03753725052048631
625.0, 0.03492282714953813
626.0, 0.03709453677239406
627.0, 0.03866484281646746
628.0, 0.038428948906495265
629.0, 0.03701349241370175
630.0, 0.03586526619916362
631.0, 0.03766459829221249
632.0, 0.03818501975699277
633.0, 0.036733665628789026
634.0, 0.03646954315432721
635.0, 0.03578791013520162
636.0, 0.0344376954020139
637.0, 0.03578909494226767
638.0, 0.03601389279665405
639.0, 0.03560181072902176
640.0, 0.036713925495577227
641.0, 0.036369208609756815
642.0, 0.03467615574476267
643.0, 0.033999347257107494
644.0, 0.03239109621772933
645.0, 0.0350722838608849
646.0, 0.035593590877017627
647.0, 0.03573874244506037
648.0, 0.03596755987732347
649.0, 0.03621520795431675
650.0, 0.03721791249230794
651.0, 0.03491872560407457
652.0, 0.0347599010598278
653.0, 0.03455731593022283
654.0, 0.03466827757721615
655.0, 0.03577069775538222
656.0, 0.03695520122247943
657.0, 0.03561235781565003
658.0, 0.03573406688762947
659.0, 0.036337696095053884
660.0, 0.03615822505223977
661.0, 0.035794959093285054
662.0, 0.03541167198875439
663.0, 0.03475884800395022
664.0, 0.0358613615574864
665.0, 0.035580293587339044
666.0, 0.03747976371247131
667.0, 0.03666713010734128
668.0, 0.03545834597579305
669.0, 0.038353142700574175
670.0, 0.04010994336757775
671.0, 0.03722832327591487
672.0, 0.037090811262785905
673.0, 0.0386478799579382
674.0, 0.03763877419635512
675.0, 0.03586393010186751
676.0, 0.037585766107815104
677.0, 0.04064508910788281
678.0, 0.040279150933604804
679.0, 0.03870307297782371
680.0, 0.04067269104663721
681.0, 0.04277902754222393
682.0, 0.04125844508744755
683.0, 0.03968736217557738
684.0, 0.043181136491649175
685.0, 0.04389262791602434
686.0, 0.04400800599123203
687.0, 0.045842540163492866
688.0, 0.04672566314214595
689.0, 0.04645538721964511
690.0, 0.04801956062746512
691.0, 0.04698389122931194
692.0, 0.04832774709020105
693.0, 0.04805280471329702
694.0, 0.046287808212925934
695.0, 0.04730222378778495
696.0, 0.04813696187914748
697.0, 0.04217458073214918
698.0, 0.04473410782218114
699.0, 0.04722102411821746
700.0, 0.04506227171383057
701.0, 0.04378252504002574
702.0, 0.04390660419572484
703.0, 0.04110647852265264
704.0, 0.04062679235270847
705.0, 0.04102299494000655
706.0, 0.03841109262714303
707.0, 0.03797744403380703
708.0, 0.036347814779056395
709.0, 0.033949465635765265
710.0, 0.03489814415963255
711.0, 0.03338461530276744
712.0, 0.030375834022571734
713.0, 0.030755114055756306
714.0, 0.027792031163214638
715.0, 0.025454431774497077
716.0, 0.025996724827988052
717.0, 0.024759647132617992
718.0, 0.0225070137981738
719.0, 0.021969614253634986
720.0, 0.01895182392813681
721.0, 0.018380426562386684
722.0, 0.017627835129080657
723.0, 0.014914598455728883
724.0, 0.013214636215004797
725.0, 0.014448601660669823
726.0, 0.011381211633050833
727.0, 0.00987635220340077
728.0, 0.008092928819051286
729.0, 0.008851307150128
730.0, 0.008575373040395762
731.0, 0.004673783403228674
732.0, 0.0027179228437883285
733.0, 0.001263528936420605
734.0, 0.001929268866417863
735.0, 0.00018047354051426128
736.0, 0.0007633380371322036
737.0, 0.0022004254238150896
738.0, 0.003757316094618325
739.0, 0.0017968000978187543
740.0, 0.004533146193937092
741.0, 0.007688224032343268
742.0, 0.008844531946976443
743.0, 0.00939837771855743
744.0, 0.00829278939127813
745.0, 0.00730633110529907
746.0, 0.009953697641389144
747.0, 0.010762485223781072
748.0, 0.009840268676553512
749.0, 0.010025868929924957
750.0, 0.009896028899770632
751.0, 0.010214891681300995
752.0, 0.010586238163021787
753.0, 0.009618085785506634
754.0, 0.0099828197084857
755.0, 0.006945225567824776
756.0, 0.007050334804538189
757.0, 0.007841973411413657
758.0, 0.0057629683369537135
759.0, 0.0034088641069192857
760.0, 0.0011070569067785935
761.0, 0.004791111754900744
762.0, 0.0039955664478647165
763.0, 0.00634702477733721
764.0, 0.011945380615044491
765.0, 0.015132786213421248
766.0, 0.017284104990782114
767.0, 0.02213147390037346
768.0, 0.02833935165620076
769.0, 0.032265571201635874
770.0, 0.0369218998799993
771.0, 0.04261433533822456
772.0, 0.04929064117392462
773.0, 0.056460915579014156
774.0, 0.06248209006861605
775.0, 0.06670941776090476
776.0, 0.07043337375883345
777.0, 0.07428338427036153
778.0, 0.0835718298466313
779.0, 0.09324228273335296
780.0, 0.09681199569556197
781.0, 0.10143835103067245
782.0, 0.11109275827491322
783.0, 0.1197706278536979
784.0, 0.12497889299679704
785.0, 0.13094733022114852
786.0, 0.13714000685239774
787.0, 0.14559027886173262
788.0, 0.15533552281304883
789.0, 0.16427516946261592
790.0, 0.1719363423648353
791.0, 0.17935098543125444
792.0, 0.1910316781549862
793.0, 0.2010325951061487
794.0, 0.2097609106348592
795.0, 0.2138556431920793
796.0, 0.22348011091035877
797.0, 0.23996824860107674
798.0, 0.25421347141757594
799.0, 0.26425371947505033
800.0, 0.27232310305490465
801.0, 0.28102543536377145
802.0, 0.29585417391107754
803.0, 0.3044474357646255
804.0, 0.3105140240041701
805.0, 0.31701379862987505
806.0, 0.3244946708817587
807.0, 0.3366626657809566
808.0, 0.35156380531455966
809.0, 0.3654197872586358
810.0, 0.3792177110527556
811.0, 0.39815435499570323
812.0, 0.424125217954264
813.0, 0.45563029786669956
814.0, 0.49006685258256677
815.0, 0.5277566848366813
816.0, 0.5712812820485961
817.0, 0.617673593924507
818.0, 0.6659679777692276
819.0, 0.7113087872509541
820.0, 0.7583870615260097
821.0, 0.8076780023469475
822.0, 0.8552928277264117
823.0, 0.900683497966241
824.0, 0.9376311989254181
825.0, 0.9735318996328746
826.0, 0.9947653744922035
827.0, 0.9996625741723921
828.0, 0.9917241295890987
829.0, 0.9660789653051418
830.0, 0.9214776431210943
831.0, 0.866111317086472
832.0, 0.7982047193691377
833.0, 0.7239981781331027
834.0, 0.6522682723005355
835.0, 0.5832536925830312
836.0, 0.5147119794531463
837.0, 0.45300311695086476
838.0, 0.39970565646518336
839.0, 0.3510332619472115
840.0, 0.3112445339414106
841.0, 0.2760288647173281
842.0, 0.2482636705701146
843.0, 0.22668984309538995
844.0, 0.21069956555256833
845.0, 0.1986003407499007
846.0, 0.18903219219452275
847.0, 0.18311463923977284
848.0, 0.18317168945825402
849.0, 0.18530641419649935
850.0, 0.19144845729164173
851.0, 0.20113480637308703
852.0, 0.20974419812021988
853.0, 0.22367194136107363
854.0, 0.2403811774322123
855.0, 0.2544228345821476
856.0, 0.2681067639849426
857.0, 0.28355267791631755
858.0, 0.30518932512986124
859.0, 0.32213957524575704
860.0, 0.33687455215103995
861.0, 0.34837152926786763
862.0, 0.3643410808370367
863.0, 0.3800095293720573
864.0, 0.3901286672043837
865.0, 0.4049027841145348
866.0, 0.4188674616639419
867.0, 0.4369715287946734
868.0, 0.45543746610487984
869.0, 0.47389495915433905
870.0, 0.4959023182395119
871.0, 0.5176813976467487
872.0, 0.5408471441755038
873.0, 0.5707882315887174
874.0, 0.5939643204773056
875.0, 0.6243801836393075
876.0, 0.6581236448463077
877.0, 0.6903309113815199
878.0, 0.7204129836569908
879.0, 0.7475230156462506
880.0, 0.7618524223463778
881.0, 0.7608195421263308
882.0, 0.7495778571113311
883.0, 0.7232083079391857
884.0, 0.682715687748714
885.0, 0.6330132754852509
886.0, 0.5779430293442921
887.0, 0.5277651409068476
888.0, 0.486370824978282
889.0, 0.45017729837911435
890.0, 0.41875374190141323
891.0, 0.3946297807206112
892.0, 0.37266745225949494
893.0, 0.36026443702711997
894.0, 0.3463460040100891
895.0, 0.3341634283762802
896.0, 0.3275163290130043
897.0, 0.3180073672729138
898.0, 0.30539116136873323
899.0, 0.29380708529935295
900.0, 0.2807757974660087
901.0, 0.2630198400920249
902.0, 0.24231103078281152
903.0, 0.2200148816805146
904.0, 0.19635697433672875
905.0, 0.173874507349106
906.0, 0.15158831471018577
907.0, 0.12710068355291754
908.0, 0.10703047061007244
909.0, 0.09224992517143013
910.0, 0.07195568326024457
911.0, 0.057664047682533914
912.0, 0.04456907296713731
913.0, 0.035682752613991474
914.0, 0.026138806162641665
915.0, 0.016911256279833593
916.0, 0.008576745462169676
917.0, 0.0017745842703223735
918.0, 0.0025475077114715853
919.0, 0.005996170276036137
920.0, 0.01043421117780357
921.0, 0.011387665839806556
922.0, 0.011112173013890173
923.0, 0.013864149397291905
924.0, 0.014486571382047035
925.0, 0.012678238112435857
926.0, 0.011700844754719816
927.0, 0.0133332466022739
928.0, 0.01480314077004418
929.0, 0.012255612004064416
930.0, 0.012043461383495527
931.0, 0.009253168998051162
932.0, 0.006794851494293344
933.0, 0.005373629363301381
934.0, 0.0031838613315202623
935.0, 0.0014569344208903957
936.0, 0.00030662059486046597
937.0, 0.0014907704833027032
938.0, 0.003921931882346976
939.0, 0.005931788654589805
940.0, 0.004270900054949899
941.0, 0.0052920127913326665
942.0, 0.005102985867889993
943.0, 0.00662701907970637
944.0, 0.007001466727451446
945.0, 0.003101188390070261
946.0, 0.0016656129505041085
947.0, 0.0039857322773809226
948.0, 0.002914615236759737
949.0, 0.0032794139467281465
950.0, 0.0023487059439323043
951.0, 0.004484775258743987
952.0, 0.0025776874713837844
953.0, 0.0007644983159631565
954.0, 0.002449387255443454
955.0, 0.002659315781317499
956.0, 0.0017992648961075522
957.0, 0.0025972412971037428
958.0, 0.0009658745747209998
959.0, 0.00014668448463497306
960.0, 0.0019238067121866312
961.0, 0.0025976822507328477
962.0, 0.0010266431911455539
963.0, 0.00025091155714192936
964.0, 0.0016848263527697923
965.0, 0.004002279042899219
966.0, 0.0033139987077967083
967.0, 0.002701746893002856
968.0, 0.0052667947042969
969.0, 0.006605467187552823
970.0, 0.008014843070952711
971.0, 0.009080159523339676
972.0, 0.008385238197312005
973.0, 0.012160061410161419
974.0, 0.012774785040973041
975.0, 0.013812643635862432
976.0, 0.017016245446544082
977.0, 0.018006640057767278
978.0, 0.015514926687167445
979.0, 0.014778998964949941
980.0, 0.018758012907897123
981.0, 0.021203728990758702
982.0, 0.01578060431905225
983.0, 0.017274833352679004
984.0, 0.01722762401448285
985.0, 0.017644244335080606
986.0, 0.018632735247618964
987.0, 0.017432590072194682
988.0, 0.01663986471432854
989.0, 0.01810428991986197
990.0, 0.01818058166902354
991.0, 0.017968937351779762
992.0, 0.022668217578364687
993.0, 0.021598625866771682
994.0, 0.023538866472563546
995.0, 0.024605268267150968
996.0, 0.0266989218463528
997.0, 0.027757581614388224
998.0, 0.026924181993430524
999.0, 0.026297649287118165
1000.0, 0.028376123775134047
1001.0, 0.03297730345757689
1002.0, 0.034540506471190655
1003.0, 0.03352684641248178
1004.0, 0.03339203896920197
1005.0, 0.03162972076431191
1006.0, 0.033686764841363515
1007.0, 0.035753912543268776
1008.0, 0.0344889799854028
1009.0, 0.036864421288715934
1010.0, 0.04077020580859782
1011.0, 0.038109847219440524
1012.0, 0.03546948119105098
1013.0, 0.03698836637367515
1014.0, 0.03317344713932725
1015.0, 0.03320354983067381
1016.0, 0.033974671391402686
1017.0, 0.034351972336512666
1018.0, 0.03345476217131045
1019.0, 0.03148470093911157
1020.0, 0.028855966603473004
1021.0, 0.02760511163192401
1022.0, 0.027904374327435085
1023.0, 0.02430514218135905
1024.0, 0.024170751156344743
1025.0, 0.02372889674861144
1026.0, 0.02141239164131134
1027.0, 0.02246977789878484
1028.0, 0.019452532371504676
1029.0, 0.019655760850864287
1030.0, 0.020420103875544098
1031.0, 0.019440445977793524
1032.0, 0.01883693569778317
1033.0, 0.017542519517610065
1034.0, 0.01545852280200256
1035.0, 0.01664204372278797
1036.0, 0.019236714209713138
1037.0, 0.017329803930868182
1038.0, 0.015862008151865756
1039.0, 0.017310341567484074
1040.0, 0.016341915713957215
1041.0, 0.02030357114457065
1042.0, 0.018614582470006857
1043.0, 0.017560914662279336
1044.0, 0.01854013227015851
1045.0, 0.018327273332180306
1046.0, 0.016032679373299448
1047.0, 0.013512800966003047
1048.0, 0.01574709713494904
1049.0, 0.014018807217595752
1050.0, 0.011616041131404494
1051.0, 0.011734704453758443
1052.0, 0.011857620879851523
1053.0, 0.012827235215368394
1054.0, 0.011750113406976244
1055.0, 0.010702157703926603
1056.0, 0.013253456396015856
1057.0, 0.014961107840335382
1058.0, 0.013612023510181696
1059.0, 0.013573420667504678
1060.0, 0.015358252285127095
1061.0, 0.01598750043311034
1062.0, 0.01457544090979817
1063.0, 0.014042229539783959
1064.0, 0.015863235945543893
1065.0, 0.01610001132981155
1066.0, 0.01549115479004389
1067.0, 0.01616695993578335
1068.0, 0.015532747323161032
1069.0, 0.015712643305579525
1070.0, 0.016855105063992442
1071.0, 0.01691399115814378
1072.0, 0.016814074620121102
1073.0, 0.018298227004759346
1074.0, 0.021105033594322174
1075.0, 0.02245217286148934
1076.0, 0.020127051685484648
1077.0, 0.02017527131881666
1078.0, 0.02406631430551873
1079.0, 0.023468201652232387
1080.0, 0.022405995481636312
1081.0, 0.023072585379015055
1082.0, 0.021580616741111305
1083.0, 0.021489873973981794
1084.0, 0.020550633739560387
1085.0, 0.01859563411704836
1086.0, 0.01953499746955793
1087.0, 0.01706605489554959
1088.0, 0.017124650901737246
1089.0, 0.015692964574785456
1090.0, 0.015925846010236017
1091.0, 0.012152148957949372
1092.0, 0.010027804545137232
1093.0, 0.011054734280150875
1094.0, 0.010090175344281277
1095.0, 0.007737791902568795
1096.0, 0.005927168403901
1097.0, 0.006044277905015903
1098.0, 0.005319537215973466
1099.0, 0.0031828974701199196
1100.0, 0.003084986463218309
1101.0, 0.0025695440949358057
1102.0, 0.0007179545642623981
1103.0, 0.0017860671611487824
1104.0, 0.002113153392813018
1105.0, 0.0015724900221870672
1106.0, 0.0025734868444693072
1107.0, 0.004043810581392901
1108.0, 0.0032022612827725893
1109.0, 0.0022375083929042075
1110.0, 0.0024031057887353804
1111.0, 0.0028142937282878734
1112.0, 0.0014178739572830988
1113.0, 0.001847252269803444
1114.0, 0.00498894738938556
1115.0, 0.003261321061209193
1116.0, 0.002342272393593083
1117.0, 0.0054617872661585475
1118.0, 0.0024097644349916833
1119.0, 0.0037968023286495036
1120.0, 0.0007984555683396939
1121.0, 0.008311208425589689
1122.0, 0.006583034906291134
1123.0, 0.003281143130500417
1124.0, 0.005317694753063498
1125.0, 0.00483341901883429
1126.0, 0.0037922722883612305
1127.0, 0.0037777242862576787
1128.0, 0.002733346765836897
1129.0, 0.003479590886186596
1130.0, 0.004233859642545771
1131.0, 0.003645176792025687
1132.0, 0.005096178576284217
1133.0, 0.002060569783666473
1134.0, 0.001449423189424477
1135.0, 0.0012349732283437583
1136.0, 0.0021733755633880063
1137.0, 0.001993519774061659
1138.0, 0.00030248611398261597
1139.0, 0.0015426761850494764
1140.0, 0.0013613270412930214
1141.0, 0.0017709059723928007
1142.0, 0.00198750984178884
1143.0, 0.0006078306493215853
1144.0, 0.0006884425564972175
1145.0, 0.0012115607787884955
1146.0, 0.0027169938526441385
1147.0, 0.0012948919832895573
1148.0, 0.0011072735803828056
1149.0, 0.0009471754511650267
1150.0, 0.0031862097241422364
1151.0, 0.00729559164684339
1152.0, 0.005885212892529195
1153.0, 0.003130603549780657
1154.0, 0.0012268141026128918
1155.0, 0.0017615012723954883
1156.0, 0.0011474574816370412
1157.0, 0.001939873088344737
1158.0, 0.0010089880477071997
1159.0, 0.0005153523456308895
1160.0, 0.0012391185703137862
1161.0, 0.000424374614723648
1162.0, 0.0008950811241669715
1163.0, 0.000977848891375627
1164.0, 0.0007981528913278557
1165.0, 0.0012672194214368813
1166.0, 0.0015007734604811167
1167.0, 0.0007561085729164332
1168.0, 0.0009753208779293567
1169.0, 0.00017126707073839644
1170.0, 0.00016984715646715205
1171.0, 0.0006235305847163665
1172.0, 0.0006448283495191253
1173.0, 0.0003901267369224035
1174.0, 0.0003161302485290593
1175.0, 0.00014712125934267592
1176.0, 0.0006105667293448582
1177.0, 0.00042040744668870656
1178.0, 0.0012673330069926602
1179.0, 0.001586539786808359
1180.0, 0.001246367005938184
1181.0, 0.0009055336788084093
1182.0, 0.0006052506490367465
1183.0, 0.0010122019623506132
1184.0, 0.0007626311458343005
1185.0, 0.0015609404881950274
1186.0, 0.0009850861110592983
1187.0, 0.0024912077997957414
1188.0, 0.0033634669584106905
1189.0, 0.002366918217235932
1190.0, 0.0013303512556754786
1191.0, 0.0016661949272717587
1192.0, 0.0018887756299403268
1193.0, 0.0024359258982634135
1194.0, 0.0012318058368682278
1195.0, 0.0012414372782440686
1196.0, 0.0018097763676844063
1197.0, 0.0014074857178333461
1198.0, 0.0013946502585254358
1199.0, 0.00040233137170948846
1200.0, 0.001537378557286542
1201.0, 0.0004122929175760751
1202.0, 0.0006593233182969469
1203.0, 0.0004269759018184768
1204.0, 0.0015072871071078442
1205.0, 0.0002523831794101594
1206.0, 0.0018188139140867458
1207.0, 0.0009884054308450583
1208.0, 0.00533199817358626
1209.0, 0.0036842025860295783
1210.0, 0.0033594452848378733
1211.0, 0.005716492370026684
1212.0, 0.005698214503398885
1213.0, 0.0032800682706160805
1214.0, 0.002728493512863891
1215.0, 0.0023262062355599825
1216.0, 0.001734740546278939
1217.0, 0.003199543695676323
1218.0, 0.0035276170947115154
1219.0, 0.0016194362958435354
1220.0, 0.0014105737342745663
1221.0, 0.0035057733310710198
1222.0, 0.002427243600756055
1223.0, 0.0018354742060065034
1224.0, 0.002481538228648243
1225.0, 0.0025582115981647147
1226.0, 0.0031822802245167763
1227.0, 0.0035007074730163726
1228.0, 0.004160991718061244
1229.0, 0.0040770004131110045
1230.0, 0.0035141034070489247
1231.0, 0.005538142808956855
1232.0, 0.006246724320595469
1233.0, 0.0012857975675164036
1234.0, 0.001006469080821972
1235.0, 0.0029981346789254015
1236.0, 0.0021078849578733713
1237.0, 0.0023745330418380815
1238.0, 0.00410542185912548
1239.0, 0.004383166652673732
1240.0, 0.00564379612482757
1241.0, 0.005504014994188533
1242.0, 0.002738130223617964
1243.0, 0.0030104543197404542
1244.0, 0.003374602222578064
1245.0, 0.003906518998138679
1246.0, 0.0045288521043020695
1247.0, 0.0029293428143231724
1248.0, 0.0036829288531172316
1249.0, 0.0036335724984873034
1250.0, 0.002388320133259724
1251.0, 0.0020661999447153046
1252.0, 0.002569573510664246
1253.0, 0.0029765136573269204
1254.0, 0.0033936053508974292
1255.0, 0.004082064283161015
1256.0, 0.0028212475685951517
1257.0, 0.0032158171898205605
1258.0, 0.0035797073651094597
1259.0, 0.003722291083842682
1260.0, 0.005027430056401567
1261.0, 0.0048202612384151975
1262.0, 0.004207773591258505
1263.0, 0.003287227590761725
1264.0, 0.003525614342131274
1265.0, 0.004395958593602946
1266.0, 0.004056244072402904
1267.0, 0.0049117518019198845
1268.0, 0.005575370980309279
1269.0, 0.004124172316248469
1270.0, 0.0025177666384783377
1271.0, 0.0016565442745666245
1272.0, 0.0026372494230432536
1273.0, 0.0032915538941104155
1274.0, 0.0004086782095275377
1275.0, 0.00024157163313780582
1276.0, 0.006138147493078861
1277.0, 0.0007975323695350868
1278.0, 0.0005971052559604139
1279.0, 0.0042611664167466505
1280.0, 0.005701864381243481
1281.0, 0.003533973556502057
1282.0, 0.0011609406779237524
1283.0, 0.0018971456293002977
1284.0, 0.001163911744230963
1285.0, 6.968713536188926e-05
1286.0, 2.3766803982908957e-05
1287, 0.0
1288, 0.0
1289, 0.0
1290, 0.0
1291, 0.0
1292, 0.0
1293, 0.0
1294, 0.0
1295, 0.0
1296, 0.0
1297, 0.0
1298, 0.0
1299, 0.0
1300, 0.0
1301, 0.0
1302, 0.0
1303, 0.0
1304, 0.0
1305, 0.0
1306, 0.0
1307, 0.0
1308, 0.0
1309, 0.0
1310, 0.0
1311, 0.0
1312, 0.0
1313, 0.0
1314, 0.0
1315, 0.0
1316, 0.0
1317, 0.0
1318, 0.0
1319, 0.0
1320, 0.0
1321, 0.0
1322, 0.0
1323, 0.0
1324, 0.0
1325, 0.0
1326, 0.0
1327, 0.0
1328, 0.0
1329, 0.0
1330, 0.0
1331, 0.0
1332, 0.0
1333, 0.0
1334, 0.0
1335, 0.0
1336, 0.0
1337, 0.0
1338, 0.0
1339, 0.0
1340, 0.0
1341, 0.0
1342, 0.0
1343, 0.0
1344, 0.0
1345, 0.0
1346, 0.0
1347, 0.0
1348, 0.0
1349, 0.0
1350, 0.0
1351, 0.0
1352, 0.0
1353, 0.0
1354, 0.0
1355, 0.0
1356, 0.0
1357, 0.0
1358, 0.0
1359, 0.0
1360, 0.0
1361, 0.0
1362, 0.0
1363, 0.0
1364, 0.0
1365, 0.0
1366, 0.0
1367, 0.0
1368, 0.0
1369, 0.0
1370, 0.0
1371, 0.0
1372, 0.0
1373, 0.0
1374, 0.0
1375, 0.0
1376, 0.0
1377, 0.0
1378, 0.0
1379, 0.0
1380, 0.0
1381, 0.0
1382, 0.0
1383, 0.0
1384, 0.0
1385, 0.0
1386, 0.0
1387, 0.0
1388, 0.0
1389, 0.0
1390, 0.0
1391, 0.0
1392, 0.0
1393, 0.0
1394, 0.0
1395, 0.0
1396, 0.0
1397, 0.0
1398, 0.0
1399, 0.0
1400, 0.0
1401, 0.0
1402, 0.0
1403, 0.0
1404, 0.0
1405, 0.0
1406, 0.0
1407, 0.0
1408, 0.0
1409, 0.0
1410, 0.0
1411, 0.0
1412, 0.0
1413, 0.0
1414, 0.0
1415, 0.0
1416, 0.0
1417, 0.0
1418, 0.0
1419, 0.0
1420, 0.0
1421, 0.0
1422, 0.0
1423, 0.0
1424, 0.0
1425, 0.0
1426, 0.0
1427, 0.0
1428, 0.0
1429, 0.0
1430, 0.0
1431, 0.0
1432, 0.0
1433, 0.0
1434, 0.0
1435, 0.0
1436, 0.0
1437, 0.0
1438, 0.0
1439, 0.0
1440, 0.0
1441, 0.0
1442, 0.0
1443, 0.0
1444, 0.0
1445, 0.0
1446, 0.0
1447, 0.0
1448, 0.0
1449, 0.0
1450, 0.0
1451, 0.0
1452, 0.0
1453, 0.0
1454, 0.0
1455, 0.0
1456, 0.0
1457, 0.0
1458, 0.0
1459, 0.0
1460, 0.0
1461, 0.0
1462, 0.0
1463, 0.0
1464, 0.0
1465, 0.0
1466, 0.0
1467, 0.0
1468, 0.0
1469, 0.0
1470, 0.0
1471, 0.0
1472, 0.0
1473, 0.0
1474, 0.0
1475, 0.0
1476, 0.0
1477, 0.0
1478, 0.0
1479, 0.0
1480, 0.0
1481, 0.0
1482, 0.0
1483, 0.0
1484, 0.0
1485, 0.0
1486, 0.0
1487, 0.0
1488, 0.0
1489, 0.0
1490, 0.0
1491, 0.0
1492, 0.0
1493, 0.0
1494, 0.0
1495, 0.0
1496, 0.0
1497, 0.0
1498, 0.0
1499, 0.0
1500, 0.0
1501, 0.0
1502, 0.0
1503, 0.0
1504, 0.0
1505, 0.0
1506, 0.0
1507, 0.0
1508, 0.0
1509, 0.0
1510, 0.0
1511, 0.0
1512, 0.0
1513, 0.0
1514, 0.0
1515, 0.0
1516, 0.0
1517, 0.0
1518, 0.0
1519, 0.0
1520, 0.0
1521, 0.0
1522, 0.0
1523, 0.0
1524, 0.0
1525, 0.0
1526, 0.0
1527, 0.0
1528, 0.0
1529, 0.0
1530, 0.0
1531, 0.0
1532, 0.0
1533, 0.0
1534, 0.0
1535, 0.0
1536, 0.0
1537, 0.0
1538, 0.0
1539, 0.0
1540, 0.0
1541, 0.0
1542, 0.0
1543, 0.0
1544, 0.0
1545, 0.0
1546, 0.0
1547, 0.0
1548, 0.0
1549, 0.0
1550, 0.0
1551, 0.0
1552, 0.0
1553, 0.0
1554, 0.0
1555, 0.0
1556, 0.0
1557, 0.0
1558, 0.0
1559, 0.0
1560, 0.0
1561, 0.0
1562, 0.0
1563, 0.0
1564, 0.0
1565, 0.0
1566, 0.0
1567, 0.0
1568, 0.0
1569, 0.0
1570, 0.0
1571, 0.0
1572, 0.0
1573, 0.0
1574, 0.0
1575, 0.0
1576, 0.0
1577, 0.0
1578, 0.0
1579, 0.0
1580, 0.0
1581, 0.0
1582, 0.0
1583, 0.0
1584, 0.0
1585, 0.0
1586, 0.0
1587, 0.0
1588, 0.0
1589, 0.0
1590, 0.0
1591, 0.0
1592, 0.0
1593, 0.0
1594, 0.0
1595, 0.0
1596, 0.0
1597, 0.0
1598, 0.0
1599, 0.0
