30, 0.0
31, 0.0
32, 0.0
33, 0.0
34, 0.0
35, 0.0
36, 0.0
37, 0.0
38, 0.0
39, 0.0
40, 0.0
41, 0.0
42, 0.0
43, 0.0
44, 0.0
45, 0.0
46, 0.0
47, 0.0
48, 0.0
49, 0.0
50, 0.0
51, 0.0
52, 0.0
53, 0.0
54, 0.0
55, 0.0
56, 0.0
57, 0.0
58, 0.0
59, 0.0
60, 0.0
61, 0.0
62, 0.0
63, 0.0
64, 0.0
65, 0.0
66, 0.0
67, 0.0
68, 0.0
69, 0.0
70, 0.0
71, 0.0
72, 0.0
73, 0.0
74, 0.0
75, 0.0
76, 0.0
77, 0.0
78, 0.0
79, 0.0
80, 0.0
81, 0.0
82, 0.0
83, 0.0
84, 0.0
85, 0.0
86, 0.0
87, 0.0
88, 0.0
89, 0.0
90, 0.0
91, 0.0
92, 0.0
93, 0.0
94, 0.0
95, 0.0
96, 0.0
97, 0.0
98, 0.0
99, 0.0
100, 0.0
101.0, 0.00030084561678390536
102.0, 0.002280446211834466
103.0, 0.003083081623343617
104.0, 0.0007905171881192992
105.0, 0.0004552590179828116
106.0, 0.00048192826868093385
107.0, 0.0006359643666258464
108.0, 0.0018266292273780708
109.0, 0.0025016681226197254
110.0, 0.006500878333183871
111.0, 0.009620143149111336
112.0, 0.012329284228140452
113.0, 0.015787841976612156
114.0, 0.02072488079998225
115.0, 0.025021652939402533
116.0, 0.02857012230750206
117.0, 0.0321345638194147
118.0, 0.03661341448500054
119.0, 0.03986211334392197
120.0, 0.04304055016360796
121.0, 0.0466408913234777
122.0, 0.05019728169828522
123.0, 0.05339322871093136
124.0, 0.05657969439244076
125.0, 0.05953250884725456
126.0, 0.06177273659203243
127.0, 0.06309339511910425
128.0, 0.06484599570114291
129.0, 0.06584745718868289
130.0, 0.06523531552378566
131.0, 0.06450939031184456
132.0, 0.06263716241622443
133.0, 0.06156506446605011
134.0, 0.06127595687302156
135.0, 0.05902688425011961
136.0, 0.05574946088302323
137.0, 0.05419988034655037
138.0, 0.05394508974892098
139.0, 0.05264853440967249
140.0, 0.05128850082104667
141.0, 0.04923465056596542
142.0, 0.047098650269356
143.0, 0.04607461468672401
144.0, 0.04727621231511515
145.0, 0.048027914855473856
146.0, 0.048071713450760084
147.0, 0.047792457452745095
148.0, 0.047220906221975376
149.0, 0.04797251849905458
150.0, 0.04912237703910184
151.0, 0.050240251371452695
152.0, 0.051554808091013336
153.0, 0.052258965374317526
154.0, 0.05419186871551148
155.0, 0.05723673467009293
156.0, 0.06077945177945769
157.0, 0.06548362755961616
158.0, 0.07276284516989351
159.0, 0.08197728267135337
160.0, 0.0952851322782802
161.0, 0.1187289461405523
162.0, 0.14797185145637967
163.0, 0.17132700724238936
164.0, 0.18500316346602536
165.0, 0.19185848778661216
166.0, 0.20259543822819956
167.0, 0.21293931754341758
168.0, 0.22397840818917114
169.0, 0.2377734473036806
170.0, 0.2530882334581382
171.0, 0.27330663157035107
172.0, 0.29859438170485264
173.0, 0.3304582784047806
174.0, 0.3752902405634613
175.0, 0.44670584955368403
176.0, 0.5451191437247384
177.0, 0.6649394697069942
178.0, 0.7975325575148308
179.0, 0.9441501772783639
180.0, 0.997518614036625
181.0, 0.8709676590506162
182.0, 0.5931603238727767
183.0, 0.37855782705163993
184.0, 0.2566227631462118
185.0, 0.20068412370439143
186.0, 0.18090380077012094
187.0, 0.18057906708034185
188.0, 0.1869069304706622
189.0, 0.19727224761526946
190.0, 0.20583409715021156
191.0, 0.20762762518380207
192.0, 0.20755995496568933
193.0, 0.208159386982095
194.0, 0.20920901833748246
195.0, 0.21298975318553126
196.0, 0.2256575409747235
197.0, 0.24111902528189047
198.0, 0.2600546278994502
199.0, 0.28184863665266685
200.0, 0.3041031733209545
201.0, 0.32722158586240835
202.0, 0.34503294833944925
203.0, 0.3480988066660423
204.0, 0.32956231501323024
205.0, 0.2877359513631643
206.0, 0.23248206980747416
207.0, 0.1769075042217576
208.0, 0.12854218316907876
209.0, 0.0906500207488007
210.0, 0.06329919637053036
211.0, 0.04653347011129799
212.0, 0.03588372317680368
213.0, 0.027062709397620798
214.0, 0.021287849339298143
215.0, 0.01601099165154094
216.0, 0.011787191573217351
217.0, 0.00897567303719221
218.0, 0.007198488838125969
219.0, 0.006383717965836781
220.0, 0.005794924582648615
221.0, 0.003814414268900772
222.0, 0.0004390017002260746
223.0, 0.00175796094676018
224.0, 0.0006962175309004002
225.0, 0.00164976757144329
226.0, 0.0008555168338389667
227.0, 0.0008946634279728305
228.0, 0.0006615224612464562
229.0, 0.0012148885938414223
230.0, 0.001038906345844516
231.0, 0.0013910680681278578
232.0, 0.0015393254108902088
233.0, 0.002108902404696121
234.0, 0.0021748788022133204
235.0, 0.001933292723511914
236.0, 0.002348992707717071
237.0, 0.0005704085043004146
238.0, 0.00011925836736462178
239.0, 0.00021556744787458844
240.0, 0.00026708442566446055
241.0, 0.0001992792033039731
242.0, 0.0002755472665582389
243.0, 0.00038969936348358825
244.0, 0.0004913360127897049
245.0, 0.0006250742351432161
246.0, 0.0007163965674085381
247.0, 0.000510086295660051
248.0, 0.0003245948190966564
249.0, 0.0011580563506355828
250.0, 8.605639778898742e-05
251.0, 0.0006090035176408764
252.0, 0.0010260452370237155
253.0, 0.0003772480319209013
254.0, 0.0002020336402226914
255.0, 0.0003697655681422246
256.0, 0.0009975050151904217
257.0, 0.0014861369147644778
258.0, 0.0019413606616796805
259.0, 0.0024065227098471853
260.0, 0.001972515673516817
261.0, 0.0031663189821904145
262.0, 0.0039927260458870115
263.0, 0.002377932451293408
264.0, 0.0040066484507421994
265.0, 0.004945152080385629
266.0, 0.004388342706671411
267.0, 0.0038396907717414934
268.0, 0.005268130744742712
269.0, 0.006002694668103936
270.0, 0.005894672601356169
271.0, 0.0062419440079971925
272.0, 0.007295254849682074
273.0, 0.006472966222551916
274.0, 0.007643294258229918
275.0, 0.008479118076545002
276.0, 0.008405866159783112
277.0, 0.008418027609044372
278.0, 0.00837896440342574
279.0, 0.007438318917023633
280.0, 0.007740868844237952
281.0, 0.009108047769258793
282.0, 0.00844454976138771
283.0, 0.007819653509241584
284.0, 0.0077548986209651765
285.0, 0.0081353777729513
286.0, 0.008785377758872425
287.0, 0.009460531435655064
288.0, 0.009305292404345782
289.0, 0.009114716346628577
290.0, 0.008905928894784188
291.0, 0.008156671023996167
292.0, 0.007994878988043371
293.0, 0.007551745058426041
294.0, 0.007807466374071007
295.0, 0.008866424628715387
296.0, 0.008807037537422263
297.0, 0.007832686940145524
298.0, 0.006052227228142799
299.0, 0.005105256443792527
300.0, 0.005431534037203121
301.0, 0.0042635556011062815
302.0, 0.005036229352127712
303.0, 0.00494686595590579
304.0, 0.004420604141836719
305.0, 0.005206231953365566
306.0, 0.0052338934290844935
307.0, 0.0056734311031324085
308.0, 0.005332938074958193
309.0, 0.004210583442590765
310.0, 0.0036201959518088658
311.0, 0.004631143930580248
312.0, 0.0048158498189940025
313.0, 0.004044460845429522
314.0, 0.0031313296938289205
315.0, 0.002980593990994595
316.0, 0.0016484857515184303
317.0, 0.0013349410854667444
318.0, 0.001291155096295279
319.0, 0.0008414610042849149
320.0, 0.002853598024019439
321.0, 0.0022671463850763786
322.0, 0.001138454683680069
323.0, 0.0016931560939472806
324.0, 0.003624173049969288
325.0, 0.001306153698636462
326.0, 0.00012083895312309982
327.0, 0.0003870846442953518
328.0, 0.0007852754800094594
329.0, 0.00020839722977201376
330.0, 0.0009375324149805567
331.0, 0.00035847537276577975
332.0, 0.0006635864109763775
333.0, 0.0004078867890386002
334.0, 0.0006419927357504478
335.0, 0.0009165471558221507
336.0, 0.00044466966230389035
337.0, 0.0009414610660063133
338.0, 0.0007128566010937174
339.0, 0.00018416974855346355
340.0, 0.0005576122658528293
341.0, 0.0009121619813873703
342.0, 0.00048725996562044415
343.0, 0.0007196413284818665
344.0, 0.00031627287350845284
345.0, 0.0001646610374383937
346.0, 8.557070332728478e-05
347.0, 6.110968559876614e-05
348.0, 0.00040656703015066965
349.0, 0.0010500328238987615
350.0, 0.0021584238029581935
351.0, 0.003071258488621168
352.0, 0.0034997147890671984
353.0, 0.003650788437423468
354.0, 0.003412494545318742
355.0, 0.0031871069890575545
356.0, 0.002580377184446809
357.0, 0.0018630642548107981
358.0, 0.0019150920308302073
359.0, 0.0014257725062107132
360.0, 0.0010599664803884069
361.0, 0.0008684949186481516
362.0, 0.0006740884744601809
363.0, 0.00046439544004175736
364.0, 0.0001253068171741126
365.0, 7.174692222818694e-05
366.0, 0.000659656543755915
367.0, 0.001257739419494946
368.0, 0.0008026014059799788
369.0, 0.00016715876909916737
370.0, 0.0004928238799754808
371.0, 0.0009322483166857998
372.0, 0.0006103428715129166
373.0, 0.000933661400037263
374.0, 0.000723258974106636
375.0, 0.00022136954146657125
376.0, 0.0002794500804210249
377.0, 0.0007221828760352643
378.0, 0.0015626684591904369
379.0, 0.0013216979364694761
380.0, 0.0017569364940145595
381.0, 0.002460323387633724
382.0, 0.002397967664629213
383.0, 0.002937584406788112
384.0, 0.003659551956693318
385.0, 0.004027533417622409
386.0, 0.0034851181795791746
387.0, 0.002240737475543374
388.0, 0.0019935848972550407
389.0, 0.0025116660249569996
390.0, 0.0032093279049554024
391.0, 0.0038507908650726183
392.0, 0.004203344634451407
393.0, 0.003629762714991536
394.0, 0.004160421233898141
395.0, 0.002622033216069611
396.0, 0.0020678430811355017
397.0, 0.00592600645908733
398.0, 0.006903516526454275
399.0, 0.005001867955159188
400.0, 0.004056269278742678
401.0, 0.004751750033563248
402.0, 0.0057080946190916845
403.0, 0.006891865692528264
404.0, 0.008719491729427657
405.0, 0.009305195520151115
406.0, 0.008806865507902216
407.0, 0.008538276011155595
408.0, 0.008836639032627004
409.0, 0.009299908599266445
410.0, 0.009255744033517227
411.0, 0.009417769221463016
412.0, 0.01027445638097001
413.0, 0.00988746959914659
414.0, 0.010134940212547383
415.0, 0.011683627064187407
416.0, 0.0130097786349326
417.0, 0.012686556446182658
418.0, 0.01166119071475266
419.0, 0.012643118023981804
420.0, 0.0142185553774526
421.0, 0.014765304195620959
422.0, 0.014463736997698061
423.0, 0.016602973443242314
424.0, 0.015291667995160194
425.0, 0.015252738963614666
426.0, 0.01569904006609657
427.0, 0.014746212207936715
428.0, 0.015152310676673043
429.0, 0.01597623317162456
430.0, 0.016290513574570488
431.0, 0.01669153767298594
432.0, 0.01741726413527142
433.0, 0.017433492827292774
434.0, 0.017904372780815216
435.0, 0.019386031612832328
436.0, 0.020183470964478076
437.0, 0.01965967660231484
438.0, 0.019597586343579467
439.0, 0.020811062409016035
440.0, 0.022555844692481435
441.0, 0.022700047299208853
442.0, 0.022384515551008406
443.0, 0.02454660604587237
444.0, 0.024787683353163215
445.0, 0.02583028418925623
446.0, 0.027914075517951345
447.0, 0.02941693369853344
448.0, 0.028674769025108234
449.0, 0.028718886285975156
450.0, 0.031907841869818
451.0, 0.03294121756738141
452.0, 0.031718388121977775
453.0, 0.03192631108340094
454.0, 0.03192942350082841
455.0, 0.034928768820884304
456.0, 0.0367118833945503
457.0, 0.035957339213166684
458.0, 0.035248478580130804
459.0, 0.037200533105030804
460.0, 0.03899240833568291
461.0, 0.03782087955346144
462.0, 0.03583447939326244
463.0, 0.03546767967745749
464.0, 0.03620948637618629
465.0, 0.035733317792958436
466.0, 0.03497494238509533
467.0, 0.034341861782739805
468.0, 0.03431013045399302
469.0, 0.034877784339965884
470.0, 0.031226069606099072
471.0, 0.02983816015904423
472.0, 0.02878439659094221
473.0, 0.027011149194545024
474.0, 0.026100671781497914
475.0, 0.023959285520281218
476.0, 0.021463784166639965
477.0, 0.019879031204012066
478.0, 0.01905647881316715
479.0, 0.018118664242230815
480.0, 0.017077982825798355
481.0, 0.014956469277225949
482.0, 0.013857170009153076
483.0, 0.01374524075477513
484.0, 0.013915715414968492
485.0, 0.01518901907176774
486.0, 0.01430897812176828
487.0, 0.012534646572101607
488.0, 0.010653575090133859
489.0, 0.00920863079812054
490.0, 0.00877806894526831
491.0, 0.00843992428692672
492.0, 0.008524113188590168
493.0, 0.007611408444596543
494.0, 0.006018214506811866
495.0, 0.005326663366561821
496.0, 0.005274988243676563
497.0, 0.003489300619998947
498.0, 0.003180322908450921
499.0, 0.003875180499300987
500.0, 0.004000285772951407
501.0, 0.003781613132809542
502.0, 0.003316050557996372
503.0, 0.0037073051299587835
504.0, 0.0030643405757925313
505.0, 0.001686759484310979
506.0, 0.0016817333463920088
507.0, 0.0023775579915607655
508.0, 0.0020173199467087982
509.0, 0.0017731844042659928
510.0, 0.00243652855442795
511.0, 0.0029784102944563854
512.0, 0.0014332387552910355
513.0, 0.0006566588792329083
514.0, 0.0014605856633312401
515.0, 0.0030208291769829388
516.0, 0.0036204470989887323
517.0, 0.001476427276924409
518.0, 0.00013337202800973086
519.0, 0.00048778109694116284
520.0, 0.002095426724590203
521.0, 0.0022592072033870017
522.0, 9.405636759637113e-05
523.0, 0.001775554027734162
524.0, 0.002358767610109852
525.0, 0.001607299290241484
526.0, 0.0012374695038278444
527.0, 0.0018633838984492787
528.0, 0.002152101017413287
529.0, 0.0002547301204871465
530.0, 0.0005659012516150419
531.0, 0.0003816762507967529
532.0, 0.001037521202268446
533.0, 0.001206434794001878
534.0, 0.0019903612573610994
535.0, 0.0010879639869879787
536.0, 0.000486190619090471
537.0, 0.0007360180151818015
538.0, 0.0021768831013122005
539.0, 0.0005293686939098208
540.0, 0.0006982209516389564
541.0, 0.00012578417437585508
542.0, 0.0003812798122632451
543.0, 0.000526180386694039
544.0, 0.0016644128088980472
545.0, 0.00036760894582146104
546.0, 0.0007596746993821315
547.0, 0.00022069909424179805
548.0, 0.001419595795325738
549.0, 0.001965183985093162
550.0, 0.0011960278879056963
551.0, 0.0003531151531584008
552.0, 0.0002352915801458877
553.0, 0.0002362166604503461
554.0, 9.484830568902764e-05
555.0, 0.0004527537091102645
556.0, 0.00036805357826638846
557.0, 0.0007096395282766683
558.0, 0.0008227590778239807
559.0, 0.000896139164791208
560.0, 0.000951719692863245
561.0, 0.0013300437144238633
562.0, 0.0017355561306867527
563.0, 0.001715708439761487
564.0, 0.0023022457322787377
565.0, 0.0022618915429418853
566.0, 0.0011417491673454676
567.0, 0.0016075394282501832
568.0, 0.0010435738779541843
569.0, 0.0015185421973750134
570.0, 0.001350344317899245
571.0, 0.0006084067596573313
572.0, 0.0014521196961866868
573.0, 0.0024301848133668857
574.0, 0.003503717394896904
575.0, 0.003537752004762111
576.0, 0.002544261597646323
577.0, 0.001965751949318024
578.0, 0.0031801469801243367
579.0, 0.0025640448761002728
580.0, 0.0028355855712463448
581.0, 0.003550494606129362
582.0, 0.004281207594961715
583.0, 0.004499405213069525
584.0, 0.002494835209199041
585.0, 0.002050188292229129
586.0, 0.0030019572598361873
587.0, 0.0036856985796145784
588.0, 0.0034662629019291376
589.0, 0.003336491599596732
590.0, 0.004657398926706376
591.0, 0.0030957153021131073
592.0, 0.0034445315739591673
593.0, 0.004221406442178278
594.0, 0.003776561268419906
595.0, 0.003972948672870705
596.0, 0.003797866373356162
597.0, 0.0035452870072053277
598.0, 0.0023158211350558333
599.0, 0.0009873058469818054
600.0, 0.0013687522201983387
601.0, 0.004268293585607768
602.0, 0.0033909175478692346
603.0, 0.002592080537934194
604.0, 0.0021213943718525457
605.0, 0.002154727229568266
606.0, 0.0027081802647223444
607.0, 0.0027737161139148943
608.0, 0.002574928187654356
609.0, 0.002753623934656544
610.0, 0.003804280984185412
611.0, 0.004388222606797211
612.0, 0.003395135582150831
613.0, 0.0035268631109542795
614.0, 0.005337620422038731
615.0, 0.00468332272030689
616.0, 0.003964332934304502
617.0, 0.003772974719109112
618.0, 0.0022405360640883904
619.0, 0.002408951474452486
620.0, 0.002568720181139789
621.0, 0.0024957446125994987
622.0, 0.002102744590617372
623.0, 0.0016309014465918268
624.0, 0.0016585989926364204
625.0, 0.0031663000972586004
626.0, 0.001975188218721152
627.0, 0.0010389699300323144
628.0, 0.00115649041218164
629.0, 0.001825648079726362
630.0, 0.0024621130605263952
631.0, 0.0015128427895272306
632.0, 0.0027429119723164394
633.0, 0.0027643484967403804
634.0, 0.00201937607782879
635.0, 0.001975383592407359
636.0, 0.0022552476070772215
637.0, 0.0043902269198456065
638.0, 0.0027489919137030456
639.0, 0.0016335162596166936
640.0, 0.001909904726057592
641.0, 0.002512128345634124
642.0, 0.002878434503376642
643.0, 0.000967115047532013
644.0, 0.0006646853015437608
645.0, 0.00046340743153289567
646.0, 5.860975701071661e-05
647.0, 0.0004000213262378686
648.0, 0.0016514897786593073
649.0, 0.00018409524635852625
650.0, 0.0011787087320298698
651.0, 0.0036462234617645676
652.0, 0.0032538472460442113
653.0, 0.0006301341147158689
654.0, 0.0014249634120273988
655.0, 0.0020576129323639607
656.0, 0.001094907466018941
657.0, 0.00018774396692239296
658.0, 0.0005851962459052736
659.0, 0.0010279703404183905
660.0, 2.899564940486716e-05
661.0, 0.0020724954674735704
662.0, 0.000963779371447399
663.0, 0.0006851606868149414
664.0, 0.0007982971959979029
665.0, 0.0011199282944562312
666.0, 0.0033024914641889597
667.0, 0.0004025991671241114
668.0, 0.0031262594799593927
669.0, 0.003068804850721196
670.0, 0.0010411296983011322
671.0, 0.0004222531481061264
672.0, 0.0006117286568731745
673.0, 0.0007523663368137026
674.0, 0.0008583049338805143
675.0, 0.0005233912573559945
676.0, 0.00020518346125629773
677.0, 0.0002934678532315147
678.0, 0.0007064937785762964
679.0, 0.0007769548982488163
680.0, 0.00032513990147109515
681.0, 0.0008587623855163587
682.0, 0.000591637619282761
683.0, 0.00023131399907974276
684.0, 0.000411053975333348
685.0, 0.002032706831800608
686.0, 0.0016681611649865219
687.0, 0.0006096580446152276
688.0, 9.393632924108014e-05
689.0, 0.0006625122982604822
690.0, 0.0016669400335536364
691.0, 0.0013678079181705452
692.0, 9.884821537933673e-05
693.0, 0.0008343041108132506
694.0, 0.0022111598244046217
695.0, 0.0020644923700762386
696.0, 0.0009315839229827157
697.0, 0.0014814601277449177
698.0, 0.0020988474391769006
699.0, 0.0007933734603567628
700.0, 0.00037379487600743363
701.0, 0.0003710359447481052
702.0, 0.00037144765197594335
703.0, 0.0008712163797180464
704.0, 3.249464457106463e-05
705.0, 0.00045019827534587524
706.0, 0.0019119879427182804
707.0, 0.0016262169548314988
708.0, 0.0024977104834455846
709.0, 0.004965200433960725
710.0, 0.0006493167043212624
711.0, 0.00046591044350757267
712.0, 0.002116607710288211
713.0, 0.0021774135311538627
714.0, 0.0015327849827411197
715.0, 0.0011338639755475038
716.0, 0.0006775418704049388
717.0, 0.0035738869406687504
718.0, 0.0004105086358047015
719.0, 0.00014468099645464672
720.0, 0.0019929495334847134
721.0, 0.002656868415234006
722.0, 0.0023731202739413486
723.0, 0.0034385720087900594
724.0, 0.002292741668738628
725.0, 0.0017804872420994257
726.0, 0.0029814099764716526
727.0, 0.003793887954508473
728.0, 0.003434291736380739
729.0, 0.004090173533670078
730.0, 0.004030422128715293
731.0, 0.0033316204409986165
732.0, 0.0032937081562713845
733.0, 0.003205115015042058
734.0, 0.00263226299298217
735.0, 0.0022888662964809445
736.0, 0.0026724899651353715
737.0, 0.002528681177976683
738.0, 0.002929580938239275
739.0, 0.0026370820982267087
740.0, 0.0026668666121911063
741.0, 0.0039628334083100444
742.0, 0.0044256757732654035
743.0, 0.0024124492617627383
744.0, 0.0025810718740193984
745.0, 0.0016654065843818022
746.0, 0.001209827218824623
747.0, 0.0020801292985892787
748.0, 0.002789482858297919
749.0, 0.004102041112903564
750.0, 0.003635169959847477
751.0, 0.0030380747290892273
752.0, 0.0031913997693113925
753.0, 0.0030315464335674146
754.0, 0.002738878955806461
755.0, 0.003547684981921248
756.0, 0.002093659706876182
757.0, 0.0028571089302424175
758.0, 0.0016189074584577099
759.0, 0.0017961886596733173
760.0, 0.0031838142001112376
761.0, 0.002573361353023627
762.0, 0.0013674535035818783
763.0, 0.001416073329569812
764.0, 0.0012487371430847268
765.0, 0.0017105053083122657
766.0, 0.0036826484302975933
767.0, 0.004974891591245922
768.0, 0.0029444001167883713
769.0, 0.0009087978027411077
770.0, 0.0015100332754791233
771.0, 0.0007165696936178326
772.0, 0.0013938810652226552
773.0, 0.0021232625881138535
774.0, 0.0011439208234785003
775.0, 0.0011452057910627627
776.0, 0.002017436717353313
777.0, 0.001888291432846248
778.0, 0.0024411160477683038
779.0, 0.002170691840457921
780.0, 0.0018623910588729863
781.0, 0.002135700650177695
782.0, 0.00023830462925966315
783.0, 0.000499045515925669
784.0, 0.0022387777754344033
785.0, 0.0019131111096390365
786.0, 0.001866280381447477
787.0, 0.003015929925010132
788.0, 0.002340204083248514
789.0, 0.0017091172403911105
790.0, 0.002405124997409673
791.0, 0.002087882811027924
792.0, 0.0019380495733685623
793.0, 0.0008182593520158601
794.0, 0.00037308853450120555
795.0, 0.0006048933383163221
796.0, 0.0016763977504653115
797.0, 0.0017490862012135562
798.0, 0.0026106136618650037
799.0, 0.0015473571582883248
800.0, 0.0004918809183321275
801.0, 0.001264199905488933
802.0, 0.002172201415414845
803.0, 0.0015534547985630513
804.0, 0.0025604423350977395
805.0, 0.0009431516457015686
806.0, 0.001150049929110381
807.0, 0.0023464023540247982
808.0, 0.0024603760446930576
809.0, 0.002607025127713104
810.0, 0.0029111669777545607
811.0, 0.003982862617279985
812.0, 0.0025756343376205663
813.0, 0.0013070992745236629
814.0, 0.0005366851469630479
815.0, 0.0007135050574274403
816.0, 0.002345319760209952
817.0, 0.0018042864624865313
818.0, 0.0016702247983401463
819.0, 0.0016515873290744744
820.0, 0.003465612206110144
821.0, 0.0032764909618448043
822.0, 0.0012083871332634298
823.0, 0.0012917006338301082
824.0, 0.0005667495917268631
825.0, 0.0009420861850539482
826.0, 0.00035197796705277993
827.0, 0.0009713635126457135
828.0, 0.0010258448766291331
829.0, 0.0025133664521353166
830.0, 0.006179882602293527
831.0, 0.0014508831401527957
832.0, 0.0033691384203381894
833.0, 0.0013317478573071056
834.0, 8.84645782749466e-05
835.0, 0.002926843780368666
836.0, 0.004664105348745836
837.0, 0.0012645731698892227
838.0, 0.0010650493068533771
839.0, 2.9061744174866354e-05
840.0, 0.0019077864135474767
841.0, 0.002085814957940713
842.0, 0.0018854705950024932
843.0, 0.002339629582881161
844.0, 0.0027767189089417375
845.0, 0.002169631154369171
846.0, 0.0015020765661032918
847.0, 0.003084714568377145
848.0, 0.0012925874516059453
849.0, 0.00013639392637376763
850.0, 0.0003923933902308302
851.0, 0.0009872719034596928
852.0, 0.0007513507248437673
853.0, 6.507543345004002e-05
854.0, 0.0016271219716774562
855.0, 0.001845179286264914
856.0, 0.0008711955559002736
857.0, 0.001022394921122974
858.0, 0.0021265970883024747
859.0, 0.0022789635635865526
860.0, 0.0028559249254837115
861.0, 0.002864558861828364
862.0, 0.00302151722524336
863.0, 0.0022061593891903606
864.0, 0.0019304935577904641
865.0, 0.0018974079427531057
866.0, 0.001043722194940782
867.0, 0.0006791695093756792
868.0, 0.00010537610410367857
869.0, 0.0014865078797276516
870.0, 0.0018234879316550209
871.0, 0.0014605853561826235
872.0, 0.002618180568688908
873.0, 0.005044747601372684
874.0, 0.005112707208583351
875.0, 0.001716601115834768
876.0, 0.0033658883563019476
877.0, 0.003307711988088095
878.0, 0.0018895670630102908
879.0, 0.0011867978056494463
880.0, 0.0014581274980201325
881.0, 0.001256256767958158
882.0, 0.0002591623670266525
883.0, 0.0015339778049115193
884.0, 0.0004785752110607099
885.0, 0.001105672544326493
886.0, 0.0004864249388256285
887.0, 0.0010311106893798419
888.0, 0.0012018386039908634
889.0, 0.001353816663984688
890.0, 0.0027617084035661387
891.0, 0.0022623420124350366
892.0, 0.003256265628639371
893.0, 0.003477048313918399
894.0, 0.002459987594670489
895.0, 0.002602936752321282
896.0, 0.0035203617790222196
897.0, 0.002184355641384507
898.0, 0.003615963305512358
899.0, 0.0030747610940875495
900.0, 0.003902863366278234
901.0, 0.002552376501610541
902.0, 0.0015013638543638855
903.0, 0.0036128141362330784
904.0, 0.005534385909214188
905.0, 0.0031657955351354176
906.0, 0.0022543410096688785
907.0, 0.0030746798953948575
908.0, 0.0016356301447485707
909.0, 0.001738621772278559
910.0, 0.0024363922439603197
911.0, 0.0012864028629644326
912.0, 0.00033541865914495073
913.0, 0.00045218503526624123
914.0, 0.0025345148586428065
915.0, 0.0014696926289629296
916.0, 0.0029800336134558876
917.0, 0.0041681037499921485
918.0, 0.003235078318283862
919.0, 0.0013398614321405997
920.0, 0.0001763987891583708
921.0, 0.0008889346303261315
922.0, 0.0011108185724307688
923.0, 0.002043547321420288
924.0, 0.0025491227296399865
925.0, 0.0008611815742795228
926.0, 0.0003981317598565074
927.0, 0.0025456172480509756
928.0, 0.005196574715034799
929.0, 0.004833351699895
930.0, 0.001897349001417303
931.0, 0.00018160710719504643
932.0, 0.002433228096731491
933.0, 0.0030095280062112095
934.0, 0.002847228237512053
935.0, 0.002907221164965637
936.0, 0.00040763611201036725
937.0, 0.001610020544021332
938.0, 0.0014709597315560694
939.0, 0.001636280042867819
940.0, 0.0009323311539123047
941.0, 0.0011949231199600962
942.0, 0.0019354258290106407
943.0, 0.0020799914054766572
944.0, 0.0026854351146527546
945.0, 0.0034062299639132927
946.0, 0.003118566379871452
947.0, 0.0011518760060201822
948.0, 0.0007780441817691388
949.0, 0.0019392745612801304
950.0, 0.0023371689202119133
951.0, 0.0024497556155361846
952.0, 0.0035351871817187676
953.0, 0.0021334307659134953
954.0, 0.0023970531999290144
955.0, 0.0005662533017470389
956.0, 0.0002504987689807256
957.0, 0.0011592670783541602
958.0, 0.0017407483943331394
959.0, 0.001319257661400767
960.0, 0.0007749782746190947
961.0, 6.645044822180753e-05
962.0, 0.0002607262766361263
963.0, 0.001860013382764481
964.0, 0.003277036954677816
965.0, 0.0021227437604935135
966.0, 0.0008118966247004858
967.0, 0.0013851699035487219
968.0, 0.0025536687919372907
969.0, 0.0024026544969014975
970.0, 0.0012094952763911906
971.0, 0.0027472110369103652
972.0, 0.002210819007437024
973.0, 0.0030064763465317153
974.0, 0.002208485825217282
975.0, 0.00224359373015024
976.0, 0.004249284557747843
977.0, 0.003945641947950503
978.0, 0.002119881558596398
979.0, 0.002604210181748916
980.0, 0.003759010124916429
981.0, 0.003176894543242669
982.0, 0.001721424505272469
983.0, 0.00032947705661378577
984.0, 0.0005850411739101982
985.0, 0.0025258464536717707
986.0, 0.0028994246884723753
987.0, 0.002677998716655848
988.0, 0.0019370512741551996
989.0, 0.0020691532160301233
990.0, 0.0022085000653902028
991.0, 0.0029625695698244675
992.0, 0.0036441927725760345
993.0, 0.003680893118651373
994.0, 0.0036098121559636816
995.0, 0.0034673373896924606
996.0, 0.003293314489411406
997.0, 0.0016617139096823336
998.0, 0.0029099105978057844
999.0, 0.002620923402934432
1000.0, 0.0012794238348460263
1001.0, 0.0019512652313337488
1002.0, 0.0032389296740352965
1003.0, 0.002131219386343897
1004.0, 0.0018155201864409553
1005.0, 0.0016220229214046152
1006.0, 0.00305909714822661
1007.0, 0.0025660708901539863
1008.0, 0.0021783066937551975
1009.0, 0.0026099154564527163
1010.0, 0.0026072225661953677
1011.0, 0.0016586515984017267
1012.0, 0.0013239995065121315
1013.0, 0.0033234307568016904
1014.0, 0.0032114700344297413
1015.0, 0.001787928589086286
1016.0, 0.0016023231293722374
1017.0, 0.001761314947315086
1018.0, 0.001842487153509884
1019.0, 0.0015922786111957912
1020.0, 0.0012202073900870797
1021.0, 0.0014506710842865976
1022.0, 0.0013796836623270329
1023.0, 0.0012297406775331292
1024.0, 0.002583173255116813
1025.0, 0.0017737462155872391
1026.0, 0.0012903228497340954
1027.0, 0.0021969048393878903
1028.0, 0.0036929042524135084
1029.0, 0.0039245687701376175
1030.0, 0.0013818563515907351
1031.0, 0.0013119682309869418
1032.0, 0.0005955806583666631
1033.0, 0.003861099778715589
1034.0, 0.004015957950681401
1035.0, 0.00398669985432881
1036.0, 0.002768256628964371
1037.0, 0.001267554364399821
1038.0, 0.0016683720398939983
1039.0, 0.002986687758974832
1040.0, 0.00457243461993438
1041.0, 0.003340740263342982
1042.0, 0.0017527633194533124
1043.0, 0.0016923444064339082
1044.0, 0.0022513075019641266
1045.0, 0.0035424480360549114
1046.0, 0.0029362690896451576
1047.0, 0.0016486029409980645
1048.0, 0.0026874911082998766
1049.0, 0.0015153493957903827
1050.0, 0.0004045678292940185
1051.0, 0.001073764579854454
1052.0, 0.001759246479632192
1053.0, 0.003400033548152292
1054.0, 0.0017723863287978172
1055.0, 0.0007165326664857572
1056.0, 0.002365171499518765
1057.0, 0.0025462563611731233
1058.0, 0.0004124522826007819
1059.0, 0.0016728230100548954
1060.0, 0.0016925544386243705
1061.0, 0.0015467093681952129
1062.0, 0.0010358948941626984
1063.0, 0.0001681564140011022
1064.0, 0.00105154561656295
1065.0, 0.002507506479456947
1066.0, 0.0025311659583378715
1067.0, 0.0019912327990161097
1068.0, 0.0016462111653078194
1069.0, 7.509764483838148e-05
1070.0, 0.0006175144025502493
1071.0, 0.0021650428571435335
1072.0, 0.0017802767102311756
1073.0, 0.0013749272452339711
1074.0, 0.001529759548150337
1075.0, 0.00242275885752399
1076.0, 0.002140414512881271
1077.0, 0.0006011083902153287
1078.0, 0.0007253594237659724
1079.0, 0.0002874205508136057
1080.0, 0.0013472828338341673
1081.0, 0.0023577372621073514
1082.0, 0.00131751750580789
1083.0, 0.000538588997680672
1084.0, 0.0006873144728516728
1085.0, 0.0012367263972522533
1086.0, 0.0018201511730774598
1087.0, 0.0014268277062198396
1088.0, 0.0001428987033692126
1089.0, 0.0014376219341689404
1090.0, 0.000560084673007927
1091.0, 4.793191719560833e-05
1092.0, 0.0023075298406400875
1093.0, 0.00186126128114941
1094.0, 0.00034097599517329374
1095.0, 0.000830288918819659
1096.0, 0.0016297059019528722
1097.0, 0.0019744136739800098
1098.0, 0.0037844417242590403
1099.0, 0.003130057462382153
1100.0, 0.0036165966561733857
1101.0, 0.0032007552301630956
1102.0, 0.0010820808040270388
1103.0, 0.00023229581837253455
1104.0, 0.0006987644828010058
1105.0, 0.0019133049860089746
1106.0, 0.002387427926433367
1107.0, 0.0007122786248381722
1108.0, 0.00043759183279463797
1109.0, 0.00016103687392945857
1110.0, 0.0003316969226797839
1111.0, 0.00370183976388314
1112.0, 0.0023796820726521414
1113.0, 0.0018265065307412356
1114.0, 0.0020885274778998557
1115.0, 0.0019127262215393106
1116.0, 0.002450279341443807
1117.0, 0.002558339079902267
1118.0, 0.0014169282082708047
1119.0, 0.0002780574837294354
1120.0, 0.0010108060626454589
1121.0, 0.002822435391518021
1122.0, 0.003412150982001111
1123.0, 0.0017277345546989815
1124.0, 0.0007726029906223803
1125.0, 0.0004856646825727505
1126.0, 0.0009125160291539511
1127.0, 0.0027121382786819835
1128.0, 0.002359316574292292
1129.0, 0.0012323179426647628
1130.0, 0.0008054089343489974
1131.0, 0.0005823730335953344
1132.0, 0.001425346245729589
1133.0, 0.0013870751496862102
1134.0, 0.0002472701599700408
1135.0, 0.001182008831728607
1136.0, 0.0027552811762106234
1137.0, 0.0021883172555427336
1138.0, 0.0017878429016575576
1139.0, 0.0015991137607126243
1140.0, 0.0023929763350395345
1141.0, 0.0021455884189652877
1142.0, 0.0014686475819432343
1143.0, 0.002543884323679083
1144.0, 0.0011724401825701305
1145.0, 0.001225963083026032
1146.0, 0.001988119719064228
1147.0, 0.0012188758114244315
1148.0, 0.0013586413615658678
1149.0, 0.0024428093605654345
1150.0, 0.0005593508948675529
1151.0, 0.001718235813780347
1152.0, 0.00117765044770825
1153.0, 0.0013125259453419626
1154.0, 0.001231602920236136
1155.0, 0.002349093530627326
1156.0, 0.003679310792629179
1157.0, 0.0043745028736797585
1158.0, 0.0037841621713968357
1159.0, 0.0019863524525049765
1160.0, 0.0013414766414191692
1161.0, 0.003028215115154171
1162.0, 0.003370142302483646
1163.0, 0.002696674609086671
1164.0, 0.0036626363577415663
1165.0, 0.0012497961395084548
1166.0, 0.0003149684381603231
1167.0, 0.005568961419465517
1168.0, 0.006746757172910404
1169.0, 0.005023739546637874
1170.0, 0.003169531711439298
1171.0, 0.0005513168532069632
1172.0, 0.0017887788701939872
1173.0, 0.0011827721528922593
1174.0, 0.001119809762927196
1175.0, 0.0026640562689850453
1176.0, 0.003663726059681721
1177.0, 0.001348007013850656
1178.0, 0.0026387428257803104
1179.0, 0.002597595632609912
1180.0, 0.0031255775783501586
1181.0, 0.0035858842577229924
1182.0, 0.002550651151401421
1183.0, 0.0032261035551418484
1184.0, 0.003152790399094104
1185.0, 0.0009632024498975493
1186.0, 0.0009712274328000283
1187.0, 0.003379421952453878
1188.0, 0.004951957679859067
1189.0, 0.0037359179799576377
1190.0, 0.0028419691325865795
1191.0, 0.003109151652120626
1192.0, 0.002859456417901951
1193.0, 0.0023222620943228432
1194.0, 0.0022031965008154643
1195.0, 0.0024725516224770186
1196.0, 0.003354688424795998
1197.0, 0.0017257731656192493
1198.0, 0.0011131903447895585
1199.0, 0.002944408823707339
1200.0, 0.002233513804026116
1201.0, 0.00016854871603666624
1202.0, 0.0022499581513664582
1203.0, 0.0019444596222567107
1204.0, 0.0022499017492289197
1205.0, 0.002626863080334769
1206.0, 0.002021439056797065
1207.0, 0.002592036435399867
1208.0, 0.0010060656705420698
1209.0, 0.0032039133933269874
1210.0, 0.0023056711390176663
1211.0, 0.003071742055784694
1212.0, 0.0018187847300814876
1213.0, 0.0027635214305780746
1214.0, 0.002256224829576141
1215.0, 0.0031039283168944666
1216.0, 0.0037140515046751653
1217.0, 0.0018651160824495164
1218.0, 0.001358872487795675
1219.0, 0.0026607267535721686
1220.0, 0.0014947190547154377
1221.0, 0.0017499022698618696
1222.0, 0.0017348518344057074
1223.0, 0.0025051338298464924
1224.0, 0.0006653598400398395
1225.0, 0.0006853212592645378
1226.0, 0.0004973770677205173
1227.0, 0.0005408995985268702
1228.0, 0.00013336372048007144
1229.0, 0.0004174743104561283
1230.0, 0.000344857647836599
1231.0, 0.0001629357003665714
1232.0, 0.000985955846328888
1233.0, 0.0019130227653865373
1234.0, 0.0010829355544405698
1235.0, 0.0007088872038203657
1236.0, 0.0013818667720044712
1237.0, 0.002606974425080749
1238.0, 0.0005766347980149212
1239.0, 0.0005295013689661723
1240.0, 0.0020034389562438295
1241.0, 0.0019115763263990863
1242.0, 0.0008313451936582924
1243.0, 0.0014891100879493057
1244.0, 0.0030720067499323362
1245.0, 0.002480576162259993
1246.0, 0.0011620210236389695
1247.0, 0.002691790539984267
1248.0, 0.00014487144383944716
1249.0, 0.0010755733807938078
1250.0, 0.0004249531220571599
1251.0, 0.001717727445886219
1252.0, 0.002626313395058334
1253.0, 0.001847679441948294
1254.0, 0.0018519716454876193
1255.0, 0.002284244654283376
1256.0, 0.001295094925223737
1257.0, 0.0017971542404862247
1258.0, 0.0028872684628352
1259.0, 0.0016270382275214833
1260.0, 0.0028860476657322893
1261.0, 0.0019568526338113613
1262.0, 0.0025167202480194132
1263.0, 0.0001474258902539456
1264.0, 0.001987362093213407
1265.0, 0.0012075448701431343
1266.0, 0.0024169556287133008
1267.0, 0.0006049187180773888
1268.0, 0.00038946169191557054
1269.0, 0.0006743140652346407
1270.0, 0.0001506617698627587
1271.0, 0.00026615240747915444
1272.0, 0.0015886543833873602
1273.0, 0.002187363361336319
1274.0, 0.0030021998635999963
1275.0, 0.002976412254739169
1276.0, 0.0013474984676752877
1277.0, 0.0025802396637601877
1278.0, 0.0029764651306534587
1279.0, 0.0029608866168820695
1280.0, 0.002598218559817434
1281.0, 0.0020946258935280737
1282.0, 0.003530555858407728
1283.0, 0.0019647203564401223
1284.0, 0.0006247716337396503
1285.0, 0.001311730542631626
1286.0, 0.00372728698396476
1287.0, 0.0027224669236701414
1288.0, 0.003644551839045098
1289.0, 0.0029350695195273523
1290.0, 0.004286482440128977
1291.0, 0.0032129971831797556
1292.0, 0.0027454922966534197
1293.0, 0.0009531699915479889
1294.0, 0.0009513950731028778
1295.0, 0.0023608870996626617
1296.0, 0.000815928519277474
1297.0, 0.001080651006567326
1298.0, 0.0007647527473142555
1299.0, 0.0005031995044058228
1300.0, 0.0016168025336339386
1301.0, 0.0014218155244542922
1302, 0.0
1303, 0.0
1304, 0.0
1305, 0.0
1306, 0.0
1307, 0.0
1308, 0.0
1309, 0.0
1310, 0.0
1311, 0.0
1312, 0.0
1313, 0.0
1314, 0.0
1315, 0.0
1316, 0.0
1317, 0.0
1318, 0.0
1319, 0.0
1320, 0.0
1321, 0.0
1322, 0.0
1323, 0.0
1324, 0.0
1325, 0.0
1326, 0.0
1327, 0.0
1328, 0.0
1329, 0.0
1330, 0.0
1331, 0.0
1332, 0.0
1333, 0.0
1334, 0.0
1335, 0.0
1336, 0.0
1337, 0.0
1338, 0.0
1339, 0.0
1340, 0.0
1341, 0.0
1342, 0.0
1343, 0.0
1344, 0.0
1345, 0.0
1346, 0.0
1347, 0.0
1348, 0.0
1349, 0.0
1350, 0.0
1351, 0.0
1352, 0.0
1353, 0.0
1354, 0.0
1355, 0.0
1356, 0.0
1357, 0.0
1358, 0.0
1359, 0.0
1360, 0.0
1361, 0.0
1362, 0.0
1363, 0.0
1364, 0.0
1365, 0.0
1366, 0.0
1367, 0.0
1368, 0.0
1369, 0.0
1370, 0.0
1371, 0.0
1372, 0.0
1373, 0.0
1374, 0.0
1375, 0.0
1376, 0.0
1377, 0.0
1378, 0.0
1379, 0.0
1380, 0.0
1381, 0.0
1382, 0.0
1383, 0.0
1384, 0.0
1385, 0.0
1386, 0.0
1387, 0.0
1388, 0.0
1389, 0.0
1390, 0.0
1391, 0.0
1392, 0.0
1393, 0.0
1394, 0.0
1395, 0.0
1396, 0.0
1397, 0.0
1398, 0.0
1399, 0.0
1400, 0.0
1401, 0.0
1402, 0.0
1403, 0.0
1404, 0.0
1405, 0.0
1406, 0.0
1407, 0.0
1408, 0.0
1409, 0.0
1410, 0.0
1411, 0.0
1412, 0.0
1413, 0.0
1414, 0.0
1415, 0.0
1416, 0.0
1417, 0.0
1418, 0.0
1419, 0.0
1420, 0.0
1421, 0.0
1422, 0.0
1423, 0.0
1424, 0.0
1425, 0.0
1426, 0.0
1427, 0.0
1428, 0.0
1429, 0.0
1430, 0.0
1431, 0.0
1432, 0.0
1433, 0.0
1434, 0.0
1435, 0.0
1436, 0.0
1437, 0.0
1438, 0.0
1439, 0.0
1440, 0.0
1441, 0.0
1442, 0.0
1443, 0.0
1444, 0.0
1445, 0.0
1446, 0.0
1447, 0.0
1448, 0.0
1449, 0.0
1450, 0.0
1451, 0.0
1452, 0.0
1453, 0.0
1454, 0.0
1455, 0.0
1456, 0.0
1457, 0.0
1458, 0.0
1459, 0.0
1460, 0.0
1461, 0.0
1462, 0.0
1463, 0.0
1464, 0.0
1465, 0.0
1466, 0.0
1467, 0.0
1468, 0.0
1469, 0.0
1470, 0.0
1471, 0.0
1472, 0.0
1473, 0.0
1474, 0.0
1475, 0.0
1476, 0.0
1477, 0.0
1478, 0.0
1479, 0.0
1480, 0.0
1481, 0.0
1482, 0.0
1483, 0.0
1484, 0.0
1485, 0.0
1486, 0.0
1487, 0.0
1488, 0.0
1489, 0.0
1490, 0.0
1491, 0.0
1492, 0.0
1493, 0.0
1494, 0.0
1495, 0.0
1496, 0.0
1497, 0.0
1498, 0.0
1499, 0.0
1500, 0.0
1501, 0.0
1502, 0.0
1503, 0.0
1504, 0.0
1505, 0.0
1506, 0.0
1507, 0.0
1508, 0.0
1509, 0.0
1510, 0.0
1511, 0.0
1512, 0.0
1513, 0.0
1514, 0.0
1515, 0.0
1516, 0.0
1517, 0.0
1518, 0.0
1519, 0.0
1520, 0.0
1521, 0.0
1522, 0.0
1523, 0.0
1524, 0.0
1525, 0.0
1526, 0.0
1527, 0.0
1528, 0.0
1529, 0.0
1530, 0.0
1531, 0.0
1532, 0.0
1533, 0.0
1534, 0.0
1535, 0.0
1536, 0.0
1537, 0.0
1538, 0.0
1539, 0.0
1540, 0.0
1541, 0.0
1542, 0.0
1543, 0.0
1544, 0.0
1545, 0.0
1546, 0.0
1547, 0.0
1548, 0.0
1549, 0.0
1550, 0.0
1551, 0.0
1552, 0.0
1553, 0.0
1554, 0.0
1555, 0.0
1556, 0.0
1557, 0.0
1558, 0.0
1559, 0.0
1560, 0.0
1561, 0.0
1562, 0.0
1563, 0.0
1564, 0.0
1565, 0.0
1566, 0.0
1567, 0.0
1568, 0.0
1569, 0.0
1570, 0.0
1571, 0.0
1572, 0.0
1573, 0.0
1574, 0.0
1575, 0.0
1576, 0.0
1577, 0.0
1578, 0.0
1579, 0.0
1580, 0.0
1581, 0.0
1582, 0.0
1583, 0.0
1584, 0.0
1585, 0.0
1586, 0.0
1587, 0.0
1588, 0.0
1589, 0.0
1590, 0.0
1591, 0.0
1592, 0.0
1593, 0.0
1594, 0.0
1595, 0.0
1596, 0.0
1597, 0.0
1598, 0.0
1599, 0.0
