30, 0.0
31, 0.0
32, 0.0
33, 0.0
34, 0.0
35, 0.0
36, 0.0
37, 0.0
38, 0.0
39, 0.0
40, 0.0
41, 0.0
42, 0.0
43, 0.0
44, 0.0
45, 0.0
46, 0.0
47, 0.0
48, 0.0
49, 0.0
50, 0.0
51, 0.0
52, 0.0
53, 0.0
54, 0.0
55, 0.0
56, 0.0
57, 0.0
58, 0.0
59, 0.0
60, 0.0
61, 0.0
62.0, 6.705824986283772e-05
63.0, 0.0018317490357271419
64.0, 0.003366922588717996
65.0, 0.004731575150498644
66.0, 0.00596649836859781
67.0, 0.008434242954108249
68.0, 0.010664636512331996
69.0, 0.012092546883284941
70.0, 0.009108361903180805
71.0, 0.005224731523170832
72.0, 0.0016620413012766837
73.0, 0.00047065184599217225
74.0, 0.0003626779573187944
75.0, 0.0011236324644788467
76.0, 0.002508930622405168
77.0, 0.0011910720716907417
78.0, 0.004429127485652457
79.0, 0.013639798805342006
80.0, 0.03279842605219307
81.0, 0.059349543565097605
82.0, 0.09190021041709792
83.0, 0.1293384816404145
84.0, 0.16144069949466142
85.0, 0.1832746972719711
86.0, 0.19332490075726855
87.0, 0.1862079281951154
88.0, 0.16527841368262638
89.0, 0.14593427234999756
90.0, 0.13054094850891873
91.0, 0.12213365792692313
92.0, 0.1220560717580966
93.0, 0.12630671147783637
94.0, 0.1327140332345489
95.0, 0.14529124137325505
96.0, 0.1587409286919337
97.0, 0.17312455044430308
98.0, 0.19104564442545352
99.0, 0.2136186182445361
100.0, 0.23673948380312745
101.0, 0.258031432916495
102.0, 0.2833742821865869
103.0, 0.30845834866443544
104.0, 0.33413437674949503
105.0, 0.3639048954958319
106.0, 0.3941674412282657
107.0, 0.42496444425943514
108.0, 0.4564012168888226
109.0, 0.4931093230812361
110.0, 0.5266328034068152
111.0, 0.5609548392607148
112.0, 0.6050645590788413
113.0, 0.6306545822967514
114.0, 0.6478252521557822
115.0, 0.6581393884468021
116.0, 0.6512497708087968
117.0, 0.6336920010275156
118.0, 0.6080445202633323
119.0, 0.5753533126495253
120.0, 0.5342727725823099
121.0, 0.49600396793908935
122.0, 0.4629602784472457
123.0, 0.43994827979289813
124.0, 0.41072924773158864
125.0, 0.3814300530102415
126.0, 0.35712820112539034
127.0, 0.33626681716585033
128.0, 0.31480568146611065
129.0, 0.29341258425887323
130.0, 0.27597548461836907
131.0, 0.25851864273010555
132.0, 0.24522167972225173
133.0, 0.23857903187765012
134.0, 0.22432439673122181
135.0, 0.21509412308838302
136.0, 0.208437850795104
137.0, 0.1995065387993344
138.0, 0.19999536684662741
139.0, 0.19751963345133897
140.0, 0.1896528935966092
141.0, 0.18908845477617972
142.0, 0.18585277220289648
143.0, 0.18221160069975503
144.0, 0.18068762132785945
145.0, 0.17697608003811222
146.0, 0.17442709610788887
147.0, 0.1730715695435844
148.0, 0.17114463552203188
149.0, 0.17326996134836725
150.0, 0.17742394957055188
151.0, 0.18275731392121503
152.0, 0.1897694726827288
153.0, 0.19871824406434363
154.0, 0.2096531208160975
155.0, 0.22319270799139052
156.0, 0.23552998301135092
157.0, 0.24576312091906188
158.0, 0.25350988776255345
159.0, 0.2586179318362815
160.0, 0.26230167330313386
161.0, 0.26329824013480024
162.0, 0.2594894888869421
163.0, 0.25594593834662577
164.0, 0.25134075357626484
165.0, 0.24632072389645085
166.0, 0.24448811107349722
167.0, 0.24005971405183715
168.0, 0.23617650872688248
169.0, 0.23443846228523743
170.0, 0.22386454243253948
171.0, 0.2134193209294698
172.0, 0.20225298094145885
173.0, 0.18853936660933615
174.0, 0.1783316844243482
175.0, 0.16618575373998942
176.0, 0.15101196370601916
177.0, 0.1333286104549475
178.0, 0.11975307930881343
179.0, 0.10693187286342024
180.0, 0.09238143077217861
181.0, 0.08610490110396521
182.0, 0.07713723126028196
183.0, 0.06646880199818207
184.0, 0.05808519524366675
185.0, 0.051499978140050404
186.0, 0.04691962429143139
187.0, 0.04427796856868338
188.0, 0.039805044389932244
189.0, 0.03693681534266239
190.0, 0.03464793000924883
191.0, 0.031960718562557916
192.0, 0.03235273048708993
193.0, 0.03304252014409045
194.0, 0.03397378963608074
195.0, 0.03591047629490419
196.0, 0.040381357756903914
197.0, 0.04555535483488777
198.0, 0.05091000544706584
199.0, 0.059731488165734786
200.0, 0.06855050821920743
201.0, 0.07815577612852857
202.0, 0.08975627135804574
203.0, 0.09627711900146427
204.0, 0.10188451977180683
205.0, 0.10592562866393897
206.0, 0.10327489792242721
207.0, 0.09793338830329726
208.0, 0.09158402643109957
209.0, 0.08463126833100029
210.0, 0.06930483872191627
211.0, 0.05991984077524713
212.0, 0.054408572864450354
213.0, 0.050758120916399425
214.0, 0.04826682964654215
215.0, 0.04914983243194618
216.0, 0.05268444833760649
217.0, 0.05482651048356026
218.0, 0.058208763832276654
219.0, 0.062018154825612196
220.0, 0.06577177726615037
221.0, 0.06457549233267343
222.0, 0.06263677653027479
223.0, 0.05988384395799326
224.0, 0.056057301516519865
225.0, 0.05205702108730217
226.0, 0.04604957460795041
227.0, 0.038953898388585505
228.0, 0.034866672325075315
229.0, 0.030105132355771756
230.0, 0.025363001417793535
231.0, 0.020901672195242568
232.0, 0.016779373618828988
233.0, 0.014313120602655998
234.0, 0.01340966670689926
235.0, 0.014266507049317747
236.0, 0.012056507541910653
237.0, 0.01202487266350513
238.0, 0.013859900348113905
239.0, 0.01585268427021551
240.0, 0.017454605087884167
241.0, 0.02022363699094533
242.0, 0.02438300880882383
243.0, 0.02737624158908697
244.0, 0.031459841031999634
245.0, 0.03555520207340228
246.0, 0.03884368681005794
247.0, 0.04253605004535458
248.0, 0.047964067383395086
249.0, 0.05346504662192216
250.0, 0.055589616737711754
251.0, 0.060293646476338246
252.0, 0.06233438627309207
253.0, 0.06142001228723783
254.0, 0.06125318353091439
255.0, 0.05880820348465276
256.0, 0.05427605673000188
257.0, 0.04764427248015213
258.0, 0.04149262624014812
259.0, 0.03346742179003512
260.0, 0.02514816466976246
261.0, 0.01845612839125621
262.0, 0.01407924736083254
263.0, 0.010367571375914066
264.0, 0.006901060247682353
265.0, 0.002874580731239632
266.0, 0.0013295979408412327
267.0, 0.0014585020505938912
268.0, 0.0031367296733954084
269.0, 0.006734414410337128
270.0, 0.005702144428247416
271.0, 0.0030306045583439792
272.0, 0.0005349248304023452
273.0, 0.000509351080420464
274.0, 0.0006046217737874868
275.0, 0.001375096131062565
276.0, 0.003829732543003883
277.0, 0.005751377548499727
278.0, 0.004667065213371105
279.0, 0.001984110514548834
280.0, 0.0038387522915493575
281.0, 0.003187869046870115
282.0, 0.002398712143404906
283.0, 0.002417082405414284
284.0, 0.005103098462824562
285.0, 0.005071311914490568
286.0, 0.0040294890238041035
287.0, 0.0031020496033738625
288.0, 0.007762837492045918
289.0, 0.01632977280881448
290.0, 0.0252177228662455
291.0, 0.028689649080535624
292.0, 0.03195572150113507
293.0, 0.03593839794015915
294.0, 0.03937678505524012
295.0, 0.03744409873208232
296.0, 0.03799075658285302
297.0, 0.0380939404308903
298.0, 0.03719741089828963
299.0, 0.03812864528291539
300.0, 0.03609282672839892
301.0, 0.03177210077452635
302.0, 0.025415379787742807
303.0, 0.018843849738440003
304.0, 0.009202438514395036
305.0, 0.001736658281002665
306.0, 0.0035637886203842522
307.0, 0.004983968233813233
308.0, 0.006009213600297525
309.0, 0.006621858090877328
310.0, 0.00671539486062187
311.0, 0.005260184482815688
312.0, 0.0036960982133358673
313.0, 0.0027209122344816357
314.0, 0.004477771247240833
315.0, 0.005172732360441293
316.0, 0.0050208384142493455
317.0, 0.004008033178364074
318.0, 0.0013127689553000072
319.0, 0.0008951328044376717
320.0, 0.004832960364308752
321.0, 0.015252636881465546
322.0, 0.021346401386682565
323.0, 0.028979006283023113
324.0, 0.03742064500956663
325.0, 0.045481559721414586
326.0, 0.05190084656634293
327.0, 0.050969817970936734
328.0, 0.045204822132317475
329.0, 0.042996325265314474
330.0, 0.02996608124297196
331.0, 0.018155229307339982
332.0, 0.009989740437040226
333.0, 0.0035826147497085986
334.0, 0.003586404535600926
335.0, 0.0034771868869217354
336.0, 0.001047999305748851
337.0, 0.004092688910678816
338.0, 0.004810800720014757
339.0, 0.0035768942094666243
340.0, 0.0005282876732265571
341.0, 0.002811663592446642
342.0, 0.007421644236094265
343.0, 0.013020469352227147
344.0, 0.017925585147560458
345.0, 0.023126098792044587
346.0, 0.02615520690226067
347.0, 0.026954558491011273
348.0, 0.02552649488642272
349.0, 0.02618067455032636
350.0, 0.026170567143625596
351.0, 0.02527662490357995
352.0, 0.02430941305704092
353.0, 0.023731512611825146
354.0, 0.021608415214772574
355.0, 0.018100697944643446
356.0, 0.018402493481365866
357.0, 0.018749185059783784
358.0, 0.01953056551860855
359.0, 0.021095773453726655
360.0, 0.025520792501424694
361.0, 0.0299251078042026
362.0, 0.033880328830171336
363.0, 0.03707168369721538
364.0, 0.04933389334316737
365.0, 0.058015774333878695
366.0, 0.06673737494011994
367.0, 0.0799480937512429
368.0, 0.09439921899681741
369.0, 0.10993960714273489
370.0, 0.12763525513954468
371.0, 0.1497134231906485
372.0, 0.17375900471114014
373.0, 0.20129513751709355
374.0, 0.23088180340371384
375.0, 0.2580778767042434
376.0, 0.30199406849082483
377.0, 0.349602705188733
378.0, 0.3971716301223671
379.0, 0.4401030573478123
380.0, 0.49556371738505134
381.0, 0.5419295631047252
382.0, 0.5750414998576124
383.0, 0.6155028003869244
384.0, 0.6474596548979333
385.0, 0.6670636611140158
386.0, 0.6724135841969573
387.0, 0.669532748328409
388.0, 0.663018326788432
389.0, 0.6587545933890376
390.0, 0.6601657217760133
391.0, 0.6455117491347171
392.0, 0.652011437511906
393.0, 0.6637304687267149
394.0, 0.666098300000479
395.0, 0.6827408341710838
396.0, 0.693810188372403
397.0, 0.696803648079548
398.0, 0.6882110083551256
399.0, 0.6660803266581191
400.0, 0.6254497827704241
401.0, 0.5745031501743519
402.0, 0.5271379923141718
403.0, 0.4754661869889749
404.0, 0.42912607671266734
405.0, 0.391112446485317
406.0, 0.3668800827348412
407.0, 0.33819738350162076
408.0, 0.315004119273932
409.0, 0.2992912140424413
410.0, 0.2929474143817622
411.0, 0.28966256895900977
412.0, 0.28819812063237227
413.0, 0.28902025565502937
414.0, 0.295150801740232
415.0, 0.29780410786503414
416.0, 0.3075962677859256
417.0, 0.3241306189871899
418.0, 0.32860806739403486
419.0, 0.3296152828768467
420.0, 0.33131160645594826
421.0, 0.33407932249924194
422.0, 0.32973423776704164
423.0, 0.3188673172097703
424.0, 0.300043261691955
425.0, 0.2740355083616812
426.0, 0.2578570642741788
427.0, 0.23893873547805727
428.0, 0.2167858448906884
429.0, 0.1918170271647847
430.0, 0.17586728033271826
431.0, 0.15496413512998508
432.0, 0.13442667902800776
433.0, 0.11804877008886717
434.0, 0.11222650969272956
435.0, 0.10726833555987227
436.0, 0.09984983770982792
437.0, 0.08772948989579113
438.0, 0.0891905576408917
439.0, 0.08477629729527475
440.0, 0.07973823014554744
441.0, 0.07872835888370606
442.0, 0.07165391407656198
443.0, 0.0642051434321345
444.0, 0.0574592423963018
445.0, 0.052546277602129834
446.0, 0.04878453011910834
447.0, 0.04496497710446176
448.0, 0.04256985423652893
449.0, 0.04338428106843319
450.0, 0.044147261827939176
451.0, 0.043825010906205275
452.0, 0.04457043454375739
453.0, 0.049217384328927076
454.0, 0.05281866180481253
455.0, 0.0578235474141616
456.0, 0.061278129638568414
457.0, 0.05887341993641721
458.0, 0.05936942963201145
459.0, 0.05690426684292254
460.0, 0.05329359108349057
461.0, 0.051611581162421524
462.0, 0.047321702852711284
463.0, 0.04492828502026751
464.0, 0.045767281624950786
465.0, 0.05168884034329315
466.0, 0.05244872722552006
467.0, 0.05663838279500603
468.0, 0.06491216247448707
469.0, 0.07758550751184637
470.0, 0.08811700214852558
471.0, 0.10277753035033838
472.0, 0.12244404360999472
473.0, 0.14806921626071914
474.0, 0.16613081197755775
475.0, 0.19552356241670021
476.0, 0.2279529102776054
477.0, 0.24726527522687625
478.0, 0.274111837641241
479.0, 0.3001654781116812
480.0, 0.3240832060853976
481.0, 0.344562217622015
482.0, 0.35957761123661885
483.0, 0.3815679653469944
484.0, 0.41072555337836814
485.0, 0.4461819487019844
486.0, 0.48682020330173414
487.0, 0.5412641215810108
488.0, 0.6060531641961968
489.0, 0.6752630711031351
490.0, 0.7503850867099233
491.0, 0.8233862137943034
492.0, 0.8879372364834296
493.0, 0.9350644314697981
494.0, 0.9671477372969947
495.0, 0.9888100012743426
496.0, 0.9929917846044994
497.0, 0.9689910469486732
498.0, 0.9228648538804228
499.0, 0.8687233788054456
500.0, 0.813445235455446
501.0, 0.7651176752270845
502.0, 0.7121041422640393
503.0, 0.6577848870763386
504.0, 0.6073314524015592
505.0, 0.5666979519041203
506.0, 0.5179292722276553
507.0, 0.4826237653524065
508.0, 0.45080163512923344
509.0, 0.4116997169218556
510.0, 0.3825039482524178
511.0, 0.35160523822628903
512.0, 0.3203259595916942
513.0, 0.2900946067077055
514.0, 0.27074887044536666
515.0, 0.24591786106005914
516.0, 0.22161892713211154
517.0, 0.20255820646329314
518.0, 0.18296029084157292
519.0, 0.1680554911647242
520.0, 0.1557369386241134
521.0, 0.14395336084932372
522.0, 0.12326430304997421
523.0, 0.11425758468660542
524.0, 0.10722073447565332
525.0, 0.09714159579455187
526.0, 0.0920290278344213
527.0, 0.08503347565291844
528.0, 0.07825046161376824
529.0, 0.0732299202986798
530.0, 0.07389581153179273
531.0, 0.07148742201852018
532.0, 0.06940957218659174
533.0, 0.06814575424891317
534.0, 0.06253122365469536
535.0, 0.06019895056475631
536.0, 0.06201660848773396
537.0, 0.06658720686635064
538.0, 0.06641849391584795
539.0, 0.06385735669451599
540.0, 0.06247886654992696
541.0, 0.062141404576165786
542.0, 0.05934238652361944
543.0, 0.05623766799855708
544.0, 0.0528124963641751
545.0, 0.04765495488298792
546.0, 0.037082332537970955
547.0, 0.03408587871301731
548.0, 0.028723672471071177
549.0, 0.021091036515401784
550.0, 0.013920581552019876
551.0, 0.014648839549556224
552.0, 0.011452884635362209
553.0, 0.007026149258314079
554.0, 0.006845418910974096
555.0, 0.003380771871286309
556.0, 0.0013485330344409489
557.0, 0.0008953784380732987
558.0, 0.0019501256645541904
559.0, 0.0009259472365954828
560.0, 0.00042586899377252226
561.0, 0.00042795646212168625
562.0, 0.0008958697497359503
563.0, 0.0016258137238804424
564.0, 0.0010907759704051887
565.0, 0.00035479107824126674
566.0, 0.00014998802733873077
567.0, 0.0011308951015789111
568.0, 0.001759523549910792
569.0, 0.0017656659006030338
570.0, 0.0011138748366581125
571.0, 0.00034213426107060043
572.0, 0.0008600288038368719
573.0, 0.0008339863437413673
574.0, 0.0003036528061471153
575.0, 0.0016366422166798366
576.0, 0.0027554032087958253
577.0, 0.002116263719024064
578.0, 0.0005548281877225803
579.0, 0.0010291365159660634
580.0, 0.0013304119780845392
581.0, 0.0014648334491402187
582.0, 0.0017453808983178135
583.0, 0.002716204967832314
584.0, 0.002165502221056995
585.0, 0.0038019649477029085
586.0, 0.005514019470484399
587.0, 0.004568548687678423
588.0, 0.003248024293780082
589.0, 0.004062868826948315
590.0, 0.005547060754872589
591.0, 0.006568028224551374
592.0, 0.008798796895440109
593.0, 0.008697563195279364
594.0, 0.006275419616307374
595.0, 0.0029720303105207693
596.0, 0.00909209533744042
597.0, 0.010021864062406405
598.0, 0.009650501702874308
599.0, 0.009156796900518401
600.0, 0.007800950600044213
601.0, 0.008399508606650235
602.0, 0.00905447582002348
603.0, 0.009529674590516547
604.0, 0.01022426536184565
605.0, 0.010525258803680897
606.0, 0.009674110094504397
607.0, 0.009092846360360556
608.0, 0.011066898918703636
609.0, 0.007901952422051684
610.0, 0.006348670864294083
611.0, 0.0059082757577459365
612.0, 0.005739876209075357
613.0, 0.002572993747480975
614.0, 0.002454661755183662
615.0, 0.0025428135570076536
616.0, 0.0014437586190700542
617.0, 0.002080282509321861
618.0, 0.0010798314077123802
619.0, 0.000479584838258311
620.0, 0.0006812148125462848
621.0, 0.00028097088155555367
622.0, 0.0010031426770401415
623.0, 0.0019227738192181198
624.0, 0.0022362462181713125
625.0, 0.0005459508760209447
626.0, 0.001048494009745962
627.0, 0.0011997788747487386
628.0, 0.0017636253472902061
629.0, 0.004037189492691499
630.0, 0.0013743183856952724
631.0, 0.001347636550471268
632.0, 0.002487785866518522
633.0, 0.0033112571257091373
634.0, 0.0010914553984352196
635.0, 0.002282274414335888
636.0, 0.0029190192940893233
637.0, 0.0018596564923112557
638.0, 0.002750269196551764
639.0, 0.0011356453407677498
640.0, 0.0026185445767175214
641.0, 0.005303277853741942
642.0, 0.00057259052249635
643.0, 0.0015744053429661558
644.0, 0.0015470844434736508
645.0, 0.0009383716086026313
646.0, 0.0014620274586363226
647.0, 0.0013275027657026796
648.0, 0.0009039997170676078
649.0, 0.0006414044557135399
650.0, 0.0008592425610318156
651.0, 0.0009946874243555667
652.0, 0.000752804612005381
653.0, 0.0012181641101150962
654.0, 0.002313556842546825
655.0, 0.00144353969086886
656.0, 0.0006626579145504561
657.0, 0.0005866579183668485
658.0, 0.001106352606670185
659.0, 0.0016558915647933133
660.0, 0.0007596721161912813
661.0, 0.001178232799817731
662.0, 0.001569864242996097
663.0, 0.0001269268860541575
664.0, 0.00047788844670771833
665.0, 0.0018435755615577077
666.0, 0.0034816082680411663
667.0, 0.00442897988284721
668.0, 0.0011973564446384215
669.0, 0.002850931794646179
670.0, 0.003234875691716483
671.0, 0.0026932467091019376
672.0, 0.008664608199869427
673.0, 0.008885031747853355
674.0, 0.008743788369984929
675.0, 0.009765660133036501
676.0, 0.01309697924092881
677.0, 0.013199621957060025
678.0, 0.015370775679801616
679.0, 0.01669864642888509
680.0, 0.015371442842382309
681.0, 0.017942746053421412
682.0, 0.018116654393346532
683.0, 0.01780000085801556
684.0, 0.018944886146550374
685.0, 0.025954955583545783
686.0, 0.027254466099797186
687.0, 0.026935206268039455
688.0, 0.026872986932870102
689.0, 0.029073932854694017
690.0, 0.028245994718177455
691.0, 0.030365454531058253
692.0, 0.032923769153321826
693.0, 0.033766197457261275
694.0, 0.03516442542387397
695.0, 0.032325709514761276
696.0, 0.03560500951492167
697.0, 0.04480552597304421
698.0, 0.043405042616360294
699.0, 0.04275455954290786
700.0, 0.043252569018566375
701.0, 0.043655048776926754
702.0, 0.04183596262405722
703.0, 0.04238752836434209
704.0, 0.04185090243723583
705.0, 0.0393202436073041
706.0, 0.034830209531138
707.0, 0.034425043514709326
708.0, 0.03650757287884509
709.0, 0.03714294927137041
710.0, 0.03475644527731052
711.0, 0.028899139281818545
712.0, 0.03141432665621066
713.0, 0.028604535620535564
714.0, 0.02442589025960695
715.0, 0.02658138472196477
716.0, 0.02365257811120312
717.0, 0.023608418414409665
718.0, 0.02314400643935584
719.0, 0.020390500083880242
720.0, 0.01719324987125468
721.0, 0.021757127194656473
722.0, 0.022527448154518858
723.0, 0.01900952420839265
724.0, 0.01723573016519187
725.0, 0.018722078433521083
726.0, 0.01864089665401253
727.0, 0.017524531440620574
728.0, 0.0165267151662249
729.0, 0.019332033391965462
730.0, 0.01737829466902329
731.0, 0.018647137684851135
732.0, 0.02435058856656653
733.0, 0.025724603672783713
734.0, 0.024392157060896043
735.0, 0.023859737466161057
736.0, 0.025472590946962206
737.0, 0.03025035555577449
738.0, 0.029976207343181786
739.0, 0.03135835811087411
740.0, 0.03279414967495529
741.0, 0.03356964290561784
742.0, 0.03589044511537683
743.0, 0.03456716975732905
744.0, 0.036771103995597305
745.0, 0.042574011753557905
746.0, 0.04827837417358604
747.0, 0.054241950497011374
748.0, 0.05989156990752263
749.0, 0.06488630180432199
750.0, 0.06969704671033884
751.0, 0.08147425414836582
752.0, 0.09326567893388796
753.0, 0.10794105816813432
754.0, 0.12416093201553664
755.0, 0.13550115868818474
756.0, 0.15646708457698313
757.0, 0.17402264711254412
758.0, 0.19012444105249862
759.0, 0.2084413680239376
760.0, 0.2317483903635276
761.0, 0.24375048762379214
762.0, 0.2543023423678137
763.0, 0.26480283928639237
764.0, 0.265000263615425
765.0, 0.26494857140609723
766.0, 0.26212459337785904
767.0, 0.25318791131254137
768.0, 0.23535770614588108
769.0, 0.2280731873304341
770.0, 0.21073437196657008
771.0, 0.1938148726871128
772.0, 0.18011949794965287
773.0, 0.1593670576676078
774.0, 0.14468020510743712
775.0, 0.13428616164157137
776.0, 0.1236904763410831
777.0, 0.1075128571863401
778.0, 0.1027263320862154
779.0, 0.0948887276506435
780.0, 0.08709969406548705
781.0, 0.08060836301923527
782.0, 0.07340148853243637
783.0, 0.07378585331492081
784.0, 0.06692086347712187
785.0, 0.0572581933341533
786.0, 0.0545481924755167
787.0, 0.05244909953782734
788.0, 0.04924423810063665
789.0, 0.04426663024976072
790.0, 0.038843226692818825
791.0, 0.03979845382928781
792.0, 0.035282636513423164
793.0, 0.03276101307873874
794.0, 0.0317931357878613
795.0, 0.03008826541204528
796.0, 0.028198543499549582
797.0, 0.027956993379701756
798.0, 0.02627315586025963
799.0, 0.022831890124562142
800.0, 0.022349190408879418
801.0, 0.01925797349728396
802.0, 0.018691583728084125
803.0, 0.018344735939921118
804.0, 0.014765700846486197
805.0, 0.013069509984493908
806.0, 0.01557737541951274
807.0, 0.014833134597293228
808.0, 0.011057021888947522
809.0, 0.015326880445486885
810.0, 0.013654269154038993
811.0, 0.011646777884147905
812.0, 0.010267229954231858
813.0, 0.009795745410512542
814.0, 0.009055688273474749
815.0, 0.007193160417146676
816.0, 0.007213269608277489
817.0, 0.008770805960888682
818.0, 0.008375863279569375
819.0, 0.013202538769535414
820.0, 0.008988281340799266
821.0, 0.004759220141104319
822.0, 0.007344405189559585
823.0, 0.0053978686267399855
824.0, 0.004490731588619308
825.0, 0.005782014901157844
826.0, 0.007705186515238495
827.0, 0.0068913726023881235
828.0, 0.004655808440244576
829.0, 0.004666733971371085
830.0, 0.004891272576146779
831.0, 0.004329372495073468
832.0, 0.0045848004087795735
833.0, 0.005786604205674929
834.0, 0.004907559816369548
835.0, 0.0028652885320337366
836.0, 0.001560229640834806
837.0, 0.0008860992167381526
838.0, 0.002440265973986611
839.0, 0.004810720247428489
840.0, 0.006291609921477984
841.0, 0.0038935626137227607
842.0, 0.004123838912336938
843.0, 0.004926006421957789
844.0, 0.004124319256861775
845.0, 0.0007411991016584805
846.0, 0.0006558649345534419
847.0, 0.0030032099846219458
848.0, 0.00278953675351648
849.0, 0.0007664645477206558
850.0, 0.0006120722308112558
851.0, 0.0001761779440015068
852.0, 0.0013219699638755877
853.0, 0.0021968851268692273
854.0, 0.0019508968991690796
855.0, 0.0015120150877813727
856.0, 0.0008458635763368413
857.0, 0.0014835917509127157
858.0, 0.002530238201306553
859.0, 0.0026794884739246676
860.0, 0.0007861793859225352
861.0, 0.0005467967465732696
862.0, 0.0007430512838657379
863.0, 0.0012707619070610658
864.0, 0.002706754455388469
865.0, 0.0006658747396091212
866.0, 0.0011285769613768517
867.0, 0.0018423471631270332
868.0, 0.0014202173969294634
869.0, 0.0006236216945282201
870.0, 0.0006364059056306571
871.0, 0.0010380654832075147
872.0, 0.0010505887736142613
873.0, 0.00020802436156681816
874.0, 0.0023030138258245433
875.0, 0.001226655433106305
876.0, 0.001584770052945796
877.0, 0.0027547350218822923
878.0, 0.0004975634378098187
879.0, 0.0003790338945328598
880.0, 0.0018822267152609827
881.0, 0.0026679515661953974
882.0, 0.0017908546623141655
883.0, 0.0011045670893039038
884.0, 0.0007398717859166598
885.0, 0.0013031715046184162
886.0, 0.0016358060896158582
887.0, 0.0007052458715471235
888.0, 0.00046912671604082293
889.0, 0.0007633457793807289
890.0, 0.001985406906857452
891.0, 0.002726218429650041
892.0, 0.0006036828082310017
893.0, 0.0005801682212687913
894.0, 0.002307881669139621
895.0, 0.002432627098873908
896.0, 0.0008541181404223423
897.0, 0.0020518532367503417
898.0, 0.0016048057977281478
899.0, 0.0010037061017474154
900.0, 0.0018923276755282575
901.0, 0.004196124217703543
902.0, 0.0011467719374731442
903.0, 0.0008414507505070749
904.0, 0.0005512788256504636
905.0, 0.0005458727734113163
906.0, 0.0015142008521604492
907.0, 0.00038502525048131884
908.0, 0.000992286544390638
909.0, 0.0022638048464196526
910.0, 0.0030662160003813088
911.0, 0.002019249422603322
912.0, 0.0012059764267457113
913.0, 0.0007788960517848782
914.0, 0.0008841572067496945
915.0, 0.0012453845264369175
916.0, 0.0008467548497132994
917.0, 0.003907740762424657
918.0, 0.002670194742519571
919.0, 0.0005475378959582507
920.0, 0.0007945661147619543
921.0, 0.003427634701912754
922.0, 0.002047241282546053
923.0, 0.00175742639885355
924.0, 0.0017955672348119102
925.0, 0.0005578840598265702
926.0, 0.0003758045548279507
927.0, 0.00018375198548650366
928.0, 0.0006336570213647902
929.0, 0.0017409048927868455
930.0, 0.0031647591119018646
931.0, 0.0036672219382429083
932.0, 0.002325805456400221
933.0, 0.002622489863694493
934.0, 0.0037099607235710564
935.0, 0.000313974159456653
936.0, 0.0003360328356878856
937.0, 0.0031731425653303033
938.0, 0.0035365522770524735
939.0, 0.0008484739952750872
940.0, 0.0037016719454878396
941.0, 0.0011965533903047383
942.0, 0.0010816366615634529
943.0, 0.002573872851168043
944.0, 0.00425306025952062
945.0, 0.0053122685162278445
946.0, 0.004213269360170362
947.0, 0.0038967837275549525
948.0, 0.005858335896488948
949.0, 0.0102174756067198
950.0, 0.010166974619392184
951.0, 0.010973088729513402
952.0, 0.01402154826136106
953.0, 0.01784400511030789
954.0, 0.020299110843781887
955.0, 0.025978903459721536
956.0, 0.032134637139014696
957.0, 0.04149379050425707
958.0, 0.052838994149879255
959.0, 0.06259047643228209
960.0, 0.07325349150316601
961.0, 0.07695614638142441
962.0, 0.0797592161034363
963.0, 0.08140321524289539
964.0, 0.07577700707236674
965.0, 0.0799058153006816
966.0, 0.09002421153889262
967.0, 0.10358246748559896
968.0, 0.11997686680405328
969.0, 0.14156682343608648
970.0, 0.1533389059098086
971.0, 0.15347340306895732
972.0, 0.14620387805355242
973.0, 0.13315213491118172
974.0, 0.10913251952037739
975.0, 0.09510848099971497
976.0, 0.07778448489888716
977.0, 0.06306596323531893
978.0, 0.054191286971546654
979.0, 0.04237956023997342
980.0, 0.03417140151308726
981.0, 0.028831584565797957
982.0, 0.0263534650855269
983.0, 0.0254194615658964
984.0, 0.0195144051975802
985.0, 0.02535839966927448
986.0, 0.023450315088614157
987.0, 0.02244868937341367
988.0, 0.03148558075053462
989.0, 0.034884173513838296
990.0, 0.04266542130912982
991.0, 0.05495852353235274
992.0, 0.06784409733204483
993.0, 0.07629007090808461
994.0, 0.07513108636150294
995.0, 0.06636495936634354
996.0, 0.05668876056226773
997.0, 0.048155107547478405
998.0, 0.04104630420630716
999.0, 0.032002968622683335
1000.0, 0.027355953836211786
1001.0, 0.019627335883608255
1002.0, 0.014205379689701817
1003.0, 0.018222930981074
1004.0, 0.010651414145964423
1005.0, 0.01015286205253729
1006.0, 0.009354142000541809
1007.0, 0.007377736386731365
1008.0, 0.005979472703659665
1009.0, 0.008041862271327822
1010.0, 0.0069681658970808
1011.0, 0.008297539557522668
1012.0, 0.010262675235412532
1013.0, 0.00883462126834949
1014.0, 0.011802632205052281
1015.0, 0.015116128997675457
1016.0, 0.015564763680082477
1017.0, 0.013433656306163692
1018.0, 0.010915821996331898
1019.0, 0.012647016904242732
1020.0, 0.012974374470744302
1021.0, 0.008603664790409653
1022.0, 0.004329915013524813
1023.0, 0.007313612951549103
1024.0, 0.006748374330031247
1025.0, 0.003943389774529001
1026.0, 0.003364579033424417
1027.0, 0.003678307021668913
1028.0, 0.0016763459156792847
1029.0, 0.0022444126446575143
1030.0, 0.0012435217226857355
1031.0, 0.003346045054764406
1032.0, 0.005029948217472413
1033.0, 0.0009719446562413582
1034.0, 0.0010397365916681902
1035.0, 0.00041005505078589046
1036.0, 0.0014763180637738177
1037.0, 0.0025484943903677677
1038.0, 0.001182840950628361
1039.0, 0.0011071886105421622
1040.0, 0.0010969978026300863
1041.0, 0.0011398700646087375
1042.0, 0.002216268089397403
1043.0, 0.00451433535888951
1044.0, 0.0011840860422339668
1045.0, 0.000640834617214832
1046.0, 0.0035814006781793883
1047.0, 0.005641942488441161
1048.0, 0.0030223909630301055
1049.0, 0.0016757452964207597
1050.0, 0.0007970240476574133
1051.0, 0.0043554146462391205
1052.0, 0.006350601462559955
1053.0, 0.0028457676260857153
1054.0, 0.006188116297997096
1055.0, 0.005996077001870942
1056.0, 0.005451179172637885
1057.0, 0.0051844056606842725
1058.0, 0.005914253606813288
1059.0, 0.009928725052910092
1060.0, 0.008799072069037553
1061.0, 0.010072638864153324
1062.0, 0.012223288949623299
1063.0, 0.013417096737823975
1064.0, 0.013308093964984885
1065.0, 0.013102093132160412
1066.0, 0.014895088631818659
1067.0, 0.017176485838448684
1068.0, 0.01840325425294764
1069.0, 0.01736040043275457
1070.0, 0.02610009779253946
1071.0, 0.02501028929710942
1072.0, 0.02427057834875987
1073.0, 0.028943347383646196
1074.0, 0.037332764752655165
1075.0, 0.041090473746982555
1076.0, 0.044133258536011605
1077.0, 0.04965049556366944
1078.0, 0.05677795192937153
1079.0, 0.06185499724319405
1080.0, 0.06765455210626016
1081.0, 0.07967713816644198
1082.0, 0.08854080554461553
1083.0, 0.09564375281041379
1084.0, 0.10643609742033253
1085.0, 0.11352270157911952
1086.0, 0.12476679513462731
1087.0, 0.13339332533062565
1088.0, 0.14309841307116206
1089.0, 0.1583139785157096
1090.0, 0.17098951156508607
1091.0, 0.18669969256668248
1092.0, 0.1997910532106824
1093.0, 0.21018024389944723
1094.0, 0.21643246673710373
1095.0, 0.2096509707803451
1096.0, 0.20353078204786038
1097.0, 0.19843918727132803
1098.0, 0.18838360988437242
1099.0, 0.17352253408061477
1100.0, 0.1649292524879366
1101.0, 0.15392752431689827
1102.0, 0.14734642788811936
1103.0, 0.13637340567799708
1104.0, 0.12329496798073203
1105.0, 0.12068174784470206
1106.0, 0.11432096395597932
1107.0, 0.11132449676633033
1108.0, 0.10237836260224858
1109.0, 0.09144542850488241
1110.0, 0.08732168093236345
1111.0, 0.07596903540432795
1112.0, 0.07009348810215583
1113.0, 0.0636491795157645
1114.0, 0.05555527606075191
1115.0, 0.047539742175778096
1116.0, 0.046688302754620485
1117.0, 0.04280164660059301
1118.0, 0.03761657020427138
1119.0, 0.034767327674151395
1120.0, 0.03516375127440755
1121.0, 0.03383844419927076
1122.0, 0.029050071978807195
1123.0, 0.02992663504902852
1124.0, 0.03017582139548556
1125.0, 0.028497239132182103
1126.0, 0.029340745006825965
1127.0, 0.03358560481626499
1128.0, 0.03357560706370555
1129.0, 0.03493837393693436
1130.0, 0.03767410968777002
1131.0, 0.03969176837934443
1132.0, 0.04554880589989961
1133.0, 0.045160067267270225
1134.0, 0.04624564427182762
1135.0, 0.04656097956339018
1136.0, 0.04391687356831066
1137.0, 0.043262631586957895
1138.0, 0.04241505205742052
1139.0, 0.0352660389286006
1140.0, 0.031539428281541465
1141.0, 0.032137633959248804
1142.0, 0.024619048887359347
1143.0, 0.021295215764266028
1144.0, 0.018428816566163183
1145.0, 0.017259609001590095
1146.0, 0.01749219135485348
1147.0, 0.018019422390795646
1148.0, 0.019506402202706222
1149.0, 0.016938297533717808
1150.0, 0.015888221900394323
1151.0, 0.015785142038635413
1152.0, 0.015128429560898623
1153.0, 0.014757678712627627
1154.0, 0.015494494556859138
1155.0, 0.017065170478271958
1156.0, 0.017082325336380842
1157.0, 0.01743687856834883
1158.0, 0.025046145010854684
1159.0, 0.021450527334628267
1160.0, 0.021121200654056094
1161.0, 0.023470360162571223
1162.0, 0.026839986864257467
1163.0, 0.029569449372688506
1164.0, 0.033727129175373426
1165.0, 0.03445711720275126
1166.0, 0.03408874727759637
1167.0, 0.035032156249005075
1168.0, 0.03663782972574631
1169.0, 0.03139959738685844
1170.0, 0.03520897746959301
1171.0, 0.035027363001522496
1172.0, 0.03259744318214719
1173.0, 0.028709317599124543
1174.0, 0.023143100804602815
1175.0, 0.02260309947472592
1176.0, 0.021760009002571017
1177.0, 0.022119693835726154
1178.0, 0.02078928923585921
1179.0, 0.015507148434676939
1180.0, 0.011306679924628072
1181.0, 0.013356842605769097
1182.0, 0.013517937168438124
1183.0, 0.012516155131680922
1184.0, 0.011474540330278218
1185.0, 0.010779288927856472
1186.0, 0.00940091756551266
1187.0, 0.008038908696168063
1188.0, 0.007264199471023282
1189.0, 0.008138892829139883
1190.0, 0.010291168192441177
1191.0, 0.005823739609764856
1192.0, 0.007165497286539379
1193.0, 0.0076928173673941275
1194.0, 0.007545254205135883
1195.0, 0.0071136123636814826
1196.0, 0.005758194871378167
1197.0, 0.005020750417987181
1198.0, 0.00406154471683508
1199.0, 0.00418030633774525
1200.0, 0.00444157284772656
1201.0, 0.0038427913359631574
1202.0, 0.007424378739692346
1203.0, 0.005052789873217324
1204.0, 0.005339396780026889
1205.0, 0.004365418030079466
1206.0, 0.0018574913931208698
1207.0, 0.005869505146147144
1208.0, 0.00588209871680721
1209.0, 0.006471354758452937
1210.0, 0.004366324241162067
1211.0, 0.0013207178753704425
1212.0, 0.0009385565396645196
1213.0, 0.0026735072847900382
1214.0, 0.0028090996465550064
1215.0, 0.002905735423931693
1216.0, 0.0029685109701638023
1217.0, 0.0027517378978754955
1218.0, 0.0020559877018302627
1219.0, 0.003486172512617941
1220.0, 0.0036009250669012563
1221.0, 0.001939032559675724
1222.0, 0.0002460000020757389
1223.0, 0.00028463177541492805
1224.0, 0.00014061447949139126
1225.0, 9.501751339085284e-05
1226.0, 0.00028382027736618417
1227.0, 0.0014145280929778927
1228.0, 0.0022694386668852895
1229.0, 7.614128565019553e-05
1230.0, 9.86123950762672e-05
1231.0, 0.0027253109967281214
1232.0, 0.005590950786334641
1233.0, 0.005158924003728153
1234.0, 0.0009663111654693933
1235.0, 0.0012334699420664934
1236.0, 0.0025937378271444714
1237.0, 0.0030287974139237787
1238.0, 0.001883055117468785
1239.0, 0.0012570018308527028
1240.0, 0.00377028661476029
1241.0, 0.0015967344451121312
1242.0, 0.00275894359937755
1243.0, 0.0035764362955486317
1244.0, 0.0024233816540470384
1245.0, 0.00013035985228905303
1246.0, 0.0005428229842594646
1247.0, 0.0010877904511525742
1248.0, 0.0020869018777954287
1249.0, 0.002134175949274699
1250.0, 0.0013268631267804821
1251.0, 0.0010672554389588847
1252.0, 0.0047441525877112405
1253.0, 0.00176347309527518
1254.0, 0.001339475782828046
1255.0, 0.0009945873201395393
1256.0, 2.721899481272312e-05
1257.0, 0.00022634800884817623
1258.0, 0.0023609544892386237
1259.0, 0.0008380698591853047
1260.0, 0.001986292442344779
1261.0, 0.002659590569649691
1262.0, 0.0009478955067801131
1263.0, 0.0007544550538013219
1264.0, 0.00042359493442545857
1265.0, 0.001204493097926348
1266.0, 0.0036628562006325344
1267.0, 0.004267269968057517
1268.0, 0.0009501349168095527
1269.0, 0.002087791134507134
1270.0, 0.0007548064105705109
1271.0, 0.0020848642563337898
1272.0, 0.002120463582334726
1273.0, 0.000608652748687383
1274.0, 0.0003583642032115961
1275.0, 0.0007309730201551813
1276.0, 0.0012824736457224205
1277.0, 0.0014860300846602805
1278.0, 0.0020655929798794755
1279.0, 0.0023658019843687643
1280.0, 0.00017609848614992259
1281.0, 0.001222319872704641
1282.0, 0.0014142781099201322
1283.0, 0.000858612546154779
1284.0, 0.00048194242883501954
1285.0, 0.000748976147342377
1286.0, 0.0006128089476795614
1287.0, 0.0002002641874112744
1288.0, 0.0010369314967433394
1289.0, 0.0009125477669829013
1290.0, 0.001498455854616792
1291.0, 0.004302657957762231
1292.0, 0.0034490395292589133
1293.0, 0.003343366884153787
1294.0, 0.0023356740389384404
1295.0, 0.0010131131876338064
1296.0, 0.00027362106221349915
1297.0, 0.0006882607877387388
1298.0, 0.0007941235625324413
1299.0, 0.0005589505841268428
1300.0, 0.00022099825703427082
1301.0, 0.00017839715888348848
1302.0, 0.000456878044142306
1303.0, 0.0007015371702171824
1304.0, 0.0010070683172066857
1305.0, 0.0009209821690337682
1306.0, 0.0013032120509150306
1307.0, 0.001079370321978356
1308.0, 0.00019713016001121817
1309.0, 0.0006335900914439469
1310.0, 0.004170297307522891
1311.0, 0.0014928225907594583
1312.0, 0.001101947918899934
1313.0, 0.0027533768627011237
1314.0, 0.003796948418743508
1315.0, 0.0027278383992140097
1316.0, 0.0006754425640291043
1317.0, 0.0029261368757271884
1318.0, 0.0023348887242878483
1319.0, 0.0008689414681638458
1320.0, 0.0017911895161990502
1321.0, 0.0020005722419234383
1322.0, 0.0021482412296510694
1323.0, 0.0018443028864587752
1324.0, 0.0009996272330150715
1325.0, 0.0013135082505325597
1326.0, 0.0032697889463990056
1327.0, 0.0013802197410226393
1328.0, 0.006541781851474035
1329.0, 0.0029103912736979662
1330.0, 0.00015554612634313526
1331.0, 0.0003799409447506746
1332.0, 0.0007399859822235705
1333.0, 0.0007494725342038784
1334.0, 0.0022938326016541197
1335.0, 0.0012489470024726515
1336.0, 0.0009500988171584699
1337.0, 0.0019244641363974349
1338.0, 0.0023123121854986706
1339.0, 0.00013198087257511792
1340.0, 0.0026898331630970593
1341.0, 0.0015746854385623563
1342.0, 0.001914530750883021
1343.0, 0.0038276469074923648
1344.0, 0.0039370122054929735
1345.0, 0.0037787219813279413
1346.0, 0.004272556917659258
1347.0, 0.003726844849068557
1348.0, 0.0036932461035608763
1349.0, 0.004601292312079327
1350.0, 0.00556395928429322
1351.0, 0.004971358406468301
1352.0, 0.002709115650684686
1353.0, 0.0061460363708725155
1354.0, 0.0073738457167913645
1355.0, 0.006240158961624447
1356.0, 0.0073606385959574345
1357.0, 0.00369267035765579
1358.0, 0.002871665082386215
1359.0, 0.004535999067521839
1360.0, 0.006778551105903085
1361.0, 0.006751730142761716
1362.0, 0.0037743634629496554
1363.0, 0.007715207375637884
1364.0, 0.006074117862078345
1365.0, 0.0051854683077516605
1366.0, 0.005938858702823426
1367.0, 0.005889930925327055
1368.0, 0.0036113716100253062
1369.0, 0.00878553246582061
1370.0, 0.009452705652469091
1371.0, 0.007692770424454979
1372.0, 0.005164601766883111
1373.0, 0.004419662257399136
1374.0, 0.006486219210591383
1375.0, 0.006257916638426056
1376.0, 0.0046053828334875835
1377.0, 0.006183120492303504
1378.0, 0.006895469499250769
1379.0, 0.006358769485633689
1380.0, 0.006214396626795405
1381.0, 0.006869433244624456
1382.0, 0.005219755174635684
1383.0, 0.006700067002695865
1384.0, 0.007630947593813638
1385.0, 0.007040431088993461
1386.0, 0.006058960645229021
1387.0, 0.006905618057698948
1388.0, 0.009870105807874532
1389.0, 0.007631676933157537
1390.0, 0.008235014755039478
1391.0, 0.009831054435220634
1392.0, 0.009614987526665383
1393.0, 0.009836359654295808
1394.0, 0.00667711094272564
1395.0, 0.006317024447685563
1396.0, 0.0073406368727227745
1397.0, 0.007171471684035543
1398.0, 0.005640108624951949
1399.0, 0.005880862454226145
1400.0, 0.007082688052542067
1401.0, 0.009146630198133051
1402.0, 0.009615429791853354
1403.0, 0.009658185028867353
1404.0, 0.009304252721068048
1405.0, 0.007569303242432561
1406.0, 0.009258820279988462
1407.0, 0.006553720475993981
1408.0, 0.00697506649028971
1409.0, 0.005954823386880606
1410.0, 0.0034675458461780498
1411.0, 0.003993833169039231
1412.0, 0.010920534105733497
1413.0, 0.008423721439346806
1414.0, 0.007522207690098964
1415.0, 0.0064450486060775355
1416.0, 0.005682547485833217
1417.0, 0.006447206357797265
1418.0, 0.007736381179931163
1419.0, 0.015783087429508586
1420.0, 0.011027344957544429
1421.0, 0.008992979051596368
1422.0, 0.008818441102924745
1423.0, 0.007541320853421287
1424.0, 0.008666891367391008
1425.0, 0.007891136513760801
1426.0, 0.00894481960867562
1427.0, 0.006878479133255832
1428.0, 0.005967653556816519
1429.0, 0.00733743325990873
1430.0, 0.007362688037136025
1431.0, 0.00761374182213264
1432.0, 0.007242535596110011
1433.0, 0.0075410147385711074
1434.0, 0.008120962809208947
1435.0, 0.009302377112648358
1436.0, 0.010695453092966087
1437.0, 0.008181177000777296
1438.0, 0.011298756864824382
1439.0, 0.011870663401194652
1440.0, 0.010283357522746669
1441.0, 0.009261171978475985
1442.0, 0.01050972808925811
1443.0, 0.012400226052886716
1444.0, 0.01308940340286288
1445.0, 0.013229879028827855
1446.0, 0.013619875241469128
1447.0, 0.012260815091269518
1448.0, 0.011344511242479458
1449.0, 0.015205752360877307
1450.0, 0.01434480963843338
1451.0, 0.013896670642965535
1452.0, 0.010904998384769196
1453.0, 0.012625815702854743
1454.0, 0.015803066858937627
1455.0, 0.01475920663877241
1456.0, 0.015379853882114764
1457.0, 0.01750387114121251
1458.0, 0.013372402528316323
1459.0, 0.011778686886476862
1460.0, 0.012812055905893254
1461.0, 0.013488134841649575
1462.0, 0.012074643927699665
1463.0, 0.014232633662132281
1464.0, 0.011584579167250392
1465.0, 0.010614518105247257
1466.0, 0.014321753117278672
1467.0, 0.01612812332693741
1468.0, 0.01094234708154515
1469.0, 0.016825994964816054
1470.0, 0.010934755987123491
1471.0, 0.010181073248782433
1472.0, 0.011203353359056983
1473.0, 0.013232899368876828
1474.0, 0.013400494391336231
1475.0, 0.006940381876098908
1476.0, 0.012297183109850287
1477.0, 0.011699927974777596
1478.0, 0.007259190924519876
1479.0, 0.0055363242327708855
1480.0, 0.007422984859314003
1481.0, 0.00918198653401182
1482.0, 0.008850967241381876
1483.0, 0.011597071356673311
1484.0, 0.009160006254778476
1485.0, 0.007760394807995364
1486.0, 0.0076435314245921785
1487.0, 0.007516084868857784
1488.0, 0.0073143601655504984
1489.0, 0.006068793431156148
1490.0, 0.01267139037516309
1491.0, 0.008458276359350342
1492.0, 0.004817780850768082
1493.0, 0.005732364218593961
1494.0, 0.009827818612437957
1495.0, 0.022049238068196517
1496.0, 0.01000945601175703
1497.0, 0.0071099364309610055
1498.0, 0.006795118390872565
1499.0, 0.0045535951682162176
1500.0, 0.00299859770028792
1501.0, 0.007347477322530998
1502.0, 0.0007487941971054709
1503.0, 0.0017018518810794487
1504.0, 0.0009298490826221392
1505.0, 0.001838155380564104
1506.0, 0.0035908897067997215
1507.0, 0.0033726746479836485
1508.0, 0.0004979600606796804
1509.0, 0.0005011291357492479
1510.0, 0.001592537791341276
1511.0, 0.003044016054513898
1512.0, 0.003951005915324319
1513.0, 0.004646288196712632
1514.0, 0.005491008271649414
1515.0, 0.004043526739187423
1516.0, 0.005681510821024866
1517.0, 0.001948159064887682
1518.0, 0.003025592482690553
1519.0, 0.0032463869876893387
1520.0, 0.00041177669791291787
1521.0, 0.0008046058718978262
1522.0, 4.950265230394994e-05
1523.0, 0.00021193687963356973
1524.0, 8.851478337561783e-05
1525, 0.0
1526, 0.0
1527, 0.0
1528, 0.0
1529, 0.0
1530, 0.0
1531, 0.0
1532, 0.0
1533, 0.0
1534, 0.0
1535, 0.0
1536, 0.0
1537, 0.0
1538, 0.0
1539, 0.0
1540, 0.0
1541, 0.0
1542, 0.0
1543, 0.0
1544, 0.0
1545, 0.0
1546, 0.0
1547, 0.0
1548, 0.0
1549, 0.0
1550, 0.0
1551, 0.0
1552, 0.0
1553, 0.0
1554, 0.0
1555, 0.0
1556, 0.0
1557, 0.0
1558, 0.0
1559, 0.0
1560, 0.0
1561, 0.0
1562, 0.0
1563, 0.0
1564, 0.0
1565, 0.0
1566, 0.0
1567, 0.0
1568, 0.0
1569, 0.0
1570, 0.0
1571, 0.0
1572, 0.0
1573, 0.0
1574, 0.0
1575, 0.0
1576, 0.0
1577, 0.0
1578, 0.0
1579, 0.0
1580, 0.0
1581, 0.0
1582, 0.0
1583, 0.0
1584, 0.0
1585, 0.0
1586, 0.0
1587, 0.0
1588, 0.0
1589, 0.0
1590, 0.0
1591, 0.0
1592, 0.0
1593, 0.0
1594, 0.0
1595, 0.0
1596, 0.0
1597, 0.0
1598, 0.0
1599, 0.0
