30, 0.0
31, 0.0
32, 0.0
33, 0.0
34, 0.0
35, 0.0
36, 0.0
37, 0.0
38, 0.0
39, 0.0
40, 0.0
41, 0.0
42, 0.0
43, 0.0
44, 0.0
45, 0.0
46, 0.0
47, 0.0
48, 0.0
49, 0.0
50, 0.0
51, 0.0
52, 0.0
53, 0.0
54, 0.0
55, 0.0
56, 0.0
57, 0.0
58, 0.0
59, 0.0
60, 0.0
61, 0.0
62, 0.0
63, 0.0
64, 0.0
65, 0.0
66, 0.0
67, 0.0
68, 0.0
69, 0.0
70, 0.0
71, 0.0
72, 0.0
73, 0.0
74, 0.0
75, 0.0
76, 0.0
77, 0.0
78, 0.0
79, 0.0
80, 0.0
81, 0.0
82, 0.0
83, 0.0
84, 0.0
85, 0.0
86, 0.0
87, 0.0
88, 0.0
89.0, 0.0004834361890681428
90.0, 0.002983785708721539
91.0, 0.01795344569491693
92.0, 0.0410560085025681
93.0, 0.06973872768939737
94.0, 0.10337854570808339
95.0, 0.1353547688867554
96.0, 0.1684961320941726
97.0, 0.20202966519529608
98.0, 0.23114613695304415
99.0, 0.2634755423948582
100.0, 0.29366444251115315
101.0, 0.31803345904025565
102.0, 0.3448614844523982
103.0, 0.3746051411343496
104.0, 0.4063026004521456
105.0, 0.43727521873848374
106.0, 0.4642478799116846
107.0, 0.49419193902108033
108.0, 0.5302976538435854
109.0, 0.5640457363777426
110.0, 0.5942273396771411
111.0, 0.6233168857207746
112.0, 0.656446613305126
113.0, 0.6607679913771972
114.0, 0.650456315840561
115.0, 0.627617292365321
116.0, 0.5796122823760119
117.0, 0.5230474171909146
118.0, 0.4609303091196876
119.0, 0.3956867285065432
120.0, 0.3378460206925287
121.0, 0.28261981645634904
122.0, 0.23128633615266073
123.0, 0.1993354411859851
124.0, 0.16218740427523348
125.0, 0.12538304477709036
126.0, 0.0936161495379885
127.0, 0.06905608650607423
128.0, 0.048710332717190254
129.0, 0.03264559800688766
130.0, 0.022905299671453883
131.0, 0.01736587760833852
132.0, 0.02015098554380955
133.0, 0.03425186456408126
134.0, 0.04825148749936138
135.0, 0.06793980064252651
136.0, 0.09146351500997787
137.0, 0.11567773144830856
138.0, 0.14815811896998704
139.0, 0.17447546913714002
140.0, 0.19169999040765892
141.0, 0.2151967564694922
142.0, 0.23681843188738524
143.0, 0.25697647222984016
144.0, 0.2757481369223542
145.0, 0.28838700213029705
146.0, 0.29948958544207044
147.0, 0.30861792671034965
148.0, 0.3104194950784723
149.0, 0.30827335191574745
150.0, 0.30289532128372987
151.0, 0.2941840040700553
152.0, 0.28767826763973575
153.0, 0.27830034679290155
154.0, 0.26802290590829336
155.0, 0.261715799067413
156.0, 0.24997164205252442
157.0, 0.2381504830075636
158.0, 0.2272335251980775
159.0, 0.21018219711260422
160.0, 0.19304767863104472
161.0, 0.17390520061648784
162.0, 0.15005846018824184
163.0, 0.1286876695605028
164.0, 0.1082494465409156
165.0, 0.08892537729144781
166.0, 0.07249698868211743
167.0, 0.06026181842848808
168.0, 0.04987282254674283
169.0, 0.04038299553791455
170.0, 0.030968351918018756
171.0, 0.0225758335069747
172.0, 0.01458422368713895
173.0, 0.005874423312627592
174.0, 0.0024236085805551303
175.0, 0.004391572223508422
176.0, 0.011362739956266143
177.0, 0.018486111367123602
178.0, 0.021761595918033682
179.0, 0.025049297069124416
180.0, 0.031377314699937375
181.0, 0.02875456386746675
182.0, 0.02788641335410248
183.0, 0.027959317743935067
184.0, 0.025367345324005593
185.0, 0.02215822258746671
186.0, 0.019276307823532894
187.0, 0.016985046880638184
188.0, 0.014591025129479358
189.0, 0.00889842106154901
190.0, 0.0035892266330581598
191.0, 0.0027374337031857506
192.0, 0.012187859256185155
193.0, 0.025716310517191764
194.0, 0.04308074826188259
195.0, 0.0660983914707449
196.0, 0.09388360575109561
197.0, 0.12104982142053214
198.0, 0.1457815136388658
199.0, 0.1763613921279098
200.0, 0.20334393103738935
201.0, 0.22850949950069735
202.0, 0.25376679453092343
203.0, 0.2719658352841368
204.0, 0.28154835115512195
205.0, 0.28197558982508847
206.0, 0.270558823401584
207.0, 0.25291442079725207
208.0, 0.22900252215762215
209.0, 0.19827878417659306
210.0, 0.16253887205527148
211.0, 0.13888898626809726
212.0, 0.12492600513774152
213.0, 0.11943572627435667
214.0, 0.11168103697507883
215.0, 0.1120948361177921
216.0, 0.11975548711447931
217.0, 0.12591791802188063
218.0, 0.13414659903265921
219.0, 0.14180851219979226
220.0, 0.14786351802734365
221.0, 0.15611495794944266
222.0, 0.15548642240148575
223.0, 0.15079974531242402
224.0, 0.14745321084688912
225.0, 0.13993397861728685
226.0, 0.13115442734554222
227.0, 0.12149776867503073
228.0, 0.11113681494591487
229.0, 0.10344599744731352
230.0, 0.09483254013354911
231.0, 0.08423046108209915
232.0, 0.07733577471900796
233.0, 0.07232742720990351
234.0, 0.06896234736040868
235.0, 0.06729486660411044
236.0, 0.06485314125210703
237.0, 0.06298945173201273
238.0, 0.06183425727347492
239.0, 0.06160935249524433
240.0, 0.06198668177296433
241.0, 0.06599476628996707
242.0, 0.07356179637647466
243.0, 0.07418286546104788
244.0, 0.07678890409154412
245.0, 0.08074267035860998
246.0, 0.08574562851767739
247.0, 0.09344131736759556
248.0, 0.10210126441144599
249.0, 0.1101250930056809
250.0, 0.11422718158331817
251.0, 0.12585538979554672
252.0, 0.1335398051243192
253.0, 0.13696110800100783
254.0, 0.14599177003755281
255.0, 0.15536817586126464
256.0, 0.1615509808214859
257.0, 0.162545519980502
258.0, 0.15877191463591495
259.0, 0.15030431337199068
260.0, 0.13850736709983494
261.0, 0.12450101008803768
262.0, 0.11009919964254575
263.0, 0.09639633976642273
264.0, 0.08275532758595286
265.0, 0.06693776741525803
266.0, 0.054346364177606354
267.0, 0.04302029896525747
268.0, 0.03236124276297002
269.0, 0.02152870371600176
270.0, 0.012842069991145144
271.0, 0.005960585846790909
272.0, 0.0008479956404305851
273.0, 0.0031643123778991276
274.0, 0.006647659127805205
275.0, 0.010609631893620809
276.0, 0.01405728096194547
277.0, 0.016359915712208132
278.0, 0.014957910287602311
279.0, 0.010756063300627467
280.0, 0.007930116169301882
281.0, 0.005702837066091163
282.0, 0.005160781334060033
283.0, 0.006897112261612793
284.0, 0.012561368141588229
285.0, 0.022528142303174434
286.0, 0.03222536987550008
287.0, 0.038331729520749924
288.0, 0.04832132875502787
289.0, 0.061621467524114876
290.0, 0.07439410048842533
291.0, 0.08035754332634962
292.0, 0.08440382980816366
293.0, 0.08903159700124275
294.0, 0.0933821452822493
295.0, 0.0933970353342742
296.0, 0.09140389016017841
297.0, 0.08744719104666394
298.0, 0.08186766114248809
299.0, 0.07803215854331501
300.0, 0.0744135270938613
301.0, 0.0703690263294708
302.0, 0.06554934757790101
303.0, 0.06672408256996014
304.0, 0.06126947800535958
305.0, 0.05372595541881051
306.0, 0.049713889051158464
307.0, 0.04438011719845128
308.0, 0.03882915660552731
309.0, 0.03471117010521445
310.0, 0.03625113393445495
311.0, 0.04123835915233764
312.0, 0.04444849557546328
313.0, 0.04539468560943735
314.0, 0.04745931700969405
315.0, 0.049593429534302826
316.0, 0.050923752166815564
317.0, 0.05080540557179317
318.0, 0.045952314935887695
319.0, 0.04030200630718553
320.0, 0.03510268125570752
321.0, 0.03141852419637127
322.0, 0.0244038931155476
323.0, 0.021235394968001704
324.0, 0.019156314130267946
325.0, 0.0137983249058992
326.0, 0.013914294050733307
327.0, 0.011955915653880945
328.0, 0.00962751313780465
329.0, 0.014056754888452525
330.0, 0.013886091525220889
331.0, 0.01359178781697313
332.0, 0.01511826343646688
333.0, 0.023604960440987574
334.0, 0.02983881090903077
335.0, 0.036256262097889895
336.0, 0.044428974932974555
337.0, 0.06135317283568181
338.0, 0.07365750017659198
339.0, 0.0861864675461047
340.0, 0.10255144894245694
341.0, 0.11830861100296834
342.0, 0.13367265114640703
343.0, 0.1477478150661644
344.0, 0.15922022967322316
345.0, 0.17118129586242928
346.0, 0.18168604399105134
347.0, 0.18996669521278653
348.0, 0.19437334348322605
349.0, 0.19316167621295727
350.0, 0.1913910546467314
351.0, 0.1894574983353723
352.0, 0.18572547187826635
353.0, 0.18315600319747313
354.0, 0.17701222741568406
355.0, 0.1669816928256519
356.0, 0.1609193267705219
357.0, 0.15484179535489245
358.0, 0.1495633385172608
359.0, 0.1458929780048297
360.0, 0.14947538543005295
361.0, 0.14947208420188118
362.0, 0.15128563496148006
363.0, 0.15912854197644943
364.0, 0.17078621350739995
365.0, 0.18419633435942462
366.0, 0.20084894156117497
367.0, 0.2228434353334492
368.0, 0.24434480102835662
369.0, 0.26760739232698755
370.0, 0.29689508424252586
371.0, 0.3405617826900268
372.0, 0.3814962585523883
373.0, 0.42994760379098335
374.0, 0.48387008788200464
375.0, 0.5343751706439916
376.0, 0.6017530654305375
377.0, 0.671611481850047
378.0, 0.7382684285408572
379.0, 0.7897473694289234
380.0, 0.8570270349678697
381.0, 0.9059762457246624
382.0, 0.9302339990073576
383.0, 0.9643789447701329
384.0, 0.9843787271880646
385.0, 0.988078693586832
386.0, 0.9746963569422948
387.0, 0.9567375947207098
388.0, 0.9442233180363631
389.0, 0.9366482091309553
390.0, 0.9333730780996894
391.0, 0.9142124567738008
392.0, 0.9221726697762085
393.0, 0.9360918119597564
394.0, 0.9365608444859894
395.0, 0.9529262218785316
396.0, 0.9585581853423384
397.0, 0.9537694946135632
398.0, 0.9386879170193254
399.0, 0.9176572781295984
400.0, 0.871320260438268
401.0, 0.8119446261860508
402.0, 0.7617205567577597
403.0, 0.7054025052215624
404.0, 0.6521490155115673
405.0, 0.6055112928974549
406.0, 0.572207805479412
407.0, 0.5276488117102606
408.0, 0.4848951727710244
409.0, 0.44751613136433793
410.0, 0.42065313080150585
411.0, 0.38950196161952616
412.0, 0.36263636591340176
413.0, 0.3398319069892567
414.0, 0.31273562301076235
415.0, 0.28653374062949016
416.0, 0.2710531541603291
417.0, 0.2651214782140046
418.0, 0.24671887754829366
419.0, 0.22995705384582443
420.0, 0.2180428267926827
421.0, 0.21131592390673187
422.0, 0.20301738900655433
423.0, 0.19368314107142146
424.0, 0.18341979910401018
425.0, 0.17309388536630912
426.0, 0.1711511387338477
427.0, 0.16308777009971773
428.0, 0.15632534085442384
429.0, 0.15473437394720801
430.0, 0.15448151413743363
431.0, 0.14781886900813704
432.0, 0.1417008154112363
433.0, 0.14063362076944863
434.0, 0.142755135290732
435.0, 0.14525612321259126
436.0, 0.14371465411354079
437.0, 0.13496992794437074
438.0, 0.13683784119546297
439.0, 0.13144752986563304
440.0, 0.12491192936834192
441.0, 0.12263501768962669
442.0, 0.11286499725094327
443.0, 0.10360784025966753
444.0, 0.09482430919461522
445.0, 0.08648620150690736
446.0, 0.08542684490006756
447.0, 0.08095889115600713
448.0, 0.07649692349317065
449.0, 0.07615416841766055
450.0, 0.07488453647452056
451.0, 0.07286689605771345
452.0, 0.0727951518699423
453.0, 0.07819373009025826
454.0, 0.08160457038566667
455.0, 0.08936464966273232
456.0, 0.09651769711615533
457.0, 0.09580765735775752
458.0, 0.10644369498770243
459.0, 0.10977709413499741
460.0, 0.11069748876035988
461.0, 0.11772607744387542
462.0, 0.12077066958761123
463.0, 0.1257678312465198
464.0, 0.13311387479124817
465.0, 0.14300341110233936
466.0, 0.1491052265939249
467.0, 0.1602121463391574
468.0, 0.17766015092188414
469.0, 0.202956999791264
470.0, 0.2278458528981713
471.0, 0.2546831932864989
472.0, 0.28734452936332594
473.0, 0.3322972643341721
474.0, 0.3704585946564273
475.0, 0.4189839798061111
476.0, 0.467491803628392
477.0, 0.4963839848759321
478.0, 0.5301398529047252
479.0, 0.5571525899611056
480.0, 0.5760026271453726
481.0, 0.5853929338646124
482.0, 0.5732050745547793
483.0, 0.5665710758338612
484.0, 0.5678161808445354
485.0, 0.5778578456740169
486.0, 0.5852960222681027
487.0, 0.6091635525553522
488.0, 0.6431173238273828
489.0, 0.6755867494221048
490.0, 0.7346862387360149
491.0, 0.7901826629426116
492.0, 0.8394820363159109
493.0, 0.8812435928205852
494.0, 0.9223227297805963
495.0, 0.9612124483354909
496.0, 0.9904962603706944
497.0, 0.9996520788960369
498.0, 0.9710999313937715
499.0, 0.9329823883599293
500.0, 0.8901818691335411
501.0, 0.8474260723379612
502.0, 0.7827317752466951
503.0, 0.7074962326923973
504.0, 0.6315912464070409
505.0, 0.566170404262726
506.0, 0.49930789058164327
507.0, 0.44582787593710177
508.0, 0.3974881015014423
509.0, 0.345443005939973
510.0, 0.31230080025763574
511.0, 0.2990413474157265
512.0, 0.2793268994469247
513.0, 0.2295894420961217
514.0, 0.2111385533426632
515.0, 0.19041518536293314
516.0, 0.172683821553327
517.0, 0.16195408219159876
518.0, 0.1501418575247948
519.0, 0.14279223446434786
520.0, 0.13505779029223833
521.0, 0.12380410621595597
522.0, 0.11341634083618073
523.0, 0.11092770257695811
524.0, 0.10938287967445427
525.0, 0.10533325174353954
526.0, 0.10609741613743832
527.0, 0.10491908755531135
528.0, 0.10500093503524056
529.0, 0.10806601317260654
530.0, 0.1150283663158185
531.0, 0.12065246479658424
532.0, 0.12669633001505679
533.0, 0.13336894190747015
534.0, 0.13775109048500092
535.0, 0.14131963675849998
536.0, 0.15013537477530484
537.0, 0.1627468500910693
538.0, 0.16397736581192865
539.0, 0.1632950171129301
540.0, 0.15940685287654685
541.0, 0.15318646859307028
542.0, 0.1486741579468912
543.0, 0.13440220464372188
544.0, 0.11952311954442298
545.0, 0.10523806891671164
546.0, 0.09020040707166559
547.0, 0.08481704555163311
548.0, 0.08154152457973245
549.0, 0.07512001491657866
550.0, 0.05714206727587531
551.0, 0.05415462284782021
552.0, 0.049706917062607554
553.0, 0.044071776249703175
554.0, 0.03968430004028755
555.0, 0.0359370225689653
556.0, 0.03469166313972971
557.0, 0.032644286345477815
558.0, 0.026060342050738254
559.0, 0.02764591550168926
560.0, 0.029442667048971784
561.0, 0.02885344646295201
562.0, 0.024062221966766485
563.0, 0.023300273584498092
564.0, 0.023577427869712453
565.0, 0.02254139223374885
566.0, 0.01916381501263848
567.0, 0.017957261207223876
568.0, 0.018341476325087352
569.0, 0.017353598211729753
570.0, 0.014398819182591135
571.0, 0.013921884349658218
572.0, 0.015736299749096783
573.0, 0.014572198131077616
574.0, 0.010242165160891787
575.0, 0.008411561075488834
576.0, 0.010024031877378436
577.0, 0.008604086371192402
578.0, 0.0054376499884316335
579.0, 0.007265383860847972
580.0, 0.00415469228505389
581.0, 0.0026780505287286997
582.0, 0.0032968242142148614
583.0, 0.005411544233861882
584.0, 0.004489611391002992
585.0, 0.004899236462478501
586.0, 0.004676390462063671
587.0, 0.001239490417671441
588.0, 0.0014429359936903889
589.0, 0.0018921593383956392
590.0, 0.001757843098926876
591.0, 0.0005761149245853549
592.0, 0.001822894462815897
593.0, 0.0024853869315885706
594.0, 0.0036067213149127133
595.0, 0.005238391063274796
596.0, 0.003654833271735705
597.0, 0.002981907550889787
598.0, 0.0029320855931743773
599.0, 0.0036158112124086705
600.0, 0.005879446913312915
601.0, 0.004971983991522069
602.0, 0.0026845930367132777
603.0, 0.001524564345119635
604.0, 0.006736476333263388
605.0, 0.007013905024730631
606.0, 0.0070165634717440535
607.0, 0.005643366356349162
608.0, 0.00046884462155851164
609.0, 0.005442158364026291
610.0, 0.006771334428332896
611.0, 0.005498149808780538
612.0, 0.0032706493651080974
613.0, 0.004069005167183231
614.0, 0.004157119312179714
615.0, 0.004199707019332509
616.0, 0.004460934395203435
617.0, 0.00375674694441141
618.0, 0.0023043441891522683
619.0, 0.0015911619428813563
620.0, 0.0023311725897766982
621.0, 0.005191231971853661
622.0, 0.004130451324950903
623.0, 0.003175635348288883
624.0, 0.003938480930431201
625.0, 0.008208768215377759
626.0, 0.007418689312848324
627.0, 0.0055508194520064195
628.0, 0.0033652716433666408
629.0, 0.001404613913085783
630.0, 0.0029721020326151453
631.0, 0.003944679682951093
632.0, 0.00462392849401546
633.0, 0.004978306325183792
634.0, 0.0010389934035664944
635.0, 0.004072020752494372
636.0, 0.0058962056829009015
637.0, 0.004155765314678566
638.0, 0.0063783776103296
639.0, 0.0025050318217635734
640.0, 0.0017604136959487237
641.0, 0.0040009029533640845
642.0, 0.002808558585084572
643.0, 0.0008820361326250151
644.0, 0.0005556527769305867
645.0, 0.0009010456220171438
646.0, 0.0002089452653613743
647.0, 0.001059846387774179
648.0, 0.0026714611844980054
649.0, 0.0035356885202125184
650.0, 0.002596029945839332
651.0, 0.0019041827889272854
652.0, 0.0007886151161619313
653.0, 0.0010516656979007069
654.0, 0.003159935231098492
655.0, 0.00555374429432871
656.0, 0.004269420167203764
657.0, 0.0044089704706770025
658.0, 0.005266737952598225
659.0, 0.002643116112667558
660.0, 0.005062095449083587
661.0, 0.007172405910071795
662.0, 0.007107493674350631
663.0, 0.0033813107969057196
664.0, 0.00374127798888765
665.0, 0.005592370516059079
666.0, 0.00816859576983795
667.0, 0.010398070236693398
668.0, 0.00816326178121198
669.0, 0.011785466472237759
670.0, 0.013584118588637574
671.0, 0.013481709581155882
672.0, 0.019175049759659345
673.0, 0.021293251476235755
674.0, 0.023534230605995115
675.0, 0.027233165727554444
676.0, 0.03359090310921618
677.0, 0.03806740605737305
678.0, 0.04261341164632775
679.0, 0.04713823316256716
680.0, 0.051817247381604106
681.0, 0.05958455643745604
682.0, 0.06637926926318465
683.0, 0.06859367120519043
684.0, 0.06757336217419867
685.0, 0.07362540300253999
686.0, 0.07292111303003138
687.0, 0.06910197511660425
688.0, 0.06396419455631873
689.0, 0.05956326776829276
690.0, 0.05389039491443412
691.0, 0.05226084551265574
692.0, 0.05100242631360419
693.0, 0.047183424767098366
694.0, 0.04558325857603972
695.0, 0.041500414247203334
696.0, 0.04513064236444666
697.0, 0.05483076632746605
698.0, 0.04898136451751613
699.0, 0.05149889576570946
700.0, 0.0553315163635916
701.0, 0.05827672125824697
702.0, 0.058680973817760856
703.0, 0.05916045765475112
704.0, 0.05887277527713458
705.0, 0.05647826298974713
706.0, 0.052080332676275785
707.0, 0.05609157237541417
708.0, 0.05564214774627234
709.0, 0.053422686688637616
710.0, 0.05067293106307155
711.0, 0.04819401794235454
712.0, 0.05227006042299005
713.0, 0.05039701862775438
714.0, 0.04709788430517664
715.0, 0.05061109590182472
716.0, 0.046162727823746995
717.0, 0.04734834269742376
718.0, 0.04709600392117899
719.0, 0.04168703532840053
720.0, 0.03672324153968806
721.0, 0.041783076486764485
722.0, 0.04386155837996791
723.0, 0.041627747406864944
724.0, 0.040100562582097245
725.0, 0.042708225593160835
726.0, 0.04228859524790386
727.0, 0.040984184934019195
728.0, 0.041408293733322735
729.0, 0.042087112912663725
730.0, 0.03565784165095078
731.0, 0.03242001577448417
732.0, 0.03398945652007486
733.0, 0.02922132708440202
734.0, 0.024169881888808344
735.0, 0.020753719734260084
736.0, 0.01852306966570276
737.0, 0.016326605735559694
738.0, 0.01582033510577904
739.0, 0.015008541462405132
740.0, 0.014249198538168969
741.0, 0.013935671335234684
742.0, 0.015007802708045288
743.0, 0.011050358043422163
744.0, 0.009771964083187002
745.0, 0.011021295531343732
746.0, 0.010391964321702184
747.0, 0.014199800723068255
748.0, 0.012918110006281052
749.0, 0.010031714818355826
750.0, 0.009220739645555663
751.0, 0.011918989001572185
752.0, 0.011139491030966718
753.0, 0.01148714007152129
754.0, 0.012406721572209917
755.0, 0.007948536810413978
756.0, 0.010119022197619986
757.0, 0.00992805701634939
758.0, 0.00870291726783131
759.0, 0.008927670452468436
760.0, 0.012116317762762733
761.0, 0.009414516699296877
762.0, 0.006756892301787007
763.0, 0.006327041420723256
764.0, 0.006550776500881653
765.0, 0.00850129134198752
766.0, 0.008111149258325784
767.0, 0.006245542772244845
768.0, 0.004900803212463266
769.0, 0.009019123123459536
770.0, 0.005958550786174906
771.0, 0.003580120779078109
772.0, 0.00496956537496467
773.0, 0.006318126288024985
774.0, 0.0032553223016863666
775.0, 0.0031354971709118295
776.0, 0.004405242801140408
777.0, 0.0034024001108452356
778.0, 0.004885106426130734
779.0, 0.004334331855258913
780.0, 0.004609630050356258
781.0, 0.006764502982962484
782.0, 0.008613231530813273
783.0, 0.007573404094890696
784.0, 0.008562019445887416
785.0, 0.010010160378617957
786.0, 0.00861498118147404
787.0, 0.008199092656496279
788.0, 0.007032473471573301
789.0, 0.005462753537878398
790.0, 0.004258463148531484
791.0, 0.005750890763837584
792.0, 0.0030791687930959745
793.0, 0.0011886898518464759
794.0, 0.0007789727797295289
795.0, 0.001657799444827899
796.0, 0.004839316484724304
797.0, 0.004309102729139858
798.0, 0.002343294543165157
799.0, 0.0005893397824378897
800.0, 0.0006430240186280149
801.0, 0.0003991303156288052
802.0, 0.0003799659543693842
803.0, 0.0009692346057637588
804.0, 0.0024478741784472267
805.0, 0.0034274582449272313
806.0, 0.002079550792045906
807.0, 0.0032329548363829916
808.0, 0.006196316214893631
809.0, 0.002104743085697352
810.0, 0.0010927757290800939
811.0, 0.0012054059458362924
812.0, 0.0018311364242323477
813.0, 0.0023643263912521166
814.0, 0.001006072847064585
815.0, 0.0009679177414071167
816.0, 0.0013613985924337032
817.0, 0.0014956128279125602
818.0, 0.0004941857048159758
819.0, 0.0011961853891005933
820.0, 0.0009121966520841851
821.0, 0.0009684017719839269
822.0, 0.0021535284520669243
823.0, 0.0011265941895357236
824.0, 0.0007174697882389159
825.0, 0.0026903085115628925
826.0, 0.004607961762979136
827.0, 0.0012998141850899315
828.0, 0.0010413017730719833
829.0, 0.00047390394075728476
830.0, 0.00037724907155155935
831.0, 0.0012178370075358043
832.0, 0.0028013727159277757
833.0, 0.00317910134004741
834.0, 0.002044311352921368
835.0, 0.0006707291931137861
836.0, 0.0006978540367054713
837.0, 0.00023521777918222484
838.0, 0.0011533023596401156
839.0, 0.002086512107470666
840.0, 0.00308664753062497
841.0, 0.005986722625270134
842.0, 0.004599277106813079
843.0, 0.00408267646292795
844.0, 0.0034346782355657098
845.0, 0.0017121196843189915
846.0, 0.0014183397501704702
847.0, 0.0032961105527496383
848.0, 0.002564790201943618
849.0, 0.0005293017354350595
850.0, 0.0016861366586463406
851.0, 0.0009798198151496262
852.0, 0.0037624929387836937
853.0, 0.005773606791287046
854.0, 0.004596908406913083
855.0, 0.0006034970165821412
856.0, 0.004828139714943728
857.0, 0.006842982665690221
858.0, 0.006659426852264701
859.0, 0.005902879883095906
860.0, 0.005082087515345874
861.0, 0.004168879624640441
862.0, 0.005324867469049007
863.0, 0.007920914395389934
864.0, 0.009231374644503918
865.0, 0.0032308866097556354
866.0, 0.0045625682957983835
867.0, 0.006075426454473266
868.0, 0.0042244724920564745
869.0, 0.0046841320395857935
870.0, 0.005408808295518236
871.0, 0.005274973269366368
872.0, 0.0035737629944411218
873.0, 0.0005160144476899684
874.0, 0.004832087627939014
875.0, 0.004553924761378667
876.0, 0.004194351425568867
877.0, 0.0043708340952124825
878.0, 0.003332765490723676
879.0, 0.0014109102222077674
880.0, 0.002577869609092584
881.0, 0.003805762312542226
882.0, 0.004228434788922729
883.0, 0.007927444123909964
884.0, 0.005692195277523122
885.0, 0.00426240693575395
886.0, 0.00357250974587108
887.0, 0.0026952359114431734
888.0, 0.0018587975532623666
889.0, 0.0034624013155073637
890.0, 0.00780684292081945
891.0, 0.010416052257071963
892.0, 0.004174733366573648
893.0, 0.005155694124774903
894.0, 0.0061026980435781725
895.0, 0.005459063982342471
896.0, 0.00393724099830821
897.0, 0.005709958450561518
898.0, 0.006494096981327636
899.0, 0.006023370107171739
900.0, 0.006777605253132267
901.0, 0.009474981772470293
902.0, 0.0073576582430268335
903.0, 0.004456606328304663
904.0, 0.005199582682422937
905.0, 0.007763631355214248
906.0, 0.00867914791802785
907.0, 0.006109226285264585
908.0, 0.0062132596825487055
909.0, 0.007051353328518282
910.0, 0.008451998454583396
911.0, 0.011273377986905697
912.0, 0.007269396810728624
913.0, 0.007480253238262858
914.0, 0.008479556826390339
915.0, 0.008085120409075332
916.0, 0.0055500139748717306
917.0, 0.008419025515889342
918.0, 0.007612232966742696
919.0, 0.005652527569423402
920.0, 0.005278000203591113
921.0, 0.007064257296812839
922.0, 0.007692033932385986
923.0, 0.007883085163704577
924.0, 0.007602529535123057
925.0, 0.007118223419426522
926.0, 0.010630258617520054
927.0, 0.009173408390699144
928.0, 0.008016461515797811
929.0, 0.007984595625265122
930.0, 0.007922020893699389
931.0, 0.00694661225552226
932.0, 0.009907115128549167
933.0, 0.01199081439836573
934.0, 0.012063760699817044
935.0, 0.012370744858096121
936.0, 0.01025531463634147
937.0, 0.015205212931624234
938.0, 0.017174240044533013
939.0, 0.01421151381555679
940.0, 0.020564322750505824
941.0, 0.016479095738039753
942.0, 0.018062457087742966
943.0, 0.022073109789929077
944.0, 0.02485075566429569
945.0, 0.027557163662323043
946.0, 0.026897699164677696
947.0, 0.03099576177429827
948.0, 0.039574308767813045
949.0, 0.04993562425269133
950.0, 0.0555080851124592
951.0, 0.066538247574404
952.0, 0.08391153916272198
953.0, 0.10778985208559941
954.0, 0.1376967958723183
955.0, 0.17327733685278315
956.0, 0.21317647035183646
957.0, 0.26130273297295153
958.0, 0.3093532931499785
959.0, 0.3415661723571494
960.0, 0.3681076067599921
961.0, 0.389985726471513
962.0, 0.412653688276352
963.0, 0.43275830342124094
964.0, 0.4383836007472695
965.0, 0.4421130692668336
966.0, 0.4509435938249911
967.0, 0.4605795206883096
968.0, 0.46449195086819867
969.0, 0.45194029182746814
970.0, 0.4074646217863452
971.0, 0.35347471388106777
972.0, 0.3000663220448355
973.0, 0.2529210243997439
974.0, 0.21093128200230077
975.0, 0.1833883036356331
976.0, 0.15561079453516258
977.0, 0.13149573733838243
978.0, 0.1129202423499787
979.0, 0.09177124037603406
980.0, 0.07636407895452971
981.0, 0.06578126224531486
982.0, 0.056988074896289403
983.0, 0.04808303339311019
984.0, 0.04324096254548196
985.0, 0.0410522479816218
986.0, 0.0355946580037028
987.0, 0.03351571509134367
988.0, 0.03987835565326743
989.0, 0.039941414221838285
990.0, 0.0397290799422243
991.0, 0.04317086858104814
992.0, 0.047774522624558405
993.0, 0.05106407366387524
994.0, 0.061929116295763614
995.0, 0.07102206406616417
996.0, 0.079167225988713
997.0, 0.08845686854541865
998.0, 0.1008828634395087
999.0, 0.11430033684982185
1000.0, 0.12331555310966884
1001.0, 0.12394128943970208
1002.0, 0.12128837355559813
1003.0, 0.12096054798071032
1004.0, 0.09772191639246877
1005.0, 0.08233014143049369
1006.0, 0.06983020978538251
1007.0, 0.059448847149084806
1008.0, 0.051760348937375494
1009.0, 0.04630379784521353
1010.0, 0.04203360589901359
1011.0, 0.04018844107745815
1012.0, 0.04027711628127133
1013.0, 0.04117318921701225
1014.0, 0.04468759270497398
1015.0, 0.04641358024041982
1016.0, 0.048538862279095915
1017.0, 0.05178530578351868
1018.0, 0.05605176630464976
1019.0, 0.05931322806538932
1020.0, 0.05838325793404899
1021.0, 0.054002781008086996
1022.0, 0.0490000835756735
1023.0, 0.0467853722485623
1024.0, 0.044146992577969654
1025.0, 0.04122850223394951
1026.0, 0.040786388875993576
1027.0, 0.04021621291553051
1028.0, 0.035870087366422776
1029.0, 0.03937336376960228
1030.0, 0.04495778714225479
1031.0, 0.05173068125864377
1032.0, 0.05770367438009887
1033.0, 0.061271483914017225
1034.0, 0.06913110202746721
1035.0, 0.0812414380812614
1036.0, 0.09612139683746428
1037.0, 0.10980381718828881
1038.0, 0.11784587224757788
1039.0, 0.11959815267792431
1040.0, 0.11955370534168618
1041.0, 0.1120186902133731
1042.0, 0.10002085139027314
1043.0, 0.08844199453017572
1044.0, 0.0742390832682468
1045.0, 0.062240199220239226
1046.0, 0.053109270053118066
1047.0, 0.04660255826651856
1048.0, 0.041565591258219334
1049.0, 0.03419151150197523
1050.0, 0.02817996789435975
1051.0, 0.026836845958024425
1052.0, 0.02438133476736372
1053.0, 0.01789178828150094
1054.0, 0.023430170041900726
1055.0, 0.01873281192268445
1056.0, 0.015744198041454306
1057.0, 0.014963257339087559
1058.0, 0.01557682332253819
1059.0, 0.01850414712365808
1060.0, 0.011337930035595292
1061.0, 0.01000660131355273
1062.0, 0.011072868320134797
1063.0, 0.010993623887080221
1064.0, 0.010737793902177984
1065.0, 0.011717598059416674
1066.0, 0.012264956250485383
1067.0, 0.011796767119089259
1068.0, 0.010311537603279783
1069.0, 0.008551307975234276
1070.0, 0.014780295190227303
1071.0, 0.013244872176352599
1072.0, 0.011113674030671985
1073.0, 0.012839062838633467
1074.0, 0.018930088119113335
1075.0, 0.017547364078785044
1076.0, 0.019305145439454725
1077.0, 0.023609884490707465
1078.0, 0.027991386377987502
1079.0, 0.029011710906249204
1080.0, 0.03151448827847333
1081.0, 0.037178337301546405
1082.0, 0.04076204253379962
1083.0, 0.04502860472635668
1084.0, 0.05490613307477138
1085.0, 0.058552223169287126
1086.0, 0.06344309214365862
1087.0, 0.06830822580963819
1088.0, 0.07193932029601387
1089.0, 0.07357186107932476
1090.0, 0.07429284200946532
1091.0, 0.0740937779694415
1092.0, 0.06960677747901271
1093.0, 0.0628330639261875
1094.0, 0.05638108643454238
1095.0, 0.051483831628754514
1096.0, 0.04513304621242388
1097.0, 0.040889992084003235
1098.0, 0.03704526703040874
1099.0, 0.03260518910781462
1100.0, 0.028609670093317663
1101.0, 0.022466110420611782
1102.0, 0.020618658831729732
1103.0, 0.017960192148886736
1104.0, 0.014706472884735027
1105.0, 0.01615699468170955
1106.0, 0.014887055635768958
1107.0, 0.014546029712532084
1108.0, 0.012140950616323169
1109.0, 0.008762035587389925
1110.0, 0.007027146689141195
1111.0, 0.0027440754670472896
1112.0, 0.008425694461543561
1113.0, 0.008877374303280929
1114.0, 0.0060703926127798616
1115.0, 0.005170167219010229
1116.0, 0.0034321991051648056
1117.0, 0.005472012416900056
1118.0, 0.006925073733579757
1119.0, 0.007035994752940929
1120.0, 0.006342780429240347
1121.0, 0.006884563560409913
1122.0, 0.0035396748493625816
1123.0, 0.004635733893666454
1124.0, 0.005313032621396969
1125.0, 0.005181235311131837
1126.0, 0.0086377854191354
1127.0, 0.008279256189679429
1128.0, 0.006333505051316905
1129.0, 0.0050424165809177515
1130.0, 0.004054593869540072
1131.0, 0.002451803009120782
1132.0, 0.0051587847533400115
1133.0, 0.0050398685796628605
1134.0, 0.004257978668831531
1135.0, 0.0029358841038018436
1136.0, 0.001562668224885717
1137.0, 0.0030810399575712283
1138.0, 0.008303697394553717
1139.0, 0.009782416602995905
1140.0, 0.009663686688776398
1141.0, 0.008259283602535946
1142.0, 0.0024230141602617377
1143.0, 0.00456340846330002
1144.0, 0.004455718416485633
1145.0, 0.0038645164182460248
1146.0, 0.004995988881848175
1147.0, 0.009333512840708873
1148.0, 0.010845087874781799
1149.0, 0.009509458544880212
1150.0, 0.010658572382876316
1151.0, 0.012981758128887497
1152.0, 0.014328401234864254
1153.0, 0.015629029539282746
1154.0, 0.01831216577043857
1155.0, 0.020852391654055644
1156.0, 0.02162449400001833
1157.0, 0.021619282854878467
1158.0, 0.02488879809072735
1159.0, 0.026429755333912692
1160.0, 0.026192095519974316
1161.0, 0.026453538142921076
1162.0, 0.028199652171148008
1163.0, 0.030711996771781432
1164.0, 0.02725843923520636
1165.0, 0.027646173981565936
1166.0, 0.02642721564149845
1167.0, 0.024296241066154727
1168.0, 0.02175683008775437
1169.0, 0.015890538095413492
1170.0, 0.012638248972165644
1171.0, 0.012785116496032868
1172.0, 0.01352967928782456
1173.0, 0.012801531277230573
1174.0, 0.009855784302947155
1175.0, 0.008574982259011493
1176.0, 0.00783545808487399
1177.0, 0.008222795802721065
1178.0, 0.008853835757008516
1179.0, 0.008007578341983927
1180.0, 0.002797403819685201
1181.0, 0.006950077989149026
1182.0, 0.006290844073964127
1183.0, 0.0030035069888881627
1184.0, 0.0017899568633827812
1185.0, 0.007374627168347473
1186.0, 0.003667121071671273
1187.0, 0.0018111825688277307
1188.0, 0.0010792598458196543
1189.0, 0.0017528340646895285
1190.0, 0.003460598613308048
1191.0, 0.000692099515370902
1192.0, 0.00025016759579291807
1193.0, 0.0021315111084492743
1194.0, 0.003554856432765186
1195.0, 0.0034232829861240025
1196.0, 0.003762496358706474
1197.0, 0.0017708425970954518
1198.0, 0.0013858841723676826
1199.0, 0.0011797948162291458
1200.0, 0.0012494510827372875
1201.0, 0.0022202155879288044
1202.0, 0.0030857967138270322
1203.0, 0.0015102518211462892
1204.0, 0.0029047802266633053
1205.0, 0.004246193366056017
1206.0, 0.003455341312193343
1207.0, 0.0021400254846183297
1208.0, 0.0020708916354101347
1209.0, 0.0009008643216154245
1210.0, 0.0010787483527495458
1211.0, 0.00152989247415845
1212.0, 0.0004599069768932353
1213.0, 0.0019055227703795702
1214.0, 0.004113649406889547
1215.0, 0.00355541976688299
1216.0, 0.001897263888044141
1217.0, 0.0009831352693345009
1218.0, 0.0015573223748044584
1219.0, 0.0009072228229840031
1220.0, 0.003099735071726008
1221.0, 0.002639664847979543
1222.0, 0.0011289066199937393
1223.0, 0.001693146096856669
1224.0, 0.0006311241798175423
1225.0, 0.0032536103162746034
1226.0, 0.00343204481323342
1227.0, 0.0025235602643882003
1228.0, 0.0015480186263241175
1229.0, 0.000395144310543564
1230.0, 0.0018791938426208504
1231.0, 0.0008779862652593417
1232.0, 0.0016442064896545312
1233.0, 0.0023159784127708876
1234.0, 0.00087772465642436
1235.0, 0.00029476689112419236
1236.0, 0.0013424112113797205
1237.0, 0.0022148822273862917
1238.0, 0.0024091308968083275
1239.0, 0.003154169408585264
1240.0, 0.005710802367746381
1241.0, 0.0025863271957538335
1242.0, 0.003811498084320685
1243.0, 0.004268135347067263
1244.0, 0.002975540685929888
1245.0, 0.000991693756558737
1246.0, 0.0010774796464012861
1247.0, 0.000830916798254523
1248.0, 0.002483674347551864
1249.0, 0.003943202417308418
1250.0, 0.0039009742814724636
1251.0, 0.0026483546215984
1252.0, 0.004454747478580635
1253.0, 0.0016939689273043992
1254.0, 0.0006446681698050621
1255.0, 0.0005537094662602503
1256.0, 0.0008588125238276604
1257.0, 0.001656149926439
1258.0, 0.0021241634922714316
1259.0, 0.0010969476374860397
1260.0, 0.001918416274976358
1261.0, 0.003618873714869425
1262.0, 0.004438921978209523
1263.0, 0.0032603801418998784
1264.0, 0.003072350655920421
1265.0, 0.0033836113906482003
1266.0, 0.0028598521617715636
1267.0, 0.0023402705889322174
1268.0, 0.003224319194215438
1269.0, 0.005441356674768604
1270.0, 0.004322386510250325
1271.0, 0.003463623269807327
1272.0, 0.0028799010341504184
1273.0, 0.0029642907952675034
1274.0, 0.004225955717049539
1275.0, 0.004922443774197921
1276.0, 0.0014782924868349692
1277.0, 0.0005350373476372045
1278.0, 0.0010696057153480097
1279.0, 0.0013029135643675255
1280.0, 0.0006334011344910951
1281.0, 0.0025207004935726093
1282.0, 0.0013312771855712089
1283.0, 0.0016608650716795975
1284.0, 0.001912551403736582
1285.0, 0.0009077662373213943
1286.0, 0.002509146276247739
1287.0, 0.0031404405433913185
1288.0, 0.0015941855659577548
1289.0, 0.0010055772428692864
1290.0, 0.0016283413838609657
1291.0, 0.0020604293854774446
1292.0, 0.0008742085211206818
1293.0, 0.0035309876593141213
1294.0, 0.0025134769382862874
1295.0, 0.0013693741199361893
1296.0, 0.001418571799748897
1297.0, 0.0017962739095911868
1298.0, 0.0032021115274520544
1299.0, 0.002151328426564553
1300.0, 0.0030750245525579425
1301.0, 0.003809988577183658
1302.0, 0.0034997491132373847
1303.0, 0.0035078679150905216
1304.0, 0.002754601731346177
1305.0, 0.0027370504815798662
1306.0, 0.0037274474166124056
1307.0, 0.003401956796382728
1308.0, 0.0016781126628431643
1309.0, 0.0022037405915046942
1310.0, 0.0037964024128511447
1311.0, 0.0013147752025098654
1312.0, 0.003134851899047894
1313.0, 0.004898050391632163
1314.0, 0.0032273190743558563
1315.0, 0.004059194327215603
1316.0, 0.000681987513270401
1317.0, 0.005812230628539086
1318.0, 0.006422664845566204
1319.0, 0.00509751557476829
1320.0, 0.0063325818953170404
1321.0, 0.00304470136532377
1322.0, 0.00723498361963634
1323.0, 0.006113161740405849
1324.0, 0.004049092845779828
1325.0, 0.004511773627822652
1326.0, 0.007780571650617139
1327.0, 0.00744698117312206
1328.0, 0.006173087631128507
1329.0, 0.004176387136829774
1330.0, 0.00207736217734747
1331.0, 0.0014043522674193239
1332.0, 0.002755368802837163
1333.0, 0.0020512167048522094
1334.0, 0.005484552927249667
1335.0, 0.002757695158886705
1336.0, 0.0035901481594344145
1337.0, 0.005771710022643796
1338.0, 0.002011559385709124
1339.0, 0.0011352075289621606
1340.0, 0.003756810008473735
1341.0, 0.003275669552311353
1342.0, 0.0048574544454590635
1343.0, 0.006246375757394066
1344.0, 0.0021034723957668
1345.0, 0.00032436941184438783
1346.0, 0.002560016027242523
1347.0, 0.0029937082872511962
1348.0, 0.0032348396022867675
1349.0, 0.003446412705131076
1350.0, 0.0028526343558827674
1351.0, 0.004021865821652368
1352.0, 0.00307232234061914
1353.0, 0.0062016930902164145
1354.0, 0.0067987018600764865
1355.0, 0.005571749852125831
1356.0, 0.007489981409696711
1357.0, 0.006413802705441496
1358.0, 0.003443762055994122
1359.0, 0.007078296650657304
1360.0, 0.00926300522522561
1361.0, 0.006574751796255974
1362.0, 0.002138827963588978
1363.0, 0.005174921213577791
1364.0, 0.002944352309623555
1365.0, 0.0039846871600453275
1366.0, 0.0061003282998070415
1367.0, 0.005919264694119849
1368.0, 0.002741110808493138
1369.0, 0.005686071004618112
1370.0, 0.005208171306318868
1371.0, 0.005787053140408424
1372.0, 0.00614384247627517
1373.0, 0.006040557496778559
1374.0, 0.005920726979114103
1375.0, 0.005333962482172355
1376.0, 0.00716895650485939
1377.0, 0.006857821885678481
1378.0, 0.004807193647846544
1379.0, 0.0036632184599040465
1380.0, 0.005332197339634953
1381.0, 0.006996473658377758
1382.0, 0.005961462378101445
1383.0, 0.004722970010163231
1384.0, 0.004282751258588335
1385.0, 0.003987225725453281
1386.0, 0.0037255961350186385
1387.0, 0.006119929212529351
1388.0, 0.007726957910092415
1389.0, 0.008571810320039555
1390.0, 0.0074119645728968585
1391.0, 0.006780600095703618
1392.0, 0.007969028336950687
1393.0, 0.007839428626317708
1394.0, 0.00828087080928419
1395.0, 0.0062932798401403485
1396.0, 0.00602149522899753
1397.0, 0.005967138904039144
1398.0, 0.0063497586146432665
1399.0, 0.010710496149391801
1400.0, 0.010084630219566836
1401.0, 0.00990373191626655
1402.0, 0.006069832688985888
1403.0, 0.004088392579180724
1404.0, 0.006069062564669086
1405.0, 0.00806276100281411
1406.0, 0.004377666873286725
1407.0, 0.0024210586459771336
1408.0, 0.0062775834913379866
1409.0, 0.007571395384043233
1410.0, 0.00628117854128822
1411.0, 0.008043553377928562
1412.0, 0.010129105347823512
1413.0, 0.007322407684607584
1414.0, 0.007438750274856009
1415.0, 0.00531060892921707
1416.0, 0.003902614085094089
1417.0, 0.006817275943640652
1418.0, 0.007510416541029528
1419.0, 0.009575890325825755
1420.0, 0.00891227187619139
1421.0, 0.00964852793427223
1422.0, 0.008517408590920832
1423.0, 0.005596074900537535
1424.0, 0.009036387953660682
1425.0, 0.007629909843986929
1426.0, 0.010932326540641135
1427.0, 0.01210306845417147
1428.0, 0.011465620292149493
1429.0, 0.010398144547239493
1430.0, 0.00969282862968972
1431.0, 0.010910152365011637
1432.0, 0.01196488298354689
1433.0, 0.011222410378965243
1434.0, 0.010279074413884702
1435.0, 0.01046162001498004
1436.0, 0.01165020448154056
1437.0, 0.011150324060273623
1438.0, 0.016283621143366997
1439.0, 0.016135441052174647
1440.0, 0.01741750757161678
1441.0, 0.01874854228357543
1442.0, 0.01780129480864738
1443.0, 0.016978826833856212
1444.0, 0.01614609088194156
1445.0, 0.016914112948682208
1446.0, 0.019088768133310632
1447.0, 0.01950086973271735
1448.0, 0.018143926043244562
1449.0, 0.018360793311844415
1450.0, 0.020073612514217357
1451.0, 0.02180791174986336
1452.0, 0.019667020918919215
1453.0, 0.02116115488095759
1454.0, 0.023228659368018288
1455.0, 0.021258492117122073
1456.0, 0.024286216659226503
1457.0, 0.025226877621757685
1458.0, 0.021050985046250418
1459.0, 0.021960761084233095
1460.0, 0.02497443189171316
1461.0, 0.0246042501319675
1462.0, 0.020187785638430055
1463.0, 0.02325086181471933
1464.0, 0.01774991404251484
1465.0, 0.017200424989075723
1466.0, 0.01891527781901372
1467.0, 0.01824770081703574
1468.0, 0.015051089716025109
1469.0, 0.020443869473017687
1470.0, 0.014433425941287319
1471.0, 0.01439014964799446
1472.0, 0.01709639390398519
1473.0, 0.0181504346898916
1474.0, 0.015227172315990179
1475.0, 0.010525917083970656
1476.0, 0.015302125463622621
1477.0, 0.015900474152259134
1478.0, 0.01331629750295991
1479.0, 0.012433572944106085
1480.0, 0.013108455923101562
1481.0, 0.01209372705122269
1482.0, 0.010323293372520082
1483.0, 0.014187420164652636
1484.0, 0.011474685219660427
1485.0, 0.009680774428575517
1486.0, 0.00962192207767939
1487.0, 0.01015935456986738
1488.0, 0.010880168751498547
1489.0, 0.007711980097225378
1490.0, 0.014979913636383697
1491.0, 0.011395744225933164
1492.0, 0.007212514103964283
1493.0, 0.0065745236341839255
1494.0, 0.007314732367135377
1495.0, 0.01010906444316308
1496.0, 0.010248012712112713
1497.0, 0.007274886339390716
1498.0, 0.007358650380519059
1499.0, 0.00619672013724302
1500.0, 0.0037607846507295628
1501.0, 0.005359796842886887
1502.0, 0.0007042288657165704
1503.0, 0.0051115198286714614
1504.0, 0.002922025342930153
1505.0, 0.00178394969282532
1506.0, 0.004276725756380584
1507.0, 0.007145299656613192
1508.0, 0.0047820666567434415
1509.0, 0.0025887582638416625
1510.0, 0.004370313617970383
1511.0, 0.004405534577190837
1512.0, 0.003486625542580938
1513.0, 0.0037280417193048523
1514.0, 0.005242609445648645
1515.0, 0.0027323209303776095
1516.0, 0.0014566136917266931
1517.0, 0.0010028910364524941
1518.0, 0.00317682492142888
1519.0, 0.002999407917150003
1520.0, 0.0003328653319443721
1521.0, 0.0012934004860450884
1522.0, 0.0015954716454300972
1523.0, 0.0003098368204684206
1524, 0.0
1525, 0.0
1526, 0.0
1527, 0.0
1528, 0.0
1529, 0.0
1530, 0.0
1531, 0.0
1532, 0.0
1533, 0.0
1534, 0.0
1535, 0.0
1536, 0.0
1537, 0.0
1538, 0.0
1539, 0.0
1540, 0.0
1541, 0.0
1542, 0.0
1543, 0.0
1544, 0.0
1545, 0.0
1546, 0.0
1547, 0.0
1548, 0.0
1549, 0.0
1550, 0.0
1551, 0.0
1552, 0.0
1553, 0.0
1554, 0.0
1555, 0.0
1556, 0.0
1557, 0.0
1558, 0.0
1559, 0.0
1560, 0.0
1561, 0.0
1562, 0.0
1563, 0.0
1564, 0.0
1565, 0.0
1566, 0.0
1567, 0.0
1568, 0.0
1569, 0.0
1570, 0.0
1571, 0.0
1572, 0.0
1573, 0.0
1574, 0.0
1575, 0.0
1576, 0.0
1577, 0.0
1578, 0.0
1579, 0.0
1580, 0.0
1581, 0.0
1582, 0.0
1583, 0.0
1584, 0.0
1585, 0.0
1586, 0.0
1587, 0.0
1588, 0.0
1589, 0.0
1590, 0.0
1591, 0.0
1592, 0.0
1593, 0.0
1594, 0.0
1595, 0.0
1596, 0.0
1597, 0.0
1598, 0.0
1599, 0.0
