30, 0.0
31, 0.0
32, 0.0
33, 0.0
34, 0.0
35, 0.0
36, 0.0
37, 0.0
38, 0.0
39, 0.0
40, 0.0
41, 0.0
42, 0.0
43, 0.0
44, 0.0
45, 0.0
46, 0.0
47, 0.0
48, 0.0
49, 0.0
50, 0.0
51, 0.0
52, 0.0
53, 0.0
54, 0.0
55, 0.0
56, 0.0
57, 0.0
58, 0.0
59, 0.0
60, 0.0
61, 0.0
62, 0.0
63, 0.0
64, 0.0
65, 0.0
66, 0.0
67, 0.0
68, 0.0
69, 0.0
70, 0.0
71, 0.0
72, 0.0
73, 0.0
74, 0.0
75, 0.0
76, 0.0
77, 0.0
78, 0.0
79, 0.0
80, 0.0
81, 0.0
82, 0.0
83, 0.0
84, 0.0
85, 0.0
86, 0.0
87, 0.0
88, 0.0
89, 0.0
90, 0.0
91, 0.0
92, 0.0
93, 0.0
94, 0.0
95, 0.0
96, 0.0
97, 0.0
98, 0.0
99, 0.0
100, 0.0
101, 0.0
102, 0.0
103, 0.0
104, 0.0
105, 0.0
106, 0.0
107, 0.0
108, 0.0
109, 0.0
110, 0.0
111, 0.0
112, 0.0
113, 0.0
114, 0.0
115, 0.0
116, 0.0
117, 0.0
118, 0.0
119, 0.0
120, 0.0
121, 0.0
122, 0.0
123, 0.0
124, 0.0
125, 0.0
126, 0.0
127, 0.0
128, 0.0
129, 0.0
130, 0.0
131, 0.0
132, 0.0
133, 0.0
134, 0.0
135, 0.0
136, 0.0
137, 0.0
138, 0.0
139, 0.0
140, 0.0
141, 0.0
142, 0.0
143, 0.0
144, 0.0
145, 0.0
146, 0.0
147, 0.0
148, 0.0
149, 0.0
150, 0.0
151, 0.0
152, 0.0
153, 0.0
154, 0.0
155, 0.0
156, 0.0
157, 0.0
158, 0.0
159, 0.0
160, 0.0
161, 0.0
162, 0.0
163, 0.0
164, 0.0
165, 0.0
166, 0.0
167, 0.0
168, 0.0
169.0, 0.014080429536582954
170.0, 0.0015533866128973983
171.0, 0.04244977383601973
172.0, 0.048662511674647184
173.0, 0.07047298000059629
174.0, 0.09976536161246943
175.0, 0.13287005168396512
176.0, 0.1840722307248527
177.0, 0.23341880715097651
178.0, 0.29079154126473217
179.0, 0.3474908897846549
180.0, 0.39069545844892145
181.0, 0.42242294601530517
182.0, 0.4575886484158209
183.0, 0.4797930588389459
184.0, 0.4915152664973585
185.0, 0.5191748915309599
186.0, 0.5759993005007688
187.0, 0.6442534138813664
188.0, 0.701783732201101
189.0, 0.7459295982133075
190.0, 0.8184287061447069
191.0, 0.8795579641361039
192.0, 0.9343692762167395
193.0, 0.9765608858449323
194.0, 0.9809791923092457
195.0, 0.9326644141055884
196.0, 0.8519317999681247
197.0, 0.7595530266499083
198.0, 0.7028303543768745
199.0, 0.6922004773109766
200.0, 0.6164689866579214
201.0, 0.5391034320906983
202.0, 0.4942652985427627
203.0, 0.4622495307784698
204.0, 0.4278928710784699
205.0, 0.3767823825916727
206.0, 0.34664193007084476
207.0, 0.33743901289036454
208.0, 0.31229215667001964
209.0, 0.3085048341431272
210.0, 0.2885417404286165
211.0, 0.27262756827053086
212.0, 0.2803552497403669
213.0, 0.25342303039269476
214.0, 0.22418166028101902
215.0, 0.19715022129254675
216.0, 0.16493381309273675
217.0, 0.12064601444406636
218.0, 0.08550075586589724
219.0, 0.06663680780594715
220.0, 0.05006092915910164
221.0, 0.031052519269442937
222.0, 0.026680658844608136
223.0, 0.021211010371560094
224.0, 0.007880518229400252
225.0, 0.005997413128245795
226.0, 0.011109142536756515
227.0, 0.05203337278060396
228.0, 0.019086968468623854
229.0, 0.004459764541763686
230.0, 0.021670012859650475
231.0, 0.03232061648711304
232.0, 0.020949983724325397
233.0, 0.0065727493520208805
234.0, 0.004221103499184111
235.0, 0.009303526319990403
236.0, 0.003840121647343535
237.0, 0.022036699101273635
238.0, 0.022917744339671253
239.0, 0.01698951419638166
240.0, 0.02587368931056242
241.0, 0.034375528988044524
242.0, 0.05135766333156272
243.0, 0.06197608033546855
244.0, 0.05902724870149927
245.0, 0.05645849385755804
246.0, 0.08339165743086838
247.0, 0.103256708589841
248.0, 0.10851326039139143
249.0, 0.09227392414358888
250.0, 0.0611318999623734
251.0, 0.07975580198689113
252.0, 0.09465023210343868
253.0, 0.08902668798276565
254.0, 0.0785312734709915
255.0, 0.0858053617584424
256.0, 0.0727983997267666
257.0, 0.04019929564700393
258.0, 0.019578989324873196
259.0, 0.029436823360030236
260.0, 0.05314989691439449
261.0, 0.03163034154282778
262.0, 0.019602370657341543
263.0, 0.014354698841193473
264.0, 0.0020203934228259484
265.0, 0.013417717628643178
266.0, 0.012134287497101479
267.0, 0.00740984044653475
268.0, 0.012105571855888153
269.0, 0.015294929578405479
270.0, 0.008602915588921022
271.0, 0.013600422502427666
272.0, 0.010841890145738716
273.0, 0.0013501235078089134
274.0, 0.0029346842889177815
275.0, 0.012165684568903387
276.0, 0.018431520778116803
277.0, 0.003429943941738448
278.0, 0.022376949710748557
279.0, 0.02104763877598588
280.0, 0.03560352150261539
281.0, 0.04360021670405641
282.0, 0.02518446312116931
283.0, 0.007466670374971416
284.0, 0.04202747647341749
285.0, 0.06576244266019748
286.0, 0.08018102695015789
287.0, 0.08371220045998232
288.0, 0.07702114354117062
289.0, 0.07757014500192273
290.0, 0.08513960090227884
291.0, 0.09378995235588772
292.0, 0.10214501058020055
293.0, 0.10852952249318416
294.0, 0.11192400242867083
295.0, 0.12179963545921539
296.0, 0.13169721940091794
297.0, 0.1415476713737451
298.0, 0.14451665702361066
299.0, 0.12722571743079672
300.0, 0.12966592424676734
301.0, 0.131425882478859
302.0, 0.12799139853398306
303.0, 0.12655860491544996
304.0, 0.13676927309904915
305.0, 0.1392589950114698
306.0, 0.13852572779749966
307.0, 0.14218448562677377
308.0, 0.1505606084963662
309.0, 0.15050419059139108
310.0, 0.15680422268549002
311.0, 0.1736440600362261
312.0, 0.18332482283826693
313.0, 0.17783733696715526
314.0, 0.17717228276955055
315.0, 0.16086493051539444
316.0, 0.16108262862878128
317.0, 0.18883053327753824
318.0, 0.22143164567839851
319.0, 0.20589587882590407
320.0, 0.1955757186988733
321.0, 0.18951930161436636
322.0, 0.20942629239361923
323.0, 0.25552203776338533
324.0, 0.26393211459856547
325.0, 0.29111900079362857
326.0, 0.3408128986476632
327.0, 0.3864744657083803
328.0, 0.40508525239929066
329.0, 0.40276634822084645
330.0, 0.4516929401761867
331.0, 0.514817829119904
332.0, 0.5886087109840823
333.0, 0.6683587460985859
334.0, 0.7307885626965824
335.0, 0.7875612513989556
336.0, 0.8410537148165218
337.0, 0.884950185621431
338.0, 0.9281519490033814
339.0, 0.981599371779251
340.0, 0.9469945973739461
341.0, 0.9779560270113644
342.0, 0.9892600171274426
343.0, 0.9480675308207909
344.0, 0.9196275037073139
345.0, 0.8673950433342169
346.0, 0.8241927638807751
347.0, 0.7613862995232334
348.0, 0.6998111015317008
349.0, 0.6785833944420413
350.0, 0.6288756862538769
351.0, 0.5928494471855472
352.0, 0.5478883589811364
353.0, 0.5018562262268486
354.0, 0.47649373468397715
355.0, 0.4583281311158402
356.0, 0.4389610233648764
357.0, 0.4486248589317469
358.0, 0.4557998435009214
359.0, 0.4294040746843018
360.0, 0.44747128118871743
361.0, 0.46561009613421944
362.0, 0.4959921169654688
363.0, 0.5189515979821572
364.0, 0.519323902298475
365.0, 0.5360170728595721
366.0, 0.5524228119818164
367.0, 0.5739039485314451
368.0, 0.592509734542408
369.0, 0.5915016675517666
370.0, 0.5741170686409106
371.0, 0.5895278687725231
372.0, 0.5779887991380115
373.0, 0.5606410146206844
374.0, 0.5578879693084503
375.0, 0.5601537292792885
376.0, 0.5445015249156323
377.0, 0.5548744748400941
378.0, 0.5756511928171791
379.0, 0.5843875565654676
380.0, 0.5800357952032474
381.0, 0.5879786148243629
382.0, 0.5970982327644411
383.0, 0.5971471342313216
384.0, 0.5993098416913514
385.0, 0.6181250224796466
386.0, 0.6469464752145995
387.0, 0.6305109794837127
388.0, 0.562181178620353
389.0, 0.5131481946854631
390.0, 0.4842348531450822
391.0, 0.42932497467146863
392.0, 0.3786558328980906
393.0, 0.3309328371253843
394.0, 0.3016107047710835
395.0, 0.26922898411570634
396.0, 0.22051521054755271
397.0, 0.19365707174024357
398.0, 0.14590305169465978
399.0, 0.10951865713206377
400.0, 0.0846173608584119
401.0, 0.07063985548708672
402.0, 0.07581585571863877
403.0, 0.06425239790670757
404.0, 0.05372212269141485
405.0, 0.038154178461077305
406.0, 0.020218325677228505
407.0, 0.008091290856857851
408.0, 0.00515561602003063
409.0, 0.007756399743818657
410.0, 0.0158182918914909
411.0, 0.008190222893669535
412.0, 0.002989784113854441
413.0, 0.004914686639554931
414.0, 0.010018092006898101
415.0, 0.001803070264915012
416.0, 0.010448805993431235
417.0, 0.012814645081475229
418.0, 0.013346718813882573
419.0, 0.01372227742964014
420.0, 0.0287975839371197
421.0, 0.026038398967507148
422.0, 0.020211957672186982
423.0, 0.022686099020926023
424.0, 0.00567825605392144
425.0, 0.013576569241528856
426.0, 0.0026774435931992227
427.0, 0.021150987993216228
428.0, 0.025529228025317863
429.0, 0.017061368367874363
430.0, 0.010226515173682007
431.0, 0.007801521333009155
432.0, 0.008826586472410317
433.0, 0.012235240885963066
434.0, 0.007045317107999766
435.0, 0.0014631604832797472
436.0, 0.0034231200018807304
437.0, 0.0062880937525364115
438.0, 0.02230604171241081
439.0, 0.029562983842182578
440.0, 0.02029430612867298
441.0, 0.025594684791155592
442.0, 0.04521519591516485
443.0, 0.058213461626190594
444.0, 0.039461142654828155
445.0, 0.00966586403526588
446.0, 0.033117265518025074
447.0, 0.041222466908656635
448.0, 0.03550398078607038
449.0, 0.03414195673917225
450.0, 0.029586750548556164
451.0, 0.016612369780862963
452.0, 0.037710628246892926
453.0, 0.0668046338913279
454.0, 0.04237843426372764
455.0, 0.024605432865195242
456.0, 0.04979451038159251
457.0, 0.06889440102655257
458.0, 0.07460329966986153
459.0, 0.06191689631129609
460.0, 0.06658898120648254
461.0, 0.07426077050774395
462.0, 0.06409847885927675
463.0, 0.061579379242208285
464.0, 0.0694144137229888
465.0, 0.08379394724132316
466.0, 0.09707094771882581
467.0, 0.09945256881546183
468.0, 0.08410134864297808
469.0, 0.07551140988958988
470.0, 0.06243622374773062
471.0, 0.06962299579758456
472.0, 0.0740227503781863
473.0, 0.06598267578109009
474.0, 0.07299202539934863
475.0, 0.09049884026669328
476.0, 0.08822853480766985
477.0, 0.0734064561650715
478.0, 0.04277168260209281
479.0, 0.013509628995916836
480.0, 0.023619071914060492
481.0, 0.061784773997309854
482.0, 0.052534218988180614
483.0, 0.03965910674516574
484.0, 0.04062844762458785
485.0, 0.051228299419900446
486.0, 0.07777390891385856
487.0, 0.0759371450049604
488.0, 0.06784025879434459
489.0, 0.07429818573807334
490.0, 0.10062043251495839
491.0, 0.13239993898368965
492.0, 0.14642221367484284
493.0, 0.14006731237172979
494.0, 0.17918145744124367
495.0, 0.21941721254740573
496.0, 0.2311654938793055
497.0, 0.23341656523196314
498.0, 0.27290173700659176
499.0, 0.2660261519997681
500.0, 0.2491567541663351
501.0, 0.22957415552051683
502.0, 0.2094281420295102
503.0, 0.19573423223597472
504.0, 0.17792889593912822
505.0, 0.14216538915303945
506.0, 0.13104208120142802
507.0, 0.12796056733361566
508.0, 0.10853314793689192
509.0, 0.07039694848228757
510.0, 0.06038028832416749
511.0, 0.06674799449414788
512.0, 0.06108707193661519
513.0, 0.06076053129969366
514.0, 0.06784645183131376
515.0, 0.0648016009847539
516.0, 0.07157034595680659
517.0, 0.06517670163558544
518.0, 0.06907372190375338
519.0, 0.09576227578051792
520.0, 0.12104073513247053
521.0, 0.11496014774025291
522.0, 0.12292929138747564
523.0, 0.14071589159828363
524.0, 0.16787992678873379
525.0, 0.206167923176275
526.0, 0.21711498377486915
527.0, 0.19753580077351773
528.0, 0.2599894098994374
529.0, 0.28548329806199685
530.0, 0.331029459712207
531.0, 0.36158615379874204
532.0, 0.399196323962012
533.0, 0.47570959912161953
534.0, 0.4833793861756109
535.0, 0.5410932032281092
536.0, 0.5882373070872516
537.0, 0.6517411666177235
538.0, 0.7172256310249363
539.0, 0.7648603169115817
540.0, 0.8403769997027514
541.0, 0.8820469392274377
542.0, 0.9001769759103798
543.0, 0.9301030075177706
544.0, 0.9299113958140943
545.0, 0.8936087298700491
546.0, 0.9037442904655724
547.0, 0.8773938040452063
548.0, 0.85381498837778
549.0, 0.8217255234169581
550.0, 0.8004400365782649
551.0, 0.771224861115001
552.0, 0.7028814196833599
553.0, 0.7015107991772431
554.0, 0.7008771657663584
555.0, 0.7155475000056642
556.0, 0.7135462742285786
557.0, 0.686824789456102
558.0, 0.6755534971357731
559.0, 0.7022628357089262
560.0, 0.691166042501573
561.0, 0.7113256318086137
562.0, 0.7060350102692412
563.0, 0.6809520972549978
564.0, 0.6744803344668715
565.0, 0.6533552199230221
566.0, 0.6184664071641447
567.0, 0.5868744764452452
568.0, 0.5650026508726529
569.0, 0.5494157334045443
570.0, 0.53340038152476
571.0, 0.5125026970501133
572.0, 0.4868536449336716
573.0, 0.47004443913560795
574.0, 0.4389434191896309
575.0, 0.4130139068448335
576.0, 0.3936195501842095
577.0, 0.36750526129901434
578.0, 0.3637539638959425
579.0, 0.34056202062986735
580.0, 0.32134062858447254
581.0, 0.29812145970283715
582.0, 0.27598093187390477
583.0, 0.26365468826692084
584.0, 0.2443149865182541
585.0, 0.22542638113689498
586.0, 0.20593585810130136
587.0, 0.1864498932907593
588.0, 0.17374270898041172
589.0, 0.16128220083475428
590.0, 0.13438344177906295
591.0, 0.10259007849974912
592.0, 0.09605333964093468
593.0, 0.08797692191395941
594.0, 0.0744486845753122
595.0, 0.06294747289635941
596.0, 0.06191560556088059
597.0, 0.0694532585416486
598.0, 0.045918255246382454
599.0, 0.0357982531855802
600.0, 0.02466558148651578
601.0, 0.03854803225611441
602.0, 0.05496473997353844
603.0, 0.0010302091055858198
604.0, 0.014490182138190557
605.0, 0.010586544033784763
606.0, 0.002170337866210029
607.0, 0.012304987685488513
608.0, 0.011275148563146964
609.0, 0.0013331306352092176
610.0, 0.0030152427655685023
611.0, 0.0258824368016643
612.0, 0.006017211486095235
613.0, 0.014701760980452054
614.0, 0.016083451894425452
615.0, 0.0024912584007693163
616.0, 0.004641746263695212
617.0, 0.01879550374674039
618.0, 0.0031398052655142884
619.0, 0.016732530994045976
620.0, 0.014823199422376533
621.0, 0.02045181698268943
622.0, 0.02286941192055721
623.0, 0.0030359836030894073
624.0, 0.0006319279006649849
625.0, 0.007405690638545916
626.0, 0.007632762314873793
627.0, 0.007144937256915993
628.0, 0.0027509244083518346
629.0, 0.0019121995087799581
630.0, 0.013727987580825194
631.0, 0.004190114700651171
632.0, 0.020248647083192586
633.0, 0.007188238092298046
634.0, 0.0068828667117724045
635.0, 0.01731221289139195
636.0, 0.00531427707144572
637.0, 0.003001247725920564
638.0, 0.029101735764416548
639.0, 0.033469788860461536
640.0, 0.016444581553030177
641.0, 0.02409800053246578
642.0, 0.04166093835788583
643.0, 0.038357674812663264
644.0, 0.039698992896345354
645.0, 0.06744674882720278
646.0, 0.05266396558478546
647.0, 0.050161959446499794
648.0, 0.050672197123925664
649.0, 0.04202142952471035
650.0, 0.04289657993859232
651.0, 0.04692866568160181
652.0, 0.07742506908224675
653.0, 0.06315649150137465
654.0, 0.049529176106561136
655.0, 0.07805891342031465
656.0, 0.103897384375894
657.0, 0.0774637956959894
658.0, 0.08081930643854202
659.0, 0.08542824491909212
660.0, 0.09383829129299587
661.0, 0.10571860546934116
662.0, 0.12428132317617559
663.0, 0.14918850387411883
664.0, 0.16339711164135934
665.0, 0.14722628870094034
666.0, 0.15115803684011772
667.0, 0.20049938969880268
668.0, 0.2302300731090806
669.0, 0.23751155993546
670.0, 0.24856950700926908
671.0, 0.2720635803386606
672.0, 0.29898462818354204
673.0, 0.29916671960240027
674.0, 0.326130829160516
675.0, 0.35324146704395576
676.0, 0.3576636026268007
677.0, 0.34748217418114113
678.0, 0.3344314646079123
679.0, 0.31301128938902756
680.0, 0.2905788980804251
681.0, 0.28074222340551147
682.0, 0.2563490326629862
683.0, 0.21740714486236756
684.0, 0.18996578929714175
685.0, 0.1751433907389679
686.0, 0.1454701584071177
687.0, 0.12902332041718048
688.0, 0.11815869170087785
689.0, 0.11956888812321298
690.0, 0.09918220390405932
691.0, 0.07113321384600814
692.0, 0.05650737891731965
693.0, 0.05854970431304707
694.0, 0.08361593946829622
695.0, 0.08038939440463837
696.0, 0.06510811434691977
697.0, 0.07695002909425215
698.0, 0.06209235110027546
699.0, 0.05624908440959723
700.0, 0.07063593414000348
701.0, 0.04422723900791826
702.0, 0.04863230978809003
703.0, 0.05226060391514371
704.0, 0.035590590550003846
705.0, 0.03014483320785647
706.0, 0.03271033793615791
707.0, 0.030806555329984
708.0, 0.03288690054081807
709.0, 0.04434849420425449
710.0, 0.05236318154616676
711.0, 0.023589449655278465
712.0, 0.038794880593774714
713.0, 0.044497660555171
714.0, 0.02343391137763155
715.0, 0.02527864899290819
716.0, 0.04803402885560934
717.0, 0.045026262298899035
718.0, 0.04327972811096307
719.0, 0.04713325314989525
720.0, 0.05008192827973406
721.0, 0.03687703310049138
722.0, 0.02330399119950502
723.0, 0.0354043663582732
724.0, 0.05441316897872033
725.0, 0.0577689915413731
726.0, 0.046604811744801605
727.0, 0.041145830903008995
728.0, 0.03732655390164523
729.0, 0.03635868070527932
730.0, 0.04005851373330826
731.0, 0.0426371168422367
732.0, 0.042358362979784084
733.0, 0.050486787305796595
734.0, 0.037603337292803685
735.0, 0.03733832879549971
736.0, 0.05337279165092738
737.0, 0.053833055509243645
738.0, 0.0393713772208098
739.0, 0.03895792946410756
740.0, 0.045301137013457865
741.0, 0.03542473093162202
742.0, 0.024606234366295027
743.0, 0.015396545868059804
744.0, 0.011479913484430919
745.0, 0.02708108154004894
746.0, 0.05117274266930631
747.0, 0.051515550059396766
748.0, 0.036515706616167015
749.0, 0.03297371633006148
750.0, 0.048071044313950255
751.0, 0.06642446915135826
752.0, 0.07632757118659048
753.0, 0.0752558271481066
754.0, 0.06605694206114228
755.0, 0.05537659810601983
756.0, 0.05365544488919175
757.0, 0.06166166916898959
758.0, 0.0545788805722321
759.0, 0.04626131347252732
760.0, 0.038461730499478534
761.0, 0.03763278712543805
762.0, 0.028829122530117275
763.0, 0.005209982237307702
764.0, 0.010786702708711581
765.0, 0.017001800104096243
766.0, 0.022514880415006933
767.0, 0.03603805961192179
768.0, 0.056530276194372855
769.0, 0.049885620665597735
770.0, 0.021539127597224164
771.0, 0.021084963272693127
772.0, 0.03117106263620799
773.0, 0.0032967685562894466
774.0, 0.049471635200391384
775.0, 0.047532881854287036
776.0, 0.026476284445628138
777.0, 0.02090322382894968
778.0, 0.025498195029055207
779.0, 0.027951155558563586
780.0, 0.008795898863769185
781.0, 0.0056280753862407
782.0, 0.008009273152488339
783.0, 0.00425393660395577
784.0, 0.02064561952854337
785.0, 0.020061447095566207
786.0, 0.003983836730459741
787.0, 0.01302971809485919
788.0, 0.024761115546769654
789.0, 0.0148664273133628
790.0, 0.0002321085007554605
791.0, 0.021817188345231883
792.0, 0.008329377413644557
793.0, 0.008313309565401009
794.0, 0.024774727656319193
795.0, 0.01651051493909386
796.0, 0.01385793861814246
797.0, 0.02460807629829064
798.0, 0.007887463775789244
799.0, 0.002284310840789098
800.0, 0.014251723394004774
801.0, 0.022728972900660935
802.0, 0.00728855190982993
803.0, 0.001978322201940356
804.0, 0.019502095289465067
805.0, 0.02668639407599266
806.0, 0.002988584059943994
807.0, 0.008066472279509655
808.0, 0.008905425209994152
809.0, 0.012371920916771431
810.0, 0.02269432104297965
811.0, 0.01017782925314596
812.0, 0.010277370376647783
813.0, 0.008949794227170236
814.0, 0.027318697095660902
815.0, 0.006333935166472977
816.0, 0.01568260338741261
817.0, 0.0012147321476483636
818.0, 0.003102277774250579
819.0, 0.02051034021088482
820.0, 0.03582057194104681
821.0, 0.02906406858164299
822.0, 0.010948446262866281
823.0, 0.02386155535129658
824.0, 0.009665892288790796
825.0, 0.009991488287053183
826.0, 0.018961176954815955
827.0, 0.01810694908487153
828.0, 0.014765987017738976
829.0, 0.00910342737699419
830.0, 0.013257791797186214
831.0, 0.028409080186450837
832.0, 0.015887733401550436
833.0, 0.015994148341147832
834.0, 0.005051725419547856
835.0, 0.007439276110275868
836.0, 0.01869839868611735
837.0, 0.014677435694888665
838.0, 0.017509251997662355
839.0, 0.025253985961063482
840.0, 0.023145084878672055
841.0, 0.020971612064825416
842.0, 0.02191418356909257
843.0, 0.06211015691609128
844.0, 0.0805221132073163
845.0, 0.05884824698498184
846.0, 0.03758054375099599
847.0, 0.06301964846784598
848.0, 0.09535829860397232
849.0, 0.0768034990591519
850.0, 0.05720229208640819
851.0, 0.07515718031586194
852.0, 0.09437579235272268
853.0, 0.09148503815446683
854.0, 0.12397349970522005
855.0, 0.14256733596101803
856.0, 0.138708775414642
857.0, 0.1484253205730815
858.0, 0.17479786422396418
859.0, 0.1863505162755593
860.0, 0.20772747890512863
861.0, 0.2313525808158897
862.0, 0.23594391567061154
863.0, 0.25027693362491915
864.0, 0.26509298223115446
865.0, 0.2500089534690928
866.0, 0.2633888103818256
867.0, 0.28704393342570483
868.0, 0.2523049386432334
869.0, 0.23933560247128624
870.0, 0.23924264678846338
871.0, 0.2388066056459122
872.0, 0.2454752392927213
873.0, 0.19675441780586947
874.0, 0.167001649641918
875.0, 0.16265973566549494
876.0, 0.16422987680379145
877.0, 0.14302262030953006
878.0, 0.09705444901027951
879.0, 0.10099466569483563
880.0, 0.11383899689252817
881.0, 0.1315257864893514
882.0, 0.11783935285811659
883.0, 0.0948602268839771
884.0, 0.0869675823073203
885.0, 0.08775697279376983
886.0, 0.08428169280745029
887.0, 0.0780193950998997
888.0, 0.08013565523560279
889.0, 0.07642437526661375
890.0, 0.03185928135376336
891.0, 0.049606199117337095
892.0, 0.05627131902180343
893.0, 0.05464139672354871
894.0, 0.04396253116114412
895.0, 0.0481833524381658
896.0, 0.05947602476599934
897.0, 0.06395848920095738
898.0, 0.056944848164422385
899.0, 0.030252525815780994
900.0, 0.060002751474527466
901.0, 0.04013554801439729
902.0, 0.018119944519343567
903.0, 0.02853846652714547
904.0, 0.02857998250918653
905.0, 0.010628635080002918
906.0, 0.005092778889828011
907.0, 0.012956054206012674
908.0, 0.005452240392763732
909.0, 0.031272090008414334
910.0, 0.002837456612450703
911.0, 0.020251488206359004
912.0, 0.017475779288078204
913.0, 0.0022085680281812544
914.0, 0.008856028848514287
915.0, 0.0014493871318074336
916.0, 0.003739452496118051
917.0, 0.00931695689350939
918.0, 0.03181282251512236
919.0, 0.039962964561899225
920.0, 0.023509369973175293
921.0, 0.029380408881316416
922.0, 0.013886577200234555
923.0, 0.018978804265971844
924.0, 0.0014297698484807622
925.0, 0.010695328419801834
926.0, 0.019021007075787535
927.0, 0.018327607903130996
928.0, 0.017558089344143244
929.0, 0.020319087550814446
930.0, 0.03834115760800772
931.0, 0.043202281585767256
932.0, 0.021642731671174517
933.0, 0.03205402240184134
934.0, 0.05489142970598381
935.0, 0.04026357596197604
936.0, 0.03642502226929532
937.0, 0.03216733724202415
938.0, 0.0417576622166788
939.0, 0.06768787307800526
940.0, 0.07350777607652496
941.0, 0.08488256274479279
942.0, 0.11329788896483636
943.0, 0.10711228879802645
944.0, 0.14998766919788295
945.0, 0.15013595154748538
946.0, 0.1688945335657518
947.0, 0.1931108525827371
948.0, 0.2475569093190653
949.0, 0.30113894664786345
950.0, 0.32529222665646257
951.0, 0.3432500338197923
952.0, 0.35989279689057263
953.0, 0.3890174582713742
954.0, 0.37524877925900024
955.0, 0.40202892855141203
956.0, 0.4230657114761624
957.0, 0.40410325555519283
958.0, 0.41292538588592337
959.0, 0.4020949655286054
960.0, 0.39010605845270735
961.0, 0.4197192407054107
962.0, 0.4337080616637952
963.0, 0.40769598608905633
964.0, 0.4148373537984028
965.0, 0.44744535324358115
966.0, 0.49618434184009325
967.0, 0.5256136405604551
968.0, 0.5011747671950602
969.0, 0.5364736300640716
970.0, 0.5601588494057029
971.0, 0.5313279157853941
972.0, 0.5085085928945686
973.0, 0.49796223274285656
974.0, 0.4589948607142967
975.0, 0.4093214091173122
976.0, 0.3746670887287473
977.0, 0.3337840847644043
978.0, 0.2662168835436995
979.0, 0.23546596717615745
980.0, 0.22324391614239802
981.0, 0.1728528995484987
982.0, 0.162429370509188
983.0, 0.16622596214918856
984.0, 0.14882355235366676
985.0, 0.13528063635411136
986.0, 0.13092649480466345
987.0, 0.1138614881057311
988.0, 0.09084077638455075
989.0, 0.07006098335372712
990.0, 0.06498269381516322
991.0, 0.06623585091227978
992.0, 0.04007878125634558
993.0, 0.03406719925195386
994.0, 0.05069225433424125
995.0, 0.04963476532762379
996.0, 0.034183878236278276
997.0, 0.017517437975449707
998.0, 0.0038801636529097795
999.0, 0.010443957232805362
1000.0, 0.024384446987415292
1001.0, 0.0012551837882960415
1002.0, 0.007897031527331344
1003.0, 0.016542279170395198
1004.0, 0.013473931865817175
1005.0, 0.003576088226623418
1006.0, 0.005535800194411145
1007.0, 0.0033927127093428106
1008.0, 0.004313043348993007
1009.0, 0.021118778181911987
1010.0, 0.023471471429791908
1011.0, 0.014013813801857167
1012.0, 0.02236755490870968
1013.0, 0.030163353054829842
1014.0, 0.027769795165942343
1015.0, 0.038554780883361985
1016.0, 0.04408888406205067
1017.0, 0.05612883102105129
1018.0, 0.06322724409647998
1019.0, 0.055421596573459804
1020.0, 0.06919887153137981
1021.0, 0.06371445383767141
1022.0, 0.052308092324783374
1023.0, 0.06002108537932825
1024.0, 0.07802955927354971
1025.0, 0.07789655467717106
1026.0, 0.05205873055676196
1027.0, 0.045327307413420365
1028.0, 0.07317110069062287
1029.0, 0.08447011111406039
1030.0, 0.09227604063533035
1031.0, 0.09314180433851336
1032.0, 0.07951696913951585
1033.0, 0.10073730767675575
1034.0, 0.11909813008419715
1035.0, 0.12954848611750247
1036.0, 0.14205549401544804
1037.0, 0.15804649169043555
1038.0, 0.17569944652534233
1039.0, 0.22273690044139743
1040.0, 0.27624801022741236
1041.0, 0.24818085167189136
1042.0, 0.24239516950031534
1043.0, 0.25852254709708317
1044.0, 0.26964256262355024
1045.0, 0.24441585648897
1046.0, 0.1757477379121705
1047.0, 0.18803480233288378
1048.0, 0.1777913112014111
1049.0, 0.1576442876677497
1050.0, 0.11608977768686982
1051.0, 0.09711143585304707
1052.0, 0.08752513211392396
1053.0, 0.06726772807360022
1054.0, 0.06780372746562789
1055.0, 0.06008560523917062
1056.0, 0.06764579750849603
1057.0, 0.04871710122539761
1058.0, 0.056154508958242526
1059.0, 0.03932316037759249
1060.0, 0.03715504861398516
1061.0, 0.0412684273731805
1062.0, 0.027813229724342046
1063.0, 0.029316173301097325
1064.0, 0.028641581460721443
1065.0, 0.03646274646833973
1066.0, 0.047151248231942056
1067.0, 0.02938572348839387
1068.0, 0.008898208437756863
1069.0, 0.02820516048176833
1070.0, 0.04019776291635113
1071.0, 0.012683537400164847
1072.0, 0.04919568034551587
1073.0, 0.052829970560026855
1074.0, 0.028169933443220777
1075.0, 0.0326785365654372
1076.0, 0.028294394105343085
1077.0, 0.01776182270521342
1078.0, 0.01378965336220669
1079.0, 0.0390248549490383
1080.0, 0.05348185019596676
1081.0, 0.027999764868186207
1082.0, 0.026331702229707418
1083.0, 0.0382510021067896
1084.0, 0.01817116832139519
1085.0, 0.017520784228981755
1086.0, 0.03690708427164883
1087.0, 0.005607770109460792
1088.0, 0.01164499226355985
1089.0, 0.033103726734342455
1090.0, 0.05508087741987508
1091.0, 0.008405672878458222
1092.0, 0.038945338775074306
1093.0, 0.008185405816405637
1094.0, 0.015183811978499873
1095.0, 0.026644179240433948
1096.0, 0.010781608820835209
1097.0, 0.01064930486886263
1098.0, 0.00472051894967972
1099.0, 0.007237523594702776
1100.0, 0.01967274310845246
1101.0, 0.009510378220974586
1102.0, 0.002720531193316616
1103.0, 0.009802404340647866
1104.0, 0.011000068207125261
1105.0, 0.019626846987281107
1106.0, 0.009502251447852588
1107.0, 0.01446838828181583
1108.0, 0.008456957377019202
1109.0, 0.022657930754482275
1110.0, 0.037737765336415624
1111.0, 0.017748269187066082
1112.0, 0.038832990537327076
1113.0, 0.038894465610667436
1114.0, 0.03209949924255604
1115.0, 0.03862183800051603
1116.0, 0.039802748611130784
1117.0, 0.03431817197861894
1118.0, 0.020721850406154825
1119.0, 0.00880120096724974
1120.0, 0.025159536758136807
1121.0, 0.037994637235499645
1122.0, 0.033531181508591267
1123.0, 0.0321760528104255
1124.0, 0.01602226733155815
1125.0, 0.01971377458068297
1126.0, 0.025876875971157745
1127.0, 0.05547430851598903
1128.0, 0.026544755082212733
1129.0, 0.008217616548511122
1130.0, 0.02057293362628371
1131.0, 0.01692554022889146
1132.0, 0.02477953292740519
1133.0, 0.04239966046912383
1134.0, 0.034171193436947814
1135.0, 0.03760411083558172
1136.0, 0.037585455750501755
1137.0, 0.024308901930847993
1138.0, 0.0313746999270691
1139.0, 0.02960782870548809
1140.0, 0.010053768773937856
1141.0, 0.015547467330674736
1142.0, 0.028607460736975496
1143.0, 0.01224948666816561
1144.0, 0.015101422228132558
1145.0, 0.005355151783493001
1146.0, 0.016665197534191867
1147.0, 0.004886829585117919
1148.0, 0.004086408142344256
1149.0, 0.011174935264500214
1150.0, 0.021560899375653798
1151.0, 0.007718904677158118
1152.0, 0.0045871773313819865
1153.0, 0.01232635795527504
1154.0, 0.009058892138488317
1155.0, 0.00820018577510931
1156.0, 0.01650327684977416
1157.0, 0.01564204317592186
1158.0, 0.014822152616789305
1159.0, 0.006973761490792564
1160.0, 0.010876666178167594
1161.0, 0.013076587809030878
1162.0, 0.014680688153405902
1163.0, 0.01847079519996292
1164.0, 0.0013702481607435776
1165.0, 0.026068312593506112
1166.0, 0.01614525236234223
1167.0, 0.0279758283001506
1168.0, 0.021844091283565983
1169.0, 0.026133144852994554
1170.0, 0.011336893562531125
1171.0, 0.038299039002306426
1172.0, 0.031086768654597936
1173.0, 0.04463763879184286
1174.0, 0.034358011747326105
1175.0, 0.019887153241846953
1176.0, 0.014342454592933858
1177.0, 0.03450096164985844
1178.0, 0.03369287572727958
1179.0, 0.04844644298176827
1180.0, 0.052418375759869046
1181.0, 0.0398300725072492
1182.0, 0.06031226363340607
1183.0, 0.06771233525767095
1184.0, 0.06834044803856881
1185.0, 0.053986286078798525
1186.0, 0.07735602186818209
1187.0, 0.08976577810061927
1188.0, 0.08080234628982214
1189.0, 0.10549050949975287
1190.0, 0.10284057869966272
1191.0, 0.09482553696184401
1192.0, 0.07476333274846196
1193.0, 0.06948516092083963
1194.0, 0.06531981145755929
1195.0, 0.06853699032983286
1196.0, 0.07412952384696744
1197.0, 0.08026106225495354
1198.0, 0.06628804681334988
1199.0, 0.06946127401793277
1200.0, 0.03884978446527676
1201.0, 0.0428052089744629
1202.0, 0.027278193396774477
1203.0, 0.030957638535544084
1204.0, 0.04398043769160685
1205.0, 0.02588056770261224
1206.0, 0.026058340624477233
1207.0, 0.048688780521804656
1208.0, 0.05207827756320756
1209.0, 0.026403854423311238
1210.0, 0.013270340085630819
1211.0, 0.011972240186938538
1212.0, 0.0035223696474385472
1213.0, 0.004275144617176147
1214.0, 0.013597029133122659
1215.0, 0.03586867462449141
1216.0, 0.012593429691059465
1217.0, 0.021316728673049592
1218.0, 0.028728777308137176
1219.0, 0.03747356262517034
1220.0, 0.030057338172882565
1221.0, 0.04818090063604958
1222.0, 0.025544830691179583
1223.0, 0.03226502079174918
1224.0, 0.01123836006662239
1225.0, 0.017057612948529
1226.0, 0.04328791292259702
1227.0, 0.027821364810467823
1228.0, 0.0073691627816229194
1229.0, 0.03287322647453517
1230.0, 0.03319338306970457
1231.0, 0.005329586687250318
1232.0, 0.015435190953056715
1233.0, 0.01602966416485102
1234, 0.0
1235, 0.0
1236, 0.0
1237, 0.0
1238, 0.0
1239, 0.0
1240, 0.0
1241, 0.0
1242, 0.0
1243, 0.0
1244, 0.0
1245, 0.0
1246, 0.0
1247, 0.0
1248, 0.0
1249, 0.0
1250, 0.0
1251, 0.0
1252, 0.0
1253, 0.0
1254, 0.0
1255, 0.0
1256, 0.0
1257, 0.0
1258, 0.0
1259, 0.0
1260, 0.0
1261, 0.0
1262, 0.0
1263, 0.0
1264, 0.0
1265, 0.0
1266, 0.0
1267, 0.0
1268, 0.0
1269, 0.0
1270, 0.0
1271, 0.0
1272, 0.0
1273, 0.0
1274, 0.0
1275, 0.0
1276, 0.0
1277, 0.0
1278, 0.0
1279, 0.0
1280, 0.0
1281, 0.0
1282, 0.0
1283, 0.0
1284, 0.0
1285, 0.0
1286, 0.0
1287, 0.0
1288, 0.0
1289, 0.0
1290, 0.0
1291, 0.0
1292, 0.0
1293, 0.0
1294, 0.0
1295, 0.0
1296, 0.0
1297, 0.0
1298, 0.0
1299, 0.0
1300, 0.0
1301, 0.0
1302, 0.0
1303, 0.0
1304, 0.0
1305, 0.0
1306, 0.0
1307, 0.0
1308, 0.0
1309, 0.0
1310, 0.0
1311, 0.0
1312, 0.0
1313, 0.0
1314, 0.0
1315, 0.0
1316, 0.0
1317, 0.0
1318, 0.0
1319, 0.0
1320, 0.0
1321, 0.0
1322, 0.0
1323, 0.0
1324, 0.0
1325, 0.0
1326, 0.0
1327, 0.0
1328, 0.0
1329, 0.0
1330, 0.0
1331, 0.0
1332, 0.0
1333, 0.0
1334, 0.0
1335, 0.0
1336, 0.0
1337, 0.0
1338, 0.0
1339, 0.0
1340, 0.0
1341, 0.0
1342, 0.0
1343, 0.0
1344, 0.0
1345, 0.0
1346, 0.0
1347, 0.0
1348, 0.0
1349, 0.0
1350, 0.0
1351, 0.0
1352, 0.0
1353, 0.0
1354, 0.0
1355, 0.0
1356, 0.0
1357, 0.0
1358, 0.0
1359, 0.0
1360, 0.0
1361, 0.0
1362, 0.0
1363, 0.0
1364, 0.0
1365, 0.0
1366, 0.0
1367, 0.0
1368, 0.0
1369, 0.0
1370, 0.0
1371, 0.0
1372, 0.0
1373, 0.0
1374, 0.0
1375, 0.0
1376, 0.0
1377, 0.0
1378, 0.0
1379, 0.0
1380, 0.0
1381, 0.0
1382, 0.0
1383, 0.0
1384, 0.0
1385, 0.0
1386, 0.0
1387, 0.0
1388, 0.0
1389, 0.0
1390, 0.0
1391, 0.0
1392, 0.0
1393, 0.0
1394, 0.0
1395, 0.0
1396, 0.0
1397, 0.0
1398, 0.0
1399, 0.0
1400, 0.0
1401, 0.0
1402, 0.0
1403, 0.0
1404, 0.0
1405, 0.0
1406, 0.0
1407, 0.0
1408, 0.0
1409, 0.0
1410, 0.0
1411, 0.0
1412, 0.0
1413, 0.0
1414, 0.0
1415, 0.0
1416, 0.0
1417, 0.0
1418, 0.0
1419, 0.0
1420, 0.0
1421, 0.0
1422, 0.0
1423, 0.0
1424, 0.0
1425, 0.0
1426, 0.0
1427, 0.0
1428, 0.0
1429, 0.0
1430, 0.0
1431, 0.0
1432, 0.0
1433, 0.0
1434, 0.0
1435, 0.0
1436, 0.0
1437, 0.0
1438, 0.0
1439, 0.0
1440, 0.0
1441, 0.0
1442, 0.0
1443, 0.0
1444, 0.0
1445, 0.0
1446, 0.0
1447, 0.0
1448, 0.0
1449, 0.0
1450, 0.0
1451, 0.0
1452, 0.0
1453, 0.0
1454, 0.0
1455, 0.0
1456, 0.0
1457, 0.0
1458, 0.0
1459, 0.0
1460, 0.0
1461, 0.0
1462, 0.0
1463, 0.0
1464, 0.0
1465, 0.0
1466, 0.0
1467, 0.0
1468, 0.0
1469, 0.0
1470, 0.0
1471, 0.0
1472, 0.0
1473, 0.0
1474, 0.0
1475, 0.0
1476, 0.0
1477, 0.0
1478, 0.0
1479, 0.0
1480, 0.0
1481, 0.0
1482, 0.0
1483, 0.0
1484, 0.0
1485, 0.0
1486, 0.0
1487, 0.0
1488, 0.0
1489, 0.0
1490, 0.0
1491, 0.0
1492, 0.0
1493, 0.0
1494, 0.0
1495, 0.0
1496, 0.0
1497, 0.0
1498, 0.0
1499, 0.0
1500, 0.0
1501, 0.0
1502, 0.0
1503, 0.0
1504, 0.0
1505, 0.0
1506, 0.0
1507, 0.0
1508, 0.0
1509, 0.0
1510, 0.0
1511, 0.0
1512, 0.0
1513, 0.0
1514, 0.0
1515, 0.0
1516, 0.0
1517, 0.0
1518, 0.0
1519, 0.0
1520, 0.0
1521, 0.0
1522, 0.0
1523, 0.0
1524, 0.0
1525, 0.0
1526, 0.0
1527, 0.0
1528, 0.0
1529, 0.0
1530, 0.0
1531, 0.0
1532, 0.0
1533, 0.0
1534, 0.0
1535, 0.0
1536, 0.0
1537, 0.0
1538, 0.0
1539, 0.0
1540, 0.0
1541, 0.0
1542, 0.0
1543, 0.0
1544, 0.0
1545, 0.0
1546, 0.0
1547, 0.0
1548, 0.0
1549, 0.0
1550, 0.0
1551, 0.0
1552, 0.0
1553, 0.0
1554, 0.0
1555, 0.0
1556, 0.0
1557, 0.0
1558, 0.0
1559, 0.0
1560, 0.0
1561, 0.0
1562, 0.0
1563, 0.0
1564, 0.0
1565, 0.0
1566, 0.0
1567, 0.0
1568, 0.0
1569, 0.0
1570, 0.0
1571, 0.0
1572, 0.0
1573, 0.0
1574, 0.0
1575, 0.0
1576, 0.0
1577, 0.0
1578, 0.0
1579, 0.0
1580, 0.0
1581, 0.0
1582, 0.0
1583, 0.0
1584, 0.0
1585, 0.0
1586, 0.0
1587, 0.0
1588, 0.0
1589, 0.0
1590, 0.0
1591, 0.0
1592, 0.0
1593, 0.0
1594, 0.0
1595, 0.0
1596, 0.0
1597, 0.0
1598, 0.0
1599, 0.0
