30, 0.0
31, 0.0
32, 0.0
33, 0.0
34, 0.0
35, 0.0
36, 0.0
37, 0.0
38, 0.0
39, 0.0
40, 0.0
41, 0.0
42, 0.0
43, 0.0
44, 0.0
45, 0.0
46, 0.0
47, 0.0
48, 0.0
49, 0.0
50, 0.0
51, 0.0
52, 0.0
53, 0.0
54, 0.0
55, 0.0
56, 0.0
57, 0.0
58, 0.0
59, 0.0
60, 0.0
61, 0.0
62, 0.0
63, 0.0
64, 0.0
65, 0.0
66, 0.0
67, 0.0
68, 0.0
69, 0.0
70, 0.0
71, 0.0
72, 0.0
73, 0.0
74, 0.0
75, 0.0
76, 0.0
77, 0.0
78, 0.0
79, 0.0
80, 0.0
81, 0.0
82, 0.0
83, 0.0
84, 0.0
85, 0.0
86, 0.0
87, 0.0
88, 0.0
89, 0.0
90, 0.0
91, 0.0
92, 0.0
93, 0.0
94, 0.0
95, 0.0
96, 0.0
97, 0.0
98, 0.0
99, 0.0
100, 0.0
101, 0.0
102, 0.0
103, 0.0
104, 0.0
105, 0.0
106, 0.0
107, 0.0
108, 0.0
109, 0.0
110, 0.0
111, 0.0
112, 0.0
113, 0.0
114, 0.0
115, 0.0
116, 0.0
117, 0.0
118, 0.0
119, 0.0
120, 0.0
121, 0.0
122, 0.0
123, 0.0
124.0, 0.0005597346357340235
125.0, 0.00015262176631140157
126.0, 0.0017345995396774849
127.0, 0.0024590644880431514
128.0, 0.007450148807579146
129.0, 0.016283725400832866
130.0, 0.01930481135448382
131.0, 0.023339223010744366
132.0, 0.0296454532169128
133.0, 0.03668674996164535
134.0, 0.0396773415572158
135.0, 0.04739703716607977
136.0, 0.05549303341578793
137.0, 0.05991548796240122
138.0, 0.05964782126728887
139.0, 0.06551903171372943
140.0, 0.07114886324373475
141.0, 0.0713710716111356
142.0, 0.06745281824560376
143.0, 0.07200667271978355
144.0, 0.07152779361071797
145.0, 0.07128681603066721
146.0, 0.07931247054946125
147.0, 0.08251735421567327
148.0, 0.07934094437123182
149.0, 0.07421183918167595
150.0, 0.06874259625871672
151.0, 0.0669111650770858
152.0, 0.06269781084878807
153.0, 0.058428047343471276
154.0, 0.052942179367354326
155.0, 0.0458054873469338
156.0, 0.04201389277366101
157.0, 0.034680887299677984
158.0, 0.02563373026324037
159.0, 0.021192612473238857
160.0, 0.015408195339638615
161.0, 0.012530987138603815
162.0, 0.010998806060079348
163.0, 0.00811052032846156
164.0, 0.0046447735006283795
165.0, 0.0037210627099214274
166.0, 0.0023181023327018702
167.0, 0.001004473976325889
168.0, 0.0027840829318479332
169.0, 0.0033142413602788253
170.0, 0.003099078723183261
171.0, 0.0024997445675162887
172.0, 0.0018676004560682488
173.0, 0.002806535582913959
174.0, 0.0022607607782545304
175.0, 0.0001137419518090915
176.0, 0.0014708852315211572
177.0, 0.004462511597076004
178.0, 0.006030928261246722
179.0, 0.00440613531264187
180.0, 0.003962634498250062
181.0, 0.00397163067426818
182.0, 0.004761315419880365
183.0, 0.002411345158377344
184.0, 0.002380959282453714
185.0, 0.0015839973960607406
186.0, 0.0019582557307732734
187.0, 0.0007729915496021059
188.0, 0.0008190548324805003
189.0, 0.0030676175858153523
190.0, 0.008022036296894287
191.0, 0.012285287622031047
192.0, 0.01560354359827805
193.0, 0.017932745004660366
194.0, 0.017753420882009378
195.0, 0.02069067750834583
196.0, 0.027224844378236315
197.0, 0.03336235467627492
198.0, 0.034523860236138744
199.0, 0.03699203313187825
200.0, 0.039519103758184584
201.0, 0.04340529785363154
202.0, 0.05130209118135183
203.0, 0.055111602313669704
204.0, 0.060121488019055966
205.0, 0.06363334910266384
206.0, 0.0645292884632548
207.0, 0.07317444615247186
208.0, 0.0786212830157769
209.0, 0.07980703892200715
210.0, 0.08233353865488192
211.0, 0.09177252107762199
212.0, 0.09393752328217472
213.0, 0.09294452728934963
214.0, 0.09630264917496938
215.0, 0.10494301176570543
216.0, 0.10113345876844362
217.0, 0.09725860804346238
218.0, 0.09974836000311216
219.0, 0.1053284028646495
220.0, 0.10372075846249079
221.0, 0.1042692280199979
222.0, 0.10752205788421926
223.0, 0.10986632004209716
224.0, 0.1076501114618806
225.0, 0.10663121210854275
226.0, 0.10367298413338269
227.0, 0.1022991056866268
228.0, 0.10638415580027095
229.0, 0.10964475098612268
230.0, 0.11364814343641937
231.0, 0.11524762043211342
232.0, 0.1163949456324029
233.0, 0.1265898652539051
234.0, 0.13235868274210705
235.0, 0.13906773426094865
236.0, 0.1480798285948558
237.0, 0.15725011808850323
238.0, 0.1690590310903869
239.0, 0.18004146509977192
240.0, 0.19127344695389836
241.0, 0.20494850704178924
242.0, 0.22174419253444455
243.0, 0.24136719583155655
244.0, 0.2588605817293994
245.0, 0.2808247529039278
246.0, 0.31134562881009525
247.0, 0.3348467881722315
248.0, 0.3581458977733673
249.0, 0.3861507782757615
250.0, 0.4178216823418738
251.0, 0.44834500709616104
252.0, 0.4904622146075288
253.0, 0.5285851278829702
254.0, 0.5631107737571236
255.0, 0.603313625489746
256.0, 0.6521053407138264
257.0, 0.6926771531048747
258.0, 0.7334855417372647
259.0, 0.7768210805210926
260.0, 0.8070356428452534
261.0, 0.8460645578141435
262.0, 0.8848907590038467
263.0, 0.9172752117989136
264.0, 0.9439659065145739
265.0, 0.9650242280327245
266.0, 0.9814740200317245
267.0, 0.9946152908767687
268.0, 0.9999921728790379
269.0, 0.9889702083960767
270.0, 0.9702723820780759
271.0, 0.9466485508745334
272.0, 0.9170145724369864
273.0, 0.8766066443635835
274.0, 0.8186429203071118
275.0, 0.7701021530528532
276.0, 0.7243488467611762
277.0, 0.6756056076495812
278.0, 0.6263726318307364
279.0, 0.5782275181770397
280.0, 0.5323207333803
281.0, 0.48397388714847944
282.0, 0.4349509471644466
283.0, 0.4026694605549714
284.0, 0.36684001712977976
285.0, 0.3314776656037853
286.0, 0.2996693495431329
287.0, 0.2703025709370595
288.0, 0.24133794902979194
289.0, 0.21830283897268285
290.0, 0.19585833698418073
291.0, 0.17433356323550778
292.0, 0.1609550459867272
293.0, 0.13524811045511823
294.0, 0.12488225301215043
295.0, 0.11931073063753199
296.0, 0.10372793034511713
297.0, 0.09595015098123508
298.0, 0.08611946994498247
299.0, 0.07612725876142895
300.0, 0.06809238385290063
301.0, 0.062201905757691786
302.0, 0.05791539130516552
303.0, 0.053054185370137105
304.0, 0.04527850596918944
305.0, 0.03744426338742667
306.0, 0.03680747469738117
307.0, 0.03542379532485139
308.0, 0.0329821459232311
309.0, 0.02974856304238329
310.0, 0.02625270111365405
311.0, 0.025319302331712156
312.0, 0.021536034653019197
313.0, 0.017725365423130544
314.0, 0.015965354141576106
315.0, 0.015024827607217498
316.0, 0.01220414952807818
317.0, 0.00651987189214154
318.0, 0.005109010505440692
319.0, 0.008200302806057535
320.0, 0.00758937825310351
321.0, 0.005669189619960217
322.0, 0.006333645005628127
323.0, 0.005810264915198231
324.0, 0.0029282151874844187
325.0, 0.003234282264867392
326.0, 0.00206037822290287
327.0, 0.0004364034006207975
328.0, 0.000809045854758991
329.0, 0.002448529844886742
330.0, 0.0012528810078429977
331.0, 0.0005043306279844735
332.0, 0.0005766955603797
333.0, 0.0005798113467767827
334.0, 0.005789265026535692
335.0, 0.004512344940683879
336.0, 0.00215164198128387
337.0, 0.0016221852431607163
338.0, 0.0018604491273030942
339.0, 0.0020540871894247983
340.0, 0.0035906326688384255
341.0, 0.001517214809176551
342.0, 0.00038365568548606526
343.0, 0.0011612951178502763
344.0, 0.0029705532164360946
345.0, 0.0025119883999663774
346.0, 0.0028153987166577837
347.0, 0.003083076506939856
348.0, 0.002337586194502325
349.0, 0.003184879006942625
350.0, 0.00400316960585972
351.0, 0.003740686765640213
352.0, 0.004127895994040537
353.0, 0.005061791663646357
354.0, 0.0010969526265099247
355.0, 0.00035587017429935326
356.0, 0.0008580945223080475
357.0, 0.0026646234428293475
358.0, 0.0036127361677514005
359.0, 0.003150032035761574
360.0, 0.0022133940066579884
361.0, 0.002047207547162179
362.0, 0.0014960345387604135
363.0, 0.0016583707442368776
364.0, 0.0012636774329959073
365.0, 0.004358644846571672
366.0, 0.00531789012791201
367.0, 0.0028695683060003152
368.0, 0.0032878945873556094
369.0, 0.0017964933925247461
370.0, 0.0040916480573366335
371.0, 0.004618474183924733
372.0, 0.002889092512020592
373.0, 0.006976638509509486
374.0, 0.007780416855348108
375.0, 0.007876401337860963
376.0, 0.006480068040915619
377.0, 0.004453122606599286
378.0, 0.007925588158259929
379.0, 0.00674498759458449
380.0, 0.005455271214475861
381.0, 0.007457303128615094
382.0, 0.012215509820290467
383.0, 0.01454523464804168
384.0, 0.01591949914482195
385.0, 0.01443592572236408
386.0, 0.013152252658988716
387.0, 0.015526086056074528
388.0, 0.01972456174792011
389.0, 0.018572451542050127
390.0, 0.021284529370398868
391.0, 0.026401421820785708
392.0, 0.03000376998026597
393.0, 0.032466853235780364
394.0, 0.032724375859922196
395.0, 0.03538288433729102
396.0, 0.03889132852436226
397.0, 0.04080614241151193
398.0, 0.04169329031842143
399.0, 0.0485098331102486
400.0, 0.051709717797483526
401.0, 0.05390443113513649
402.0, 0.05982034563279279
403.0, 0.0682340040053177
404.0, 0.07162318787083843
405.0, 0.07623311269244401
406.0, 0.08217264877720583
407.0, 0.08665246749069458
408.0, 0.08932286085322688
409.0, 0.09799896094427846
410.0, 0.10037288722949414
411.0, 0.10045839175035262
412.0, 0.10560647175092712
413.0, 0.11378511872249174
414.0, 0.11373651719779028
415.0, 0.11458505952966123
416.0, 0.11628402012638551
417.0, 0.1167237422415292
418.0, 0.11617744677196755
419.0, 0.1197322932739947
420.0, 0.11983006248170641
421.0, 0.11843452337084352
422.0, 0.11840549239721815
423.0, 0.1189249858117702
424.0, 0.11889076438440081
425.0, 0.1192369373279677
426.0, 0.1196705521376148
427.0, 0.11974068252869532
428.0, 0.119624038039192
429.0, 0.11827803893549423
430.0, 0.11909515732035802
431.0, 0.12216489665421798
432.0, 0.1251171000288314
433.0, 0.12685583309838322
434.0, 0.13098323601035594
435.0, 0.13179649902336213
436.0, 0.13666747565877083
437.0, 0.14689834774101532
438.0, 0.15693057436244678
439.0, 0.1646519508131425
440.0, 0.17062197312353858
441.0, 0.17738994452895293
442.0, 0.1832052398047823
443.0, 0.1888557537026811
444.0, 0.1991208742184291
445.0, 0.20222223212843274
446.0, 0.20315232390129875
447.0, 0.20336218433806585
448.0, 0.2006975349998529
449.0, 0.192943331411172
450.0, 0.18310571971562292
451.0, 0.1752871299159374
452.0, 0.16207290175906064
453.0, 0.14536906359818935
454.0, 0.13499262764900694
455.0, 0.12397074493562252
456.0, 0.1107315290702058
457.0, 0.09835771290004965
458.0, 0.08706271165879968
459.0, 0.07562840344481239
460.0, 0.06544136759975765
461.0, 0.05899049015006433
462.0, 0.05433487120997528
463.0, 0.05042630416892838
464.0, 0.046025727683765935
465.0, 0.03871447651751783
466.0, 0.03680905916452405
467.0, 0.035804212106034176
468.0, 0.03410646119610616
469.0, 0.032994917465810035
470.0, 0.034673767830409014
471.0, 0.03203376057146603
472.0, 0.03452745583903191
473.0, 0.03569419072529798
474.0, 0.0325030602192557
475.0, 0.03026549400735442
476.0, 0.032069216487803774
477.0, 0.031063730591727484
478.0, 0.03167541704086578
479.0, 0.032238002311534515
480.0, 0.029505305799718946
481.0, 0.027530139197150333
482.0, 0.024998253584119782
483.0, 0.024177362718984373
484.0, 0.023194207732360802
485.0, 0.02156811101297965
486.0, 0.02337708071708747
487.0, 0.01952959574543731
488.0, 0.01768322415949421
489.0, 0.015965762542081742
490.0, 0.013076711437796647
491.0, 0.011507895866677099
492.0, 0.011222572569066105
493.0, 0.008884515697773862
494.0, 0.005866908903901462
495.0, 0.0050765585903474126
496.0, 0.006073198908397423
497.0, 0.00447508841035844
498.0, 0.0036294987410866214
499.0, 0.002668939013415704
500.0, 0.0013024243580521324
501.0, 0.004179948709492733
502.0, 0.001847179385637065
503.0, 0.0005353671676443866
504.0, 0.00042488350387983193
505.0, 0.0007915677821399818
506.0, 0.0012078060336218896
507.0, 0.0016492059706245063
508.0, 0.003343685314306696
509.0, 0.0032806095910835734
510.0, 0.0015698456742536588
511.0, 0.0013449931554771664
512.0, 0.0014603945130000264
513.0, 0.0014872739020573577
514.0, 0.00014595512082644872
515.0, 0.0003670746400313685
516.0, 0.0008774358423977714
517.0, 0.0006654449400864583
518.0, 0.00033167065284220136
519.0, 0.0003965202255136895
520.0, 0.0027655483148286194
521.0, 0.002767544077787908
522.0, 0.0025297096903326415
523.0, 0.0028663426176633463
524.0, 0.0016295440513282389
525.0, 0.003326076460076951
526.0, 0.005128687315097732
527.0, 0.0054854602761641915
528.0, 0.005445223602373394
529.0, 0.005514486149833225
530.0, 0.004668165065511239
531.0, 0.006893210778175033
532.0, 0.011104591926776425
533.0, 0.012210550771591794
534.0, 0.011513182389193662
535.0, 0.01163525746340081
536.0, 0.008984298718400906
537.0, 0.01459743877991099
538.0, 0.016427995704638085
539.0, 0.015287111827724697
540.0, 0.017753484066908628
541.0, 0.02049713471307729
542.0, 0.01876594094467808
543.0, 0.01967199588724636
544.0, 0.01959919825998171
545.0, 0.024730473583048963
546.0, 0.024526998284278734
547.0, 0.029748552096777837
548.0, 0.03054171890492595
549.0, 0.028626623284740527
550.0, 0.028897763601096322
551.0, 0.027749451625361098
552.0, 0.028719553925991268
553.0, 0.027680112213955492
554.0, 0.025303886007054525
555.0, 0.025489228103538257
556.0, 0.027345144531763885
557.0, 0.02887283047036602
558.0, 0.02868503632539978
559.0, 0.02572189527993263
560.0, 0.025061937027908026
561.0, 0.02492560245477303
562.0, 0.02512556362987692
563.0, 0.024838905490654185
564.0, 0.02268482515373766
565.0, 0.02320019213662625
566.0, 0.024523166252218658
567.0, 0.023642055392551996
568.0, 0.021859359146461275
569.0, 0.02050561493844484
570.0, 0.01920776462750321
571.0, 0.021419362532878745
572.0, 0.020058752461659626
573.0, 0.019487476886315056
574.0, 0.01976753933374091
575.0, 0.018048582760747722
576.0, 0.017998190229836213
577.0, 0.0200642643826595
578.0, 0.019504439958089627
579.0, 0.0197672475277773
580.0, 0.018986360600215624
581.0, 0.015105249484201682
582.0, 0.016699292283384178
583.0, 0.0178606995405247
584.0, 0.017552030322672017
585.0, 0.01635196608801484
586.0, 0.015801980442012364
587.0, 0.016981652844587376
588.0, 0.01808480203508935
589.0, 0.015712247566385378
590.0, 0.014318827419833938
591.0, 0.015580428533772804
592.0, 0.017453797073214945
593.0, 0.016924471467150214
594.0, 0.012188003810266428
595.0, 0.011554667039572922
596.0, 0.015633680699042463
597.0, 0.017120480087070546
598.0, 0.013796700817460773
599.0, 0.012212772761478842
600.0, 0.012637360984741637
601.0, 0.009698676237499732
602.0, 0.009068688035679263
603.0, 0.008800665686574793
604.0, 0.007333232354911485
605.0, 0.0071102663825371405
606.0, 0.010260659705459946
607.0, 0.005735640872749445
608.0, 0.00439634470678208
609.0, 0.004586698902655199
610.0, 0.0024342649727281175
611.0, 0.0007098010738648165
612.0, 0.004494102160351656
613.0, 0.0033466327640927227
614.0, 0.0005317558086491276
615.0, 0.0012596671800171886
616.0, 0.0028285467444063594
617.0, 0.0002670376557661361
618.0, 0.0014676210339436405
619.0, 0.00011662609107286234
620.0, 0.0018860196478324006
621.0, 0.003007298186074504
622.0, 0.0015901382504661648
623.0, 0.0072507984824107955
624.0, 0.0010860116356759774
625.0, 0.0024606651222677293
626.0, 0.0008468461859041654
627.0, 0.0020803330032064657
628.0, 0.0016453828539036161
629.0, 0.0005452512140730447
630.0, 0.0006317812138102318
631.0, 0.001981325825617568
632.0, 0.0023084630343735793
633.0, 0.0012870287307649856
634.0, 0.0019121010264582226
635.0, 0.003763016528258328
636.0, 0.0021031493876142045
637.0, 0.002935964100978607
638.0, 0.0040405727011422555
639.0, 0.004581445048508988
640.0, 0.005916803510619101
641.0, 0.008565592967852649
642.0, 0.011107359202079194
643.0, 0.011065154819313767
644.0, 0.010670618375648824
645.0, 0.014962243928569128
646.0, 0.01793620610101285
647.0, 0.021315655745714816
648.0, 0.028467464015636504
649.0, 0.030808873349230388
650.0, 0.032084268621754904
651.0, 0.03700990458248468
652.0, 0.041046694208647636
653.0, 0.045417027076601016
654.0, 0.05125175062477381
655.0, 0.05499649702900208
656.0, 0.061036313894132464
657.0, 0.06900677755468854
658.0, 0.07242592369488532
659.0, 0.07657819023932262
660.0, 0.082130936955365
661.0, 0.08409949709401734
662.0, 0.08764304760861445
663.0, 0.0900563467687355
664.0, 0.09111506011058985
665.0, 0.0924248762244015
666.0, 0.09047567454309638
667.0, 0.0851531271619686
668.0, 0.08610972692248904
669.0, 0.08224784002435875
670.0, 0.08047825457070341
671.0, 0.07916480985510928
672.0, 0.07337126091350028
673.0, 0.06458403286818586
674.0, 0.05909290432580408
675.0, 0.05764223309462942
676.0, 0.0514949329139211
677.0, 0.048781634125045194
678.0, 0.04700721562384566
679.0, 0.042734116016323265
680.0, 0.03944830837122987
681.0, 0.03842005349037994
682.0, 0.033522100333214656
683.0, 0.030946274339361445
684.0, 0.028314124495794523
685.0, 0.024768856915391994
686.0, 0.02392975554201073
687.0, 0.02982832714668241
688.0, 0.02542494661194998
689.0, 0.025783986009138407
690.0, 0.022955291683500106
691.0, 0.021995036921629425
692.0, 0.023479405399091005
693.0, 0.021149078168124613
694.0, 0.01557161718889823
695.0, 0.0163189039881684
696.0, 0.018130312641763888
697.0, 0.016561864982710995
698.0, 0.014085027194071124
699.0, 0.01283788331673178
700.0, 0.011741590697803854
701.0, 0.011190496476532922
702.0, 0.009138638131202923
703.0, 0.009010280567573997
704.0, 0.008083127612873912
705.0, 0.00774696009615454
706.0, 0.007749983070007284
707.0, 0.005722998725261654
708.0, 0.006096101067460815
709.0, 0.005160974335955856
710.0, 0.0038221529179957945
711.0, 0.0029569331261315684
712.0, 0.003493636217792934
713.0, 0.003882921199822462
714.0, 0.0017136656018862623
715.0, 0.0029335599191472653
716.0, 0.0038538555845261126
717.0, 0.003877448550439859
718.0, 0.005197145763219195
719.0, 0.005423239080813418
720.0, 0.001386329787548484
721.0, 0.0004703985384455756
722.0, 0.00286185388687263
723.0, 0.0032959930142374173
724.0, 0.00046886121896801776
725.0, 0.00019250972075109406
726.0, 0.002210570759477417
727.0, 0.001852854850356728
728.0, 0.0012105728054268281
729.0, 0.00015182503139106495
730.0, 0.0007002109851530276
731.0, 0.0008806563230212151
732.0, 0.002027483749241743
733.0, 0.0017615272394902964
734.0, 0.0022310164122092834
735.0, 0.0027557598874962445
736.0, 0.0007200825780814418
737.0, 0.002190023427890779
738.0, 0.0019916721858684733
739.0, 0.001235107005631854
740.0, 0.0011057053069259573
741.0, 0.0006634712851270491
742.0, 0.002715493226065767
743.0, 0.0019506432081986876
744.0, 0.0003274160093542667
745.0, 0.0011523440735268053
746.0, 0.0019882283039060165
747.0, 0.0009988065109606374
748.0, 0.00015954637560074554
749.0, 0.0013876633674188004
750.0, 0.0016401948071576588
751.0, 0.0015697529731954884
752.0, 0.0002793790310245671
753.0, 0.00013177267577025296
754.0, 0.0023757617815470203
755.0, 0.003472002441651365
756.0, 0.0011162020314002406
757.0, 0.0005074322493982884
758.0, 0.0022734925765293093
759.0, 0.002547192624215744
760.0, 0.0023280577236832285
761.0, 0.0013823820572653786
762.0, 3.212673220731214e-05
763.0, 0.0009260236734276053
764.0, 0.0010675243766907695
765.0, 0.0011420978819434125
766.0, 0.001597270149674361
767.0, 0.00014232958710477437
768.0, 0.0016806647396882715
769.0, 0.002387328432550678
770.0, 0.0011292158118036766
771.0, 0.00016945163494940148
772.0, 0.0034835951769343907
773.0, 0.003033779717144931
774.0, 0.004166638111483441
775.0, 0.002640642124153415
776.0, 0.0007753140814437241
777.0, 0.001949334317658162
778.0, 0.0031442589663721317
779.0, 0.003563396261173099
780.0, 0.002937035390030531
781.0, 0.004016608128900492
782.0, 0.004115762774524637
783.0, 0.003916443923165381
784.0, 0.006083597212680183
785.0, 0.0072462782086843685
786.0, 0.006597021097656911
787.0, 0.005556394191570374
788.0, 0.0041608417753134196
789.0, 0.00480138058824449
790.0, 0.0062080791568407305
791.0, 0.00592220280093246
792.0, 0.00598054077163298
793.0, 0.010216194638779383
794.0, 0.007482368913921428
795.0, 0.007676756834804203
796.0, 0.007997391588463021
797.0, 0.00788614275952241
798.0, 0.00799396726523629
799.0, 0.008112670708978352
800.0, 0.009585244413660368
801.0, 0.009812005060125391
802.0, 0.012248514827219162
803.0, 0.012013192453332475
804.0, 0.009812964170011165
805.0, 0.007921361522373813
806.0, 0.007735924192456358
807.0, 0.009186208652086603
808.0, 0.009630024225114399
809.0, 0.0089519094404771
810.0, 0.010233384940813526
811.0, 0.010801930700455478
812.0, 0.010645522704387836
813.0, 0.010590251610188088
814.0, 0.010397334638534362
815.0, 0.010102606724806585
816.0, 0.009677253844278519
817.0, 0.010495709460324422
818.0, 0.009859426442874878
819.0, 0.009484079167872169
820.0, 0.008589416645383438
821.0, 0.006846404855755132
822.0, 0.005871031169063297
823.0, 0.006212534761691036
824.0, 0.008992098498715082
825.0, 0.004982336853626488
826.0, 0.004098756838144955
827.0, 0.0044596355598903676
828.0, 0.005132428619409197
829.0, 0.004382574189009388
830.0, 0.0014846132348026704
831.0, 0.002982460611152788
832.0, 0.0039649484417242425
833.0, 0.004537374101925652
834.0, 0.00033555699068938587
835.0, 0.0009344995762152398
836.0, 9.726046167205009e-05
837.0, 0.0002871878138994451
838.0, 0.00040517132530751136
839.0, 0.0015565695677922581
840.0, 0.002505023833729086
841.0, 0.0007831410452549032
842.0, 0.0007564281955834558
843.0, 0.001384721318393158
844.0, 0.0011752805210528089
845.0, 0.00039376653839842554
846.0, 0.00015476621924063476
847.0, 0.000678263410872081
848.0, 0.0028881488658939265
849.0, 0.0011254313562627453
850.0, 4.7976949524381596e-05
851.0, 0.000844022507008414
852.0, 0.000631791953309961
853.0, 0.00040881700442596763
854.0, 0.0022238673445814866
855.0, 0.0034640741566863264
856.0, 0.0032627493072774683
857.0, 0.0023734123487688776
858.0, 0.0032668296048686007
859.0, 0.005851297120395053
860.0, 0.006483045138756139
861.0, 0.005381036913653831
862.0, 0.0052036819933277325
863.0, 0.004689154477437396
864.0, 0.0059190266754180695
865.0, 0.006704396588600381
866.0, 0.008907078715012949
867.0, 0.008606566337280705
868.0, 0.007840240030815975
869.0, 0.009145632939590252
870.0, 0.009089212172854279
871.0, 0.005898867247190006
872.0, 0.006677637690001828
873.0, 0.010362163565202996
874.0, 0.008368776793708808
875.0, 0.009763780078864833
876.0, 0.011985616082293964
877.0, 0.01245228564793652
878.0, 0.012197732273620535
879.0, 0.01170439430234986
880.0, 0.011258207762781079
881.0, 0.014314772786320885
882.0, 0.013678199219084315
883.0, 0.012346919628783135
884.0, 0.01438850372990222
885.0, 0.014174154945489908
886.0, 0.012372689608697238
887.0, 0.013355143083585031
888.0, 0.01345095301648771
889.0, 0.015722916009582706
890.0, 0.009892330290950645
891.0, 0.011563287097061776
892.0, 0.012358650288786032
893.0, 0.013189033484382598
894.0, 0.011511958800836617
895.0, 0.009176540832180948
896.0, 0.010624614176263722
897.0, 0.010593696391327487
898.0, 0.013050289175120586
899.0, 0.012349819419873117
900.0, 0.009965684912168638
901.0, 0.009778649250533176
902.0, 0.011657231712750309
903.0, 0.011193250216264647
904.0, 0.00893826330771869
905.0, 0.010363398024750944
906.0, 0.008577965891793188
907.0, 0.011208777031416888
908.0, 0.01031360110067675
909.0, 0.00832599915020346
910.0, 0.0072339039559769945
911.0, 0.00574973775216478
912.0, 0.0071872313140528485
913.0, 0.00933634126152776
914.0, 0.005964585971205016
915.0, 0.005772381639737917
916.0, 0.006191483670285934
917.0, 0.007075653001851571
918.0, 0.006884089348061451
919.0, 0.005130477402346309
920.0, 0.004958561829049698
921.0, 0.005647204159525778
922.0, 0.005819214337460208
923.0, 0.007126727740647621
924.0, 0.0041439911127946535
925.0, 0.002110128243402321
926.0, 0.0016092553755661008
927.0, 0.002842976206560301
928.0, 0.0033224570984858523
929.0, 0.0028682849530371223
930.0, 0.0017703664765983218
931.0, 0.0015573011054128138
932.0, 0.002599175526792247
933.0, 0.0017609941049521682
934.0, 0.0017489322110653587
935.0, 0.0011561293926500356
936.0, 0.001440119963480842
937.0, 0.0024677718708940154
938.0, 0.0027717694926511303
939.0, 0.0029522805207023678
940.0, 0.003112308344491077
941.0, 0.0020751716708405513
942.0, 0.0006046993689432758
943.0, 0.001512564820763279
944.0, 0.0008702451184464467
945.0, 0.0009094172424770473
946.0, 0.0012846752595379873
947.0, 0.00141934983643282
948.0, 0.0006772934597920172
949.0, 0.0007527114946626574
950.0, 0.000826117176051965
951.0, 0.00014570131426576996
952.0, 0.00035337524313800047
953.0, 0.0009465486717329861
954.0, 0.0008039611105382882
955.0, 0.0015907713659750616
956.0, 0.00031051950853406017
957.0, 0.0001255811895272127
958.0, 0.001261126673024876
959.0, 0.0003130287584544983
960.0, 0.00062700361232134
961.0, 0.0017675666030222625
962.0, 8.92007434506826e-05
963.0, 0.0028565474471799832
964.0, 0.0006893515783694092
965.0, 0.0016891043984957903
966.0, 0.0024133986567027236
967.0, 0.0035732115171299944
968.0, 0.0034037513126126346
969.0, 0.0014492988040374379
970.0, 0.0018179982242992854
971.0, 0.002342897319846207
972.0, 0.0016582019429994188
973.0, 0.003689768594276683
974.0, 0.002671031134092153
975.0, 0.00466549364683073
976.0, 0.00458849214255773
977.0, 0.0026347756114787216
978.0, 0.0038965303676937965
979.0, 0.005174181075583623
980.0, 0.003797239152655322
981.0, 0.005863198726054719
982.0, 0.004963712543268426
983.0, 0.00494635614674898
984.0, 0.006252209333188743
985.0, 0.008079060724619806
986.0, 0.006792364900670034
987.0, 0.006625379253319761
988.0, 0.007596237663142509
989.0, 0.008602279009552438
990.0, 0.010497076870059822
991.0, 0.007833286437576826
992.0, 0.0059792986401170645
993.0, 0.00620198152000046
994.0, 0.0102082260409324
995.0, 0.009951002536107844
996.0, 0.00952309800185845
997.0, 0.008879160487548431
998.0, 0.007945108700441501
999.0, 0.006981420781085597
1000.0, 0.006445268816699733
1001.0, 0.006520639871618463
1002.0, 0.005076547803178692
1003.0, 0.004930551825051749
1004.0, 0.006116388913257452
1005.0, 0.006437187515613424
1006.0, 0.006811271265973147
1007.0, 0.006553751604026593
1008.0, 0.004931250717391216
1009.0, 0.004674556475097774
1010.0, 0.004517219928542677
1011.0, 0.0034542194043892904
1012.0, 0.004976776713799841
1013.0, 0.0016093909199061637
1014.0, 0.0016272028796965492
1015.0, 0.0003917678298205804
1016.0, 0.0006701502185409509
1017.0, 0.0032942689678184937
1018.0, 0.00449567755805631
1019.0, 0.0018660730978454611
1020.0, 0.0005707482965783849
1021.0, 0.002322592738853189
1022.0, 0.0018468231441889536
1023.0, 0.0005758124449354153
1024.0, 0.0016941100354004967
1025.0, 0.0014625900695702649
1026.0, 0.002804412052652549
1027.0, 0.002668202875579933
1028.0, 0.00264341121418223
1029.0, 0.0036044420281691916
1030.0, 0.003001510357160237
1031.0, 0.003346761542691765
1032.0, 0.0056696155648965785
1033.0, 0.006680895990577667
1034.0, 0.009791297083463293
1035.0, 0.011945392161301619
1036.0, 0.012663264670954091
1037.0, 0.011945270658231024
1038.0, 0.014866008894657763
1039.0, 0.015743993651939472
1040.0, 0.016690815322788488
1041.0, 0.018215993556100523
1042.0, 0.01619955280470573
1043.0, 0.012762544169858177
1044.0, 0.014600418914841009
1045.0, 0.016399630121142667
1046.0, 0.01255555252170899
1047.0, 0.01242815864780305
1048.0, 0.009373823574475618
1049.0, 0.009284755624550245
1050.0, 0.009375406485739425
1051.0, 0.00844925140418724
1052.0, 0.0071312571226409115
1053.0, 0.005303815477864918
1054.0, 0.0019367322716642332
1055.0, 0.0005281226568020133
1056.0, 0.0011979121032012474
1057.0, 0.00027057140241199196
1058.0, 0.0006114360377558668
1059.0, 0.0009162712246132334
1060.0, 0.0006752340440790554
1061.0, 0.001831963339212646
1062.0, 0.0015723045397303618
1063.0, 0.000960946468051055
1064.0, 0.0008494086453743153
1065.0, 0.0005794102897476155
1066.0, 0.0008253112652430649
1067.0, 0.0006389993729525832
1068.0, 0.001993925355113438
1069.0, 0.0011044919856213883
1070.0, 0.0005483406668999662
1071.0, 0.0016576814708753134
1072.0, 0.0017813248283501176
1073.0, 0.0015186428054347312
1074.0, 0.002553251709604473
1075.0, 0.0008227724768503943
1076.0, 0.0024254226394595235
1077.0, 0.004072064395486811
1078.0, 0.003093316648389118
1079.0, 0.00287715349952257
1080.0, 0.003181440841136017
1081.0, 0.00314251778184562
1082.0, 0.005567301830644942
1083.0, 0.004153881806468648
1084.0, 0.005480574602913463
1085.0, 0.004616898482679785
1086.0, 0.002776798124603784
1087.0, 0.0037481365133202036
1088.0, 0.006089650262792507
1089.0, 0.006362057278636466
1090.0, 0.005804265787196836
1091.0, 0.005203827436232551
1092.0, 0.004515215960287803
1093.0, 0.004543115978380403
1094.0, 0.005373283354423786
1095.0, 0.00821829416074222
1096.0, 0.0035472564355665216
1097.0, 0.007035669174608682
1098.0, 0.005487651310240698
1099.0, 0.005175787051798379
1100.0, 0.006563639543367283
1101.0, 0.008831179756658033
1102.0, 0.008270089132358606
1103.0, 0.00703496124770245
1104.0, 0.007315528909313829
1105.0, 0.0067079376599741836
1106.0, 0.005755122982290751
1107.0, 0.00723233266690863
1108.0, 0.0065776591404951975
1109.0, 0.006276390782547431
1110.0, 0.00686716335336475
1111.0, 0.006566464853504843
1112.0, 0.00874980614103408
1113.0, 0.00825104886649596
1114.0, 0.008314920964905466
1115.0, 0.0074066544407694265
1116.0, 0.0072464509204998515
1117.0, 0.007602274807073449
1118.0, 0.008077779947286274
1119.0, 0.00877226963997264
1120.0, 0.007850017395292598
1121.0, 0.008844987241248742
1122.0, 0.00925047688504537
1123.0, 0.0065742350328881274
1124.0, 0.007860687878177215
1125.0, 0.008515799410181407
1126.0, 0.006923476400875149
1127.0, 0.007134239132394173
1128.0, 0.00836460124547373
1129.0, 0.006905190305566228
1130.0, 0.008251560893768144
1131.0, 0.009080590090220029
1132.0, 0.007614949527789441
1133.0, 0.008646578394878889
1134.0, 0.008917434271295918
1135.0, 0.00958172557907716
1136.0, 0.009546241075394467
1137.0, 0.008715438309260798
1138.0, 0.00792989568993476
1139.0, 0.006573909948312021
1140.0, 0.009154334858022821
1141.0, 0.008885164079605842
1142.0, 0.009762019434373265
1143.0, 0.010845353452852792
1144.0, 0.0090141270803878
1145.0, 0.008136989850522162
1146.0, 0.009367866637412335
1147.0, 0.008189734360977287
1148.0, 0.00686778087980822
1149.0, 0.009793752076081599
1150.0, 0.011211446860778405
1151.0, 0.009785055871488481
1152.0, 0.010313242133740151
1153.0, 0.010246621081746224
1154.0, 0.008376369201189192
1155.0, 0.0072562079145620855
1156.0, 0.008965780748903671
1157.0, 0.0097203198634779
1158.0, 0.010509566317215936
1159.0, 0.008792321261299326
1160.0, 0.008482908210700173
1161.0, 0.009819541296397947
1162.0, 0.010168508860164351
1163.0, 0.01057232012943247
1164.0, 0.010938017893204676
1165.0, 0.0097952029181818
1166.0, 0.007926930922801787
1167.0, 0.007669820693168225
1168.0, 0.010343118030051309
1169.0, 0.005209023526068149
1170.0, 0.00700422053622556
1171.0, 0.010107526932637976
1172.0, 0.010081070675738943
1173.0, 0.009864684786104643
1174.0, 0.009285179186243664
1175.0, 0.0070988710072633935
1176.0, 0.008173760206021
1177.0, 0.008446422276562924
1178.0, 0.007545857376869731
1179.0, 0.00949562784396633
1180.0, 0.008561057187042035
1181.0, 0.007981919204201575
1182.0, 0.008626001793199542
1183.0, 0.008838174027274865
1184.0, 0.007745614481050034
1185.0, 0.009327201970760257
1186.0, 0.006473269986413642
1187.0, 0.005711530999603909
1188.0, 0.006090507818287251
1189.0, 0.003745039109068045
1190.0, 0.004749582710673423
1191.0, 0.0053638057538216675
1192.0, 0.003683863720350028
1193.0, 0.004307391860273187
1194.0, 0.0032505740209069637
1195.0, 0.0018413522115577259
1196.0, 0.004315081701193624
1197.0, 0.0037469523047008145
1198.0, 0.0016492386055604125
1199.0, 0.0028497214569131206
1200.0, 0.006103653400433336
1201.0, 0.00503592414711193
1202.0, 0.003959124698031828
1203.0, 0.0043200971224056405
1204.0, 0.0022000540142424556
1205.0, 0.0017467906049082502
1206.0, 0.0020866266625249384
1207.0, 0.0009479568055565254
1208.0, 0.0006547306679355403
1209.0, 0.0020153582358761724
1210.0, 0.003181428477684286
1211.0, 0.002492573187477937
1212.0, 0.0018113574448252769
1213.0, 0.0008174175111129666
1214.0, 0.0004719115334500142
1215.0, 0.0023916300159193423
1216.0, 0.0013399831792670976
1217.0, 0.0009074994796105458
1218.0, 0.0005468883713854534
1219.0, 0.0015387939257199689
1220.0, 0.00029570316946588563
1221.0, 0.00038688098317858367
1222.0, 0.0003468526851897415
1223.0, 0.00012715730342436422
1224.0, 0.0006138068822862284
1225.0, 0.000759144414711985
1226.0, 0.0009502062660973253
1227.0, 4.015361201737567e-05
1228.0, 0.000453553373031169
1229.0, 0.0010139222690224903
1230.0, 0.0003456625384603774
1231.0, 0.0005582253319234462
1232.0, 0.0022866850800541847
1233.0, 0.0019916639126686727
1234.0, 0.0007605766202452719
1235.0, 0.0017374870880986122
1236.0, 0.0007593133182642564
1237.0, 0.0006975231558601862
1238.0, 0.002891949863894833
1239.0, 0.0024059006035609563
1240.0, 0.0010693259731304264
1241.0, 0.001483741231079208
1242.0, 0.002027333966075593
1243.0, 0.0038635147766182144
1244.0, 0.0060917825526991395
1245.0, 0.00455506286509269
1246.0, 0.0012083049563197277
1247.0, 0.003451500285228247
1248.0, 0.0023814137269330413
1249.0, 0.003509108988228488
1250.0, 0.0049406385134424975
1251.0, 0.005240588664872863
1252.0, 0.004828006235554325
1253.0, 0.0028643434292625553
1254.0, 0.0011612799141104686
1255.0, 0.0005440943943215221
1256.0, 0.003434952502643772
1257.0, 0.002420441586739893
1258.0, 0.0017364576897582315
1259.0, 0.004337175965661
1260.0, 0.0015177712932812437
1261.0, 0.0011766424482558496
1262.0, 0.0038350013966132524
1263.0, 0.006066432659441933
1264.0, 0.002382784026620368
1265.0, 0.0015688587398813422
1266.0, 0.002500350814939817
1267.0, 0.0004071950884616248
1268, 0.0
1269, 0.0
1270, 0.0
1271, 0.0
1272, 0.0
1273, 0.0
1274, 0.0
1275, 0.0
1276, 0.0
1277, 0.0
1278, 0.0
1279, 0.0
1280, 0.0
1281, 0.0
1282, 0.0
1283, 0.0
1284, 0.0
1285, 0.0
1286, 0.0
1287, 0.0
1288, 0.0
1289, 0.0
1290, 0.0
1291, 0.0
1292, 0.0
1293, 0.0
1294, 0.0
1295, 0.0
1296, 0.0
1297, 0.0
1298, 0.0
1299, 0.0
1300, 0.0
1301, 0.0
1302, 0.0
1303, 0.0
1304, 0.0
1305, 0.0
1306, 0.0
1307, 0.0
1308, 0.0
1309, 0.0
1310, 0.0
1311, 0.0
1312, 0.0
1313, 0.0
1314, 0.0
1315, 0.0
1316, 0.0
1317, 0.0
1318, 0.0
1319, 0.0
1320, 0.0
1321, 0.0
1322, 0.0
1323, 0.0
1324, 0.0
1325, 0.0
1326, 0.0
1327, 0.0
1328, 0.0
1329, 0.0
1330, 0.0
1331, 0.0
1332, 0.0
1333, 0.0
1334, 0.0
1335, 0.0
1336, 0.0
1337, 0.0
1338, 0.0
1339, 0.0
1340, 0.0
1341, 0.0
1342, 0.0
1343, 0.0
1344, 0.0
1345, 0.0
1346, 0.0
1347, 0.0
1348, 0.0
1349, 0.0
1350, 0.0
1351, 0.0
1352, 0.0
1353, 0.0
1354, 0.0
1355, 0.0
1356, 0.0
1357, 0.0
1358, 0.0
1359, 0.0
1360, 0.0
1361, 0.0
1362, 0.0
1363, 0.0
1364, 0.0
1365, 0.0
1366, 0.0
1367, 0.0
1368, 0.0
1369, 0.0
1370, 0.0
1371, 0.0
1372, 0.0
1373, 0.0
1374, 0.0
1375, 0.0
1376, 0.0
1377, 0.0
1378, 0.0
1379, 0.0
1380, 0.0
1381, 0.0
1382, 0.0
1383, 0.0
1384, 0.0
1385, 0.0
1386, 0.0
1387, 0.0
1388, 0.0
1389, 0.0
1390, 0.0
1391, 0.0
1392, 0.0
1393, 0.0
1394, 0.0
1395, 0.0
1396, 0.0
1397, 0.0
1398, 0.0
1399, 0.0
1400, 0.0
1401, 0.0
1402, 0.0
1403, 0.0
1404, 0.0
1405, 0.0
1406, 0.0
1407, 0.0
1408, 0.0
1409, 0.0
1410, 0.0
1411, 0.0
1412, 0.0
1413, 0.0
1414, 0.0
1415, 0.0
1416, 0.0
1417, 0.0
1418, 0.0
1419, 0.0
1420, 0.0
1421, 0.0
1422, 0.0
1423, 0.0
1424, 0.0
1425, 0.0
1426, 0.0
1427, 0.0
1428, 0.0
1429, 0.0
1430, 0.0
1431, 0.0
1432, 0.0
1433, 0.0
1434, 0.0
1435, 0.0
1436, 0.0
1437, 0.0
1438, 0.0
1439, 0.0
1440, 0.0
1441, 0.0
1442, 0.0
1443, 0.0
1444, 0.0
1445, 0.0
1446, 0.0
1447, 0.0
1448, 0.0
1449, 0.0
1450, 0.0
1451, 0.0
1452, 0.0
1453, 0.0
1454, 0.0
1455, 0.0
1456, 0.0
1457, 0.0
1458, 0.0
1459, 0.0
1460, 0.0
1461, 0.0
1462, 0.0
1463, 0.0
1464, 0.0
1465, 0.0
1466, 0.0
1467, 0.0
1468, 0.0
1469, 0.0
1470, 0.0
1471, 0.0
1472, 0.0
1473, 0.0
1474, 0.0
1475, 0.0
1476, 0.0
1477, 0.0
1478, 0.0
1479, 0.0
1480, 0.0
1481, 0.0
1482, 0.0
1483, 0.0
1484, 0.0
1485, 0.0
1486, 0.0
1487, 0.0
1488, 0.0
1489, 0.0
1490, 0.0
1491, 0.0
1492, 0.0
1493, 0.0
1494, 0.0
1495, 0.0
1496, 0.0
1497, 0.0
1498, 0.0
1499, 0.0
1500, 0.0
1501, 0.0
1502, 0.0
1503, 0.0
1504, 0.0
1505, 0.0
1506, 0.0
1507, 0.0
1508, 0.0
1509, 0.0
1510, 0.0
1511, 0.0
1512, 0.0
1513, 0.0
1514, 0.0
1515, 0.0
1516, 0.0
1517, 0.0
1518, 0.0
1519, 0.0
1520, 0.0
1521, 0.0
1522, 0.0
1523, 0.0
1524, 0.0
1525, 0.0
1526, 0.0
1527, 0.0
1528, 0.0
1529, 0.0
1530, 0.0
1531, 0.0
1532, 0.0
1533, 0.0
1534, 0.0
1535, 0.0
1536, 0.0
1537, 0.0
1538, 0.0
1539, 0.0
1540, 0.0
1541, 0.0
1542, 0.0
1543, 0.0
1544, 0.0
1545, 0.0
1546, 0.0
1547, 0.0
1548, 0.0
1549, 0.0
1550, 0.0
1551, 0.0
1552, 0.0
1553, 0.0
1554, 0.0
1555, 0.0
1556, 0.0
1557, 0.0
1558, 0.0
1559, 0.0
1560, 0.0
1561, 0.0
1562, 0.0
1563, 0.0
1564, 0.0
1565, 0.0
1566, 0.0
1567, 0.0
1568, 0.0
1569, 0.0
1570, 0.0
1571, 0.0
1572, 0.0
1573, 0.0
1574, 0.0
1575, 0.0
1576, 0.0
1577, 0.0
1578, 0.0
1579, 0.0
1580, 0.0
1581, 0.0
1582, 0.0
1583, 0.0
1584, 0.0
1585, 0.0
1586, 0.0
1587, 0.0
1588, 0.0
1589, 0.0
1590, 0.0
1591, 0.0
1592, 0.0
1593, 0.0
1594, 0.0
1595, 0.0
1596, 0.0
1597, 0.0
1598, 0.0
1599, 0.0
