30, 0.0
31, 0.0
32, 0.0
33, 0.0
34, 0.0
35, 0.0
36, 0.0
37, 0.0
38, 0.0
39, 0.0
40, 0.0
41, 0.0
42, 0.0
43, 0.0
44, 0.0
45, 0.0
46, 0.0
47, 0.0
48, 0.0
49, 0.0
50, 0.0
51, 0.0
52, 0.0
53, 0.0
54, 0.0
55, 0.0
56, 0.0
57, 0.0
58, 0.0
59, 0.0
60, 0.0
61, 0.0
62, 0.0
63, 0.0
64, 0.0
65, 0.0
66, 0.0
67, 0.0
68, 0.0
69, 0.0
70, 0.0
71, 0.0
72, 0.0
73, 0.0
74, 0.0
75, 0.0
76, 0.0
77, 0.0
78, 0.0
79, 0.0
80, 0.0
81, 0.0
82, 0.0
83, 0.0
84, 0.0
85, 0.0
86, 0.0
87, 0.0
88, 0.0
89, 0.0
90, 0.0
91, 0.0
92, 0.0
93, 0.0
94, 0.0
95, 0.0
96, 0.0
97, 0.0
98, 0.0
99, 0.0
100, 0.0
101, 0.0
102, 0.0
103.0, 0.00011670740878027942
104.0, 0.0013016293832556318
105.0, 0.004287889294633352
106.0, 0.011308329385983182
107.0, 0.021943155173481558
108.0, 0.036011974275496704
109.0, 0.053990549359175785
110.0, 0.07374164952382233
111.0, 0.09055488757284236
112.0, 0.10217143808699874
113.0, 0.10912533436107241
114.0, 0.10464401069125068
115.0, 0.09103848259241776
116.0, 0.07078726775552634
117.0, 0.05528390020017375
118.0, 0.04254023870211183
119.0, 0.032172337847382125
120.0, 0.02357911959800613
121.0, 0.01764574329415503
122.0, 0.013660328272248931
123.0, 0.011180597694222354
124.0, 0.009351518941630844
125.0, 0.00806050110719338
126.0, 0.007307114120424098
127.0, 0.007170911831953324
128.0, 0.006361729245504627
129.0, 0.005779963195578854
130.0, 0.006346349720869664
131.0, 0.005985960343115147
132.0, 0.005267225056000872
133.0, 0.004685611147481397
134.0, 0.0064148388293588455
135.0, 0.005178062990916096
136.0, 0.0048849534683464485
137.0, 0.007949742953106275
138.0, 0.009215045589662572
139.0, 0.011563831115237478
140.0, 0.014748563423841154
141.0, 0.018099006274509725
142.0, 0.021742746640357108
143.0, 0.026013143441211563
144.0, 0.031168843723602308
145.0, 0.03963799595464363
146.0, 0.04934262613324539
147.0, 0.05954879036372516
148.0, 0.06927477512627488
149.0, 0.07578959180768675
150.0, 0.07765704470546848
151.0, 0.074359480364275
152.0, 0.06427942962537571
153.0, 0.054706429332090856
154.0, 0.0447560703686491
155.0, 0.033631223255388615
156.0, 0.03154354359839248
157.0, 0.031457925278789434
158.0, 0.03331071013864112
159.0, 0.03890122866737399
160.0, 0.04029047568565154
161.0, 0.040716663432005466
162.0, 0.04131347534044276
163.0, 0.037981924225239175
164.0, 0.033938525410113794
165.0, 0.031382424545892344
166.0, 0.03448551180076792
167.0, 0.03510113340174362
168.0, 0.037605239541241384
169.0, 0.04230302151545831
170.0, 0.044875093488007854
171.0, 0.04686537255107327
172.0, 0.04717126127632045
173.0, 0.04457634792830038
174.0, 0.04397316212456111
175.0, 0.045680523903198635
176.0, 0.04967199590084649
177.0, 0.056322783920036756
178.0, 0.06246893475800313
179.0, 0.06951188099578158
180.0, 0.07799172166975904
181.0, 0.08756765062618138
182.0, 0.096302641702911
183.0, 0.10345599535154945
184.0, 0.1076415501802487
185.0, 0.10922121640659546
186.0, 0.10687321535091361
187.0, 0.10116223099981653
188.0, 0.0956393340015987
189.0, 0.08668710643080298
190.0, 0.07659560049680324
191.0, 0.06645022911576667
192.0, 0.06118166103868221
193.0, 0.05498082408268627
194.0, 0.049406948059558156
195.0, 0.047722383344203985
196.0, 0.044756798263347886
197.0, 0.04250463311162289
198.0, 0.041503108471037164
199.0, 0.04272659968617036
200.0, 0.04487253401117905
201.0, 0.04983928395091692
202.0, 0.059511315557389866
203.0, 0.06909605765297773
204.0, 0.08407746720293474
205.0, 0.10275518759817356
206.0, 0.12116521243741382
207.0, 0.13700204320898182
208.0, 0.14567917856991253
209.0, 0.14564013303648615
210.0, 0.13619754369050108
211.0, 0.12041685241278739
212.0, 0.09974585618592585
213.0, 0.07452106893231542
214.0, 0.057472694484571346
215.0, 0.04326680421370046
216.0, 0.031867446863976516
217.0, 0.02456145158726609
218.0, 0.019870318264503264
219.0, 0.015313338184375826
220.0, 0.010407428316042631
221.0, 0.007710363112778607
222.0, 0.00498486531913288
223.0, 0.002598692053308005
224.0, 0.0009461588613927591
225.0, 0.0011296838594572738
226.0, 0.0008414680417899382
227.0, 0.0004354697097524328
228.0, 0.0012372189717454708
229.0, 0.002143213244148958
230.0, 0.0025947277912159584
231.0, 0.0023996608272740688
232.0, 0.0013675262740725504
233.0, 0.0014847560346095945
234.0, 0.0019622330084187543
235.0, 0.0022138394641025394
236.0, 0.004243472099310335
237.0, 0.0029329178078619476
238.0, 0.0005050607108217695
239.0, 0.002570656819659784
240.0, 0.0018451358914222144
241.0, 0.001841027782899518
242.0, 0.0028875268289698403
243.0, 0.0011716903819540985
244.0, 0.0022709038118524424
245.0, 0.003129020265567511
246.0, 0.0017169064557657427
247.0, 0.0076091207218567745
248.0, 0.011026574645386597
249.0, 0.01305101307943729
250.0, 0.015621943890416417
251.0, 0.015712173528537734
252.0, 0.015768621748673984
253.0, 0.01566749711010445
254.0, 0.012725087563076363
255.0, 0.009203115393900431
256.0, 0.007239327420459782
257.0, 0.007804095387696712
258.0, 0.0061850912346867685
259.0, 0.007393740000871749
260.0, 0.009420659839842149
261.0, 0.009938375879134554
262.0, 0.01279931598866167
263.0, 0.016203168291184157
264.0, 0.02035151727236731
265.0, 0.026490065506793444
266.0, 0.033510519403207574
267.0, 0.038993403409920094
268.0, 0.04238042961526064
269.0, 0.045603076469390824
270.0, 0.045423788609266984
271.0, 0.042836627044529084
272.0, 0.038273040685848914
273.0, 0.030649164818359942
274.0, 0.02691945805799272
275.0, 0.026056000998941342
276.0, 0.026529670355025105
277.0, 0.025144812208220357
278.0, 0.026712720405788433
279.0, 0.032105924856591125
280.0, 0.04239330754030673
281.0, 0.05335867863130212
282.0, 0.06432746403622759
283.0, 0.0758508178919488
284.0, 0.09955568171163834
285.0, 0.1302362619941563
286.0, 0.1670613404627183
287.0, 0.21011900686535193
288.0, 0.2583659181665301
289.0, 0.2884462616115118
290.0, 0.2996914224038674
291.0, 0.28936467567956325
292.0, 0.2652968237994808
293.0, 0.22900291823755023
294.0, 0.18349372699544023
295.0, 0.14116691959510944
296.0, 0.11212109860895136
297.0, 0.08860906802269287
298.0, 0.06823004227593557
299.0, 0.05499375617532832
300.0, 0.04458962403527214
301.0, 0.03643931661324023
302.0, 0.030326019325472582
303.0, 0.025557781520486482
304.0, 0.020672824571366828
305.0, 0.0169076194549766
306.0, 0.016703954920730332
307.0, 0.013268431530481897
308.0, 0.012281713139803762
309.0, 0.013133287176509486
310.0, 0.01080180299500769
311.0, 0.010682231661006958
312.0, 0.010180738625016306
313.0, 0.00863579597195581
314.0, 0.007579803098169524
315.0, 0.007557212473802535
316.0, 0.0078043169772406724
317.0, 0.007871826120137074
318.0, 0.008589226588819485
319.0, 0.009163813432923907
320.0, 0.009656777006433696
321.0, 0.010135973510183631
322.0, 0.01452967160832718
323.0, 0.019391242669748354
324.0, 0.025640508184609126
325.0, 0.0363268368043173
326.0, 0.04371826727435478
327.0, 0.05140005779360477
328.0, 0.05817717209940286
329.0, 0.054828983602199816
330.0, 0.046057424878420135
331.0, 0.03584380985865383
332.0, 0.025845994532099313
333.0, 0.018267368831397988
334.0, 0.013718263948346961
335.0, 0.01043676681977736
336.0, 0.007288045829191996
337.0, 0.0052509374781135685
338.0, 0.004159616132196315
339.0, 0.0037845216569372367
340.0, 0.0039033980592878405
341.0, 0.004977305882388909
342.0, 0.003255264223460992
343.0, 0.0003551579828756741
344.0, 0.0004385627283842688
345.0, 0.002048055766301095
346.0, 0.0025850425463226595
347.0, 0.002097700947770539
348.0, 0.0025702212940016066
349.0, 0.001230473202492141
350.0, 0.0015849536104993248
351.0, 0.003916168383160346
352.0, 0.0010961854706574093
353.0, 0.00018518657329551205
354.0, 8.868563973646628e-05
355.0, 0.00026326545854324764
356.0, 0.0007442068746406859
357.0, 0.0009333787125775534
358.0, 0.0012881837270240658
359.0, 0.002235661724592327
360.0, 0.0014094703213564604
361.0, 0.0010554863742708472
362.0, 0.001147187424804811
363.0, 0.0016265424800770778
364.0, 0.001872331614485087
365.0, 0.002327418588080076
366.0, 0.0024997465347849773
367.0, 0.0010973635576070745
368.0, 0.0016583258850458409
369.0, 0.0018168774506840811
370.0, 0.0015823968609905924
371.0, 0.0025289733124538405
372.0, 0.0014073080177474978
373.0, 0.00045877728036428957
374.0, 0.00031447517599678864
375.0, 0.0008416405949270033
376.0, 0.0011378549460848775
377.0, 0.0013983866070173545
378.0, 0.001641080927356861
379.0, 0.001026091365757481
380.0, 0.00047211785224009325
381.0, 0.0007799065671314685
382.0, 0.0024319942569149986
383.0, 0.0008337142755575393
384.0, 0.0011296876617377832
385.0, 0.001504336009280304
386.0, 0.00014739026523042612
387.0, 0.0005874464716860944
388.0, 0.000798483389430737
389.0, 0.0010533593480617355
390.0, 0.0018255712667102977
391.0, 0.0020597088687176746
392.0, 0.0029249311573642804
393.0, 0.004203624898373734
394.0, 0.005300877395676177
395.0, 0.005954586998124511
396.0, 0.006996776726291977
397.0, 0.007905199937037434
398.0, 0.006809706422195262
399.0, 0.00831942652183202
400.0, 0.008007125942355987
401.0, 0.005593152035283347
402.0, 0.003667084067721816
403.0, 0.008768450105239155
404.0, 0.012765996608450124
405.0, 0.014123161600772982
406.0, 0.018110065505769022
407.0, 0.02090157019659872
408.0, 0.020873322589381512
409.0, 0.01789980276845897
410.0, 0.01757811569500201
411.0, 0.016638723862426603
412.0, 0.018029946176269497
413.0, 0.02331625249252137
414.0, 0.030950157436505726
415.0, 0.0359616623717444
416.0, 0.037873038625976636
417.0, 0.03609797017058668
418.0, 0.02708910454222096
419.0, 0.020932684084554187
420.0, 0.016165992429600193
421.0, 0.011574264182214362
422.0, 0.010041976465097297
423.0, 0.006874698683162257
424.0, 0.004370398506058381
425.0, 0.005117360024899431
426.0, 0.006709978318351878
427.0, 0.005424506577377887
428.0, 0.0038193705514941866
429.0, 0.005515558582280593
430.0, 0.003680024795795416
431.0, 0.005406011024478356
432.0, 0.008070221955648936
433.0, 0.0067800903866471985
434.0, 0.004851895613928404
435.0, 0.005939784850968698
436.0, 0.007507047383775693
437.0, 0.004014610188788058
438.0, 0.008629595230912643
439.0, 0.010302568439551577
440.0, 0.0092697054852137
441.0, 0.008766814850275084
442.0, 0.011683371783574486
443.0, 0.012800172690848858
444.0, 0.012696904546717635
445.0, 0.014843899751418416
446.0, 0.016318782424269904
447.0, 0.017847664272789762
448.0, 0.01960017551008874
449.0, 0.021726717168447953
450.0, 0.025241845596653004
451.0, 0.029539404670649413
452.0, 0.03478563801443128
453.0, 0.041989838302852064
454.0, 0.050188716404569025
455.0, 0.05611308843270718
456.0, 0.05853267655994613
457.0, 0.05549731497367982
458.0, 0.057326523435659145
459.0, 0.05618875095140871
460.0, 0.05216298257069447
461.0, 0.05371788588656497
462.0, 0.053756536794736035
463.0, 0.055677586169819236
464.0, 0.06050119095944821
465.0, 0.06866796433954511
466.0, 0.07598748635439323
467.0, 0.08653038738018977
468.0, 0.10162649397023979
469.0, 0.1219180604798577
470.0, 0.15375360840636676
471.0, 0.19231974077275274
472.0, 0.2392725217898175
473.0, 0.30942831103723956
474.0, 0.4119083664489993
475.0, 0.5248349913175234
476.0, 0.643803840462958
477.0, 0.7801623882075464
478.0, 0.8357763191204923
479.0, 0.8321159847207399
480.0, 0.7736196222131394
481.0, 0.6517760250008509
482.0, 0.517102402766491
483.0, 0.4028284720368294
484.0, 0.3168143142067437
485.0, 0.24609037507748302
486.0, 0.19700985603579782
487.0, 0.1646374289448548
488.0, 0.14440671449285938
489.0, 0.12123571992852793
490.0, 0.1111766905060624
491.0, 0.1062289497717551
492.0, 0.1034231605002593
493.0, 0.09975789249241812
494.0, 0.10413627352099997
495.0, 0.11194059425673439
496.0, 0.12292553137985561
497.0, 0.1412238871507998
498.0, 0.16529095862664656
499.0, 0.20206792244187638
500.0, 0.25308299997932426
501.0, 0.31750518196307076
502.0, 0.4149464434814054
503.0, 0.5432621761210118
504.0, 0.6927457014160144
505.0, 0.8320110520948759
506.0, 0.9472873937134162
507.0, 0.9843912962007122
508.0, 0.9363937983135951
509.0, 0.8141782642505697
510.0, 0.6746644084332444
511.0, 0.5369762184098158
512.0, 0.41342159138781787
513.0, 0.32819045961113574
514.0, 0.26203412648536106
515.0, 0.2115759277142272
516.0, 0.17551292811114916
517.0, 0.15258629020191908
518.0, 0.12824545425757858
519.0, 0.1108417997086148
520.0, 0.09846914478701091
521.0, 0.08553440585251595
522.0, 0.07729478970131849
523.0, 0.07168756201282432
524.0, 0.06631407589431731
525.0, 0.05750049611467835
526.0, 0.054305107084643915
527.0, 0.05084352380536239
528.0, 0.04679174257825546
529.0, 0.042199436544634206
530.0, 0.038975561507004264
531.0, 0.03697811145159096
532.0, 0.03528651844096033
533.0, 0.03285222115755474
534.0, 0.031304809009125925
535.0, 0.030397780600906536
536.0, 0.029048908137655448
537.0, 0.026294164141307943
538.0, 0.024450358727497047
539.0, 0.02346527475596354
540.0, 0.022853720107206994
541.0, 0.022179207445021762
542.0, 0.0202714405289013
543.0, 0.02001221011092347
544.0, 0.019203085454124608
545.0, 0.017094662382980238
546.0, 0.019554286715947403
547.0, 0.01644188807474121
548.0, 0.013673492407266934
549.0, 0.013825664811307266
550.0, 0.015665379754803848
551.0, 0.015144459648173037
552.0, 0.014453166540654091
553.0, 0.014065464298928911
554.0, 0.012615311322951408
555.0, 0.011131278753870216
556.0, 0.010980168281084828
557.0, 0.011888608457542372
558.0, 0.011790995696232022
559.0, 0.009991083420427793
560.0, 0.009102323488369434
561.0, 0.009565767880023123
562.0, 0.01133426093099862
563.0, 0.009346951811347667
564.0, 0.009264646599609084
565.0, 0.010512212283523913
566.0, 0.011009306581133825
567.0, 0.010259755817042797
568.0, 0.01157284409264024
569.0, 0.013008644226767757
570.0, 0.011945377132425028
571.0, 0.014808808418362547
572.0, 0.014121535397898689
573.0, 0.013411058519671833
574.0, 0.015873887642996413
575.0, 0.020439992170441776
576.0, 0.021787454900530086
577.0, 0.023291843295756023
578.0, 0.026640001110320492
579.0, 0.027279328537574567
580.0, 0.02583798973967075
581.0, 0.022847396362372676
582.0, 0.019000618236198353
583.0, 0.01686530521581494
584.0, 0.013400832526314818
585.0, 0.01104002136022987
586.0, 0.010090167885072167
587.0, 0.009207152115362327
588.0, 0.009378543873921279
589.0, 0.008217959546143953
590.0, 0.006715554493735613
591.0, 0.007992536008770862
592.0, 0.007371536902912745
593.0, 0.0051404253065992014
594.0, 0.003558074833195514
595.0, 0.005824296987151758
596.0, 0.004907737886894855
597.0, 0.004779383169485727
598.0, 0.004649403417734844
599.0, 0.003699731331263554
600.0, 0.0027100616845267588
601.0, 0.003071849462116683
602.0, 0.004023892208921174
603.0, 0.005095272824333364
604.0, 0.006371890459324523
605.0, 0.005136469889571488
606.0, 0.00415171422222851
607.0, 0.004396387105370643
608.0, 0.005424764943470129
609.0, 0.002579585599139077
610.0, 0.002397102003030865
611.0, 0.0040689631781560785
612.0, 0.0016102360921894303
613.0, 0.0027587735341398816
614.0, 0.004122095583234366
615.0, 0.004829267678824888
616.0, 0.004143352342439952
617.0, 0.005863082061258661
618.0, 0.00397504125202198
619.0, 0.0020288343267160346
620.0, 0.00359480917042219
621.0, 0.007308460344263019
622.0, 0.004523336811191518
623.0, 0.003663123069133168
624.0, 0.008024690440670843
625.0, 0.005455689623632351
626.0, 0.0054423168343785844
627.0, 0.004542071459887794
628.0, 0.0025692072239778857
629.0, 0.003057504589834075
630.0, 0.003287336794844824
631.0, 0.0036375979345311667
632.0, 0.004105909496795148
633.0, 0.0045527770456486975
634.0, 0.004414054332759181
635.0, 0.004239680424388258
636.0, 0.004888160671119673
637.0, 0.007174106950553077
638.0, 0.005964317520141334
639.0, 0.006547653836132238
640.0, 0.008446677970723276
641.0, 0.010869569777380864
642.0, 0.01005157392130182
643.0, 0.010979605877428501
644.0, 0.012038811884984943
645.0, 0.012736177854214817
646.0, 0.01344993598638148
647.0, 0.012976596750211749
648.0, 0.01186828004822932
649.0, 0.011249373647901663
650.0, 0.013082153828861952
651.0, 0.00875162978525678
652.0, 0.00717989623327478
653.0, 0.007200321764261099
654.0, 0.006904459879556143
655.0, 0.0037801066699343477
656.0, 0.00562368750925807
657.0, 0.005357983572253812
658.0, 0.0005468998091071569
659.0, 0.002191886448085651
660.0, 0.001199287261491067
661.0, 0.001607597423709696
662.0, 0.003217616617159023
663.0, 0.002039696246629976
664.0, 0.0028837238536319346
665.0, 0.0030660273691722572
666.0, 0.0028456651144360867
667.0, 0.003079011422153502
668.0, 0.0030860319423992233
669.0, 0.003047916649215216
670.0, 0.0025491926744721813
671.0, 0.0015644767116209835
672.0, 0.0029618610547545127
673.0, 0.0026547031691783176
674.0, 0.0021346858451335663
675.0, 0.00225051074948421
676.0, 0.00398778007771447
677.0, 0.0022805778392533116
678.0, 0.0017136603213916087
679.0, 0.002317836730039323
680.0, 0.0028006726990472985
681.0, 0.0009541188555702482
682.0, 0.002278034918353494
683.0, 0.0038050203098001045
684.0, 0.002927322155194924
685.0, 0.0019323875222878309
686.0, 0.0010816489893603093
687.0, 0.0006861222647772284
688.0, 0.0011559368033979482
689.0, 0.0035937994271083326
690.0, 0.001678618681080219
691.0, 0.0015384689493028161
692.0, 0.002569848831221981
693.0, 0.0017479822298890608
694.0, 0.0006077569317543142
695.0, 0.0005613715434606736
696.0, 0.0011579152327428164
697.0, 0.0017693319145531939
698.0, 0.0004168161116513624
699.0, 0.0008396627483161511
700.0, 0.001365641514663192
701.0, 0.0016082772815637402
702.0, 0.002596569994531403
703.0, 0.0023994457755392084
704.0, 0.0016251773789178955
705.0, 0.0016221296573735743
706.0, 0.004272687717354613
707.0, 0.0025297761154601294
708.0, 0.0021338123647057093
709.0, 0.002222059932285712
710.0, 0.0021587324651880808
711.0, 0.002537699656157646
712.0, 0.002178419209223712
713.0, 0.0020978773188106863
714.0, 0.0022415941327086327
715.0, 0.0015675634630999474
716.0, 0.0006431239279539543
717.0, 0.003201033208624465
718.0, 0.005198498871701158
719.0, 0.0017832013548979568
720.0, 0.0036369424670847908
721.0, 0.0037979264744795386
722.0, 0.003518106675298583
723.0, 0.0031535756679235806
724.0, 0.0010786487135694808
725.0, 0.0028693399825867574
726.0, 0.002566590298198046
727.0, 0.001579300569483493
728.0, 0.004731708017069344
729.0, 0.0016392541721111627
730.0, 0.0028503811895439915
731.0, 0.0037484662304690395
732.0, 0.0013079910446981515
733.0, 0.004422840921816683
734.0, 0.0037685765442947872
735.0, 0.004448892922759461
736.0, 0.006295559005691335
737.0, 0.004296194093572916
738.0, 0.00270088768872547
739.0, 0.002887787634936374
740.0, 0.004382180932142086
741.0, 0.006270575194787085
742.0, 0.00504313581449726
743.0, 0.005353113196242399
744.0, 0.006783209653633904
745.0, 0.008402093710220628
746.0, 0.0075095058315232865
747.0, 0.010177816467292275
748.0, 0.009941795975284894
749.0, 0.00890318957186505
750.0, 0.011387916875115166
751.0, 0.015739849354137216
752.0, 0.015548925649173293
753.0, 0.017786871146585677
754.0, 0.024595778167463406
755.0, 0.026010531613569463
756.0, 0.03192838313943603
757.0, 0.04287434025398878
758.0, 0.05622933365235196
759.0, 0.06730361345518113
760.0, 0.08834290847687093
761.0, 0.10568529047820259
762.0, 0.11931611413595414
763.0, 0.12825987695455165
764.0, 0.12483808800285592
765.0, 0.10928601672977815
766.0, 0.09215713393819842
767.0, 0.0758627874231165
768.0, 0.0600127338983108
769.0, 0.05133581149456882
770.0, 0.045602856382724356
771.0, 0.042048726034018005
772.0, 0.0403339825621396
773.0, 0.0421692749429153
774.0, 0.0424297240588885
775.0, 0.04179726179033546
776.0, 0.03972820229989156
777.0, 0.034828761049522296
778.0, 0.026657323786969788
779.0, 0.02325792852153491
780.0, 0.020477767573549747
781.0, 0.015339867997811021
782.0, 0.01169999240245558
783.0, 0.011188872000157866
784.0, 0.010541093332420629
785.0, 0.009487730001664548
786.0, 0.00921773485175648
787.0, 0.008537826728056298
788.0, 0.006395563650784998
789.0, 0.006153586184506735
790.0, 0.008647297396843676
791.0, 0.0035280569606192225
792.0, 0.005460620073785829
793.0, 0.006326362161148111
794.0, 0.005154572060996815
795.0, 0.003828672152896826
796.0, 0.004793286868995728
797.0, 0.004896834832972685
798.0, 0.0056922236517545285
799.0, 0.007749000788094329
800.0, 0.008533138551134049
801.0, 0.007869559884081986
802.0, 0.009999583325278043
803.0, 0.01239326354015889
804.0, 0.010086601616290162
805.0, 0.014674568526568768
806.0, 0.016794363370191894
807.0, 0.018665379269771288
808.0, 0.02245187084724289
809.0, 0.03168847238304818
810.0, 0.03661398250070473
811.0, 0.04688746349497034
812.0, 0.05849107497244656
813.0, 0.06471641693924342
814.0, 0.06676778833759324
815.0, 0.07152053092315422
816.0, 0.06819099010680432
817.0, 0.05644022388522529
818.0, 0.04854178655872719
819.0, 0.04006024501245014
820.0, 0.03112114591691642
821.0, 0.02367663301977658
822.0, 0.019246459572691027
823.0, 0.015586588052932471
824.0, 0.013126794700250011
825.0, 0.012182736784209626
826.0, 0.01146024394687934
827.0, 0.008220997947742864
828.0, 0.010152745523035382
829.0, 0.009983483295578497
830.0, 0.008591084890248285
831.0, 0.00722932583844766
832.0, 0.008215365486189653
833.0, 0.006268748703318731
834.0, 0.006500014078128789
835.0, 0.007210806435998074
836.0, 0.005054674779880285
837.0, 0.005204201268587037
838.0, 0.006159901076454614
839.0, 0.004389892467854152
840.0, 0.0004096502958918192
841.0, 0.00011182671808045966
842.0, 0.004706786630227892
843.0, 0.0037138628669705223
844.0, 0.0018782115059521706
845.0, 0.0034554634827342187
846.0, 0.0029680925675578686
847.0, 0.00272717131064887
848.0, 0.0015132427017054144
849.0, 0.00019526847568676807
850.0, 0.0006886337846336695
851.0, 0.0017303261187705604
852.0, 0.0013113720673880672
853.0, 0.0025335140616961466
854.0, 0.005331787912324267
855.0, 0.0038772814072214664
856.0, 0.0013442507645391938
857.0, 0.0025751904665626264
858.0, 0.0037770234384690337
859.0, 0.0015798731583482868
860.0, 0.00364250341820929
861.0, 0.004542346574903532
862.0, 0.003169330283024015
863.0, 0.0009041256150542189
864.0, 0.0006999787685419902
865.0, 0.0031901005069136087
866.0, 0.0020017226636352093
867.0, 0.0013792816108090214
868.0, 0.002442790932390668
869.0, 0.001016024573531908
870.0, 0.00222530865629247
871.0, 0.001785515356994857
872.0, 0.0012045830175448071
873.0, 0.0019177856367114327
874.0, 0.0007889834750832412
875.0, 0.0019673129083327993
876.0, 0.001572647938892982
877.0, 0.000626436176951203
878.0, 0.0021333165978465766
879.0, 0.001146616475711962
880.0, 0.0012169909751589963
881.0, 0.0024330743386576526
882.0, 0.0036696301803731614
883.0, 0.0018293590163898526
884.0, 0.0033277796751648497
885.0, 0.002825456701079482
886.0, 0.0019573821072963733
887.0, 0.0019622334936199534
888.0, 0.0010871634099655092
889.0, 0.0012552446691485163
890.0, 0.003271997240431573
891.0, 0.0044871690791702746
892.0, 0.0020874874872001785
893.0, 0.003109153317834571
894.0, 0.004800824870456513
895.0, 0.0040541714330060135
896.0, 0.0023520482910809946
897.0, 0.004427266475794416
898.0, 0.002671018620519298
899.0, 0.0020499247418930243
900.0, 0.0015772695951988295
901.0, 0.0008037665090794787
902.0, 0.00011400691045210367
903.0, 0.004781381581347077
904.0, 0.0032695560239168987
905.0, 0.0008763482870088895
906.0, 0.0021630057000894347
907.0, 0.003386378555816261
908.0, 0.0020758767753969744
909.0, 0.0023499164057864228
910.0, 0.003014180091211004
911.0, 0.0020689580158792134
912.0, 0.003507945438461139
913.0, 0.005291934296321251
914.0, 0.005065667248108782
915.0, 0.003616337657550916
916.0, 0.0035536141544544654
917.0, 0.0032800964689287285
918.0, 0.0026847594584656284
919.0, 0.0024011251572905808
920.0, 0.0027966003021585592
921.0, 0.004023946482345381
922.0, 0.002985903244184843
923.0, 0.0035016214811460725
924.0, 0.004093562714384202
925.0, 0.004291336019142777
926.0, 0.0065525797953239475
927.0, 0.004166322441709737
928.0, 0.0035444162609615084
929.0, 0.0033855378910884045
930.0, 0.002334103672534636
931.0, 0.0033497734951965525
932.0, 0.0028861687250643594
933.0, 0.0023148974945035794
934.0, 0.0016837121058556686
935.0, 0.0013729441236128852
936.0, 0.00819192593676948
937.0, 0.0046465457510021894
938.0, 0.0036975514984660387
939.0, 0.005312949181389925
940.0, 0.003718183229430467
941.0, 0.001162431930875737
942.0, 0.005655746574956134
943.0, 0.006902753069288918
944.0, 0.004076133845763469
945.0, 0.003806883526206451
946.0, 0.005467320060262195
947.0, 0.003642922164857234
948.0, 0.005110850676058763
949.0, 0.008906169467805498
950.0, 0.003477990143528475
951.0, 0.005281719405702954
952.0, 0.006322903015061442
953.0, 0.005578381128081032
954.0, 0.004079645330612027
955.0, 0.006609636494580908
956.0, 0.004347477272784207
957.0, 0.0022894117358630223
958.0, 0.003003968110802044
959.0, 0.005988292276066708
960.0, 0.002060927661571366
961.0, 0.005869069301153939
962.0, 0.007519174307960186
963.0, 0.00663958742670658
964.0, 0.004711522705235449
965.0, 0.004661716450780795
966.0, 0.004612248473682226
967.0, 0.003368329186744906
968.0, 0.0040178294690897155
969.0, 0.008684797322373788
970.0, 0.007558887177319682
971.0, 0.0073469610084751025
972.0, 0.011264056246844286
973.0, 0.015132391478545434
974.0, 0.014129992263789063
975.0, 0.019259227996043602
976.0, 0.018673829330919017
977.0, 0.01863235265331313
978.0, 0.019398889327135797
979.0, 0.018968226875403373
980.0, 0.0161159569499321
981.0, 0.015539764361975645
982.0, 0.012608503737860516
983.0, 0.009410370617171916
984.0, 0.010737029068826596
985.0, 0.00939593197151666
986.0, 0.010121364742811141
987.0, 0.009493132454471918
988.0, 0.008043479771080128
989.0, 0.00840743785376362
990.0, 0.008148054616083235
991.0, 0.008398514412697868
992.0, 0.00751941007598122
993.0, 0.006623425565497602
994.0, 0.008477649734765013
995.0, 0.00865283064021721
996.0, 0.006809901098093861
997.0, 0.0070086267598005935
998.0, 0.010161397285789965
999.0, 0.014717378851880038
1000.0, 0.012514569845240957
1001.0, 0.01516409805863785
1002.0, 0.019198388761435797
1003.0, 0.02297592142082828
1004.0, 0.026093822134513642
1005.0, 0.02605978562706845
1006.0, 0.02302109456985508
1007.0, 0.022696088615219673
1008.0, 0.023215181685533166
1009.0, 0.017358189006869806
1010.0, 0.02209540892962631
1011.0, 0.02499007519906439
1012.0, 0.02518638479857913
1013.0, 0.023959767305291913
1014.0, 0.02411438279835227
1015.0, 0.02300337998978113
1016.0, 0.02020661059342476
1017.0, 0.019680299193042487
1018.0, 0.01947317071856742
1019.0, 0.014086512477819632
1020.0, 0.0168608117277821
1021.0, 0.015272943424902997
1022.0, 0.01268250742375907
1023.0, 0.012716081048960073
1024.0, 0.01834057924825242
1025.0, 0.014409310191879058
1026.0, 0.016882560440394104
1027.0, 0.020037399720267274
1028.0, 0.021090357175909586
1029.0, 0.019680044217429825
1030.0, 0.027677155698042154
1031.0, 0.027828222917516243
1032.0, 0.027569470098183783
1033.0, 0.028471959216635714
1034.0, 0.02877803794306752
1035.0, 0.01986817793025096
1036.0, 0.017549820483654673
1037.0, 0.01715969839450608
1038.0, 0.016670746597440327
1039.0, 0.015283571351950484
1040.0, 0.014611410094989868
1041.0, 0.01284966702625011
1042.0, 0.017135795029445466
1043.0, 0.022064496394549004
1044.0, 0.02084088087895632
1045.0, 0.020387234347184795
1046.0, 0.022967651456669586
1047.0, 0.020546292740740758
1048.0, 0.018286311226555853
1049.0, 0.021437910091329643
1050.0, 0.023982839282133107
1051.0, 0.016235841839317314
1052.0, 0.016110437105713502
1053.0, 0.017625789335348144
1054.0, 0.01466745998282775
1055.0, 0.011158439126623634
1056.0, 0.014717881319125525
1057.0, 0.012133928442696352
1058.0, 0.01077277044095561
1059.0, 0.013130226213433651
1060.0, 0.008537352216735069
1061.0, 0.008749712400677661
1062.0, 0.012299156584859366
1063.0, 0.01355261689645696
1064.0, 0.01128120001809058
1065.0, 0.010185174726744909
1066.0, 0.013416310115062707
1067.0, 0.01519632761634014
1068.0, 0.01458909286175316
1069.0, 0.013600189955819847
1070.0, 0.016326520793241702
1071.0, 0.016099555246898923
1072.0, 0.019675229762997244
1073.0, 0.019418846421041087
1074.0, 0.016149052434700214
1075.0, 0.01549776146522899
1076.0, 0.023131330844864045
1077.0, 0.023651183666133002
1078.0, 0.025108704940678173
1079.0, 0.027687252428553046
1080.0, 0.029169258386276025
1081.0, 0.028766105983706974
1082.0, 0.03390396498428418
1083.0, 0.03684968006454501
1084.0, 0.03956966193376091
1085.0, 0.04481643377916211
1086.0, 0.052247980831733445
1087.0, 0.05256469311396402
1088.0, 0.06156150950311625
1089.0, 0.07120591986025886
1090.0, 0.07780661708132292
1091.0, 0.0885136109586714
1092.0, 0.11083013535132477
1093.0, 0.1289716573904993
1094.0, 0.15539467315243555
1095.0, 0.1873586988722254
1096.0, 0.20858728149500055
1097.0, 0.22960460830527202
1098.0, 0.23959466097098897
1099.0, 0.24558423960034464
1100.0, 0.24465730528658275
1101.0, 0.23125747465111807
1102.0, 0.21546951297805447
1103.0, 0.19197123015576728
1104.0, 0.17088905351432163
1105.0, 0.15586202773167498
1106.0, 0.1456139861514892
1107.0, 0.1285113217572695
1108.0, 0.13075831606832275
1109.0, 0.1222321374413831
1110.0, 0.1145012488355986
1111.0, 0.115343415876039
1112.0, 0.11840849619901832
1113.0, 0.11132294018143621
1114.0, 0.11562154146811277
1115.0, 0.11625281710229513
1116.0, 0.10906787670951622
1117.0, 0.10024580493014423
1118.0, 0.09892923312835727
1119.0, 0.09112862334222543
1120.0, 0.08318814532081892
1121.0, 0.07623415695491607
1122.0, 0.06848160988091863
1123.0, 0.053974953223072775
1124.0, 0.04925803300066282
1125.0, 0.044873206839395684
1126.0, 0.03881182711978457
1127.0, 0.03223561688734282
1128.0, 0.030275823924132132
1129.0, 0.026806937054691022
1130.0, 0.02231719017375363
1131.0, 0.021354911996317914
1132.0, 0.021636973117161413
1133.0, 0.015372573321788256
1134.0, 0.016735768927554608
1135.0, 0.020043030135601447
1136.0, 0.016611487614953405
1137.0, 0.012070060401402011
1138.0, 0.014412308672627527
1139.0, 0.012865604498580863
1140.0, 0.012514553661650815
1141.0, 0.013366358190362701
1142.0, 0.012132231600080258
1143.0, 0.00884260368317617
1144.0, 0.010664469842389798
1145.0, 0.010552155431782631
1146.0, 0.00969516363538653
1147.0, 0.013217445264500142
1148.0, 0.01741533211735665
1149.0, 0.013273822674002109
1150.0, 0.01286957189950288
1151.0, 0.014620623487431378
1152.0, 0.012367628207408813
1153.0, 0.010510744257009975
1154.0, 0.01284375602955607
1155.0, 0.009759027513749899
1156.0, 0.008110045167280295
1157.0, 0.0099481078768181
1158.0, 0.009247680274890015
1159.0, 0.006316754214016781
1160.0, 0.009638818409627263
1161.0, 0.004121626635339834
1162.0, 0.005463351517070215
1163.0, 0.0069147639997829925
1164.0, 0.00691443207207777
1165.0, 0.006218737145297537
1166.0, 0.003583365209028317
1167.0, 0.005486789079978529
1168.0, 0.003849242900450748
1169.0, 0.0011855157920108708
1170.0, 0.0008481275569182255
1171.0, 0.004401889628084188
1172.0, 0.003534900334855866
1173.0, 0.0015155888730772004
1174.0, 0.0008935839364177129
1175.0, 0.0011079360595854873
1176.0, 0.00037887192903798394
1177.0, 0.0022857484254049007
1178.0, 0.002015842556046112
1179.0, 0.003053731424758658
1180.0, 0.004035912360299364
1181.0, 0.0033329940937533485
1182.0, 0.0007912690298408434
1183.0, 0.005469319793450389
1184.0, 0.0029255893669224995
1185.0, 0.0014222352050226581
1186.0, 0.0035056552939864826
1187.0, 0.006355758212589031
1188.0, 0.001119364530277014
1189.0, 0.0032775979200061673
1190.0, 0.002805494292104521
1191.0, 0.001599973075732341
1192.0, 0.001661597743937707
1193.0, 0.00032583483354230126
1194.0, 0.0024901087018087712
1195.0, 0.0021406928725135436
1196.0, 0.0035727443411577913
1197.0, 0.004505420276318741
1198.0, 0.0009762801009379385
1199.0, 0.005462914387843031
1200.0, 0.003211308734918077
1201.0, 0.003045117909632922
1202.0, 0.003567520321711804
1203.0, 0.0038600579484033026
1204.0, 0.006695885915262597
1205.0, 0.004011583092176763
1206.0, 0.005365155126137666
1207.0, 0.004424523716974683
1208.0, 0.0026077562025889596
1209.0, 0.004010149363118757
1210.0, 0.006014706231748895
1211.0, 0.0017079417907079604
1212.0, 0.004671192475631451
1213.0, 0.007083718013428238
1214.0, 0.005713531679807754
1215.0, 0.006198820747549943
1216.0, 0.00817553068383909
1217.0, 0.003929341827124585
1218.0, 0.007375391208511351
1219.0, 0.01106863331723223
1220.0, 0.005892231085536935
1221.0, 0.0005435400216309894
1222.0, 0.005805450310557117
1223.0, 0.0048368870422417585
1224.0, 0.004153263014437099
1225.0, 0.007337595385828324
1226.0, 0.012237730430716312
1227.0, 0.0016863524438926053
1228.0, 0.0076390294601509584
1229.0, 0.00945086966050453
1230.0, 0.006006951753654311
1231.0, 0.0029021781360534546
1232.0, 0.008789445768098356
1233.0, 0.006772186255673727
1234.0, 0.009555657853972676
1235.0, 0.009904661797623887
1236.0, 0.00773327327445262
1237.0, 0.0057492959135647895
1238.0, 0.003948399048829467
1239.0, 0.008839144122330278
1240.0, 0.0041515103009339294
1241.0, 0.0038703713908210882
1242.0, 0.008331379794180346
1243.0, 0.005776537487246505
1244.0, 0.004848802059724495
1245.0, 0.0074234457951010465
1246.0, 0.00624723341676893
1247.0, 0.006247922172120291
1248.0, 0.009567881176610766
1249.0, 0.009846791559451711
1250.0, 0.004006591787302531
1251.0, 0.005932583946385664
1252.0, 0.00795855416310799
1253.0, 0.006590173274641667
1254.0, 0.003788759846802283
1255.0, 0.011120618079021982
1256.0, 0.004710163859147456
1257.0, 0.006797976014386871
1258.0, 0.009371573859644029
1259.0, 0.007432519850226553
1260.0, 0.0025180546756045433
1261.0, 0.01142731538547128
1262.0, 0.009997659727709288
1263.0, 0.006255682203636544
1264.0, 0.00490281881684744
1265.0, 0.006587056395010678
1266.0, 0.007857324128610649
1267.0, 0.005581999744954635
1268.0, 0.007894541301816617
1269.0, 0.0051946312658514475
1270.0, 0.004512622174745697
1271.0, 0.009338334679107087
1272.0, 0.010026043480647971
1273.0, 0.0025852244166938653
1274.0, 0.007850827381966463
1275.0, 0.008269976328405893
1276.0, 0.004517315582095165
1277.0, 0.004120540159928124
1278.0, 0.011684243067583585
1279.0, 0.002608808932592503
1280.0, 0.00126386627058679
1281.0, 0.005361008660173354
1282.0, 0.00704383065976663
1283.0, 0.0019125993074483021
1284.0, 0.007684616343442646
1285.0, 0.0037586750263748575
1286.0, 0.001021490633655704
1287.0, 0.0021289676401325744
1288.0, 0.0036014780685777736
1289.0, 0.0005439805580053534
1290.0, 0.003924024936594718
1291.0, 0.0030973479622074243
1292.0, 0.0014164750563300322
1293.0, 0.0016658244248784156
1294.0, 0.0027703474574460717
1295.0, 0.0009507318399636992
1296.0, 0.002068112222063015
1297.0, 0.006427115892123008
1298.0, 0.004319431665777722
1299.0, 0.0025419953290143687
1300.0, 0.004229559278436215
1301.0, 0.0038591768217200078
1302.0, 0.0023165537295755
1303.0, 0.004246886382896638
1304.0, 0.005662601735316176
1305.0, 0.0049272525704075415
1306.0, 0.0036824156512523013
1307.0, 0.006636615476575987
1308.0, 0.004077023095958273
1309.0, 0.0028333236993491715
1310.0, 0.0024168726434579298
1311.0, 0.0028137495331557886
1312.0, 0.0037490201067709706
1313.0, 0.004355754173726487
1314.0, 0.005776318138925033
1315.0, 0.0031778593516307765
1316.0, 0.0033333904123198995
1317.0, 0.0043107372493348325
1318.0, 0.0038959199602756397
1319.0, 0.00556415075613345
1320.0, 0.005244956432444197
1321.0, 0.0043698922532662485
1322.0, 0.004882454096988425
1323.0, 0.0056887726991939535
1324.0, 0.005346266957265306
1325.0, 0.004366058359359461
1326.0, 0.006072042330707455
1327.0, 0.002479955144615644
1328.0, 0.00241827640199445
1329.0, 0.004549080383777496
1330.0, 0.00553950464079601
1331.0, 0.007332332868971962
1332.0, 0.004520734675541151
1333.0, 0.005329744541103952
1334.0, 0.0053272132351401295
1335.0, 0.005218979203007672
1336.0, 0.00592258974662173
1337.0, 0.004257609922990438
1338.0, 0.005270612297517072
1339.0, 0.007568066238020054
1340.0, 0.005472339923865995
1341.0, 0.0019751220032607156
1342.0, 0.0022274685545567844
1343.0, 0.007842828509076812
1344.0, 0.005920561945486091
1345.0, 0.006400174944317319
1346.0, 0.006852512584434826
1347.0, 0.00629216404841824
1348.0, 0.006758587965767072
1349.0, 0.013421532587035908
1350.0, 0.004483058373537126
1351.0, 0.0009919137365932236
1352.0, 0.005644021468466563
1353.0, 0.007408584025380732
1354.0, 0.0028950786859591572
1355.0, 0.006639666310215925
1356.0, 0.010806472136724789
1357.0, 0.0046045363346160165
1358.0, 0.0067556353404480424
1359.0, 0.010497795391325091
1360.0, 0.009336187282076112
1361.0, 0.007485777205024517
1362.0, 0.010071044718793823
1363.0, 0.009505810011468926
1364.0, 0.005868661862979894
1365.0, 0.007518017900330272
1366.0, 0.011148917156952513
1367.0, 0.0033724618599387736
1368.0, 0.007321374350476879
1369.0, 0.007811216332523009
1370.0, 0.007625611460343366
1371.0, 0.004697416810324661
1372.0, 0.0017235479351435734
1373.0, 0.0037700756604378306
1374.0, 0.003411149567626716
1375.0, 0.0049314690843344855
1376.0, 0.0037802289285737297
1377.0, 0.0027178377464544944
1378.0, 0.004643600074268688
1379.0, 0.008583945307151685
1380.0, 0.0027645234875774416
1381.0, 0.0030724076472070224
1382.0, 0.006577126159707864
1383.0, 0.00662495684697357
1384.0, 0.005623227134798831
1385.0, 0.0071815425857983325
1386.0, 0.00591533197585768
1387.0, 0.007648958005939598
1388.0, 0.009562040024174198
1389.0, 0.00982202115386439
1390.0, 0.008658764701536465
1391.0, 0.00801289978644471
1392.0, 0.010337350115018575
1393.0, 0.006819278941227906
1394.0, 0.01152882801630762
1395.0, 0.013466941270691014
1396.0, 0.008796399955811414
1397.0, 0.004537769377014002
1398.0, 0.012625409569815267
1399.0, 0.01253373863466475
1400.0, 0.00764979645197257
1401.0, 0.011321467607323743
1402.0, 0.011577937022147893
1403.0, 0.00691058165141878
1404.0, 0.005380111081288111
1405.0, 0.008660392026498546
1406.0, 0.005500524643399317
1407.0, 0.009189090539974317
1408.0, 0.010458261050126543
1409.0, 0.007807956096339733
1410.0, 0.00575947738176433
1411.0, 0.010205018822299858
1412.0, 0.008227881911837143
1413.0, 0.006068886409628234
1414.0, 0.009791290457086082
1415.0, 0.011628713270180923
1416.0, 0.00756193100899463
1417.0, 0.004541041000895214
1418.0, 0.011883057130046714
1419.0, 0.0034653891092225994
1420.0, 0.004977436658323481
1421.0, 0.008402486440422494
1422.0, 0.006732296639973127
1423.0, 0.0023122844293380416
1424.0, 0.01060055982658529
1425.0, 0.00848226581752341
1426.0, 0.007067244888202966
1427.0, 0.010757242916437733
1428.0, 0.012479777817278655
1429.0, 0.007577608999420515
1430.0, 0.00559050661757742
1431.0, 0.01342845728259576
1432.0, 0.0073375184442165805
1433.0, 0.008155032673605424
1434.0, 0.010532752011221301
1435.0, 0.00964793499672922
1436.0, 0.008632306354291451
1437.0, 0.011222525156661785
1438.0, 0.013039509033249234
1439.0, 0.010740473402771573
1440.0, 0.010277950057160614
1441.0, 0.011902350246827734
1442.0, 0.013557850069431755
1443.0, 0.016944766576879117
1444.0, 0.014736473820371241
1445.0, 0.011542356600117787
1446.0, 0.013869882620769486
1447.0, 0.016061702011204423
1448.0, 0.012945045878049113
1449.0, 0.007491134098750026
1450.0, 0.019406775878193245
1451.0, 0.011519946919346984
1452.0, 0.010338671403444097
1453.0, 0.013766408432686677
1454.0, 0.015341691844210211
1455.0, 0.012259650902805935
1456.0, 0.011554466489305951
1457.0, 0.01892466094268802
1458.0, 0.012220124766894484
1459.0, 0.011168714593132201
1460.0, 0.013157553680858587
1461.0, 0.011823524936918753
1462.0, 0.007637569880172814
1463.0, 0.016358105034260762
1464.0, 0.015145884420343486
1465.0, 0.01050683600655655
1466.0, 0.012321678404881728
1467.0, 0.013734287976639349
1468.0, 0.008753046881062125
1469.0, 0.011398089097378581
1470.0, 0.016697361865759177
1471.0, 0.012059544576422273
1472.0, 0.010885435463097734
1473.0, 0.014667330870442896
1474.0, 0.015528911538254428
1475.0, 0.008105427948970189
1476.0, 0.01706796065347026
1477.0, 0.011260945348240844
1478.0, 0.006496224543174464
1479.0, 0.012470835813743258
1480.0, 0.01374588125402972
1481.0, 0.005387215899676267
1482.0, 0.009739935312067781
1483.0, 0.014088513683406276
1484.0, 0.0088154932152759
1485.0, 0.007963132898300522
1486.0, 0.010629013017619602
1487.0, 0.009652136381945824
1488.0, 0.0038129210312600756
1489.0, 0.01007251510682545
1490.0, 0.009387777740634748
1491.0, 0.004779637397556975
1492.0, 0.008045338947504081
1493.0, 0.011270519967590063
1494.0, 0.008031270257754079
1495.0, 0.002494478966372349
1496.0, 0.011252468343476006
1497.0, 0.006982403684809053
1498.0, 0.005699656868182727
1499.0, 0.00886226281596368
1500.0, 0.009497506114825607
1501.0, 0.006621450982217392
1502.0, 0.008914465362062526
1503.0, 0.0068676597822644484
1504.0, 0.002251648195835827
1505.0, 0.005640151871486976
1506.0, 0.00872619622335525
1507.0, 0.007430702073304903
1508.0, 0.004391118710856248
1509.0, 0.005913343402061488
1510.0, 0.0017914348190987937
1511.0, 0.005716611291313477
1512.0, 0.007657276961453182
1513.0, 0.0044143722087307035
1514.0, 0.0016739929397929679
1515.0, 0.0050985959707549365
1516.0, 0.0070402668704475455
1517.0, 0.000882650525905145
1518.0, 0.0046672686149408366
1519.0, 0.0046533259891625095
1520.0, 0.002052443888041013
1521.0, 0.0006116919739271421
1522.0, 0.001187539393655661
1523, 0.0
1524, 0.0
1525, 0.0
1526, 0.0
1527, 0.0
1528, 0.0
1529, 0.0
1530, 0.0
1531, 0.0
1532, 0.0
1533, 0.0
1534, 0.0
1535, 0.0
1536, 0.0
1537, 0.0
1538, 0.0
1539, 0.0
1540, 0.0
1541, 0.0
1542, 0.0
1543, 0.0
1544, 0.0
1545, 0.0
1546, 0.0
1547, 0.0
1548, 0.0
1549, 0.0
1550, 0.0
1551, 0.0
1552, 0.0
1553, 0.0
1554, 0.0
1555, 0.0
1556, 0.0
1557, 0.0
1558, 0.0
1559, 0.0
1560, 0.0
1561, 0.0
1562, 0.0
1563, 0.0
1564, 0.0
1565, 0.0
1566, 0.0
1567, 0.0
1568, 0.0
1569, 0.0
1570, 0.0
1571, 0.0
1572, 0.0
1573, 0.0
1574, 0.0
1575, 0.0
1576, 0.0
1577, 0.0
1578, 0.0
1579, 0.0
1580, 0.0
1581, 0.0
1582, 0.0
1583, 0.0
1584, 0.0
1585, 0.0
1586, 0.0
1587, 0.0
1588, 0.0
1589, 0.0
1590, 0.0
1591, 0.0
1592, 0.0
1593, 0.0
1594, 0.0
1595, 0.0
1596, 0.0
1597, 0.0
1598, 0.0
1599, 0.0
