30, 0.0
31, 0.0
32, 0.0
33, 0.0
34, 0.0
35, 0.0
36, 0.0
37, 0.0
38, 0.0
39, 0.0
40, 0.0
41, 0.0
42, 0.0
43, 0.0
44, 0.0
45, 0.0
46, 0.0
47, 0.0
48, 0.0
49, 0.0
50, 0.0
51, 0.0
52, 0.0
53, 0.0
54, 0.0
55, 0.0
56, 0.0
57, 0.0
58, 0.0
59, 0.0
60, 0.0
61, 0.0
62, 0.0
63, 0.0
64, 0.0
65, 0.0
66, 0.0
67, 0.0
68, 0.0
69, 0.0
70, 0.0
71, 0.0
72, 0.0
73, 0.0
74, 0.0
75, 0.0
76, 0.0
77, 0.0
78, 0.0
79, 0.0
80, 0.0
81, 0.0
82, 0.0
83, 0.0
84, 0.0
85, 0.0
86, 0.0
87, 0.0
88, 0.0
89, 0.0
90, 0.0
91, 0.0
92, 0.0
93, 0.0
94, 0.0
95, 0.0
96, 0.0
97, 0.0
98, 0.0
99, 0.0
100, 0.0
101, 0.0
102, 0.0
103, 0.0
104, 0.0
105, 0.0
106, 0.0
107, 0.0
108, 0.0
109, 0.0
110, 0.0
111, 0.0
112, 0.0
113, 0.0
114, 0.0
115, 0.0
116, 0.0
117, 0.0
118, 0.0
119, 0.0
120, 0.0
121, 0.0
122.0, 7.4975268552907715e-06
123.0, 8.02890497221954e-05
124.0, 0.001058760148534024
125.0, 0.0016285584219953258
126.0, 0.0005961101524105162
127.0, 0.0010689615539902122
128.0, 0.0048073407038473764
129.0, 0.009806895580263859
130.0, 0.007725203787728439
131.0, 0.010731992530417126
132.0, 0.014399072632051074
133.0, 0.016720302490601975
134.0, 0.015369181359196352
135.0, 0.018238629690267027
136.0, 0.022548278626157048
137.0, 0.022449371899775018
138.0, 0.029745405691499097
139.0, 0.038752735572240245
140.0, 0.0479622935935122
141.0, 0.05544211905713067
142.0, 0.06592517042291905
143.0, 0.07630944486328665
144.0, 0.08296201440513921
145.0, 0.10195645949193226
146.0, 0.11721952872627713
147.0, 0.12799295059002877
148.0, 0.13964228384299004
149.0, 0.14986720983901716
150.0, 0.1566386813113582
151.0, 0.15822811419057733
152.0, 0.1522524257582484
153.0, 0.1499107378970774
154.0, 0.14930179199693305
155.0, 0.14564764034272482
156.0, 0.15207326428607534
157.0, 0.1664188483992683
158.0, 0.18840656556995947
159.0, 0.215898464422124
160.0, 0.23384966694884324
161.0, 0.24440796836664608
162.0, 0.2481271151011246
163.0, 0.23501368306812526
164.0, 0.21513851129196312
165.0, 0.19156376245392628
166.0, 0.1729582189713585
167.0, 0.16440024866082822
168.0, 0.15799877997703393
169.0, 0.1500903768674
170.0, 0.13782896690440027
171.0, 0.13099545115275762
172.0, 0.12609510477261845
173.0, 0.11675738172101596
174.0, 0.12161628330209212
175.0, 0.1288275505443314
176.0, 0.13553965050579098
177.0, 0.13752226931325667
178.0, 0.14474538377398335
179.0, 0.15832055808471315
180.0, 0.18034083911356316
181.0, 0.20288250653552947
182.0, 0.2152513235073505
183.0, 0.22279022032784493
184.0, 0.24123725035075363
185.0, 0.2418018451702536
186.0, 0.2358043404726891
187.0, 0.22611874527507805
188.0, 0.21004596792788283
189.0, 0.18303243978677977
190.0, 0.1551575226462161
191.0, 0.13713682519158102
192.0, 0.12497169838924452
193.0, 0.11141851737778785
194.0, 0.0974659487772861
195.0, 0.08919395741491815
196.0, 0.08631956789986316
197.0, 0.08446726080272829
198.0, 0.0821155274657463
199.0, 0.0816517979574182
200.0, 0.08537401055236207
201.0, 0.0929117176575297
202.0, 0.1046528691689104
203.0, 0.12081073501012621
204.0, 0.14311982615775376
205.0, 0.16852820561259743
206.0, 0.18320244445079878
207.0, 0.2031907748992278
208.0, 0.2138628079423447
209.0, 0.2081310458255253
210.0, 0.18957589420158125
211.0, 0.167511015005075
212.0, 0.14113624318080678
213.0, 0.10841190736314807
214.0, 0.08760012927581363
215.0, 0.07012617892770172
216.0, 0.0550193310158763
217.0, 0.04280871732139216
218.0, 0.027929075303732447
219.0, 0.01924539082322996
220.0, 0.020389283715160335
221.0, 0.01160426607907935
222.0, 0.008619764055628445
223.0, 0.007517572189553968
224.0, 0.003621366989227327
225.0, 0.0024065349246261978
226.0, 0.001711883669096982
227.0, 0.0018187038308596542
228.0, 0.004778144991721808
229.0, 0.006178871106880121
230.0, 0.005479069860657699
231.0, 0.0025236788618960763
232.0, 0.0007490130667451099
233.0, 0.002613578026238566
234.0, 0.0052320080330373305
235.0, 0.005696443952515309
236.0, 0.00386433460888281
237.0, 0.005204524873347298
238.0, 0.007375103461580412
239.0, 0.002443183440367076
240.0, 0.003062111819583995
241.0, 0.006862544837396143
242.0, 0.011875501052058082
243.0, 0.003934312962817913
244.0, 0.005781308487614264
245.0, 0.01198740490751888
246.0, 0.0190257194056024
247.0, 0.01664142552981062
248.0, 0.019975105727533204
249.0, 0.02693178108384821
250.0, 0.03307808318336615
251.0, 0.03255356032969561
252.0, 0.03131065618030292
253.0, 0.029285717895080176
254.0, 0.020101169750384756
255.0, 0.017121784570056385
256.0, 0.016095563405236605
257.0, 0.0152057582538598
258.0, 0.017811172612859177
259.0, 0.020962928896819895
260.0, 0.023679151654257893
261.0, 0.02465693764099092
262.0, 0.0283612628476099
263.0, 0.03722762807859213
264.0, 0.04896816773322735
265.0, 0.05633355593274785
266.0, 0.06248669440929601
267.0, 0.06928601022376958
268.0, 0.07673845453960278
269.0, 0.08017698143366837
270.0, 0.06931408057580657
271.0, 0.05911754696229809
272.0, 0.05960661489693831
273.0, 0.048828192514957826
274.0, 0.048234653970165776
275.0, 0.051285249787328104
276.0, 0.047883528096825084
277.0, 0.04443518247349698
278.0, 0.04997881280633532
279.0, 0.061753525581471486
280.0, 0.06618121734635565
281.0, 0.08374239021698135
282.0, 0.10355597230058217
283.0, 0.12375712652595408
284.0, 0.16069373040686152
285.0, 0.20613171190480895
286.0, 0.2531385487613872
287.0, 0.2968850207483704
288.0, 0.3401472386822597
289.0, 0.36640946177914496
290.0, 0.37329596523805003
291.0, 0.35449725871433196
292.0, 0.3112063776092657
293.0, 0.26395703030640283
294.0, 0.21787881671129047
295.0, 0.18233803825331055
296.0, 0.1463797391460242
297.0, 0.11685940196356792
298.0, 0.0953192155655526
299.0, 0.07557194652807289
300.0, 0.05981450970333994
301.0, 0.04753030738368452
302.0, 0.03876064944533814
303.0, 0.03877403625022677
304.0, 0.032675280731653114
305.0, 0.026475781772215053
306.0, 0.027979203937474433
307.0, 0.028566275672584986
308.0, 0.028521884013592604
309.0, 0.027008346833387695
310.0, 0.021601387518034077
311.0, 0.02504859706561395
312.0, 0.021734198646342785
313.0, 0.01210074424915239
314.0, 0.016587684549374433
315.0, 0.016472659185601986
316.0, 0.015854596490341443
317.0, 0.016302980383594623
318.0, 0.015356113964091068
319.0, 0.019265189446230332
320.0, 0.025754929220210585
321.0, 0.033220481179503256
322.0, 0.03896333912619251
323.0, 0.04035646957456364
324.0, 0.04394546843054916
325.0, 0.06033075424109044
326.0, 0.0685718706486652
327.0, 0.07384106788904066
328.0, 0.0743841115886924
329.0, 0.063039339060015
330.0, 0.05504033042506252
331.0, 0.04572584422209044
332.0, 0.03510180367620615
333.0, 0.029208651485619613
334.0, 0.02408203043892987
335.0, 0.018553236167860098
336.0, 0.012972425879260958
337.0, 0.01897697066044344
338.0, 0.015477330206038482
339.0, 0.010559871814164776
340.0, 0.010112632072784488
341.0, 0.00273119878615021
342.0, 0.004319149818507145
343.0, 0.007054863294067357
344.0, 0.0006560454201508855
345.0, 0.0026335340318511557
346.0, 0.00835579560310499
347.0, 0.013713864302120408
348.0, 0.010292296585412154
349.0, 0.010352235230448262
350.0, 0.00803851576421107
351.0, 0.0037193674736635935
352.0, 0.002281604409479794
353.0, 0.004907662177524541
354.0, 0.006354170624381844
355.0, 0.005075964628857718
356.0, 0.0011530307154749098
357.0, 0.0018241019086490974
358.0, 0.002442340433473606
359.0, 0.00116637678032854
360.0, 0.004226243369123696
361.0, 0.005349968361258356
362.0, 0.004947975028644016
363.0, 0.003237889939150493
364.0, 0.0012980941181391387
365.0, 0.001937131952105973
366.0, 0.0033252149308478705
367.0, 0.0032772427108637716
368.0, 0.00465151702964292
369.0, 0.003888596104079495
370.0, 0.00251141976457355
371.0, 0.0036457338541145646
372.0, 0.00416469384644261
373.0, 0.0043414505851777085
374.0, 0.0040926887046374375
375.0, 0.003050660887214009
376.0, 0.0052211576199353
377.0, 0.006154563350105115
378.0, 0.005061742495125148
379.0, 0.002479509668293369
380.0, 0.004401737878645219
381.0, 0.0039952132871536265
382.0, 0.00012284504663843487
383.0, 0.0004506205629563407
384.0, 0.0014844418403426836
385.0, 0.002074727316761702
386.0, 0.0017903424880814525
387.0, 0.002248290569461704
388.0, 0.004895383993692158
389.0, 0.007097551780001286
390.0, 0.007010389714629465
391.0, 0.002356881698104713
392.0, 0.005790719524487317
393.0, 0.011100857899805007
394.0, 0.012598355631555872
395.0, 0.017091942689431847
396.0, 0.015469648089582325
397.0, 0.014697618026140587
398.0, 0.024107355397372836
399.0, 0.021707766426496904
400.0, 0.02284348963253923
401.0, 0.027631289911160345
402.0, 0.03514551625854422
403.0, 0.044431580798252164
404.0, 0.05449369441030573
405.0, 0.06523832610084937
406.0, 0.07674167505197689
407.0, 0.07503943903383488
408.0, 0.06511462616062938
409.0, 0.0522638685109147
410.0, 0.05028962646646311
411.0, 0.04703735548889906
412.0, 0.04736309606387585
413.0, 0.05179720682809923
414.0, 0.05832056827463461
415.0, 0.05252114747827809
416.0, 0.046186569081606794
417.0, 0.04125477405777776
418.0, 0.030256411151746307
419.0, 0.023624695027208778
420.0, 0.018132506306716718
421.0, 0.012421658705874566
422.0, 0.004926570392368382
423.0, 0.0026061900999503843
424.0, 0.0025945564400684023
425.0, 0.003985310427440483
426.0, 0.009798847732678837
427.0, 0.005717913423742655
428.0, 0.002445812416002476
429.0, 0.005743039776776953
430.0, 0.0132739812509182
431.0, 0.012129439230875881
432.0, 0.007436699798049768
433.0, 0.0028037372789767876
434.0, 0.006831439576434966
435.0, 0.012611421189813763
436.0, 0.01479737000041438
437.0, 0.00936568643665455
438.0, 0.006915785388973019
439.0, 0.013331288527249626
440.0, 0.022160353384477374
441.0, 0.027652372533109353
442.0, 0.02264628240955011
443.0, 0.019645203960829877
444.0, 0.017978939742822664
445.0, 0.016990404770428312
446.0, 0.022464672397619248
447.0, 0.0371684001586419
448.0, 0.048139798623659046
449.0, 0.04014365009900091
450.0, 0.061555662704141346
451.0, 0.07502958358104272
452.0, 0.08574147785506715
453.0, 0.10140234187162102
454.0, 0.11315133363326842
455.0, 0.11936763293276441
456.0, 0.12049010567970071
457.0, 0.11697597548145004
458.0, 0.10163672425256036
459.0, 0.09029196345887401
460.0, 0.08345645378762541
461.0, 0.08094737367626781
462.0, 0.07892298356186829
463.0, 0.08308040318710186
464.0, 0.08628127608496274
465.0, 0.07673729473038249
466.0, 0.08896479484566798
467.0, 0.1034803319826549
468.0, 0.12037103648004355
469.0, 0.1420126828665113
470.0, 0.17310667828460027
471.0, 0.2178939015745697
472.0, 0.27317442347756693
473.0, 0.3336084789822256
474.0, 0.4308399769611059
475.0, 0.5351318106078616
476.0, 0.6408008316509897
477.0, 0.7421014338258036
478.0, 0.7609481811497435
479.0, 0.7267252408243214
480.0, 0.6529165696158241
481.0, 0.5565815685555923
482.0, 0.4385910161748568
483.0, 0.34376527938087814
484.0, 0.27838864868085544
485.0, 0.24862771189763494
486.0, 0.19749460011253828
487.0, 0.15638572860827463
488.0, 0.13166927966469835
489.0, 0.13065429619382551
490.0, 0.11101687681555758
491.0, 0.1064576534885859
492.0, 0.11128615754814658
493.0, 0.11430718324222128
494.0, 0.11877393519970178
495.0, 0.1307454955047945
496.0, 0.1521381135925198
497.0, 0.18546676590773903
498.0, 0.2134495052404762
499.0, 0.2588091526754784
500.0, 0.32450121519694297
501.0, 0.41340649742050734
502.0, 0.5279009372990975
503.0, 0.6592731246307342
504.0, 0.7964517109970932
505.0, 0.9268215984522973
506.0, 0.9816243958522758
507.0, 0.9488502010036352
508.0, 0.8587387441773346
509.0, 0.743361097632103
510.0, 0.6032476576020324
511.0, 0.4927320357172717
512.0, 0.40077905328740987
513.0, 0.3170749648946404
514.0, 0.2502856551868857
515.0, 0.20974875734395812
516.0, 0.17855881918555186
517.0, 0.14376141076158455
518.0, 0.1273772930478807
519.0, 0.11069420857432126
520.0, 0.10032798243621771
521.0, 0.09924174164122918
522.0, 0.07971486570990495
523.0, 0.07075634900141066
524.0, 0.0685432601121045
525.0, 0.06974135438706969
526.0, 0.061922061994275454
527.0, 0.05447916237252166
528.0, 0.046999337445634566
529.0, 0.04011898786748163
530.0, 0.04032605749690333
531.0, 0.0409629379663679
532.0, 0.04183075610600041
533.0, 0.04253809711685784
534.0, 0.041278998167928155
535.0, 0.03492917488743239
536.0, 0.032196040177410644
537.0, 0.033958464302224094
538.0, 0.03157143098334383
539.0, 0.025111636435560396
540.0, 0.023927462084440916
541.0, 0.027353683310528683
542.0, 0.025238166906983092
543.0, 0.019133003038505257
544.0, 0.018761685503185282
545.0, 0.020804051562886238
546.0, 0.011984637881691098
547.0, 0.011662871317828534
548.0, 0.014342963938813938
549.0, 0.016322858584833316
550.0, 0.011754905393309544
551.0, 0.011315719630518114
552.0, 0.012787647309047736
553.0, 0.016027556904746856
554.0, 0.021102240802117634
555.0, 0.019279017515411324
556.0, 0.015245047971062442
557.0, 0.01440111479089465
558.0, 0.02249056358180715
559.0, 0.018378831084322686
560.0, 0.019821423236936156
561.0, 0.02127433378248121
562.0, 0.01816004542609114
563.0, 0.014567693415267657
564.0, 0.01868812161156077
565.0, 0.020038335919049077
566.0, 0.01334883671329738
567.0, 0.011779021689832905
568.0, 0.013711574458030229
569.0, 0.013345999983543745
570.0, 0.010943739383423155
571.0, 0.023654968210748643
572.0, 0.022772330510704663
573.0, 0.02190129302839914
574.0, 0.02615886967368708
575.0, 0.03885643802179437
576.0, 0.03332779861763298
577.0, 0.037203203653709514
578.0, 0.046608767463640954
579.0, 0.036895831416921404
580.0, 0.041447544887731703
581.0, 0.03681131836512265
582.0, 0.026097558398925125
583.0, 0.019731787546142854
584.0, 0.018164121035876914
585.0, 0.01473983852644812
586.0, 0.010081561513706278
587.0, 0.005394099668667658
588.0, 0.006873817644537372
589.0, 0.01395312074242699
590.0, 0.018320138525567194
591.0, 0.013572445481416104
592.0, 0.0068618030156770825
593.0, 0.009979672879828549
594.0, 0.0105032360258893
595.0, 0.0033992784085810587
596.0, 0.0013017492300571982
597.0, 0.0036673789058648465
598.0, 0.005227430427939093
599.0, 0.004763871209622349
600.0, 0.004820520039848554
601.0, 0.005554182925767996
602.0, 0.005365928023980428
603.0, 0.004284585178199956
604.0, 0.003201809392283484
605.0, 0.002556909218911654
606.0, 0.0019431602623736228
607.0, 0.001794995683892058
608.0, 0.0028344849980722372
609.0, 0.0018073528970859519
610.0, 0.0007198727220307169
611.0, 0.0005198448387968139
612.0, 0.0020623078506266323
613.0, 0.005580247765232455
614.0, 0.012429470320245488
615.0, 0.012560483947147897
616.0, 0.00305849158166727
617.0, 0.010155338061860322
618.0, 0.010392289954581552
619.0, 0.007805631281838477
620.0, 0.004826966168639569
621.0, 0.0052665380477298785
622.0, 0.004530763491713201
623.0, 0.005648598689343162
624.0, 0.007685360347094393
625.0, 0.007097039288735688
626.0, 0.008877102499176915
627.0, 0.012740800739976632
628.0, 0.01592086437237613
629.0, 0.014817146989356853
630.0, 0.02034370599726677
631.0, 0.02028486025377831
632.0, 0.017059894877196932
633.0, 0.013045504862596587
634.0, 0.011424538377323818
635.0, 0.007468729180015691
636.0, 0.007838991337393453
637.0, 0.013853388311579203
638.0, 0.016337596322416412
639.0, 0.014970409950045104
640.0, 0.012021772094338622
641.0, 0.011574737961564472
642.0, 0.022796383053556708
643.0, 0.022792139721824357
644.0, 0.020438900905119902
645.0, 0.01984422171867242
646.0, 0.02540940024021965
647.0, 0.025387445420063902
648.0, 0.02038921579107782
649.0, 0.014064474026439283
650.0, 0.010408086051882802
651.0, 0.02111810790952552
652.0, 0.012963127627509606
653.0, 0.00885005788679273
654.0, 0.015098755975593547
655.0, 0.01345765653262502
656.0, 0.00920499497537763
657.0, 0.005862713300933988
658.0, 0.0050345353677892024
659.0, 0.008537626252190931
660.0, 0.005934117451898705
661.0, 0.007216692553462064
662.0, 0.0076861122604340365
663.0, 0.0010300559800755814
664.0, 0.0011373189172154624
665.0, 0.004950126229291289
666.0, 0.00615647127040914
667.0, 0.0030832752403725135
668.0, 0.014306368427386498
669.0, 0.006951235188447635
670.0, 0.0034531072370911913
671.0, 0.00659309263852965
672.0, 0.0018791303362059421
673.0, 0.00260987703857876
674.0, 0.0031122884125183406
675.0, 0.0026993269339051955
676.0, 0.0015509079823476128
677.0, 0.001924245026101823
678.0, 0.0012658854384954912
679.0, 0.000705330465347323
680.0, 0.001392847595464907
681.0, 0.005400540757293874
682.0, 0.00539787483820454
683.0, 0.004982358462605262
684.0, 0.005077334910366689
685.0, 0.003748276551783925
686.0, 0.003687822211571927
687.0, 0.0051092105407175474
688.0, 0.0065301678056886485
689.0, 0.00537223771660413
690.0, 0.005011859257595845
691.0, 0.006693333877120547
692.0, 0.006789139604993801
693.0, 0.004089864031519697
694.0, 0.021014208298577346
695.0, 0.014100656480440501
696.0, 0.008608878388227258
697.0, 0.010588891365222366
698.0, 0.0037334800953102193
699.0, 0.007297609423028227
700.0, 0.006665003657438936
701.0, 0.0034622628966411765
702.0, 0.004362664316498371
703.0, 0.006811279341701286
704.0, 0.005406926090575702
705.0, 0.0027791705815357567
706.0, 0.0012300207985109562
707.0, 0.0011034223709832135
708.0, 0.012452649916554046
709.0, 0.013342847345126108
710.0, 0.005818285844622119
711.0, 0.02121827709812004
712.0, 0.012430287392803796
713.0, 0.006515231740101481
714.0, 0.009377709510435456
715.0, 0.0235874624198325
716.0, 0.019011637110081213
717.0, 0.023496821132952123
718.0, 0.02154711409065261
719.0, 0.008669670028293303
720.0, 0.01940997536971572
721.0, 0.01178722967279059
722.0, 0.00932015558161946
723.0, 0.013468194083744141
724.0, 0.013022568673976585
725.0, 0.004565846562753802
726.0, 0.004299005256672949
727.0, 0.00773213109663957
728.0, 0.00897752664953309
729.0, 0.007289486872297675
730.0, 0.013101539902984006
731.0, 0.011531827336045868
732.0, 0.0034534974176328084
733.0, 0.01680403653051113
734.0, 0.008216888609993738
735.0, 0.002452098418424053
736.0, 0.0047317949249311994
737.0, 0.016523491722166033
738.0, 0.015844459498692964
739.0, 0.010379196089457867
740.0, 0.00856982181195459
741.0, 0.013963202800814152
742.0, 0.01450091089696201
743.0, 0.014020402753986121
744.0, 0.018114251481646144
745.0, 0.02126153659409878
746.0, 0.009191798837577002
747.0, 0.017978639736717934
748.0, 0.026307046062373482
749.0, 0.02868775333693275
750.0, 0.0241625640818435
751.0, 0.04011532278616763
752.0, 0.03707007384632459
753.0, 0.03613366857721429
754.0, 0.04353310288870842
755.0, 0.055854517384301465
756.0, 0.06433377181078839
757.0, 0.08005983132726437
758.0, 0.0984157895530312
759.0, 0.11428631680938393
760.0, 0.14690571938746366
761.0, 0.16641458154480476
762.0, 0.17813903703138292
763.0, 0.18131413238246194
764.0, 0.16497298931169815
765.0, 0.1525009940307222
766.0, 0.131141157166118
767.0, 0.1044506119389829
768.0, 0.08013024268747189
769.0, 0.08412062797783662
770.0, 0.0765261741055209
771.0, 0.06600044652090087
772.0, 0.05906989845601718
773.0, 0.06358773026194349
774.0, 0.05246902020043393
775.0, 0.05132885233217415
776.0, 0.051879885777114026
777.0, 0.037917561267598904
778.0, 0.03980833878870559
779.0, 0.03060389976104101
780.0, 0.025062356899517607
781.0, 0.028968690959858552
782.0, 0.03243979705594187
783.0, 0.031352402351050634
784.0, 0.02929671322855376
785.0, 0.02686245140716913
786.0, 0.0241508824540066
787.0, 0.02605322917531839
788.0, 0.023356407526370544
789.0, 0.02085765986803193
790.0, 0.02040938940602562
791.0, 0.018637535921759714
792.0, 0.01366109301878954
793.0, 0.015385561825517001
794.0, 0.01793932823571623
795.0, 0.011888830885652514
796.0, 0.021635571612283397
797.0, 0.021287835047635754
798.0, 0.020306381850990502
799.0, 0.023369943407919445
800.0, 0.029456658425059738
801.0, 0.01872809207056824
802.0, 0.026053078469160565
803.0, 0.036716712672358924
804.0, 0.028472107729920433
805.0, 0.039277036594157405
806.0, 0.044894862021297444
807.0, 0.04897295669471052
808.0, 0.0574301265862766
809.0, 0.08345026136282327
810.0, 0.10321768669724568
811.0, 0.12770698696158636
812.0, 0.15417029525296794
813.0, 0.17669098467370747
814.0, 0.17386287902810493
815.0, 0.17410083522667552
816.0, 0.16891742306329563
817.0, 0.15276008900207502
818.0, 0.11991271650994884
819.0, 0.09101080717660104
820.0, 0.07256663467436847
821.0, 0.05800300777165159
822.0, 0.0428419804248132
823.0, 0.0389584454801387
824.0, 0.03155869188177524
825.0, 0.028625802334446185
826.0, 0.027836823973577673
827.0, 0.021183277330576712
828.0, 0.02659236035892784
829.0, 0.026165885060362295
830.0, 0.021027008095169424
831.0, 0.014989068163557644
832.0, 0.02052629761125758
833.0, 0.012246257414655841
834.0, 0.01172625602690395
835.0, 0.015439423341596033
836.0, 0.01405412602624845
837.0, 0.010141055578005057
838.0, 0.011853485406731347
839.0, 0.012636062302357993
840.0, 0.010705659387695602
841.0, 0.00918506423253451
842.0, 0.011812548495886333
843.0, 0.011292079265301673
844.0, 0.013030421953530191
845.0, 0.019116563873068468
846.0, 0.004677963597882129
847.0, 0.011095954405237427
848.0, 0.009562345071606478
849.0, 0.002874569604507967
850.0, 0.009292911903305735
851.0, 0.012394719080635651
852.0, 0.01040158351813591
853.0, 0.008121530105594408
854.0, 0.007978477964294314
855.0, 0.00825104846048662
856.0, 0.002847434350651802
857.0, 0.0007536636395086519
858.0, 0.0025092379572788045
859.0, 0.006563708356321352
860.0, 0.005234273089114937
861.0, 0.0023219458343836682
862.0, 0.0025108822510264703
863.0, 0.007336091790246135
864.0, 0.01656630954188406
865.0, 0.010315709529017027
866.0, 0.0037435031789534953
867.0, 0.006784083656295873
868.0, 0.01793002702108969
869.0, 0.00596858742446376
870.0, 0.01155565401785165
871.0, 0.00841258143001118
872.0, 0.004590434707643288
873.0, 0.01126708748126762
874.0, 0.002278246753785672
875.0, 0.011927531771483552
876.0, 0.012779765601996248
877.0, 0.0054456082218512225
878.0, 0.009280105957247516
879.0, 0.01738374461382962
880.0, 0.010481246132603327
881.0, 0.0024616899850514393
882.0, 0.0018092573750151577
883.0, 0.006843178322405732
884.0, 0.012838410864939942
885.0, 0.01023089074344072
886.0, 0.0039075289511049825
887.0, 0.0007769767966068716
888.0, 0.005209759002518165
889.0, 0.0022796043458954726
890.0, 0.004792473057801953
891.0, 0.00972154545873677
892.0, 0.006397764909768831
893.0, 0.010370444524656679
894.0, 0.006880101260716585
895.0, 0.006855179942612871
896.0, 0.010954008991650168
897.0, 0.005406595084984771
898.0, 0.010229423901079534
899.0, 0.010498120965491117
900.0, 0.010721687935216084
901.0, 0.01306302874617974
902.0, 0.0048615939346149184
903.0, 0.012277787814828599
904.0, 0.00907215788718488
905.0, 0.003841282986926366
906.0, 0.011690627496947593
907.0, 0.014086237748145443
908.0, 0.01690703302040236
909.0, 0.01814162620078944
910.0, 0.016057883158652794
911.0, 0.008903264421535145
912.0, 0.01023064662593394
913.0, 0.008454443035078854
914.0, 0.01025315364514901
915.0, 0.014011035945635438
916.0, 0.0041947480669691575
917.0, 0.003997139122968315
918.0, 0.007052779629912736
919.0, 0.011677540777577903
920.0, 0.015911435472344894
921.0, 0.015120729825752998
922.0, 0.0056090571545351995
923.0, 0.012553289723183527
924.0, 0.019745239432168302
925.0, 0.00812526645669458
926.0, 0.01796308611571324
927.0, 0.009532547564689662
928.0, 0.008841858370650746
929.0, 0.013438628709144442
930.0, 0.008214827995660508
931.0, 0.015393629519749671
932.0, 0.020950871975176956
933.0, 0.01960817983874113
934.0, 0.011511947721913381
935.0, 0.0022055954380579973
936.0, 0.016271796582508175
937.0, 0.011535032192609812
938.0, 0.008875152840026285
939.0, 0.016783434617874387
940.0, 0.018647468189528782
941.0, 0.017055546655311334
942.0, 0.013065129376219302
943.0, 0.008652389179601592
944.0, 0.0079323718463336
945.0, 0.023648786574046142
946.0, 0.027617753263738568
947.0, 0.02405967811896767
948.0, 0.020511850989901725
949.0, 0.022218183621005947
950.0, 0.012894247436847722
951.0, 0.016089361023401954
952.0, 0.016747384174478464
953.0, 0.01500461474172125
954.0, 0.015867790683079745
955.0, 0.017732703625859658
956.0, 0.02258673985333342
957.0, 0.017224454199426052
958.0, 0.010054180275004574
959.0, 0.02169458823405837
960.0, 0.017154903343374477
961.0, 0.023217444172309153
962.0, 0.028513405935242916
963.0, 0.03077009117301597
964.0, 0.0358384957661772
965.0, 0.027192763014464782
966.0, 0.032810782831817265
967.0, 0.03315353610700332
968.0, 0.021212892784296576
969.0, 0.007595226591060511
970.0, 0.027213487399050888
971.0, 0.03036775088900697
972.0, 0.028903955330888586
973.0, 0.030316102692378895
974.0, 0.027377828565754644
975.0, 0.03437536480734484
976.0, 0.03421292256096861
977.0, 0.033992661898388406
978.0, 0.03804482365288827
979.0, 0.036708430026506575
980.0, 0.028112236123601912
981.0, 0.03194508693836346
982.0, 0.03071381129206238
983.0, 0.01596071491794867
984.0, 0.034430997042537784
985.0, 0.02501429471448387
986.0, 0.015263845408802807
987.0, 0.018952867004860503
988.0, 0.0373785006754544
989.0, 0.022111267138996492
990.0, 0.018880145401776766
991.0, 0.020812259027102244
992.0, 0.019494303190742128
993.0, 0.011741437230652898
994.0, 0.032379937441609434
995.0, 0.02574610652621445
996.0, 0.026027564871699497
997.0, 0.02976561910434501
998.0, 0.02498893688216258
999.0, 0.023655450061856452
1000.0, 0.028524312993573737
1001.0, 0.036885049906110745
1002.0, 0.04313301679216644
1003.0, 0.04226075353786786
1004.0, 0.04683077953997237
1005.0, 0.049627293109118
1006.0, 0.04404288617486101
1007.0, 0.04131872011814033
1008.0, 0.0552139109956923
1009.0, 0.04365281577474979
1010.0, 0.04134465868473935
1011.0, 0.04382381400879003
1012.0, 0.04633214936039191
1013.0, 0.044470087141923145
1014.0, 0.043466721789767564
1015.0, 0.04205569386633308
1016.0, 0.03934499667386782
1017.0, 0.03608352830383111
1018.0, 0.03361308438916118
1019.0, 0.0306778652937374
1020.0, 0.028415883257671724
1021.0, 0.026754569242215163
1022.0, 0.025911122690132016
1023.0, 0.02659937459278668
1024.0, 0.03447267740119662
1025.0, 0.029534484079347802
1026.0, 0.024793832580387573
1027.0, 0.02732130321573289
1028.0, 0.03828586393333015
1029.0, 0.022420863046417903
1030.0, 0.027821857045842467
1031.0, 0.032544701133134596
1032.0, 0.03302087003634504
1033.0, 0.032577576226670055
1034.0, 0.030171279365437027
1035.0, 0.02731698341893703
1036.0, 0.021535833417380416
1037.0, 0.02261515295974644
1038.0, 0.03800444327545298
1039.0, 0.02103719357501989
1040.0, 0.03630561139011065
1041.0, 0.04314727893418795
1042.0, 0.045861125467174677
1043.0, 0.05668898574209357
1044.0, 0.046738701238406594
1045.0, 0.032039567687981885
1046.0, 0.04135662465722534
1047.0, 0.05363141029818902
1048.0, 0.04748871568206036
1049.0, 0.06935335659068768
1050.0, 0.06007509424239467
1051.0, 0.0508924054944241
1052.0, 0.044093252090195004
1053.0, 0.039843471832411485
1054.0, 0.0541680827223679
1055.0, 0.03802228028198775
1056.0, 0.05769037394092199
1057.0, 0.07321661403709771
1058.0, 0.05318204071318091
1059.0, 0.03951588886030789
1060.0, 0.040154506497911566
1061.0, 0.03002968250556695
1062.0, 0.02694328178652035
1063.0, 0.036863946147719845
1064.0, 0.030116064641771294
1065.0, 0.03154011052888624
1066.0, 0.03153306190607127
1067.0, 0.028161788795549703
1068.0, 0.025109250234686093
1069.0, 0.034028584546291755
1070.0, 0.03556238874738969
1071.0, 0.027791307179251913
1072.0, 0.02595710697100511
1073.0, 0.03157946775907639
1074.0, 0.03078130260894912
1075.0, 0.03481746860555672
1076.0, 0.04050949836355327
1077.0, 0.036183311769419434
1078.0, 0.030638778170089413
1079.0, 0.04546937882644913
1080.0, 0.0478627227315434
1081.0, 0.04199863261498979
1082.0, 0.04413744626708571
1083.0, 0.05010559788005177
1084.0, 0.047617551051036586
1085.0, 0.04510346415688598
1086.0, 0.06317947491758266
1087.0, 0.07013844119304977
1088.0, 0.07345433382771926
1089.0, 0.08717168927859194
1090.0, 0.09613154350677133
1091.0, 0.09934216805996883
1092.0, 0.12907757881801837
1093.0, 0.1584174443607203
1094.0, 0.16838488466737128
1095.0, 0.19417821537356658
1096.0, 0.2088811633405347
1097.0, 0.2182368727825953
1098.0, 0.2233539650552468
1099.0, 0.22427942747097013
1100.0, 0.21971665366320411
1101.0, 0.20663035011480282
1102.0, 0.19294996655645616
1103.0, 0.17367319453285296
1104.0, 0.15689748475929047
1105.0, 0.16172681217784574
1106.0, 0.15440924529957903
1107.0, 0.13075150908463404
1108.0, 0.1193815944467011
1109.0, 0.11697325847094094
1110.0, 0.10638660702778961
1111.0, 0.10776582888590351
1112.0, 0.11788944864647323
1113.0, 0.10967312748081899
1114.0, 0.10161226229156416
1115.0, 0.11259962727425817
1116.0, 0.1090871364708337
1117.0, 0.09967186089464686
1118.0, 0.10237115615488267
1119.0, 0.09342072243629618
1120.0, 0.07085281922482038
1121.0, 0.08747253159430866
1122.0, 0.10305525213080813
1123.0, 0.08159008101651824
1124.0, 0.0589522284552238
1125.0, 0.04962739996627751
1126.0, 0.04251448690993229
1127.0, 0.04227554244632609
1128.0, 0.035107797112799634
1129.0, 0.03258051963450767
1130.0, 0.033090936401697586
1131.0, 0.029005497368063748
1132.0, 0.01950317072736283
1133.0, 0.009060559933595193
1134.0, 0.01667118911945115
1135.0, 0.019877144405518462
1136.0, 0.006144603863165987
1137.0, 0.022022552838970262
1138.0, 0.020302241538312758
1139.0, 0.01887037759008348
1140.0, 0.01885836734802567
1141.0, 0.016728808669343884
1142.0, 0.0052360863883703
1143.0, 0.02137846691578088
1144.0, 0.012958705753458796
1145.0, 0.01767394380220238
1146.0, 0.030020647823076202
1147.0, 0.02237681871524742
1148.0, 0.01723179083945817
1149.0, 0.01954196313825438
1150.0, 0.02449937137524113
1151.0, 0.02792113836464221
1152.0, 0.02773963334505768
1153.0, 0.02777377003889061
1154.0, 0.0283105957495065
1155.0, 0.02374560089575249
1156.0, 0.019847703285988984
1157.0, 0.017614890100229753
1158.0, 0.010925632531197082
1159.0, 0.009224132607625682
1160.0, 0.00931447879823301
1161.0, 0.00802101117867906
1162.0, 0.007905492278191619
1163.0, 0.013007598330618732
1164.0, 0.01663745194892794
1165.0, 0.017878254084223846
1166.0, 0.01205598689403544
1167.0, 0.009891276215099394
1168.0, 0.014558663886868817
1169.0, 0.005058710110199135
1170.0, 0.012450683998988344
1171.0, 0.01213751628271334
1172.0, 0.007824566396303497
1173.0, 0.007075733827409687
1174.0, 0.016478566503269065
1175.0, 0.003157945815046097
1176.0, 0.008023019324170107
1177.0, 0.012642782101164077
1178.0, 0.010518026379192733
1179.0, 0.004161684835762834
1180.0, 0.01221825133684459
1181.0, 0.01519184625455548
1182.0, 0.013924467114236967
1183.0, 0.016493354559718898
1184.0, 0.0213716540012953
1185.0, 0.015186772581638044
1186.0, 0.010082331757882137
1187.0, 0.021223310060222815
1188.0, 0.018677742141341956
1189.0, 0.013768893609510528
1190.0, 0.024774542121502666
1191.0, 0.010895350899724744
1192.0, 0.004957912688967541
1193.0, 0.01704603602414407
1194.0, 0.02316732836408236
1195.0, 0.012718394932074321
1196.0, 0.0030326341137588107
1197.0, 0.027575456833498702
1198.0, 0.01274240200955546
1199.0, 0.009942374052543503
1200.0, 0.01752378472697398
1201.0, 0.013735431760562668
1202.0, 0.02820027849090913
1203.0, 0.022483585885634687
1204.0, 0.009440813789815743
1205.0, 0.003267946951608535
1206.0, 0.008877143518777953
1207.0, 0.01610927881268016
1208.0, 0.006428945578122842
1209.0, 0.011881060333955801
1210.0, 0.015177783753098799
1211.0, 0.01690328159089882
1212.0, 0.02354761174261468
1213.0, 0.02172772214101996
1214.0, 0.007301570814165137
1215.0, 0.0129484016292172
1216.0, 0.023753740658102637
1217.0, 0.02317143567757627
1218.0, 0.005002108723905666
1219.0, 0.013166584250248164
1220.0, 0.019598409016156004
1221.0, 0.013779582377933282
1222.0, 0.012282859059008657
1223.0, 0.027102875170237094
1224.0, 0.006460502997370126
1225.0, 0.008164601484304417
1226.0, 0.018041213383891627
1227.0, 0.016261194509913937
1228.0, 0.0036737226240875485
1229.0, 0.0024535257352728745
1230.0, 0.000402684649403114
1231.0, 1.9026898525670585e-05
1232, 0.0
1233, 0.0
1234, 0.0
1235, 0.0
1236, 0.0
1237, 0.0
1238, 0.0
1239, 0.0
1240, 0.0
1241, 0.0
1242, 0.0
1243, 0.0
1244, 0.0
1245, 0.0
1246, 0.0
1247, 0.0
1248, 0.0
1249, 0.0
1250, 0.0
1251, 0.0
1252, 0.0
1253, 0.0
1254, 0.0
1255, 0.0
1256, 0.0
1257, 0.0
1258, 0.0
1259, 0.0
1260, 0.0
1261, 0.0
1262, 0.0
1263, 0.0
1264, 0.0
1265, 0.0
1266, 0.0
1267, 0.0
1268, 0.0
1269, 0.0
1270, 0.0
1271, 0.0
1272, 0.0
1273, 0.0
1274, 0.0
1275, 0.0
1276, 0.0
1277, 0.0
1278, 0.0
1279, 0.0
1280, 0.0
1281, 0.0
1282, 0.0
1283, 0.0
1284, 0.0
1285, 0.0
1286, 0.0
1287, 0.0
1288, 0.0
1289, 0.0
1290, 0.0
1291, 0.0
1292, 0.0
1293, 0.0
1294, 0.0
1295, 0.0
1296, 0.0
1297, 0.0
1298, 0.0
1299, 0.0
1300, 0.0
1301, 0.0
1302, 0.0
1303, 0.0
1304, 0.0
1305, 0.0
1306, 0.0
1307, 0.0
1308, 0.0
1309, 0.0
1310, 0.0
1311, 0.0
1312, 0.0
1313, 0.0
1314, 0.0
1315, 0.0
1316, 0.0
1317, 0.0
1318, 0.0
1319, 0.0
1320, 0.0
1321, 0.0
1322, 0.0
1323, 0.0
1324, 0.0
1325, 0.0
1326, 0.0
1327, 0.0
1328, 0.0
1329, 0.0
1330, 0.0
1331, 0.0
1332, 0.0
1333, 0.0
1334, 0.0
1335, 0.0
1336, 0.0
1337, 0.0
1338, 0.0
1339, 0.0
1340, 0.0
1341, 0.0
1342, 0.0
1343, 0.0
1344, 0.0
1345, 0.0
1346, 0.0
1347, 0.0
1348, 0.0
1349, 0.0
1350, 0.0
1351, 0.0
1352, 0.0
1353, 0.0
1354, 0.0
1355, 0.0
1356, 0.0
1357, 0.0
1358, 0.0
1359, 0.0
1360, 0.0
1361, 0.0
1362, 0.0
1363, 0.0
1364, 0.0
1365, 0.0
1366, 0.0
1367, 0.0
1368, 0.0
1369, 0.0
1370, 0.0
1371, 0.0
1372, 0.0
1373, 0.0
1374, 0.0
1375, 0.0
1376, 0.0
1377, 0.0
1378, 0.0
1379, 0.0
1380, 0.0
1381, 0.0
1382, 0.0
1383, 0.0
1384, 0.0
1385, 0.0
1386, 0.0
1387, 0.0
1388, 0.0
1389, 0.0
1390, 0.0
1391, 0.0
1392, 0.0
1393, 0.0
1394, 0.0
1395, 0.0
1396, 0.0
1397, 0.0
1398, 0.0
1399, 0.0
1400, 0.0
1401, 0.0
1402, 0.0
1403, 0.0
1404, 0.0
1405, 0.0
1406, 0.0
1407, 0.0
1408, 0.0
1409, 0.0
1410, 0.0
1411, 0.0
1412, 0.0
1413, 0.0
1414, 0.0
1415, 0.0
1416, 0.0
1417, 0.0
1418, 0.0
1419, 0.0
1420, 0.0
1421, 0.0
1422, 0.0
1423, 0.0
1424, 0.0
1425, 0.0
1426, 0.0
1427, 0.0
1428, 0.0
1429, 0.0
1430, 0.0
1431, 0.0
1432, 0.0
1433, 0.0
1434, 0.0
1435, 0.0
1436, 0.0
1437, 0.0
1438, 0.0
1439, 0.0
1440, 0.0
1441, 0.0
1442, 0.0
1443, 0.0
1444, 0.0
1445, 0.0
1446, 0.0
1447, 0.0
1448, 0.0
1449, 0.0
1450, 0.0
1451, 0.0
1452, 0.0
1453, 0.0
1454, 0.0
1455, 0.0
1456, 0.0
1457, 0.0
1458, 0.0
1459, 0.0
1460, 0.0
1461, 0.0
1462, 0.0
1463, 0.0
1464, 0.0
1465, 0.0
1466, 0.0
1467, 0.0
1468, 0.0
1469, 0.0
1470, 0.0
1471, 0.0
1472, 0.0
1473, 0.0
1474, 0.0
1475, 0.0
1476, 0.0
1477, 0.0
1478, 0.0
1479, 0.0
1480, 0.0
1481, 0.0
1482, 0.0
1483, 0.0
1484, 0.0
1485, 0.0
1486, 0.0
1487, 0.0
1488, 0.0
1489, 0.0
1490, 0.0
1491, 0.0
1492, 0.0
1493, 0.0
1494, 0.0
1495, 0.0
1496, 0.0
1497, 0.0
1498, 0.0
1499, 0.0
1500, 0.0
1501, 0.0
1502, 0.0
1503, 0.0
1504, 0.0
1505, 0.0
1506, 0.0
1507, 0.0
1508, 0.0
1509, 0.0
1510, 0.0
1511, 0.0
1512, 0.0
1513, 0.0
1514, 0.0
1515, 0.0
1516, 0.0
1517, 0.0
1518, 0.0
1519, 0.0
1520, 0.0
1521, 0.0
1522, 0.0
1523, 0.0
1524, 0.0
1525, 0.0
1526, 0.0
1527, 0.0
1528, 0.0
1529, 0.0
1530, 0.0
1531, 0.0
1532, 0.0
1533, 0.0
1534, 0.0
1535, 0.0
1536, 0.0
1537, 0.0
1538, 0.0
1539, 0.0
1540, 0.0
1541, 0.0
1542, 0.0
1543, 0.0
1544, 0.0
1545, 0.0
1546, 0.0
1547, 0.0
1548, 0.0
1549, 0.0
1550, 0.0
1551, 0.0
1552, 0.0
1553, 0.0
1554, 0.0
1555, 0.0
1556, 0.0
1557, 0.0
1558, 0.0
1559, 0.0
1560, 0.0
1561, 0.0
1562, 0.0
1563, 0.0
1564, 0.0
1565, 0.0
1566, 0.0
1567, 0.0
1568, 0.0
1569, 0.0
1570, 0.0
1571, 0.0
1572, 0.0
1573, 0.0
1574, 0.0
1575, 0.0
1576, 0.0
1577, 0.0
1578, 0.0
1579, 0.0
1580, 0.0
1581, 0.0
1582, 0.0
1583, 0.0
1584, 0.0
1585, 0.0
1586, 0.0
1587, 0.0
1588, 0.0
1589, 0.0
1590, 0.0
1591, 0.0
1592, 0.0
1593, 0.0
1594, 0.0
1595, 0.0
1596, 0.0
1597, 0.0
1598, 0.0
1599, 0.0
