30, 0.0
31, 0.0
32, 0.0
33, 0.0
34, 0.0
35, 0.0
36, 0.0
37, 0.0
38, 0.0
39, 0.0
40, 0.0
41, 0.0
42, 0.0
43, 0.0
44, 0.0
45, 0.0
46, 0.0
47, 0.0
48, 0.0
49, 0.0
50, 0.0
51, 0.0
52, 0.0
53, 0.0
54, 0.0
55, 0.0
56, 0.0
57, 0.0
58, 0.0
59, 0.0
60, 0.0
61, 0.0
62, 0.0
63, 0.0
64, 0.0
65, 0.0
66, 0.0
67, 0.0
68, 0.0
69, 0.0
70, 0.0
71, 0.0
72, 0.0
73, 0.0
74, 0.0
75, 0.0
76, 0.0
77, 0.0
78, 0.0
79, 0.0
80, 0.0
81, 0.0
82, 0.0
83, 0.0
84, 0.0
85, 0.0
86, 0.0
87, 0.0
88, 0.0
89, 0.0
90, 0.0
91, 0.0
92, 0.0
93, 0.0
94, 0.0
95, 0.0
96, 0.0
97, 0.0
98, 0.0
99, 0.0
100, 0.0
101, 0.0
102, 0.0
103, 0.0
104, 0.0
105, 0.0
106, 0.0
107, 0.0
108, 0.0
109, 0.0
110, 0.0
111, 0.0
112, 0.0
113, 0.0
114, 0.0
115, 0.0
116, 0.0
117, 0.0
118, 0.0
119, 0.0
120, 0.0
121, 0.0
122, 0.0
123, 0.0
124, 0.0
125, 0.0
126, 0.0
127, 0.0
128, 0.0
129, 0.0
130, 0.0
131.0, 0.0012101338922908228
132.0, 0.0008875266784223395
133.0, 0.0004113240728092111
134.0, 0.00038962640043302985
135.0, 0.0018383026308151599
136.0, 0.005185356062897122
137.0, 0.008906270776572751
138.0, 0.01460279382571377
139.0, 0.020008069979810368
140.0, 0.027317594117117126
141.0, 0.03692294540470665
142.0, 0.04517839980143142
143.0, 0.057162951427594026
144.0, 0.07001154908856906
145.0, 0.08164097450070533
146.0, 0.09116955836285269
147.0, 0.09808557943528472
148.0, 0.1039110239851402
149.0, 0.11083049060484462
150.0, 0.11941576239264656
151.0, 0.12366406931707412
152.0, 0.1224304313442752
153.0, 0.11977517087544316
154.0, 0.12034184807316795
155.0, 0.1289131468941917
156.0, 0.13987636321054334
157.0, 0.15450252382783042
158.0, 0.1726266615713661
159.0, 0.19116735901876963
160.0, 0.20545445241347804
161.0, 0.21556983482134154
162.0, 0.21734008272635774
163.0, 0.20652005631968823
164.0, 0.1901092261605988
165.0, 0.17264744015268974
166.0, 0.15875760181933632
167.0, 0.15245686835141478
168.0, 0.15671313148351937
169.0, 0.16658064039189502
170.0, 0.17729744814281848
171.0, 0.18429022011745036
172.0, 0.18407235532288146
173.0, 0.18317763182442248
174.0, 0.1853880348874151
175.0, 0.19242022340073595
176.0, 0.20405174687096528
177.0, 0.21766696868590238
178.0, 0.23366571461330526
179.0, 0.25162939159456266
180.0, 0.2706257382987372
181.0, 0.2899642736313054
182.0, 0.30384863527957373
183.0, 0.31519150709594956
184.0, 0.32338802369690384
185.0, 0.32060802373600694
186.0, 0.30535450053453
187.0, 0.2834853911186663
188.0, 0.25651810568456757
189.0, 0.22259719630824987
190.0, 0.19089019971763288
191.0, 0.16615641880127485
192.0, 0.14686569009956965
193.0, 0.13087648004828376
194.0, 0.12226843672262697
195.0, 0.11664954308759973
196.0, 0.11437120170151081
197.0, 0.11471211643469381
198.0, 0.11346961781846382
199.0, 0.11820836091361038
200.0, 0.12389987280573841
201.0, 0.13148578359040258
202.0, 0.14595975737007666
203.0, 0.15983153518927554
204.0, 0.17748942751794236
205.0, 0.19700827821745506
206.0, 0.2144704103407913
207.0, 0.2281984097640101
208.0, 0.2386692953568151
209.0, 0.23442746971723438
210.0, 0.21177629292127953
211.0, 0.17631781506369254
212.0, 0.1371468853435192
213.0, 0.10139059812437315
214.0, 0.07319866130641413
215.0, 0.053514141809876535
216.0, 0.03849164694353487
217.0, 0.027467173151817764
218.0, 0.020265413143258765
219.0, 0.015217530787126524
220.0, 0.00897958775066521
221.0, 0.005803807946449067
222.0, 0.003925942055281503
223.0, 0.0017314855851465311
224.0, 0.001350933137448615
225.0, 0.0022719972073161065
226.0, 0.00345490477994971
227.0, 0.003850146959469435
228.0, 0.0031535535916456803
229.0, 0.004549516137745431
230.0, 0.005045389547308158
231.0, 0.005056727400540932
232.0, 0.005063793025014365
233.0, 0.0050161133066179316
234.0, 0.004923441614957484
235.0, 0.004144788136975017
236.0, 0.002761311627576115
237.0, 0.0011112371303647454
238.0, 0.0002842917555078969
239.0, 0.0012755493712451834
240.0, 0.0035495483590367257
241.0, 0.006880581680370102
242.0, 0.009295432610526138
243.0, 0.012159563742561587
244.0, 0.016139701492487855
245.0, 0.020678138954744026
246.0, 0.02527477945855293
247.0, 0.030520766057237733
248.0, 0.03848963672356555
249.0, 0.045340495754180005
250.0, 0.04996461456970826
251.0, 0.05386796596045682
252.0, 0.05324603991025506
253.0, 0.0478194729204775
254.0, 0.03937106443883284
255.0, 0.03077667553861555
256.0, 0.025056396088881622
257.0, 0.023659309123114192
258.0, 0.023799280077759558
259.0, 0.024636183280103172
260.0, 0.027430776164077457
261.0, 0.031085645904108006
262.0, 0.03628947098831302
263.0, 0.04178201501640272
264.0, 0.04658738613992892
265.0, 0.05231829967380509
266.0, 0.06016845851910388
267.0, 0.06728942910273202
268.0, 0.07262567972609649
269.0, 0.07663542653486614
270.0, 0.07732530903182817
271.0, 0.07740556948766773
272.0, 0.07708605677685179
273.0, 0.07784238248201684
274.0, 0.08404540834432496
275.0, 0.09246712486355142
276.0, 0.10531434329393187
277.0, 0.12150395635064348
278.0, 0.13854226422118568
279.0, 0.1587214191517315
280.0, 0.18203228697817928
281.0, 0.2126803070237812
282.0, 0.24950609545504923
283.0, 0.28588730988532485
284.0, 0.3294106885394639
285.0, 0.374538445803535
286.0, 0.41935599263528417
287.0, 0.4645707384533292
288.0, 0.5072883557467216
289.0, 0.5387067339411528
290.0, 0.5449672188242328
291.0, 0.5180784382182988
292.0, 0.4568268317516402
293.0, 0.3741080398959286
294.0, 0.2928824632698332
295.0, 0.2222601398764665
296.0, 0.1662857276974055
297.0, 0.12821166364154643
298.0, 0.09994064761174004
299.0, 0.07917970555792501
300.0, 0.06372114679314772
301.0, 0.051428345922085714
302.0, 0.04280172884852885
303.0, 0.035342646795884905
304.0, 0.03020833380124939
305.0, 0.027229427346428418
306.0, 0.024698733145655967
307.0, 0.02395372399843987
308.0, 0.02214727695534499
309.0, 0.02057402130346437
310.0, 0.020275621849265194
311.0, 0.019114327686355775
312.0, 0.01963176537470827
313.0, 0.020130980238522223
314.0, 0.020809846644221572
315.0, 0.022715735013592052
316.0, 0.024337393248152157
317.0, 0.027136743214087617
318.0, 0.03127815948204206
319.0, 0.03638684392821135
320.0, 0.04214655703617087
321.0, 0.05023079473525178
322.0, 0.05917867798855976
323.0, 0.06843296190359813
324.0, 0.0783984705340039
325.0, 0.09016434262053012
326.0, 0.10192336205028713
327.0, 0.11425302060631395
328.0, 0.12216720150711106
329.0, 0.11931420693607016
330.0, 0.10127865862457971
331.0, 0.07787457565630856
332.0, 0.057292994844524756
333.0, 0.04193935657301583
334.0, 0.030539897330811878
335.0, 0.024078177130984223
336.0, 0.01856662630012919
337.0, 0.014486213703164025
338.0, 0.012528341325274297
339.0, 0.01160088279302567
340.0, 0.011171475661841615
341.0, 0.011478422790661677
342.0, 0.011543767921897373
343.0, 0.010713271550194749
344.0, 0.010222128706421717
345.0, 0.010249011604728303
346.0, 0.010933786909736632
347.0, 0.011530299835523948
348.0, 0.011124680045935552
349.0, 0.010164964273556915
350.0, 0.008813149771052057
351.0, 0.006530404094653536
352.0, 0.004308773706877408
353.0, 0.0034412568626536358
354.0, 0.002331583439134556
355.0, 0.0012897616295399687
356.0, 0.0008166292973260112
357.0, 0.0006390733373134738
358.0, 1.691113843090686e-05
359.0, 1.9239992714141484e-05
360.0, 0.0004439820350519635
361.0, 0.0007895498385311477
362.0, 0.0007634802432546821
363.0, 0.0010673667640616682
364.0, 0.0010739155295378141
365.0, 0.0011627039932037098
366.0, 0.0011362806671357574
367.0, 0.0008472219410616552
368.0, 0.0006372727238172881
369.0, 0.001739256623297301
370.0, 0.0021556708636399666
371.0, 0.0015408261651330786
372.0, 0.0004491510426534498
373.0, 0.00020094919359563607
374.0, 0.0002655867987299319
375.0, 0.0005479385994029386
376.0, 0.0004178748531451619
377.0, 0.0007114231703133303
378.0, 0.0010705471526970837
379.0, 0.0006923438216048076
380.0, 0.0006601495767912917
381.0, 0.0012769870325458333
382.0, 0.0019551006228584315
383.0, 0.002100843967091187
384.0, 0.002567023115201287
385.0, 0.003156610166934227
386.0, 0.004177661455848456
387.0, 0.006113192844662541
388.0, 0.006728030765605512
389.0, 0.00734478875043854
390.0, 0.009445930624068294
391.0, 0.012653197260381804
392.0, 0.015722189913983727
393.0, 0.02197358098011426
394.0, 0.025045021942157023
395.0, 0.026425043823082486
396.0, 0.028887945276228136
397.0, 0.03338868335748416
398.0, 0.03827576496094145
399.0, 0.03990273701395651
400.0, 0.04023696487091858
401.0, 0.04108821071447182
402.0, 0.04136384023942582
403.0, 0.041706940319208456
404.0, 0.044756263843459154
405.0, 0.04926156435625707
406.0, 0.0537731793435664
407.0, 0.05897151771408042
408.0, 0.05891364827336614
409.0, 0.05364665475664526
410.0, 0.046018345465233416
411.0, 0.03936776551958458
412.0, 0.03663987273209256
413.0, 0.036678402066838985
414.0, 0.038662018229224056
415.0, 0.04177188080031611
416.0, 0.0434027699106987
417.0, 0.03941279171628992
418.0, 0.029470699057764792
419.0, 0.01999502401373859
420.0, 0.013428929669927694
421.0, 0.009251705050765955
422.0, 0.0066203389862476945
423.0, 0.003591301788064705
424.0, 0.0016492404687986843
425.0, 0.0008316125837637446
426.0, 0.0004108993864162369
427.0, 0.001009984224928568
428.0, 0.001553914268910717
429.0, 0.0015698975463909006
430.0, 0.001665784058672167
431.0, 0.002134870141653832
432.0, 0.002457909966777267
433.0, 0.0016587013645919498
434.0, 0.0014076613227639997
435.0, 0.0013573772066106525
436.0, 0.0007249891799816246
437.0, 0.000430682515421636
438.0, 0.0010218687727868098
439.0, 0.0016529657665695274
440.0, 0.0032933605401051225
441.0, 0.006182342800308135
442.0, 0.00964944803004191
443.0, 0.014024642125029163
444.0, 0.018484509863815713
445.0, 0.02352643840295941
446.0, 0.02983152674044024
447.0, 0.0374691468518842
448.0, 0.045711992044055724
449.0, 0.05231211392274437
450.0, 0.060498392086075214
451.0, 0.07033274807277172
452.0, 0.07758556381260599
453.0, 0.08634972111107883
454.0, 0.09427330740532142
455.0, 0.1026689953487165
456.0, 0.1082847777665516
457.0, 0.104866657941101
458.0, 0.09605089449979515
459.0, 0.08465138189373662
460.0, 0.07467893869649303
461.0, 0.07233151323096176
462.0, 0.07898388531216283
463.0, 0.07983040376697513
464.0, 0.08958321474899988
465.0, 0.10651943398471334
466.0, 0.1286056172953819
467.0, 0.15577139676041038
468.0, 0.18462719090141758
469.0, 0.21791801491522883
470.0, 0.25589029998634655
471.0, 0.29601736005384743
472.0, 0.33602691698931164
473.0, 0.3775924925433887
474.0, 0.4206719661469683
475.0, 0.46761477295152515
476.0, 0.5154777951759232
477.0, 0.5571656768863492
478.0, 0.5794593521393868
479.0, 0.5609126111050078
480.0, 0.5042567403738206
481.0, 0.4215023873281112
482.0, 0.3337145538236393
483.0, 0.2619001536248509
484.0, 0.20505255228536615
485.0, 0.16586683693580653
486.0, 0.14002689193755302
487.0, 0.12393723765728375
488.0, 0.11613385879037584
489.0, 0.1132223553796838
490.0, 0.1174719278749359
491.0, 0.1297996003139378
492.0, 0.14834669612882684
493.0, 0.17269200064130058
494.0, 0.2087273446953208
495.0, 0.2513159667195717
496.0, 0.30156792581679603
497.0, 0.3590746112461651
498.0, 0.4230989494789453
499.0, 0.49368006955958127
500.0, 0.5627536174783417
501.0, 0.6345932068659799
502.0, 0.7077961653115397
503.0, 0.7826163935980759
504.0, 0.8626324096453555
505.0, 0.943683230240902
506.0, 0.9935001114679102
507.0, 0.9873128324311099
508.0, 0.9149082645724587
509.0, 0.787390626919417
510.0, 0.6352004374460856
511.0, 0.4937717166897035
512.0, 0.37919082159639805
513.0, 0.29218313852065975
514.0, 0.22871611562583735
515.0, 0.18590243584044305
516.0, 0.15041783945906287
517.0, 0.1231013887402946
518.0, 0.10336143787579986
519.0, 0.08836696806571841
520.0, 0.0744827295724198
521.0, 0.0641023940067635
522.0, 0.05664166571130783
523.0, 0.049737686952226925
524.0, 0.04323472775443897
525.0, 0.03823507457433365
526.0, 0.03345136196809395
527.0, 0.02909367910863633
528.0, 0.026019028122877676
529.0, 0.02399286418932267
530.0, 0.021630543089238716
531.0, 0.017382869689585318
532.0, 0.01545381560579189
533.0, 0.013833972824989382
534.0, 0.011877098201443469
535.0, 0.01003061593176566
536.0, 0.008883390706160881
537.0, 0.008055892831146492
538.0, 0.005924030008972247
539.0, 0.004417877338007397
540.0, 0.0040557077444455655
541.0, 0.0037511907795057123
542.0, 0.0025860152093226106
543.0, 0.0020205018729704894
544.0, 0.0022417587280250265
545.0, 0.0020245202804837097
546.0, 0.0009370734064891193
547.0, 0.00024732884407588064
548.0, 0.0002781487142623979
549.0, 0.0002234567245809393
550.0, 0.0010921483608282677
551.0, 0.0016518378173232843
552.0, 0.0006167721232066202
553.0, 0.00024306137076155344
554.0, 0.0013402094829138612
555.0, 0.0007373544434211856
556.0, 0.0006542133453274646
557.0, 0.0009642630117544203
558.0, 0.0014140800178068472
559.0, 0.0011223620653624047
560.0, 0.0016968315135505506
561.0, 0.000524463729354206
562.0, 0.0005838429778537915
563.0, 0.0006366653549361932
564.0, 0.0023816699424031133
565.0, 0.002886697568809221
566.0, 0.004450992028034428
567.0, 0.006662119412187409
568.0, 0.008513795314190198
569.0, 0.010382682831420787
570.0, 0.012752609779300641
571.0, 0.01606830580151806
572.0, 0.01855841032204518
573.0, 0.020324851215846915
574.0, 0.022471377884828243
575.0, 0.025538933991588585
576.0, 0.027402425450915716
577.0, 0.029400492008671647
578.0, 0.031031065233512966
579.0, 0.03115803996965645
580.0, 0.028955474120567128
581.0, 0.02442148775656342
582.0, 0.019275614546001033
583.0, 0.014560443107975935
584.0, 0.010861094187549717
585.0, 0.008129761412112992
586.0, 0.005907158595902874
587.0, 0.004187217174627938
588.0, 0.002198053567419743
589.0, 0.001617508528135865
590.0, 0.00181119099934219
591.0, 0.0009793130137829681
592.0, 0.0002923945933832123
593.0, 0.000842512605020483
594.0, 0.001097495862669831
595.0, 0.0017366632322846482
596.0, 0.004056742541919924
597.0, 0.000831453496529871
598.0, 0.00110015920829857
599.0, 0.0006088748772621522
600.0, 0.00012139166260786178
601.0, 0.00040178189362046434
602.0, 0.0005776818899924529
603.0, 0.0010241690182861164
604.0, 0.0001947306418315933
605.0, 0.00011452474360529177
606.0, 0.00012425369504655848
607.0, 0.00013354191988652526
608.0, 0.0008737353458868012
609.0, 0.0018517453955933982
610.0, 0.001492532899365809
611.0, 0.0020343881164526538
612.0, 0.002152628510181689
613.0, 0.00231047193449642
614.0, 0.0037585900655367982
615.0, 0.003144454182499952
616.0, 0.004280016702688039
617.0, 0.004924029638172389
618.0, 0.0058563810918794154
619.0, 0.007398848010583323
620.0, 0.00808165715813921
621.0, 0.009697748642390222
622.0, 0.012103502155009714
623.0, 0.013291803246471615
624.0, 0.014542489870228647
625.0, 0.016467493461454614
626.0, 0.017132908406791967
627.0, 0.02039706897644667
628.0, 0.022371724952458562
629.0, 0.024113580879374704
630.0, 0.02555519318601134
631.0, 0.027039018070046945
632.0, 0.029946032541297768
633.0, 0.028923129282970916
634.0, 0.029029269482109394
635.0, 0.028910007997046287
636.0, 0.02808176819365267
637.0, 0.02761296032320076
638.0, 0.02755224920448814
639.0, 0.02786407384571389
640.0, 0.028735483077765054
641.0, 0.029432831261005137
642.0, 0.03057227295982062
643.0, 0.03270885186519353
644.0, 0.034090908239514016
645.0, 0.03562226634656655
646.0, 0.03479567626441367
647.0, 0.033458055560818455
648.0, 0.03146250725161838
649.0, 0.027402791357183254
650.0, 0.02375071692220601
651.0, 0.020235832627839418
652.0, 0.01697843908499095
653.0, 0.014046769927205861
654.0, 0.012192725016365688
655.0, 0.01169787798439889
656.0, 0.008797425178941193
657.0, 0.00781274025638466
658.0, 0.007009503155572679
659.0, 0.006364517384655357
660.0, 0.006007001735382587
661.0, 0.005543395300595062
662.0, 0.005198071767656964
663.0, 0.00395898261265336
664.0, 0.0038501453621043714
665.0, 0.003732316649845748
666.0, 0.00320976904220437
667.0, 0.0030014841330979385
668.0, 0.002455297492045833
669.0, 0.002372658033929719
670.0, 0.002034293910567286
671.0, 0.0017337157987682011
672.0, 0.0014930919995140182
673.0, 0.001013297152034227
674.0, 0.0008794325958393532
675.0, 0.001289843823179712
676.0, 0.0013371894245802806
677.0, 0.0009454263122802983
678.0, 0.000896890844547274
679.0, 0.0011757251877904699
680.0, 0.0005296967821547045
681.0, 0.0009236600377901464
682.0, 0.0015522006873875118
683.0, 0.0009293598636610458
684.0, 0.00024759293133800496
685.0, 0.00015828159423157575
686.0, 0.0006216464431870152
687.0, 0.0002607485071579761
688.0, 0.00024331525200296892
689.0, 0.00031636469035769985
690.0, 0.000392256941674255
691.0, 0.00041657835637258224
692.0, 0.00018476468271867323
693.0, 0.0003239210172438837
694.0, 0.000882138149639643
695.0, 0.00016074254717365357
696.0, 0.0005333001713882657
697.0, 0.0005307823339621416
698.0, 0.00041275621393354445
699.0, 0.0002358145707120941
700.0, 0.0001366040191617422
701.0, 0.00046411854831329176
702.0, 0.000803853130706739
703.0, 0.0007601994783991554
704.0, 0.00014795743926657965
705.0, 0.0005073157853218682
706.0, 0.0006843856988278903
707.0, 0.00034140378356468275
708.0, 0.00033037552310493116
709.0, 0.0012734111664150104
710.0, 0.0014893779231423643
711.0, 0.0013539920780448868
712.0, 0.0019294381199671258
713.0, 0.0027952690995918057
714.0, 0.003313438631372171
715.0, 0.0036243774944520846
716.0, 0.004110454175755714
717.0, 0.004204654562024302
718.0, 0.002740994768916236
719.0, 0.003459061871934348
720.0, 0.004209560757745098
721.0, 0.0039984978131860065
722.0, 0.003426039776365926
723.0, 0.0024394368323673106
724.0, 0.0008686999074467604
725.0, 0.001142753758153412
726.0, 0.002460556358593183
727.0, 0.003115404314720506
728.0, 0.003058196796234058
729.0, 0.0032819608506807767
730.0, 0.0029141795450766694
731.0, 0.001714418866542032
732.0, 0.0013855311644332996
733.0, 0.0019422500034055993
734.0, 0.00296221507215573
735.0, 0.003521511576855139
736.0, 0.002164459282421618
737.0, 0.0028083549716290622
738.0, 0.0035482173394546165
739.0, 0.004036111592709073
740.0, 0.004564480275212193
741.0, 0.005628752740685595
742.0, 0.007435481976098263
743.0, 0.008714207800066114
744.0, 0.00928058688960031
745.0, 0.011346954864724966
746.0, 0.013681112233964302
747.0, 0.01578149638668414
748.0, 0.01897564122011466
749.0, 0.023841618863691266
750.0, 0.030162945226213465
751.0, 0.037670125200760005
752.0, 0.04567118889189106
753.0, 0.05453178099375593
754.0, 0.06486779100375263
755.0, 0.07615212377915724
756.0, 0.08690430320167482
757.0, 0.09799055726212022
758.0, 0.10980857948058288
759.0, 0.12165776044598064
760.0, 0.13350266481118597
761.0, 0.14452318020692925
762.0, 0.15039788799551432
763.0, 0.1509316049644871
764.0, 0.1410624431478431
765.0, 0.12382848668569059
766.0, 0.10386542859812872
767.0, 0.08448952294469747
768.0, 0.06813680480614155
769.0, 0.05580244172265882
770.0, 0.047004595105810676
771.0, 0.04099900709488798
772.0, 0.036687874040106455
773.0, 0.03307287930925006
774.0, 0.029712367967181186
775.0, 0.02685045744014726
776.0, 0.024508930218131775
777.0, 0.020318841503689532
778.0, 0.01778760720750016
779.0, 0.015072182701568768
780.0, 0.011352836935961268
781.0, 0.009392670275999425
782.0, 0.008388582309766232
783.0, 0.00722886389997711
784.0, 0.00555886191800678
785.0, 0.005033760413004096
786.0, 0.004631237055395286
787.0, 0.003930313228895751
788.0, 0.004684051289110438
789.0, 0.004662598917757657
790.0, 0.004818950991389528
791.0, 0.004786385412336554
792.0, 0.005765929742732072
793.0, 0.006534269760941915
794.0, 0.006562005804714528
795.0, 0.00863349417748391
796.0, 0.010163894768189772
797.0, 0.012533693988080307
798.0, 0.01450622634372442
799.0, 0.017614290089458726
800.0, 0.022499436402393453
801.0, 0.028607536150494137
802.0, 0.03683126944739727
803.0, 0.04372760882656762
804.0, 0.055893122858611845
805.0, 0.06778711378820279
806.0, 0.08038527162977176
807.0, 0.09583013843540994
808.0, 0.1115661516460787
809.0, 0.12491436361934027
810.0, 0.13955091385511031
811.0, 0.15526961306372816
812.0, 0.16881047207623437
813.0, 0.17796095819945118
814.0, 0.1811843516424169
815.0, 0.17711089368246857
816.0, 0.16364510581954753
817.0, 0.14039289181619016
818.0, 0.11458025069799146
819.0, 0.09143061364711677
820.0, 0.07105622864892665
821.0, 0.05448912859478209
822.0, 0.044126944459855925
823.0, 0.035568995660390804
824.0, 0.028163196179960114
825.0, 0.02333548260151511
826.0, 0.020298434812190222
827.0, 0.01715049214408882
828.0, 0.01461329072536632
829.0, 0.01460723270741051
830.0, 0.013016710457495875
831.0, 0.0105975621702741
832.0, 0.010442734600646961
833.0, 0.009755416848876227
834.0, 0.008268501010054847
835.0, 0.007059280365366687
836.0, 0.006013479651679821
837.0, 0.005564399597030555
838.0, 0.005322849361649437
839.0, 0.005075643955009182
840.0, 0.004480335611447513
841.0, 0.003421990772338511
842.0, 0.0027764276094694447
843.0, 0.003420022015243335
844.0, 0.003245293005306274
845.0, 0.0020987505102701694
846.0, 0.0017928145921428842
847.0, 0.0015111109369422438
848.0, 0.0007653961045837902
849.0, 0.0005785068773734617
850.0, 0.0010596118577396714
851.0, 8.492710789070934e-05
852.0, 0.000633337742578745
853.0, 0.0008759563122293797
854.0, 0.0006183919934476232
855.0, 0.0003410314585358907
856.0, 8.731524616933967e-05
857.0, 0.00027969608561780165
858.0, 0.00042978000889012425
859.0, 0.0005488642860827283
860.0, 0.0003475219740215251
861.0, 0.00014618856131617247
862.0, 0.00047696817798915426
863.0, 0.00045634673714283576
864.0, 0.00016036949169617585
865.0, 0.0003428999498528533
866.0, 0.0009093648884585545
867.0, 0.000658248466255469
868.0, 0.00014084348048524863
869.0, 0.0005989143171730752
870.0, 0.0013433212658024028
871.0, 0.0008019393737142154
872.0, 0.0007695335100044591
873.0, 0.00015605977003773595
874.0, 0.0007298561667300691
875.0, 0.0004047464900500084
876.0, 0.0004267993865137956
877.0, 0.00019041175812388372
878.0, 0.0007443524678305895
879.0, 0.0010889072985824063
880.0, 0.0005034476848444526
881.0, 0.00012840646521378667
882.0, 0.00025253803980222257
883.0, 0.0007946445594219537
884.0, 0.0004626562971948866
885.0, 0.0001871459225369258
886.0, 0.0005357050677667126
887.0, 0.0005403178720410243
888.0, 0.001250669067891217
889.0, 0.0005952708819481905
890.0, 0.0007725614732165564
891.0, 0.0014730279837695652
892.0, 0.0008520520227713964
893.0, 0.00025680441464856344
894.0, 0.0010922857857786066
895.0, 0.0004682559816449116
896.0, 0.00014688063739036098
897.0, 0.0007149351342330387
898.0, 0.00044531816197998096
899.0, 0.0010631086854598073
900.0, 0.0017893443449952667
901.0, 0.0015209368215000532
902.0, 0.0014418620365615133
903.0, 0.0010257057252128546
904.0, 0.0017552715422602077
905.0, 0.0008679521911286145
906.0, 0.0009662111153519604
907.0, 0.001621982253110481
908.0, 0.001970861614963344
909.0, 0.0022444594435780418
910.0, 0.0023383554057897723
911.0, 0.00279750804015686
912.0, 0.0012313186618164494
913.0, 0.0016091301887038712
914.0, 0.0017304754772790984
915.0, 0.0013896406163839043
916.0, 0.0016563523377533232
917.0, 0.0019199198411965336
918.0, 0.0013067768837994984
919.0, 0.0002940542459594193
920.0, 9.760346236806504e-05
921.0, 0.0009217392079265518
922.0, 0.0009082945433949606
923.0, 0.0006550068269582318
924.0, 0.0008174858879274149
925.0, 0.00044447761592712406
926.0, 0.00010440115102124957
927.0, 0.0005355471036879652
928.0, 0.0004719429926373659
929.0, 0.0005398359024864647
930.0, 0.0009403641842898647
931.0, 0.000844291029565591
932.0, 0.0007773568813357337
933.0, 0.00015772518916519777
934.0, 7.18563195720654e-05
935.0, 0.0010659503822157649
936.0, 0.0004147801861886128
937.0, 0.00021129172988461188
938.0, 9.852211543965179e-05
939.0, 0.0003134466497408856
940.0, 0.0011721862491347946
941.0, 0.000762738007820557
942.0, 6.080764908816126e-05
943.0, 0.0002568279501736843
944.0, 0.0007908900310155309
945.0, 0.0009077702513701392
946.0, 0.0011433066176018425
947.0, 0.0011495972765109407
948.0, 0.0013578939233652699
949.0, 0.0028227376707879305
950.0, 0.0025250465123613946
951.0, 0.0021396871323666987
952.0, 0.002896085597747045
953.0, 0.0028164118347893635
954.0, 0.0025008860405817098
955.0, 0.0028093235424023733
956.0, 0.003473984597097177
957.0, 0.003946046577916209
958.0, 0.0035663876402156573
959.0, 0.005303093378699816
960.0, 0.006811626137491072
961.0, 0.007867888002026289
962.0, 0.008805194775374019
963.0, 0.009521273745187582
964.0, 0.010428230642245628
965.0, 0.01273430610788263
966.0, 0.016632971337331673
967.0, 0.01981003174198313
968.0, 0.024477995389369157
969.0, 0.027954824448970354
970.0, 0.03275312102384022
971.0, 0.038154377145287785
972.0, 0.04250269872596474
973.0, 0.047204908185209594
974.0, 0.05266410470050009
975.0, 0.05555601421003075
976.0, 0.057894111610476084
977.0, 0.058881410131681966
978.0, 0.057605239200014716
979.0, 0.052991886354046315
980.0, 0.04577095695756666
981.0, 0.03838044154813174
982.0, 0.03195467511851106
983.0, 0.025042720915320546
984.0, 0.020575675149220794
985.0, 0.016403879913544753
986.0, 0.012041406604801307
987.0, 0.010130670605638105
988.0, 0.009498954526404717
989.0, 0.007842210349586282
990.0, 0.006295580542719204
991.0, 0.007182386732609352
992.0, 0.006025028257998048
993.0, 0.006150985151394959
994.0, 0.00671042330002304
995.0, 0.00784721971824948
996.0, 0.009355360797277596
997.0, 0.010748588937598226
998.0, 0.011881249660775367
999.0, 0.013569701450726545
1000.0, 0.01751059538872955
1001.0, 0.017371268463586928
1002.0, 0.018776785253142192
1003.0, 0.021374701936902357
1004.0, 0.023346075656851414
1005.0, 0.02452960312026839
1006.0, 0.02505199333569192
1007.0, 0.024625235776251492
1008.0, 0.024167230673735197
1009.0, 0.02260165121652324
1010.0, 0.02263148383709292
1011.0, 0.023278001142153892
1012.0, 0.023200810368668282
1013.0, 0.0226141513727592
1014.0, 0.021832501481687305
1015.0, 0.02071899252681296
1016.0, 0.019500783875967882
1017.0, 0.018787751729883697
1018.0, 0.0161318971323436
1019.0, 0.017173470433529483
1020.0, 0.017220957634157867
1021.0, 0.01872986269157076
1022.0, 0.020543474293623177
1023.0, 0.021412150745325164
1024.0, 0.02323441876782893
1025.0, 0.026829973934910666
1026.0, 0.03134890265627376
1027.0, 0.035430947154544284
1028.0, 0.03844616962211092
1029.0, 0.04002231644965312
1030.0, 0.042761443260887676
1031.0, 0.04438802299345496
1032.0, 0.04281788267543803
1033.0, 0.039842155344670026
1034.0, 0.03739596896176839
1035.0, 0.03312312320351407
1036.0, 0.02698164521288237
1037.0, 0.02365046038332212
1038.0, 0.02014606144100292
1039.0, 0.016238282574141435
1040.0, 0.014200356460086798
1041.0, 0.012546295454846052
1042.0, 0.010726959899315233
1043.0, 0.010993636287566064
1044.0, 0.008609053371642042
1045.0, 0.008607426290108112
1046.0, 0.008137970808632189
1047.0, 0.007054066947438017
1048.0, 0.005593939380464982
1049.0, 0.004373495657420816
1050.0, 0.003335217893308689
1051.0, 0.002178422569684126
1052.0, 0.001531367317094958
1053.0, 0.0016768906793399822
1054.0, 0.001221559495171189
1055.0, 0.0002200813052775282
1056.0, 4.064005749216209e-06
1057.0, 0.0010883213011968268
1058.0, 0.001171593920788584
1059.0, 0.0007999228121639444
1060.0, 0.0012699782693693096
1061.0, 0.0011801306352572575
1062.0, 0.0003431971092232053
1063.0, 0.0003843586401705696
1064.0, 0.0007964058021752594
1065.0, 0.0006633256669144628
1066.0, 0.0006081213319013025
1067.0, 0.0002769973555778007
1068.0, 0.0004072068384990789
1069.0, 0.0005080481534405465
1070.0, 0.001324154361456686
1071.0, 0.0025127134260062175
1072.0, 0.004038602815213555
1073.0, 0.004204202683133707
1074.0, 0.003798778122179526
1075.0, 0.003945301629373907
1076.0, 0.00506423655440731
1077.0, 0.006462719763108129
1078.0, 0.008180838514680742
1079.0, 0.009933065765355648
1080.0, 0.011105995385664657
1081.0, 0.0127919781439409
1082.0, 0.015192294969884744
1083.0, 0.018233038497484085
1084.0, 0.021303260691444954
1085.0, 0.024913002523553184
1086.0, 0.03067021244572372
1087.0, 0.03659516962311677
1088.0, 0.04302651553281713
1089.0, 0.051513304620021384
1090.0, 0.06031288776829137
1091.0, 0.06980506756313044
1092.0, 0.08095207453154918
1093.0, 0.09165982344015358
1094.0, 0.10205336960187054
1095.0, 0.11002249074112362
1096.0, 0.1186819503064251
1097.0, 0.12452207059450224
1098.0, 0.12538543375494388
1099.0, 0.12311307245865499
1100.0, 0.11741420218127126
1101.0, 0.11104667752198423
1102.0, 0.10057946108012077
1103.0, 0.09162686285320767
1104.0, 0.08395819910668512
1105.0, 0.07463786324446489
1106.0, 0.06660736504394493
1107.0, 0.061147712175943274
1108.0, 0.05788102887066177
1109.0, 0.05591073138757731
1110.0, 0.053631035566814526
1111.0, 0.051797995363953526
1112.0, 0.048201031017825566
1113.0, 0.04775450868971543
1114.0, 0.04758032006606818
1115.0, 0.044056799615906694
1116.0, 0.040791917515778583
1117.0, 0.03800561882850328
1118.0, 0.03465040968589716
1119.0, 0.03074681707220068
1120.0, 0.025929286158211978
1121.0, 0.022587889003567476
1122.0, 0.018871699502326054
1123.0, 0.016396495664734747
1124.0, 0.013917986438679975
1125.0, 0.012851155683302064
1126.0, 0.009681774231144783
1127.0, 0.0074991118604386345
1128.0, 0.006995513355744661
1129.0, 0.006474957780210513
1130.0, 0.005757692702831361
1131.0, 0.00396897662016023
1132.0, 0.003459213130711115
1133.0, 0.00405479353968996
1134.0, 0.0017939916438093153
1135.0, 0.0017882975855326303
1136.0, 0.0016045268823605579
1137.0, 0.0018988776639419862
1138.0, 0.0025795858849904174
1139.0, 0.0026682733638399717
1140.0, 0.002499913917073105
1141.0, 0.0026791610981302047
1142.0, 0.0029094986033650454
1143.0, 0.002804742818994835
1144.0, 0.004355720513808124
1145.0, 0.00415738367865111
1146.0, 0.005902812191552958
1147.0, 0.006420063344649792
1148.0, 0.006328982042941386
1149.0, 0.007660998309349998
1150.0, 0.009118169860082235
1151.0, 0.008626076187807395
1152.0, 0.00712079600926069
1153.0, 0.008304974937025197
1154.0, 0.006746751794535777
1155.0, 0.00561698075262903
1156.0, 0.004880225709255691
1157.0, 0.0037524643462816735
1158.0, 0.0023793016981841423
1159.0, 0.0018222904505902898
1160.0, 0.0016158446803217928
1161.0, 0.0015956236514832389
1162.0, 0.0018469961743113573
1163.0, 0.0012413411737363725
1164.0, 0.001110894610273375
1165.0, 0.0019843611232365993
1166.0, 0.00024155952114242665
1167.0, 0.0006421118112467926
1168.0, 0.00034035270613656863
1169.0, 0.0005230928203451656
1170.0, 0.0010045487251011509
1171.0, 0.0004126225827604858
1172.0, 0.0003341040804729488
1173.0, 0.0004521028941221413
1174.0, 0.0006191263337416232
1175.0, 0.0003840800606751919
1176.0, 0.0001945753453538004
1177.0, 0.0006262767283245474
1178.0, 0.0007754167507522781
1179.0, 0.0009078536760804724
1180.0, 0.00022117301535454746
1181.0, 4.1666506228058506e-05
1182.0, 8.554306371222863e-05
1183.0, 0.00046385407983558376
1184.0, 0.0012935012098448913
1185.0, 0.0003517417022096101
1186.0, 0.00024269977990888642
1187.0, 0.0004418905139522703
1188.0, 0.0004265393372912589
1189.0, 0.0004714598181351358
1190.0, 0.0006540673439447435
1191.0, 0.0006318978808111948
1192.0, 0.0007338690203012178
1193.0, 0.0004544541123142335
1194.0, 0.0004000670525475038
1195.0, 0.00046092695818750873
1196.0, 0.0005395458451947613
1197.0, 0.0003462936539459883
1198.0, 0.0007478954575706787
1199.0, 0.0007533772920879292
1200.0, 0.00038674193997695295
1201.0, 0.0012676523960745555
1202.0, 0.0014288598651083975
1203.0, 0.0002454506443091879
1204.0, 0.00034741037800565454
1205.0, 0.0006810886928295109
1206.0, 0.001536218616889911
1207.0, 0.0014984361765651136
1208.0, 0.00014898100979532068
1209.0, 0.0005989914290300039
1210.0, 0.0002094940485986085
1211.0, 0.0009499822213391263
1212.0, 0.0006015794345915524
1213.0, 0.0010354633062900724
1214.0, 0.0010628687403529625
1215.0, 0.00022301334560111965
1216.0, 0.0014689991039430236
1217.0, 0.0020073363220164697
1218.0, 0.0011659275214913336
1219.0, 0.00028525057868180465
1220.0, 7.276654944248634e-05
1221.0, 0.0013210898010193167
1222.0, 0.0014024023038127931
1223.0, 0.0014573561300087422
1224.0, 0.0012816510332288203
1225.0, 0.0014726906105249273
1226.0, 0.0007662512617191515
1227.0, 0.000446921033202222
1228.0, 0.0012678489714322005
1229.0, 0.0015704899757492876
1230.0, 0.0016885672969301222
1231.0, 0.0013000788573536168
1232.0, 0.0013326929604461839
1233.0, 0.0019468360298693522
1234.0, 0.000433556253477998
1235.0, 0.001950358354907556
1236.0, 0.0014737301407919206
1237.0, 0.001417014469849668
1238.0, 0.0009037145917862022
1239.0, 0.0019910969652044697
1240.0, 0.0015441657159158038
1241.0, 0.0010934743006435726
1242.0, 0.002121602855782558
1243.0, 0.0024775558622362214
1244.0, 0.0024002713593995677
1245.0, 0.0013222645891661192
1246.0, 0.00043661774451145334
1247.0, 0.0016048823167185851
1248.0, 0.0020723750766376042
1249.0, 0.0017250705794625973
1250.0, 0.002849814387441752
1251.0, 0.0013129758356868967
1252.0, 0.0014243429098236642
1253.0, 0.0003376859567503597
1254.0, 0.0007705724061361015
1255.0, 0.0014075466427788937
1256.0, 0.002086047076742961
1257.0, 0.0019337637827081704
1258.0, 0.0013548968424066496
1259.0, 0.0024010926450130864
1260.0, 0.0024938350480524308
1261.0, 0.0004687098223691891
1262.0, 0.001257619628438818
1263.0, 0.0021183226619125167
1264.0, 0.0015117739405011014
1265.0, 0.0012980534277946506
1266.0, 0.0010241411283521053
1267.0, 0.0003523601656986454
1268.0, 0.0012320338464698148
1269.0, 0.0022595569707647544
1270.0, 0.001576391738448858
1271.0, 0.0008969097870381785
1272.0, 0.0013720081494492716
1273.0, 0.0015652864256703975
1274.0, 0.0013998769992872328
1275.0, 0.0012103989532233068
1276.0, 0.0008296564839465881
1277.0, 0.000706458592639575
1278.0, 0.0015643472659507044
1279.0, 0.00107781582860114
1280.0, 0.0010423278480588614
1281.0, 0.001074281276303516
1282.0, 0.001377432476326155
1283.0, 0.0008481753800191411
1284.0, 0.0008653784044769912
1285.0, 0.0016831513039077864
1286.0, 0.001393372846663524
1287.0, 0.0002080767255227041
1288.0, 0.00015418009398552015
1289.0, 0.0006184620912746624
1290.0, 0.0010911797835614417
1291.0, 0.0008193180188057292
1292.0, 0.0011447926518898856
1293.0, 0.0007274750021785793
1294.0, 0.0002443170237863864
1295.0, 0.0010685455355069935
1296.0, 0.0005765730542678291
1297.0, 0.0016231086497097884
1298.0, 0.0008844260970891488
1299.0, 3.0295502358464533e-07
1300, 0.0
1301, 0.0
1302, 0.0
1303, 0.0
1304, 0.0
1305, 0.0
1306, 0.0
1307, 0.0
1308, 0.0
1309, 0.0
1310, 0.0
1311, 0.0
1312, 0.0
1313, 0.0
1314, 0.0
1315, 0.0
1316, 0.0
1317, 0.0
1318, 0.0
1319, 0.0
1320, 0.0
1321, 0.0
1322, 0.0
1323, 0.0
1324, 0.0
1325, 0.0
1326, 0.0
1327, 0.0
1328, 0.0
1329, 0.0
1330, 0.0
1331, 0.0
1332, 0.0
1333, 0.0
1334, 0.0
1335, 0.0
1336, 0.0
1337, 0.0
1338, 0.0
1339, 0.0
1340, 0.0
1341, 0.0
1342, 0.0
1343, 0.0
1344, 0.0
1345, 0.0
1346, 0.0
1347, 0.0
1348, 0.0
1349, 0.0
1350, 0.0
1351, 0.0
1352, 0.0
1353, 0.0
1354, 0.0
1355, 0.0
1356, 0.0
1357, 0.0
1358, 0.0
1359, 0.0
1360, 0.0
1361, 0.0
1362, 0.0
1363, 0.0
1364, 0.0
1365, 0.0
1366, 0.0
1367, 0.0
1368, 0.0
1369, 0.0
1370, 0.0
1371, 0.0
1372, 0.0
1373, 0.0
1374, 0.0
1375, 0.0
1376, 0.0
1377, 0.0
1378, 0.0
1379, 0.0
1380, 0.0
1381, 0.0
1382, 0.0
1383, 0.0
1384, 0.0
1385, 0.0
1386, 0.0
1387, 0.0
1388, 0.0
1389, 0.0
1390, 0.0
1391, 0.0
1392, 0.0
1393, 0.0
1394, 0.0
1395, 0.0
1396, 0.0
1397, 0.0
1398, 0.0
1399, 0.0
1400, 0.0
1401, 0.0
1402, 0.0
1403, 0.0
1404, 0.0
1405, 0.0
1406, 0.0
1407, 0.0
1408, 0.0
1409, 0.0
1410, 0.0
1411, 0.0
1412, 0.0
1413, 0.0
1414, 0.0
1415, 0.0
1416, 0.0
1417, 0.0
1418, 0.0
1419, 0.0
1420, 0.0
1421, 0.0
1422, 0.0
1423, 0.0
1424, 0.0
1425, 0.0
1426, 0.0
1427, 0.0
1428, 0.0
1429, 0.0
1430, 0.0
1431, 0.0
1432, 0.0
1433, 0.0
1434, 0.0
1435, 0.0
1436, 0.0
1437, 0.0
1438, 0.0
1439, 0.0
1440, 0.0
1441, 0.0
1442, 0.0
1443, 0.0
1444, 0.0
1445, 0.0
1446, 0.0
1447, 0.0
1448, 0.0
1449, 0.0
1450, 0.0
1451, 0.0
1452, 0.0
1453, 0.0
1454, 0.0
1455, 0.0
1456, 0.0
1457, 0.0
1458, 0.0
1459, 0.0
1460, 0.0
1461, 0.0
1462, 0.0
1463, 0.0
1464, 0.0
1465, 0.0
1466, 0.0
1467, 0.0
1468, 0.0
1469, 0.0
1470, 0.0
1471, 0.0
1472, 0.0
1473, 0.0
1474, 0.0
1475, 0.0
1476, 0.0
1477, 0.0
1478, 0.0
1479, 0.0
1480, 0.0
1481, 0.0
1482, 0.0
1483, 0.0
1484, 0.0
1485, 0.0
1486, 0.0
1487, 0.0
1488, 0.0
1489, 0.0
1490, 0.0
1491, 0.0
1492, 0.0
1493, 0.0
1494, 0.0
1495, 0.0
1496, 0.0
1497, 0.0
1498, 0.0
1499, 0.0
1500, 0.0
1501, 0.0
1502, 0.0
1503, 0.0
1504, 0.0
1505, 0.0
1506, 0.0
1507, 0.0
1508, 0.0
1509, 0.0
1510, 0.0
1511, 0.0
1512, 0.0
1513, 0.0
1514, 0.0
1515, 0.0
1516, 0.0
1517, 0.0
1518, 0.0
1519, 0.0
1520, 0.0
1521, 0.0
1522, 0.0
1523, 0.0
1524, 0.0
1525, 0.0
1526, 0.0
1527, 0.0
1528, 0.0
1529, 0.0
1530, 0.0
1531, 0.0
1532, 0.0
1533, 0.0
1534, 0.0
1535, 0.0
1536, 0.0
1537, 0.0
1538, 0.0
1539, 0.0
1540, 0.0
1541, 0.0
1542, 0.0
1543, 0.0
1544, 0.0
1545, 0.0
1546, 0.0
1547, 0.0
1548, 0.0
1549, 0.0
1550, 0.0
1551, 0.0
1552, 0.0
1553, 0.0
1554, 0.0
1555, 0.0
1556, 0.0
1557, 0.0
1558, 0.0
1559, 0.0
1560, 0.0
1561, 0.0
1562, 0.0
1563, 0.0
1564, 0.0
1565, 0.0
1566, 0.0
1567, 0.0
1568, 0.0
1569, 0.0
1570, 0.0
1571, 0.0
1572, 0.0
1573, 0.0
1574, 0.0
1575, 0.0
1576, 0.0
1577, 0.0
1578, 0.0
1579, 0.0
1580, 0.0
1581, 0.0
1582, 0.0
1583, 0.0
1584, 0.0
1585, 0.0
1586, 0.0
1587, 0.0
1588, 0.0
1589, 0.0
1590, 0.0
1591, 0.0
1592, 0.0
1593, 0.0
1594, 0.0
1595, 0.0
1596, 0.0
1597, 0.0
1598, 0.0
1599, 0.0
