30, 0.0
31, 0.0
32, 0.0
33, 0.0
34, 0.0
35, 0.0
36, 0.0
37, 0.0
38, 0.0
39, 0.0
40, 0.0
41, 0.0
42, 0.0
43, 0.0
44, 0.0
45, 0.0
46, 0.0
47, 0.0
48, 0.0
49, 0.0
50, 0.0
51, 0.0
52, 0.0
53, 0.0
54, 0.0
55, 0.0
56, 0.0
57, 0.0
58, 0.0
59, 0.0
60, 0.0
61, 0.0
62, 0.0
63, 0.0
64, 0.0
65, 0.0
66, 0.0
67, 0.0
68, 0.0
69, 0.0
70, 0.0
71, 0.0
72, 0.0
73, 0.0
74, 0.0
75, 0.0
76, 0.0
77, 0.0
78, 0.0
79, 0.0
80, 0.0
81, 0.0
82, 0.0
83, 0.0
84, 0.0
85, 0.0
86, 0.0
87, 0.0
88, 0.0
89, 0.0
90, 0.0
91, 0.0
92, 0.0
93, 0.0
94, 0.0
95, 0.0
96, 0.0
97, 0.0
98, 0.0
99, 0.0
100, 0.0
101, 0.0
102, 0.0
103, 0.0
104, 0.0
105, 0.0
106, 0.0
107, 0.0
108, 0.0
109, 0.0
110, 0.0
111, 0.0
112, 0.0
113, 0.0
114, 0.0
115, 0.0
116, 0.0
117, 0.0
118, 0.0
119, 0.0
120, 0.0
121, 0.0
122, 0.0
123, 0.0
124, 0.0
125, 0.0
126, 0.0
127, 0.0
128, 0.0
129, 0.0
130, 0.0
131.0, 0.0001499125082661131
132.0, 0.0011546514381389783
133.0, 0.0024157684903175526
134.0, 0.0007335572267069413
135.0, 0.00041046563483490973
136.0, 0.002349177743170874
137.0, 0.007456678399707574
138.0, 0.00837383612154074
139.0, 0.015398640116743554
140.0, 0.026230383878762163
141.0, 0.03478447618987196
142.0, 0.056206005529716344
143.0, 0.079852675368695
144.0, 0.10194641194614706
145.0, 0.11071158813921317
146.0, 0.11406741792016523
147.0, 0.10569885495402838
148.0, 0.07245350671228007
149.0, 0.057603713561515196
150.0, 0.043978728164922834
151.0, 0.03020424176574435
152.0, 0.02807412148716837
153.0, 0.027403938874108795
154.0, 0.028637812085991636
155.0, 0.032561784846490055
156.0, 0.04598489397820337
157.0, 0.05734733267766718
158.0, 0.06886802909432319
159.0, 0.09104170524462397
160.0, 0.10370131987022409
161.0, 0.11399629944802171
162.0, 0.12429069762091359
163.0, 0.11970315139854444
164.0, 0.10985419298125017
165.0, 0.09931123708398297
166.0, 0.09572198173239008
167.0, 0.09092508354070929
168.0, 0.09509232135794594
169.0, 0.10848309201136698
170.0, 0.1167446259346848
171.0, 0.12265069194874063
172.0, 0.12727848559408736
173.0, 0.1312112287652826
174.0, 0.13152972967302343
175.0, 0.13960719523545792
176.0, 0.15191302686444938
177.0, 0.15643723524959624
178.0, 0.1796805861377943
179.0, 0.20294103376174064
180.0, 0.22048261308088446
181.0, 0.2483884441013835
182.0, 0.27741797888374653
183.0, 0.3008560983144948
184.0, 0.3083487651037592
185.0, 0.3096421817047503
186.0, 0.30475549787915873
187.0, 0.29372668559373977
188.0, 0.276232962322112
189.0, 0.24293602975365247
190.0, 0.20778297371580012
191.0, 0.1780142132592305
192.0, 0.15672100658800667
193.0, 0.13523972577030746
194.0, 0.11704300533223957
195.0, 0.10978686813431938
196.0, 0.09718583499744964
197.0, 0.08909985987476883
198.0, 0.08659318136019535
199.0, 0.08175033172783926
200.0, 0.07953298353829924
201.0, 0.08230747743108478
202.0, 0.09268307492709461
203.0, 0.09420120094762006
204.0, 0.11038480985679344
205.0, 0.13523500163596655
206.0, 0.1534126241876819
207.0, 0.18256529505860028
208.0, 0.20140367068198667
209.0, 0.2034385138348513
210.0, 0.18301744860780808
211.0, 0.1589308135739623
212.0, 0.12893303808043377
213.0, 0.08995672541075257
214.0, 0.0707488536552476
215.0, 0.051971741360922905
216.0, 0.03495849968031443
217.0, 0.026793829520534967
218.0, 0.020233325673332483
219.0, 0.013773009587790267
220.0, 0.007536690264993681
221.0, 0.00793831866993595
222.0, 0.004494175690504384
223.0, 0.0009722604893581696
224.0, 0.0007597356645561985
225.0, 0.003378189966044531
226.0, 0.0038540193624420406
227.0, 0.003034643315655932
228.0, 0.0038089916996041553
229.0, 0.0061341199912516185
230.0, 0.005693725664508444
231.0, 0.0021306785674786487
232.0, 0.005300503142826982
233.0, 0.003786992170227291
234.0, 0.002220500240844946
235.0, 0.004383098465051073
236.0, 0.004140375335489217
237.0, 0.0026043074990576994
238.0, 0.0008069071568558119
239.0, 0.0010592317292514666
240.0, 0.0034089026449310635
241.0, 0.004660279944354023
242.0, 0.0052748084513436645
243.0, 0.014742586255758257
244.0, 0.019495781435100504
245.0, 0.025686688348108867
246.0, 0.03751782022771834
247.0, 0.05576512011776149
248.0, 0.07766993911026802
249.0, 0.10625838439789839
250.0, 0.14842017270501168
251.0, 0.16580287223784504
252.0, 0.1693730676064832
253.0, 0.1595700453033981
254.0, 0.12913760751554096
255.0, 0.09486734893500423
256.0, 0.06732914289468557
257.0, 0.051701604804854355
258.0, 0.038678613199873396
259.0, 0.03223328716961758
260.0, 0.028429494860332454
261.0, 0.02289596209050721
262.0, 0.023326549279032535
263.0, 0.02594669260601379
264.0, 0.03013040663766835
265.0, 0.035201289898822485
266.0, 0.04385154026273178
267.0, 0.05095290771520374
268.0, 0.05516547649911379
269.0, 0.05844805077748002
270.0, 0.06345235352041961
271.0, 0.06575156245906379
272.0, 0.061859401620435316
273.0, 0.06243806302982368
274.0, 0.06005268822926103
275.0, 0.05801840432641829
276.0, 0.06249945292622393
277.0, 0.06375524319788149
278.0, 0.07013711462690833
279.0, 0.08178971644305938
280.0, 0.09452698006340601
281.0, 0.11361099813090073
282.0, 0.1413394989166308
283.0, 0.17848090139830664
284.0, 0.21600299930342143
285.0, 0.2879099448445208
286.0, 0.37321443930680376
287.0, 0.4552571618784821
288.0, 0.5877944285560834
289.0, 0.6964226374839781
290.0, 0.7627361534981565
291.0, 0.7481577558462417
292.0, 0.7032457871889175
293.0, 0.5993280592556448
294.0, 0.45387312426465687
295.0, 0.3675743113090114
296.0, 0.28460499057443955
297.0, 0.21487039015150022
298.0, 0.16339730923074056
299.0, 0.13523947752482607
300.0, 0.10621460158083759
301.0, 0.08314700881990515
302.0, 0.0724750205082938
303.0, 0.056514034606277956
304.0, 0.047747775093732826
305.0, 0.04287454720530272
306.0, 0.0359779270699034
307.0, 0.029145464268612493
308.0, 0.026141597963184413
309.0, 0.02565692749261838
310.0, 0.02109001359631331
311.0, 0.02138480051102154
312.0, 0.02055183897552153
313.0, 0.017118395729267523
314.0, 0.01519842276695144
315.0, 0.016801736238450337
316.0, 0.017216410334665564
317.0, 0.013546282458500106
318.0, 0.020464207797775386
319.0, 0.022020992352100935
320.0, 0.02353371637629188
321.0, 0.03178181295779003
322.0, 0.03977120289041061
323.0, 0.05186380309100774
324.0, 0.07197469832067868
325.0, 0.10990607897593208
326.0, 0.14828962079636243
327.0, 0.19822350608350006
328.0, 0.2495705017549605
329.0, 0.24238048624083963
330.0, 0.21539522095713745
331.0, 0.17861688716828863
332.0, 0.1360836024438814
333.0, 0.09533853583112752
334.0, 0.07435978050183471
335.0, 0.05851705464178984
336.0, 0.03804109536293562
337.0, 0.03454808504197241
338.0, 0.029582669808246045
339.0, 0.024186346374394214
340.0, 0.019671759477542808
341.0, 0.01942034109184883
342.0, 0.016195761069623147
343.0, 0.012732448850906086
344.0, 0.016428745465153882
345.0, 0.01613091280877523
346.0, 0.01761953470598322
347.0, 0.020589829718353103
348.0, 0.019785746974720374
349.0, 0.01808401831042406
350.0, 0.017512058188826053
351.0, 0.017724857026505343
352.0, 0.01054560024333094
353.0, 0.009718856540943302
354.0, 0.00990569708707803
355.0, 0.008326040425552496
356.0, 0.006355894339627217
357.0, 0.006819222230711887
358.0, 0.0062423370396094535
359.0, 0.0013996976995687945
360.0, 0.004690277253161959
361.0, 0.004508952693265375
362.0, 0.002818425043223273
363.0, 0.0027313800580653423
364.0, 0.002986798571718633
365.0, 0.0025633028423228533
366.0, 0.0020616458603748057
367.0, 0.003114034166943582
368.0, 0.0017642619038921825
369.0, 0.0018150785760224365
370.0, 0.002850482752152391
371.0, 0.0008232876862356094
372.0, 0.0015011078193104608
373.0, 0.0020699506778160126
374.0, 0.001966519106187792
375.0, 0.0028103423696486016
376.0, 0.002263937009915036
377.0, 0.0014264053350157523
378.0, 0.0007913794066150034
379.0, 0.0005166322895074943
380.0, 0.0004447794374198127
381.0, 0.0007502654574054673
382.0, 0.001548295523661914
383.0, 0.0017758897461872677
384.0, 0.001926889288905506
385.0, 0.0023093932925275446
386.0, 0.0032471238981933415
387.0, 0.0036476964495724498
388.0, 0.002887895170993025
389.0, 0.0028023154643175754
390.0, 0.006149601337596515
391.0, 0.003733645310013232
392.0, 0.0052877529300655885
393.0, 0.009161357888650388
394.0, 0.010627396950052373
395.0, 0.017617632605464752
396.0, 0.025073771391299928
397.0, 0.030851745074806366
398.0, 0.030568991317274443
399.0, 0.03801649318677276
400.0, 0.03618296551914593
401.0, 0.025417967295949244
402.0, 0.02157001203584785
403.0, 0.0196607688341179
404.0, 0.01626908054321536
405.0, 0.012529972242382378
406.0, 0.021336025497734612
407.0, 0.019483540140295567
408.0, 0.019202850546050608
409.0, 0.0234590226382236
410.0, 0.014267219509602183
411.0, 0.011150139652323811
412.0, 0.011526393990949091
413.0, 0.013881537300399312
414.0, 0.013801228253934842
415.0, 0.019298980638057354
416.0, 0.02271836166985464
417.0, 0.018962111608065445
418.0, 0.016409300331662643
419.0, 0.012599238074544997
420.0, 0.008069187794721088
421.0, 0.0032642030754775663
422.0, 0.0041866467402872365
423.0, 0.0030783956878752024
424.0, 0.0014251116946511998
425.0, 0.000861506644115676
426.0, 0.0009703429890935093
427.0, 0.001199381073790466
428.0, 0.0014087083146358727
429.0, 0.0014255064219192142
430.0, 0.002383612387904376
431.0, 0.003523991807448614
432.0, 0.0039253446297046034
433.0, 0.0020859963216160633
434.0, 0.0021141552999842488
435.0, 0.0023375403921731663
436.0, 0.002346937417189908
437.0, 0.0016005270707666372
438.0, 0.0034586021607930983
439.0, 0.003288748987494527
440.0, 0.002275507551554191
441.0, 0.004308568753928668
442.0, 0.003319778252952555
443.0, 0.0017081256940787784
444.0, 0.001586620555117752
445.0, 0.007788544537323165
446.0, 0.007722808942139872
447.0, 0.008204195089258782
448.0, 0.009143356904084608
449.0, 0.00673789041989287
450.0, 0.005508911689191988
451.0, 0.007406870850259786
452.0, 0.010826227064320909
453.0, 0.008953946781720637
454.0, 0.015225342119321469
455.0, 0.01700678715343843
456.0, 0.01448674237001417
457.0, 0.019208598729604218
458.0, 0.021998642830369758
459.0, 0.020760869953171144
460.0, 0.017584000155980422
461.0, 0.0233741140710094
462.0, 0.020479623286014915
463.0, 0.020902549135183014
464.0, 0.025898809122112832
465.0, 0.02651747223858743
466.0, 0.028158056089841094
467.0, 0.035113153741571326
468.0, 0.04561226675576536
469.0, 0.04515707054847303
470.0, 0.060108109781521805
471.0, 0.07541885953211991
472.0, 0.0890510110751019
473.0, 0.11305618633634537
474.0, 0.15258863714123627
475.0, 0.1956622655311178
476.0, 0.2441444012248924
477.0, 0.32570357501221553
478.0, 0.3597155586864098
479.0, 0.3670947552481467
480.0, 0.3521940375511372
481.0, 0.3054161250285639
482.0, 0.24140070459171928
483.0, 0.1920971252073518
484.0, 0.16185228115853972
485.0, 0.12273224213861723
486.0, 0.11154637631555307
487.0, 0.10136235481304445
488.0, 0.08601969734677781
489.0, 0.07463607344322437
490.0, 0.0767062432134055
491.0, 0.07430420058668541
492.0, 0.0673716935524926
493.0, 0.07890130631604013
494.0, 0.08556042460914105
495.0, 0.09135769117496147
496.0, 0.10031523170748224
497.0, 0.12455833538201173
498.0, 0.13942161214442192
499.0, 0.17182456796743362
500.0, 0.22175499798075582
501.0, 0.26325447049502765
502.0, 0.348691376305231
503.0, 0.4642460441118247
504.0, 0.5998650748650347
505.0, 0.7321189957470188
506.0, 0.9112973784547086
507.0, 0.980870570979106
508.0, 0.935059493137704
509.0, 0.8509981105876663
510.0, 0.7172875839273946
511.0, 0.5621030054364242
512.0, 0.41600038235410763
513.0, 0.3473085844503796
514.0, 0.26672456423939045
515.0, 0.20972020649530007
516.0, 0.17572174205040028
517.0, 0.1521150229331093
518.0, 0.12164656755099224
519.0, 0.10613710069952603
520.0, 0.09819131823644295
521.0, 0.07827442493768713
522.0, 0.07444042051106751
523.0, 0.06725094298378909
524.0, 0.057415508234185904
525.0, 0.04899187600442657
526.0, 0.051455206520727374
527.0, 0.045660771429771756
528.0, 0.03862917055652466
529.0, 0.0417686977480313
530.0, 0.0330471050986347
531.0, 0.03103220562140939
532.0, 0.03193263600209242
533.0, 0.030694301025082502
534.0, 0.02517907597710252
535.0, 0.025991332456590844
536.0, 0.02639659427117956
537.0, 0.02024994196613227
538.0, 0.01997908958395982
539.0, 0.0222595237991231
540.0, 0.02103453041747983
541.0, 0.01293324980943886
542.0, 0.019827008267201324
543.0, 0.015746860356296393
544.0, 0.012641946005970864
545.0, 0.016558960839211805
546.0, 0.01567570096467452
547.0, 0.0111165462010522
548.0, 0.01161579072525318
549.0, 0.018199493456822095
550.0, 0.010338643258121862
551.0, 0.011326338901219346
552.0, 0.01231146169610297
553.0, 0.010469978374080466
554.0, 0.0071332957408181625
555.0, 0.012897085580111992
556.0, 0.01265282859194687
557.0, 0.007046553057377332
558.0, 0.011078887564991131
559.0, 0.012907392123779029
560.0, 0.010850334566275042
561.0, 0.008228347607749018
562.0, 0.013695146669748082
563.0, 0.00867462629170259
564.0, 0.009483831675319883
565.0, 0.012565051315317578
566.0, 0.008637045076196661
567.0, 0.00871788331809177
568.0, 0.01181751542083773
569.0, 0.01403596256771903
570.0, 0.010654678411624964
571.0, 0.014805113173985213
572.0, 0.016574702233337287
573.0, 0.017350177359145843
574.0, 0.01865180777662402
575.0, 0.024851210826765925
576.0, 0.02570788302255792
577.0, 0.02783901058739305
578.0, 0.034186352988515
579.0, 0.032240917075530416
580.0, 0.030589073121676816
581.0, 0.029744015071981607
582.0, 0.02828131455770961
583.0, 0.017158791198212182
584.0, 0.017499492659176445
585.0, 0.015656446612524313
586.0, 0.010663294774005735
587.0, 0.012640922401926512
588.0, 0.013699834330268203
589.0, 0.01012742162735534
590.0, 0.00592636633448751
591.0, 0.011393177893292564
592.0, 0.004038055554193979
593.0, 0.003373053801863505
594.0, 0.007001718392247874
595.0, 0.008835831004116083
596.0, 0.005072474641370129
597.0, 0.007868376901655181
598.0, 0.008954472636423867
599.0, 0.0010376744760845985
600.0, 0.007593969904682277
601.0, 0.009044650302437207
602.0, 0.00821431211166017
603.0, 0.007574315047865658
604.0, 0.013056733907576154
605.0, 0.006203124385250383
606.0, 0.003875455428849938
607.0, 0.009217328177213656
608.0, 0.006885955341543054
609.0, 0.004549032326121884
610.0, 0.006838188469997338
611.0, 0.010141153978389765
612.0, 0.002361650285398302
613.0, 0.006598106745452158
614.0, 0.00873543322444903
615.0, 0.008124268862834618
616.0, 0.006337779445075767
617.0, 0.010200616747738067
618.0, 0.008591688592020447
619.0, 0.007757431162521021
620.0, 0.013525693895639686
621.0, 0.012646133396537789
622.0, 0.010441595115291113
623.0, 0.012077337814765278
624.0, 0.018334354954823513
625.0, 0.012904560524645198
626.0, 0.02025274629582573
627.0, 0.024796285341341328
628.0, 0.024436976173486225
629.0, 0.030651782488799285
630.0, 0.04051011139153836
631.0, 0.04163753950302676
632.0, 0.03968049083379999
633.0, 0.0502776166866787
634.0, 0.04283582979437768
635.0, 0.03880543427589974
636.0, 0.03796783843988724
637.0, 0.038184451831268194
638.0, 0.02891607399950653
639.0, 0.03220304369145828
640.0, 0.03503380680971249
641.0, 0.030215145797180855
642.0, 0.0313344052706011
643.0, 0.040501540102558325
644.0, 0.042268441580252884
645.0, 0.03735386573889506
646.0, 0.04959743616368896
647.0, 0.04315425594096175
648.0, 0.03858767421025346
649.0, 0.03788521068401394
650.0, 0.037725686851221664
651.0, 0.024214417023298587
652.0, 0.023400214097519963
653.0, 0.02425317877673691
654.0, 0.014201108945007066
655.0, 0.014040184241852403
656.0, 0.015740745174085354
657.0, 0.012728062773577431
658.0, 0.004364151304263219
659.0, 0.01114862748097717
660.0, 0.009451242097764994
661.0, 0.006188497476477724
662.0, 0.005204347455788502
663.0, 0.011622343207673608
664.0, 0.004684199785323775
665.0, 0.004277017463007853
666.0, 0.006268547107608594
667.0, 0.0011690619344394602
668.0, 0.005673986940064772
669.0, 0.007875110002911299
670.0, 0.006376995966059163
671.0, 0.0016618092381156563
672.0, 0.00735881746938016
673.0, 0.003848454734141889
674.0, 0.0030731494540531994
675.0, 0.00709247287979686
676.0, 0.006375264713087289
677.0, 0.003910965447863166
678.0, 0.006320176057140168
679.0, 0.008655380358613424
680.0, 0.0005744576305659497
681.0, 0.0035821112312405174
682.0, 0.005436039310701528
683.0, 0.004476806377482081
684.0, 0.0007873348242594339
685.0, 0.008255253627143178
686.0, 0.004365164292132564
687.0, 0.002283172274533782
688.0, 0.005323483804025689
689.0, 0.0042368506705312186
690.0, 0.00147964325919123
691.0, 0.002844526919178021
692.0, 0.00499609849183407
693.0, 0.00024082040233370725
694.0, 0.001536170331313058
695.0, 0.004496494830443114
696.0, 0.006588055400326806
697.0, 0.006284622441964708
698.0, 0.009671265692181106
699.0, 0.005216926883459367
700.0, 0.002914276421846756
701.0, 0.005114219940524677
702.0, 0.005861495864924823
703.0, 0.004492807108330144
704.0, 0.00575331083907627
705.0, 0.006372355528101269
706.0, 0.00026526137450142307
707.0, 0.00026629003639252883
708.0, 0.003223961313204599
709.0, 0.005257656058747326
710.0, 0.004363774235344006
711.0, 0.007283808432119338
712.0, 0.003278831609985936
713.0, 0.0005735300455005657
714.0, 0.0014257150602797238
715.0, 0.004744973620797633
716.0, 0.0020027746795523165
717.0, 0.0035022818450736286
718.0, 0.005885039298202996
719.0, 0.004085067103831752
720.0, 0.003398239534187086
721.0, 0.00701661941539632
722.0, 0.0067593330412088915
723.0, 0.0017897212226279297
724.0, 0.009180043885670352
725.0, 0.004612353739009495
726.0, 0.0018309329176717769
727.0, 0.003923324467245178
728.0, 0.01111594364876288
729.0, 0.004793980238309188
730.0, 0.006121952611177756
731.0, 0.008009376765355191
732.0, 0.004691793478295092
733.0, 0.0013770057016508342
734.0, 0.008671112204476729
735.0, 0.008254599714834113
736.0, 0.0012713892363852902
737.0, 0.0071626532994369975
738.0, 0.004559336360997181
739.0, 0.004144104249924332
740.0, 0.006248721500323709
741.0, 0.009426846610927065
742.0, 0.002239628664971843
743.0, 0.008570875876250104
744.0, 0.011286965551847985
745.0, 0.006083274223956823
746.0, 0.006858623949420798
747.0, 0.01249673814304706
748.0, 0.009786418831277312
749.0, 0.006655803854782545
750.0, 0.016615088031437117
751.0, 0.009778028935603974
752.0, 0.010543384814057264
753.0, 0.015357596276581256
754.0, 0.01952335634700205
755.0, 0.01100093401466888
756.0, 0.018836685767718152
757.0, 0.02461136101872534
758.0, 0.02659501760450505
759.0, 0.02844478578500226
760.0, 0.04728377989803467
761.0, 0.048582239703242915
762.0, 0.051515076367939575
763.0, 0.06509694745079185
764.0, 0.059169920605210424
765.0, 0.04721447844082091
766.0, 0.04530819937861512
767.0, 0.045657288951429224
768.0, 0.025826532787231515
769.0, 0.025990725762876758
770.0, 0.02685766378154419
771.0, 0.022987860222551865
772.0, 0.01425180218723664
773.0, 0.024437540234040007
774.0, 0.01627906695557153
775.0, 0.014519946370395501
776.0, 0.019686331693392897
777.0, 0.019314072922030044
778.0, 0.009083309576202618
779.0, 0.012659202878665997
780.0, 0.014485672129934707
781.0, 0.005145066457478781
782.0, 0.008667590773172893
783.0, 0.012190023152891208
784.0, 0.009791251283593427
785.0, 0.006696130411230506
786.0, 0.016177384982604102
787.0, 0.00904192745073573
788.0, 0.008324936388799796
789.0, 0.010735671841501393
790.0, 0.011943325128147326
791.0, 0.004328862709299868
792.0, 0.011059474266841906
793.0, 0.012344685837256727
794.0, 0.008308003343638695
795.0, 0.00793325772687856
796.0, 0.013609865888872691
797.0, 0.010602614695238669
798.0, 0.008761813246452059
799.0, 0.012248776577602802
800.0, 0.007410805874016433
801.0, 0.008946742794899036
802.0, 0.013256807170342047
803.0, 0.015562390888238966
804.0, 0.010158457599542783
805.0, 0.020761317261245228
806.0, 0.02117602977185714
807.0, 0.01915931491450103
808.0, 0.020783834311971963
809.0, 0.03231688886787859
810.0, 0.032295944261117926
811.0, 0.043216332706392246
812.0, 0.05771372107535621
813.0, 0.06280073349203434
814.0, 0.06540354472184053
815.0, 0.07356970453768281
816.0, 0.07121589155964804
817.0, 0.05870084123902846
818.0, 0.056832510204022385
819.0, 0.04838937531907786
820.0, 0.03267196360755745
821.0, 0.023940065027334076
822.0, 0.031132700972621254
823.0, 0.015099730933725422
824.0, 0.014637154392325137
825.0, 0.017954997218660156
826.0, 0.01790869137072914
827.0, 0.007645198163605723
828.0, 0.01572584556382382
829.0, 0.013195959073604883
830.0, 0.009455484544476518
831.0, 0.011298715675501848
832.0, 0.017475529369997994
833.0, 0.007611341617072852
834.0, 0.009246351954266712
835.0, 0.015161501933763068
836.0, 0.009282316226649526
837.0, 0.0061040761183815025
838.0, 0.01112601085638056
839.0, 0.009445269409591471
840.0, 0.0022767369947898275
841.0, 0.011933539327904887
842.0, 0.007907826041927607
843.0, 0.005198690162022866
844.0, 0.00760897241331625
845.0, 0.014190926084725842
846.0, 0.002594530803566887
847.0, 0.005897103791010788
848.0, 0.0074468281470359814
849.0, 0.004613395157636457
850.0, 0.00041040172382104424
851.0, 0.009247421716482703
852.0, 0.0065131813455166585
853.0, 0.004783666327474131
854.0, 0.00820292539531066
855.0, 0.007449898279865686
856.0, 0.002768562792952833
857.0, 0.006903009790860024
858.0, 0.010074607693299438
859.0, 0.003551710185534557
860.0, 0.006504953047320831
861.0, 0.008400698875933279
862.0, 0.00640867065945724
863.0, 0.004856382232435662
864.0, 0.012409108124394913
865.0, 0.008093992063357239
866.0, 0.0030537078757377533
867.0, 0.004393708897048446
868.0, 0.010140260008262587
869.0, 0.0010803565507186983
870.0, 0.008263529368371917
871.0, 0.008315316917977236
872.0, 0.004178339720242667
873.0, 0.002192524941307507
874.0, 0.010834752569321753
875.0, 0.005873953029446656
876.0, 0.007418758184439926
877.0, 0.011906560818017739
878.0, 0.006136745498575751
879.0, 0.0027473234311698605
880.0, 0.011787514764401319
881.0, 0.012427778726197936
882.0, 0.0029188726364530477
883.0, 0.005343309692988752
884.0, 0.0074246601378240296
885.0, 0.0037977324876645163
886.0, 0.004272117989302645
887.0, 0.012165127343468144
888.0, 0.0038888607501217356
889.0, 0.003918997469311544
890.0, 0.009394981542810774
891.0, 0.011462274233786464
892.0, 0.0024884489987201143
893.0, 0.013012266009977656
894.0, 0.007928807203643466
895.0, 0.002959036118185243
896.0, 0.005009076697506656
897.0, 0.01667086648503033
898.0, 0.004668372695708358
899.0, 0.00678896582306346
900.0, 0.010750596519701559
901.0, 0.009784698943173145
902.0, 0.004891182440334691
903.0, 0.012952290462471747
904.0, 0.009230966926103083
905.0, 0.004842245962651987
906.0, 0.008646227547577878
907.0, 0.009022103362003923
908.0, 0.004804873026958373
909.0, 0.007283141371293211
910.0, 0.009118620496226984
911.0, 0.0010086877158307643
912.0, 0.004967831748234646
913.0, 0.00983809738160055
914.0, 0.007038054486496838
915.0, 0.0035502677690003575
916.0, 0.01511877515829562
917.0, 0.005689156115976177
918.0, 0.0026323935183182796
919.0, 0.006934757767545101
920.0, 0.01209262873656719
921.0, 0.0011462245547289914
922.0, 0.012327766401432027
923.0, 0.00938929920268833
924.0, 0.0029899923227926285
925.0, 0.0032455579945276595
926.0, 0.016457563939842972
927.0, 0.005615292249918601
928.0, 0.00438913964510366
929.0, 0.010116374982187386
930.0, 0.014267682226435421
931.0, 0.002369216983464013
932.0, 0.01229782015870786
933.0, 0.01095161137732746
934.0, 0.005069455004164284
935.0, 0.009386801950007979
936.0, 0.013361844350204877
937.0, 0.005396467564692725
938.0, 0.007768262307077825
939.0, 0.014418299886393628
940.0, 0.006970943965642623
941.0, 0.007730635383740925
942.0, 0.011867077438074464
943.0, 0.00952422361200984
944.0, 0.004584805329174749
945.0, 0.0124189319961708
946.0, 0.010180794560696836
947.0, 0.008052274481666632
948.0, 0.01123365180609554
949.0, 0.01605447916777681
950.0, 0.006402752563847305
951.0, 0.009305714887113254
952.0, 0.013917442505221951
953.0, 0.01272851579859021
954.0, 0.007444629230979803
955.0, 0.018818988331415484
956.0, 0.010499267422964604
957.0, 0.009159245699499045
958.0, 0.013182655326052199
959.0, 0.01602292027124111
960.0, 0.0033236433105793724
961.0, 0.014125107366441424
962.0, 0.016775861961284073
963.0, 0.010885512472280569
964.0, 0.0043588452600446526
965.0, 0.020498396045205623
966.0, 0.009828082109548041
967.0, 0.01030385045524627
968.0, 0.017243269900451365
969.0, 0.017302006712634235
970.0, 0.0030768807303612634
971.0, 0.021378230625184288
972.0, 0.023659043495661256
973.0, 0.01704187677191505
974.0, 0.02248063054284814
975.0, 0.02913891471511227
976.0, 0.022901431504173415
977.0, 0.02737880423310486
978.0, 0.035288318869844425
979.0, 0.02925449673096099
980.0, 0.023754464195023216
981.0, 0.027351261281116212
982.0, 0.02226781457051174
983.0, 0.013837180168001291
984.0, 0.017466216248586113
985.0, 0.021095613788843035
986.0, 0.011079442702364583
987.0, 0.011455799382826624
988.0, 0.016204805320002756
989.0, 0.00389196884905824
990.0, 0.006955139874234902
991.0, 0.01449480269698646
992.0, 0.01127573517988569
993.0, 0.005118952993604586
994.0, 0.017639615001511864
995.0, 0.008131079975106571
996.0, 0.004257791617673339
997.0, 0.01053125305793949
998.0, 0.016157341754082254
999.0, 0.0005043369164906743
1000.0, 0.01386361759881061
1001.0, 0.018529054722522538
1002.0, 0.0146733761967966
1003.0, 0.012251525522553434
1004.0, 0.027677743979257256
1005.0, 0.015698417036099154
1006.0, 0.015180369514125094
1007.0, 0.020355404920126365
1008.0, 0.021979601771445513
1009.0, 0.009105772261797984
1010.0, 0.024593060387417723
1011.0, 0.024306215050537847
1012.0, 0.019280234507542165
1013.0, 0.018953542113247956
1014.0, 0.030614996092900176
1015.0, 0.017669292404424622
1016.0, 0.02638395240014774
1017.0, 0.030705830714460685
1018.0, 0.025313724285791726
1019.0, 0.01987867682663134
1020.0, 0.03326951725248958
1021.0, 0.02629219722771337
1022.0, 0.02431338110257735
1023.0, 0.03279139319735298
1024.0, 0.04352578568373068
1025.0, 0.029614084467416375
1026.0, 0.044685623216316604
1027.0, 0.052445752786657286
1028.0, 0.051338800340537255
1029.0, 0.05850894817217981
1030.0, 0.07952576855756903
1031.0, 0.07240512873848337
1032.0, 0.07729514995115157
1033.0, 0.087657977133906
1034.0, 0.07790976301730868
1035.0, 0.05536270811969508
1036.0, 0.06020668876537977
1037.0, 0.052625761702525156
1038.0, 0.03800340921745556
1039.0, 0.0359732189843402
1040.0, 0.04176666278984818
1041.0, 0.02956841213499125
1042.0, 0.028526379650118505
1043.0, 0.0321386001990332
1044.0, 0.026451497201140598
1045.0, 0.016367201931806626
1046.0, 0.025272904125739022
1047.0, 0.02071505607999356
1048.0, 0.015057324472143974
1049.0, 0.022410044229879775
1050.0, 0.02419180681490081
1051.0, 0.01242933493783934
1052.0, 0.01761273226813384
1053.0, 0.021522003665526653
1054.0, 0.011251865326690333
1055.0, 0.009641483941308166
1056.0, 0.020133289251651885
1057.0, 0.0147845620771794
1058.0, 0.009093221301657278
1059.0, 0.012849022376673716
1060.0, 0.016912305611475265
1061.0, 0.009195880950492858
1062.0, 0.017770457597488666
1063.0, 0.01880739758913049
1064.0, 0.008712664901680359
1065.0, 0.013165709523383492
1066.0, 0.025447454567256507
1067.0, 0.01361052878325653
1068.0, 0.01218318339707917
1069.0, 0.021944399949193148
1070.0, 0.01522777639801179
1071.0, 0.013536057592058394
1072.0, 0.023562228653825755
1073.0, 0.020405384630883042
1074.0, 0.011782236585354624
1075.0, 0.019745732308707645
1076.0, 0.024403320318418763
1077.0, 0.012675497587552821
1078.0, 0.015827414712686363
1079.0, 0.02329132966818665
1080.0, 0.016883568414737166
1081.0, 0.014040752262449946
1082.0, 0.027801826366219487
1083.0, 0.0210823740186443
1084.0, 0.01513754734955335
1085.0, 0.026969048452648584
1086.0, 0.0283641768839056
1087.0, 0.019026406135756704
1088.0, 0.030035249127675443
1089.0, 0.03502464710210378
1090.0, 0.026242227373649823
1091.0, 0.03496323497378867
1092.0, 0.04690493638194345
1093.0, 0.043708475679984884
1094.0, 0.051117745198924966
1095.0, 0.06634872674990301
1096.0, 0.061315744012970186
1097.0, 0.05963345835314169
1098.0, 0.0792329948300751
1099.0, 0.07782878624859438
1100.0, 0.06530015006713565
1101.0, 0.0712585633470127
1102.0, 0.0726656018300386
1103.0, 0.05271011712633635
1104.0, 0.055674256412320045
1105.0, 0.06048798835045597
1106.0, 0.04564532751060386
1107.0, 0.04551139461760654
1108.0, 0.05318905004756304
1109.0, 0.04011996865098052
1110.0, 0.03200853843776966
1111.0, 0.039697512913487755
1112.0, 0.03937458878013219
1113.0, 0.030301360631252782
1114.0, 0.03835562073365822
1115.0, 0.03904893748308372
1116.0, 0.03053592385478947
1117.0, 0.030481034318953777
1118.0, 0.04582352621304797
1119.0, 0.0324957771114482
1120.0, 0.03133941151611002
1121.0, 0.036632712313976454
1122.0, 0.02934330301548331
1123.0, 0.017807397362185527
1124.0, 0.03211463393960957
1125.0, 0.024487982231554597
1126.0, 0.012699051621912935
1127.0, 0.015278033992461398
1128.0, 0.028132833319210154
1129.0, 0.006308551694824626
1130.0, 0.013524985162197673
1131.0, 0.0193913029041903
1132.0, 0.012069648492379329
1133.0, 0.0033382057058386535
1134.0, 0.02278401271156741
1135.0, 0.012501956227111116
1136.0, 0.007182580150346065
1137.0, 0.013380523715308016
1138.0, 0.02142238651350757
1139.0, 0.0032789513674725684
1140.0, 0.02120543173219943
1141.0, 0.019935204491396314
1142.0, 0.008278467637283616
1143.0, 0.0052681021886668775
1144.0, 0.028252839590009945
1145.0, 0.0073432762914335745
1146.0, 0.012610897950864132
1147.0, 0.020840305144346614
1148.0, 0.017378456059998625
1149.0, 0.0017481510510613581
1150.0, 0.021850499711768105
1151.0, 0.01885588319718302
1152.0, 0.013764789620784063
1153.0, 0.01733205868045937
1154.0, 0.026377529483878524
1155.0, 0.0027959564990131178
1156.0, 0.014771456298887767
1157.0, 0.020603065184113065
1158.0, 0.013492129349037294
1159.0, 0.005110859501800875
1160.0, 0.02278906380292477
1161.0, 0.015341264153832242
1162.0, 0.008511609318058087
1163.0, 0.013522120360916963
1164.0, 0.016978263212950394
1165.0, 0.004363061647372026
1166.0, 0.016373315446538573
1167.0, 0.016723665909018668
1168.0, 0.00787226034799275
1169.0, 0.009396104404540445
1170.0, 0.022170336674551885
1171.0, 0.012026596283801172
1172.0, 0.0040138419357096606
1173.0, 0.017513684688503776
1174.0, 0.01463020686525157
1175.0, 0.004292347298814456
1176.0, 0.01616189091670027
1177.0, 0.015761197945161832
1178.0, 0.005116092572621321
1179.0, 0.012528945831683609
1180.0, 0.01777915540258182
1181.0, 0.008570309942065119
1182.0, 0.007327472956700357
1183.0, 0.022886005997076807
1184.0, 0.01151507398293743
1185.0, 0.009033181478041712
1186.0, 0.01646951219800392
1187.0, 0.012854673548598983
1188.0, 0.004268437852591172
1189.0, 0.01590941663946334
1190.0, 0.01439844333584577
1191.0, 0.006190501794456255
1192.0, 0.005184251824294006
1193.0, 0.022044729672206317
1194.0, 0.004418457432762313
1195.0, 0.007616560885687238
1196.0, 0.016417219047786043
1197.0, 0.016395184896149183
1198.0, 0.0033077160817307147
1199.0, 0.0215837652978669
1200.0, 0.012013382533889089
1201.0, 0.0034806325447021167
1202.0, 2.362215307660041e-05
1203, 0.0
1204, 0.0
1205, 0.0
1206, 0.0
1207, 0.0
1208, 0.0
1209, 0.0
1210, 0.0
1211, 0.0
1212, 0.0
1213, 0.0
1214, 0.0
1215, 0.0
1216, 0.0
1217, 0.0
1218, 0.0
1219, 0.0
1220, 0.0
1221, 0.0
1222, 0.0
1223, 0.0
1224, 0.0
1225, 0.0
1226, 0.0
1227, 0.0
1228, 0.0
1229, 0.0
1230, 0.0
1231, 0.0
1232, 0.0
1233, 0.0
1234, 0.0
1235, 0.0
1236, 0.0
1237, 0.0
1238, 0.0
1239, 0.0
1240, 0.0
1241, 0.0
1242, 0.0
1243, 0.0
1244, 0.0
1245, 0.0
1246, 0.0
1247, 0.0
1248, 0.0
1249, 0.0
1250, 0.0
1251, 0.0
1252, 0.0
1253, 0.0
1254, 0.0
1255, 0.0
1256, 0.0
1257, 0.0
1258, 0.0
1259, 0.0
1260, 0.0
1261, 0.0
1262, 0.0
1263, 0.0
1264, 0.0
1265, 0.0
1266, 0.0
1267, 0.0
1268, 0.0
1269, 0.0
1270, 0.0
1271, 0.0
1272, 0.0
1273, 0.0
1274, 0.0
1275, 0.0
1276, 0.0
1277, 0.0
1278, 0.0
1279, 0.0
1280, 0.0
1281, 0.0
1282, 0.0
1283, 0.0
1284, 0.0
1285, 0.0
1286, 0.0
1287, 0.0
1288, 0.0
1289, 0.0
1290, 0.0
1291, 0.0
1292, 0.0
1293, 0.0
1294, 0.0
1295, 0.0
1296, 0.0
1297, 0.0
1298, 0.0
1299, 0.0
1300, 0.0
1301, 0.0
1302, 0.0
1303, 0.0
1304, 0.0
1305, 0.0
1306, 0.0
1307, 0.0
1308, 0.0
1309, 0.0
1310, 0.0
1311, 0.0
1312, 0.0
1313, 0.0
1314, 0.0
1315, 0.0
1316, 0.0
1317, 0.0
1318, 0.0
1319, 0.0
1320, 0.0
1321, 0.0
1322, 0.0
1323, 0.0
1324, 0.0
1325, 0.0
1326, 0.0
1327, 0.0
1328, 0.0
1329, 0.0
1330, 0.0
1331, 0.0
1332, 0.0
1333, 0.0
1334, 0.0
1335, 0.0
1336, 0.0
1337, 0.0
1338, 0.0
1339, 0.0
1340, 0.0
1341, 0.0
1342, 0.0
1343, 0.0
1344, 0.0
1345, 0.0
1346, 0.0
1347, 0.0
1348, 0.0
1349, 0.0
1350, 0.0
1351, 0.0
1352, 0.0
1353, 0.0
1354, 0.0
1355, 0.0
1356, 0.0
1357, 0.0
1358, 0.0
1359, 0.0
1360, 0.0
1361, 0.0
1362, 0.0
1363, 0.0
1364, 0.0
1365, 0.0
1366, 0.0
1367, 0.0
1368, 0.0
1369, 0.0
1370, 0.0
1371, 0.0
1372, 0.0
1373, 0.0
1374, 0.0
1375, 0.0
1376, 0.0
1377, 0.0
1378, 0.0
1379, 0.0
1380, 0.0
1381, 0.0
1382, 0.0
1383, 0.0
1384, 0.0
1385, 0.0
1386, 0.0
1387, 0.0
1388, 0.0
1389, 0.0
1390, 0.0
1391, 0.0
1392, 0.0
1393, 0.0
1394, 0.0
1395, 0.0
1396, 0.0
1397, 0.0
1398, 0.0
1399, 0.0
1400, 0.0
1401, 0.0
1402, 0.0
1403, 0.0
1404, 0.0
1405, 0.0
1406, 0.0
1407, 0.0
1408, 0.0
1409, 0.0
1410, 0.0
1411, 0.0
1412, 0.0
1413, 0.0
1414, 0.0
1415, 0.0
1416, 0.0
1417, 0.0
1418, 0.0
1419, 0.0
1420, 0.0
1421, 0.0
1422, 0.0
1423, 0.0
1424, 0.0
1425, 0.0
1426, 0.0
1427, 0.0
1428, 0.0
1429, 0.0
1430, 0.0
1431, 0.0
1432, 0.0
1433, 0.0
1434, 0.0
1435, 0.0
1436, 0.0
1437, 0.0
1438, 0.0
1439, 0.0
1440, 0.0
1441, 0.0
1442, 0.0
1443, 0.0
1444, 0.0
1445, 0.0
1446, 0.0
1447, 0.0
1448, 0.0
1449, 0.0
1450, 0.0
1451, 0.0
1452, 0.0
1453, 0.0
1454, 0.0
1455, 0.0
1456, 0.0
1457, 0.0
1458, 0.0
1459, 0.0
1460, 0.0
1461, 0.0
1462, 0.0
1463, 0.0
1464, 0.0
1465, 0.0
1466, 0.0
1467, 0.0
1468, 0.0
1469, 0.0
1470, 0.0
1471, 0.0
1472, 0.0
1473, 0.0
1474, 0.0
1475, 0.0
1476, 0.0
1477, 0.0
1478, 0.0
1479, 0.0
1480, 0.0
1481, 0.0
1482, 0.0
1483, 0.0
1484, 0.0
1485, 0.0
1486, 0.0
1487, 0.0
1488, 0.0
1489, 0.0
1490, 0.0
1491, 0.0
1492, 0.0
1493, 0.0
1494, 0.0
1495, 0.0
1496, 0.0
1497, 0.0
1498, 0.0
1499, 0.0
1500, 0.0
1501, 0.0
1502, 0.0
1503, 0.0
1504, 0.0
1505, 0.0
1506, 0.0
1507, 0.0
1508, 0.0
1509, 0.0
1510, 0.0
1511, 0.0
1512, 0.0
1513, 0.0
1514, 0.0
1515, 0.0
1516, 0.0
1517, 0.0
1518, 0.0
1519, 0.0
1520, 0.0
1521, 0.0
1522, 0.0
1523, 0.0
1524, 0.0
1525, 0.0
1526, 0.0
1527, 0.0
1528, 0.0
1529, 0.0
1530, 0.0
1531, 0.0
1532, 0.0
1533, 0.0
1534, 0.0
1535, 0.0
1536, 0.0
1537, 0.0
1538, 0.0
1539, 0.0
1540, 0.0
1541, 0.0
1542, 0.0
1543, 0.0
1544, 0.0
1545, 0.0
1546, 0.0
1547, 0.0
1548, 0.0
1549, 0.0
1550, 0.0
1551, 0.0
1552, 0.0
1553, 0.0
1554, 0.0
1555, 0.0
1556, 0.0
1557, 0.0
1558, 0.0
1559, 0.0
1560, 0.0
1561, 0.0
1562, 0.0
1563, 0.0
1564, 0.0
1565, 0.0
1566, 0.0
1567, 0.0
1568, 0.0
1569, 0.0
1570, 0.0
1571, 0.0
1572, 0.0
1573, 0.0
1574, 0.0
1575, 0.0
1576, 0.0
1577, 0.0
1578, 0.0
1579, 0.0
1580, 0.0
1581, 0.0
1582, 0.0
1583, 0.0
1584, 0.0
1585, 0.0
1586, 0.0
1587, 0.0
1588, 0.0
1589, 0.0
1590, 0.0
1591, 0.0
1592, 0.0
1593, 0.0
1594, 0.0
1595, 0.0
1596, 0.0
1597, 0.0
1598, 0.0
1599, 0.0
