30, 0.0
31, 0.0
32, 0.0
33, 0.0
34, 0.0
35, 0.0
36, 0.0
37, 0.0
38, 0.0
39, 0.0
40, 0.0
41, 0.0
42, 0.0
43, 0.0
44, 0.0
45, 0.0
46, 0.0
47, 0.0
48, 0.0
49, 0.0
50, 0.0
51, 0.0
52, 0.0
53, 0.0
54, 0.0
55, 0.0
56, 0.0
57, 0.0
58, 0.0
59, 0.0
60, 0.0
61, 0.0
62, 0.0
63, 0.0
64, 0.0
65, 0.0
66, 0.0
67, 0.0
68, 0.0
69, 0.0
70, 0.0
71, 0.0
72, 0.0
73, 0.0
74, 0.0
75, 0.0
76, 0.0
77, 0.0
78, 0.0
79, 0.0
80, 0.0
81, 0.0
82, 0.0
83, 0.0
84, 0.0
85, 0.0
86, 0.0
87, 0.0
88, 0.0
89, 0.0
90, 0.0
91, 0.0
92, 0.0
93, 0.0
94, 0.0
95, 0.0
96, 0.0
97, 0.0
98, 0.0
99, 0.0
100, 0.0
101, 0.0
102, 0.0
103, 0.0
104, 0.0
105, 0.0
106, 0.0
107, 0.0
108, 0.0
109, 0.0
110, 0.0
111, 0.0
112, 0.0
113, 0.0
114, 0.0
115, 0.0
116, 0.0
117, 0.0
118, 0.0
119, 0.0
120.0, 0.00011489987535283374
121.0, 0.0007293377114642521
122.0, 0.01154148998170525
123.0, 0.0138952640011335
124.0, 0.0005476545135859015
125.0, 0.004772798107079921
126.0, 0.006266904937644112
127.0, 0.00512987102422912
128.0, 0.0007538951788240798
129.0, 0.004725678074772181
130.0, 0.005162191703963087
131.0, 0.0008332639679065959
132.0, 0.0073920908888780446
133.0, 0.011823146444375382
134.0, 0.014860030719539142
135.0, 0.016883413690651813
136.0, 0.023639690102604523
137.0, 0.03874297416816669
138.0, 0.05932614467448069
139.0, 0.0706663766589629
140.0, 0.08458378921787156
141.0, 0.09586548563383847
142.0, 0.10125072034153568
143.0, 0.11087009539585366
144.0, 0.1120475328661691
145.0, 0.11002034093645256
146.0, 0.11720403468429103
147.0, 0.11107318313640435
148.0, 0.10705078336259556
149.0, 0.1084501835423055
150.0, 0.09837012171878705
151.0, 0.0925505111112013
152.0, 0.09184130563121697
153.0, 0.0986119176210242
154.0, 0.10600315923720756
155.0, 0.12249467864405544
156.0, 0.14418371637504748
157.0, 0.1460810753206027
158.0, 0.15727818380765488
159.0, 0.1685995089537554
160.0, 0.17493821723302946
161.0, 0.17137444151789083
162.0, 0.17409721676974135
163.0, 0.1798236808196704
164.0, 0.18130805101485756
165.0, 0.1839297941327753
166.0, 0.18220578689448688
167.0, 0.17540874602961562
168.0, 0.1732635568988417
169.0, 0.1712892328918224
170.0, 0.17315016422397847
171.0, 0.18333936764603873
172.0, 0.18888650039682503
173.0, 0.19947681004346576
174.0, 0.21390962852689008
175.0, 0.22532276879256918
176.0, 0.239642991850736
177.0, 0.25812079495075096
178.0, 0.28126871917107854
179.0, 0.29461976754536456
180.0, 0.3166124351675169
181.0, 0.3401517287699046
182.0, 0.35489164728443845
183.0, 0.3549685521796079
184.0, 0.3517282940454717
185.0, 0.34641514367008225
186.0, 0.3364565948704199
187.0, 0.3286530680032783
188.0, 0.3117390025628833
189.0, 0.27808274589544496
190.0, 0.2425809000402844
191.0, 0.21776782805718384
192.0, 0.19820159117106634
193.0, 0.1737178277656154
194.0, 0.15955245018712438
195.0, 0.147913494176342
196.0, 0.1375554744116828
197.0, 0.13079997836519605
198.0, 0.13079231234684488
199.0, 0.13455244362265653
200.0, 0.14057635554415182
201.0, 0.1531548707949561
202.0, 0.16857263777264805
203.0, 0.18456438372739212
204.0, 0.19616052863684913
205.0, 0.2026998731038229
206.0, 0.2076567858501533
207.0, 0.21137769158666694
208.0, 0.2100039069226585
209.0, 0.18783930822274872
210.0, 0.16292532402228035
211.0, 0.14876130733493143
212.0, 0.13095161020896093
213.0, 0.10548777462885224
214.0, 0.078052377010817
215.0, 0.06243334443814608
216.0, 0.04352123562280108
217.0, 0.031019859519271963
218.0, 0.026661126728884616
219.0, 0.023427040332356337
220.0, 0.0177833882625709
221.0, 0.011348384118691629
222.0, 0.00519757849091263
223.0, 0.002043967562009641
224.0, 0.0012683006852374178
225.0, 0.0023180768701834393
226.0, 0.004374433866027293
227.0, 0.002429924729113522
228.0, 0.0018200128539929519
229.0, 0.0031529195041371267
230.0, 0.0026340720867841375
231.0, 0.00435788455308548
232.0, 0.0045074185871902366
233.0, 0.000543615484358414
234.0, 0.00167164289515266
235.0, 0.0031962553368482223
236.0, 0.004136471477821033
237.0, 0.0026849123664341957
238.0, 0.0034353156317604
239.0, 0.004895830168614744
240.0, 0.008020526018758373
241.0, 0.01893240579916062
242.0, 0.03019267564767219
243.0, 0.04383309550612626
244.0, 0.061021750049626816
245.0, 0.08211405867856053
246.0, 0.10546953055830767
247.0, 0.1253619795129255
248.0, 0.13397646803420926
249.0, 0.13431989674182876
250.0, 0.14102657831239107
251.0, 0.14728316305800104
252.0, 0.1260872437494453
253.0, 0.12072329747439865
254.0, 0.11081906274407824
255.0, 0.09089535608876342
256.0, 0.071478280545749
257.0, 0.06209815412892983
258.0, 0.054862036766714375
259.0, 0.04391816527104421
260.0, 0.04154701111656258
261.0, 0.04111243165299292
262.0, 0.0446352647066131
263.0, 0.057083095865195776
264.0, 0.057703569552184183
265.0, 0.058407882531318116
266.0, 0.06256046688574264
267.0, 0.07717017790845344
268.0, 0.07702580579236419
269.0, 0.07756834889645194
270.0, 0.08446660013334095
271.0, 0.07482049249794562
272.0, 0.07720067603671664
273.0, 0.08470830262403796
274.0, 0.09099110520038974
275.0, 0.09289010437960547
276.0, 0.09715155426719446
277.0, 0.10902585565281459
278.0, 0.14143696945382506
279.0, 0.17122795784892816
280.0, 0.2017364537729449
281.0, 0.2404041317377439
282.0, 0.32725396063217216
283.0, 0.41987335970371154
284.0, 0.5057807491632803
285.0, 0.578181415338967
286.0, 0.6319114442134187
287.0, 0.6778468001418686
288.0, 0.7122658257874894
289.0, 0.7294815430084786
290.0, 0.7047065019098908
291.0, 0.6653780831171122
292.0, 0.6143447947183778
293.0, 0.5527555956833649
294.0, 0.4692910074199781
295.0, 0.41529376849557037
296.0, 0.3802801403233368
297.0, 0.2551230925784334
298.0, 0.19613513668505086
299.0, 0.15783514033983592
300.0, 0.1224109785621783
301.0, 0.10100212234521563
302.0, 0.08205343698372197
303.0, 0.06513946071389336
304.0, 0.05011624587151936
305.0, 0.04681799076556104
306.0, 0.043277823598057305
307.0, 0.03945462924127963
308.0, 0.0359117406396749
309.0, 0.03263870725828796
310.0, 0.03254649017040703
311.0, 0.0331616723506396
312.0, 0.02391968390833248
313.0, 0.01972763887317849
314.0, 0.016702902605128578
315.0, 0.01486752435966237
316.0, 0.023954897962747333
317.0, 0.030640964227694367
318.0, 0.03899238764146965
319.0, 0.0513424667959289
320.0, 0.05882826296079477
321.0, 0.08024163696222461
322.0, 0.10670387092520064
323.0, 0.12865408791934224
324.0, 0.15648581274608866
325.0, 0.17913551430395616
326.0, 0.19240609849668477
327.0, 0.18747981902152536
328.0, 0.19706383445382084
329.0, 0.18919419228730286
330.0, 0.1650767326208531
331.0, 0.1488155516130382
332.0, 0.12556016592347802
333.0, 0.10324445009894691
334.0, 0.08345774009243818
335.0, 0.05838643984797098
336.0, 0.04881698534404842
337.0, 0.04248723943055327
338.0, 0.03331072687542509
339.0, 0.03880867101661294
340.0, 0.037572564420942194
341.0, 0.031004151888370246
342.0, 0.019962658985821984
343.0, 0.021931790879266735
344.0, 0.021242347875236694
345.0, 0.020146688867438176
346.0, 0.023351000383181008
347.0, 0.02053495068123932
348.0, 0.015776723717323214
349.0, 0.010945086801213167
350.0, 0.010061486871077857
351.0, 0.008458072186946422
352.0, 0.008329660874768439
353.0, 0.010004403779093266
354.0, 0.012680350798529116
355.0, 0.009487468908232379
356.0, 0.006480741837103593
357.0, 0.0058014430290526196
358.0, 0.005958747937339942
359.0, 0.003921421025560125
360.0, 0.0017468078085012113
361.0, 0.0007343924666236984
362.0, 0.002566939536341197
363.0, 0.0018657130819903721
364.0, 0.00048547387482373574
365.0, 0.00016822176968617179
366.0, 0.0016560687905297698
367.0, 0.002510526799533324
368.0, 0.003936819282685744
369.0, 0.007902202514303278
370.0, 0.0071417537283840135
371.0, 0.004700200703036256
372.0, 0.0018070226837932713
373.0, 0.0006436285915358084
374.0, 0.004551592251839702
375.0, 0.005759748806475779
376.0, 0.0063409336725333025
377.0, 0.017949392317581945
378.0, 0.009549858145085537
379.0, 0.004834756694188957
380.0, 0.007887208249390428
381.0, 0.0072883096357011885
382.0, 0.0033253545403561804
383.0, 0.002269682621454421
384.0, 0.005617559293551946
385.0, 0.003616527861028215
386.0, 0.0021304090069353865
387.0, 0.0009562276508372276
388.0, 0.00012205554667853169
389.0, 0.0019942786916563406
390.0, 0.0018560467324052002
391.0, 0.004202403556409764
392.0, 0.012605299660022289
393.0, 0.015756912165003082
394.0, 0.02191281775151027
395.0, 0.027627992388111308
396.0, 0.029034167763948668
397.0, 0.03100697305176141
398.0, 0.04034453269459517
399.0, 0.04782567032696387
400.0, 0.03898847654686366
401.0, 0.041905780592755036
402.0, 0.0417207920040964
403.0, 0.037282932526622674
404.0, 0.028210529403522137
405.0, 0.041490744933516024
406.0, 0.04084975248567552
407.0, 0.028706311585630678
408.0, 0.023058065304607
409.0, 0.02638004455380101
410.0, 0.028111604341358218
411.0, 0.028805545067640173
412.0, 0.03724967183217376
413.0, 0.036008998137191675
414.0, 0.026894827590435964
415.0, 0.0158279961619326
416.0, 0.028754141587237558
417.0, 0.025502452882629634
418.0, 0.018599706729372882
419.0, 0.012931918940305764
420.0, 0.014339525337548524
421.0, 0.013321785238145555
422.0, 0.012050736395717816
423.0, 0.011348907895571558
424.0, 0.010802508349806455
425.0, 0.005105635843610927
426.0, 0.0041704722431391145
427.0, 0.01124934522401427
428.0, 0.004465278436551227
429.0, 0.007279987003701051
430.0, 0.009026356110908056
431.0, 0.003903547517527621
432.0, 0.0037768943753236596
433.0, 0.004050158919888987
434.0, 0.007459857334240097
435.0, 0.015330419510768942
436.0, 0.00503678546780569
437.0, 0.00553397585603578
438.0, 0.006992747979109368
439.0, 0.0014402065060559726
440.0, 0.0036060154980949903
441.0, 0.004036089307149664
442.0, 0.0034729264561598893
443.0, 0.0026046634099474984
444.0, 0.002741202348827273
445.0, 0.008020823598110974
446.0, 0.012091972664565872
447.0, 0.007918009288370364
448.0, 0.010886762136599174
449.0, 0.018236060978755825
450.0, 0.02231058535363665
451.0, 0.013713112969270913
452.0, 0.014215309339400874
453.0, 0.017083376441019222
454.0, 0.023389732302936728
455.0, 0.034999339002991625
456.0, 0.020865925341112746
457.0, 0.020829982868559554
458.0, 0.026568077760411174
459.0, 0.02380268626853318
460.0, 0.022877718841308743
461.0, 0.024752138590326874
462.0, 0.029494860568521058
463.0, 0.037274578698050696
464.0, 0.048185051764815134
465.0, 0.04829196366286332
466.0, 0.047327291180841405
467.0, 0.06221785691822013
468.0, 0.08637935295712389
469.0, 0.09953488800415339
470.0, 0.11042963671532068
471.0, 0.13570305486589945
472.0, 0.19037263595911189
473.0, 0.23194457525298434
474.0, 0.2732581303135037
475.0, 0.3410119296370729
476.0, 0.356459169058554
477.0, 0.3751729174750385
478.0, 0.3913873268645045
479.0, 0.38840828453227105
480.0, 0.36468041045630983
481.0, 0.3260680646256994
482.0, 0.2791017516293239
483.0, 0.2335115055561314
484.0, 0.19727341525459308
485.0, 0.16326526503180278
486.0, 0.13466297464168142
487.0, 0.11754978961867069
488.0, 0.11294553569082914
489.0, 0.1058897902351354
490.0, 0.09969219145456484
491.0, 0.10095250787107207
492.0, 0.10793039954918018
493.0, 0.11626367214138406
494.0, 0.12957272205317874
495.0, 0.1535813371250239
496.0, 0.17932230772380214
497.0, 0.20997826475023043
498.0, 0.2547565011805207
499.0, 0.3261509277014987
500.0, 0.43216937144295525
501.0, 0.5545495191343164
502.0, 0.6840689684021565
503.0, 0.8102455495860325
504.0, 0.9122148354542021
505.0, 0.9652774326886178
506.0, 0.9876167777569794
507.0, 0.9999139200042689
508.0, 0.9255365199156905
509.0, 0.8283357169827589
510.0, 0.7109509859649994
511.0, 0.576111885613859
512.0, 0.4677536614208096
513.0, 0.3782903869327896
514.0, 0.30321666197206354
515.0, 0.23906400160008692
516.0, 0.20424121242593243
517.0, 0.16871782711973313
518.0, 0.14289524095318437
519.0, 0.13346918410699055
520.0, 0.11543856694761818
521.0, 0.08944314423987851
522.0, 0.07590426412956573
523.0, 0.08478205625639988
524.0, 0.07128337655442403
525.0, 0.05974644975892298
526.0, 0.05119183246713817
527.0, 0.04599961860551713
528.0, 0.04220575765756642
529.0, 0.04970428977499859
530.0, 0.04967905285374315
531.0, 0.03709271018620889
532.0, 0.035507843909205604
533.0, 0.028364489627339465
534.0, 0.021673325119865822
535.0, 0.01868003442959759
536.0, 0.0247302340269545
537.0, 0.025490212572073408
538.0, 0.024738254918970744
539.0, 0.024214610395400744
540.0, 0.02646080789931887
541.0, 0.022809135875395174
542.0, 0.01746022379553891
543.0, 0.014045198028563827
544.0, 0.020628914999931382
545.0, 0.0099678702866313
546.0, 0.010301814655746483
547.0, 0.018002370844605167
548.0, 0.014870163099203897
549.0, 0.006864197846204323
550.0, 0.009233923060498717
551.0, 0.017139176769074182
552.0, 0.01957765167621702
553.0, 0.01674151361549141
554.0, 0.01520679265551371
555.0, 0.013655857764772343
556.0, 0.00987455367804606
557.0, 0.006453168349628764
558.0, 0.013436406400852446
559.0, 0.020422538542260064
560.0, 0.017301278504221678
561.0, 0.016675803803405366
562.0, 0.010226945458626987
563.0, 0.01060603976873057
564.0, 0.02431887830755812
565.0, 0.012134066740550255
566.0, 0.0120734031531253
567.0, 0.01612416381298061
568.0, 0.019343518032922412
569.0, 0.01642863173874874
570.0, 0.023198966817175978
571.0, 0.02854114466926203
572.0, 0.0298429828500631
573.0, 0.03456750740879578
574.0, 0.031518553501501075
575.0, 0.03501912942536017
576.0, 0.042813198957720774
577.0, 0.03629662730214232
578.0, 0.03862105151689767
579.0, 0.03864772353223699
580.0, 0.03868875129322964
581.0, 0.047481185313995374
582.0, 0.05814305083106574
583.0, 0.041081992709667274
584.0, 0.021020150410461298
585.0, 0.037075161134329356
586.0, 0.02660872847970941
587.0, 0.01170413031857531
588.0, 0.00809308674682398
589.0, 0.02917185438208451
590.0, 0.02612595454818267
591.0, 0.026286144912239764
592.0, 0.019403636196637656
593.0, 0.00178467802910657
594.0, 0.005776956223552059
595.0, 0.008166027061715738
596.0, 0.01231460816042384
597.0, 0.018943426115981966
598.0, 0.024038766930042543
599.0, 0.017273636452042457
600.0, 0.010331286697255344
601.0, 0.007067698677244099
602.0, 0.009538703076655207
603.0, 0.006497039108278969
604.0, 0.004964636352969768
605.0, 0.006076943100628954
606.0, 0.009922113077988584
607.0, 0.009285291498334996
608.0, 0.014205263403331976
609.0, 0.0169232246259908
610.0, 0.007390689438358237
611.0, 0.017108623663976204
612.0, 0.013595190657705498
613.0, 0.011089216071094907
614.0, 0.018791527028968212
615.0, 0.010657507365880671
616.0, 0.00992200286101382
617.0, 0.011860906049041619
618.0, 0.01463662883564595
619.0, 0.020653255496974537
620.0, 0.021203059379023996
621.0, 0.021495194572937873
622.0, 0.02074821960564668
623.0, 0.012205710312717492
624.0, 0.0302739767917773
625.0, 0.03346661054957024
626.0, 0.02900482475142074
627.0, 0.03970056941086969
628.0, 0.03041574817576688
629.0, 0.045012462271771816
630.0, 0.056723627445663616
631.0, 0.03764768958294373
632.0, 0.0438922204068366
633.0, 0.06423046282140484
634.0, 0.07094830275120169
635.0, 0.05187229802821897
636.0, 0.045103139442796494
637.0, 0.03737385475592046
638.0, 0.03271727021275308
639.0, 0.03205835906722752
640.0, 0.03369334103785194
641.0, 0.043055529928565824
642.0, 0.04984293524438583
643.0, 0.05693730861253755
644.0, 0.07331374348170613
645.0, 0.06981065312315997
646.0, 0.05861274117337003
647.0, 0.05180399102932129
648.0, 0.06031672661290992
649.0, 0.043611026808828966
650.0, 0.039083451645850635
651.0, 0.033271590788052946
652.0, 0.020522775084257903
653.0, 0.01949556060422991
654.0, 0.02821841676120502
655.0, 0.028760564681562364
656.0, 0.02120363284602581
657.0, 0.024281168471444185
658.0, 0.010440724463265782
659.0, 0.008826453524951467
660.0, 0.01949235329049054
661.0, 0.03522582212479853
662.0, 0.010748927447870538
663.0, 0.005816312074526813
664.0, 0.008349210961277468
665.0, 0.006743696522532092
666.0, 0.015756840880146644
667.0, 0.011942047105253008
668.0, 0.009724976011261485
669.0, 0.012239936469739022
670.0, 0.0022093132471137896
671.0, 0.011488320613798212
672.0, 0.013923354792282181
673.0, 0.008085425961554642
674.0, 0.0036577899849348787
675.0, 0.015755658194648726
676.0, 0.014663293411205817
677.0, 0.0076585875823157856
678.0, 0.005402359594938303
679.0, 0.007740019536683983
680.0, 0.00957770930102508
681.0, 0.00971699330449851
682.0, 0.007787250395563121
683.0, 0.005527418423338094
684.0, 0.009998657046308288
685.0, 0.018129548256786497
686.0, 0.02245332654848107
687.0, 0.0064478635908149055
688.0, 0.0018668437853745614
689.0, 0.00036265367696267493
690.0, 0.003481381693131067
691.0, 0.01320173276550806
692.0, 0.004483399056682439
693.0, 0.007720695912912979
694.0, 0.011429939571061528
695.0, 0.010697957801094712
696.0, 0.018481931540243354
697.0, 0.00911200848576578
698.0, 0.00834551094200864
699.0, 0.014750089361538791
700.0, 0.007702245622117806
701.0, 0.00851689380043098
702.0, 0.008676551138356272
703.0, 0.006482333628915371
704.0, 0.0014150386534919346
705.0, 0.007377443078500287
706.0, 0.004999557087540036
707.0, 0.006676517935000421
708.0, 0.01560438954026171
709.0, 0.013412238868129396
710.0, 0.015293111728070725
711.0, 0.02326677598408502
712.0, 0.028397703419611606
713.0, 0.011577228512691516
714.0, 0.02013879022518359
715.0, 0.014804922146278977
716.0, 0.008793751955859703
717.0, 0.014816239962953438
718.0, 0.007921424835858844
719.0, 0.005001489306562173
720.0, 0.01411139554307186
721.0, 0.028527438707907193
722.0, 0.011514819365873025
723.0, 0.00937410910216454
724.0, 0.01065939107796007
725.0, 0.010562660306119747
726.0, 0.004664743131007196
727.0, 0.009730870506381266
728.0, 0.016139699837368154
729.0, 0.01988757201845957
730.0, 0.018935611643171923
731.0, 0.01761030280515499
732.0, 0.020688793315570237
733.0, 0.019791269434588536
734.0, 0.014513929291199814
735.0, 0.009344000034379275
736.0, 0.007448491639505102
737.0, 0.005378699858242586
738.0, 0.005258999596706572
739.0, 0.008797238063305872
740.0, 0.00847113736629763
741.0, 0.017314090635338203
742.0, 0.016041326871126693
743.0, 0.004438960045919826
744.0, 0.009064882551115549
745.0, 0.011924138361337575
746.0, 0.01985804225695738
747.0, 0.024179714088832172
748.0, 0.012969320373974622
749.0, 0.010477874490215514
750.0, 0.01161097450061211
751.0, 0.011859026313113126
752.0, 0.011827639950014146
753.0, 0.026796418937961954
754.0, 0.022815311829250354
755.0, 0.02210229928057784
756.0, 0.02830538560545215
757.0, 0.03974340670464247
758.0, 0.040473274427988405
759.0, 0.05194747778166526
760.0, 0.06279927146412138
761.0, 0.06662653022131657
762.0, 0.07596739154789073
763.0, 0.07642153739794175
764.0, 0.0663956097010889
765.0, 0.05599480207690604
766.0, 0.06628994165865876
767.0, 0.03893081640250865
768.0, 0.046906843601622276
769.0, 0.05006408654886714
770.0, 0.022443429889840896
771.0, 0.03919907773315927
772.0, 0.03560242768539616
773.0, 0.030657515310125418
774.0, 0.030202965169041633
775.0, 0.03436715585578409
776.0, 0.015870389257434413
777.0, 0.014425360667595057
778.0, 0.028799909756624137
779.0, 0.04995127967147158
780.0, 0.029780713794381297
781.0, 0.021109204028623544
782.0, 0.0216679611036209
783.0, 0.024268212054063862
784.0, 0.013829493437328338
785.0, 0.016139784217583993
786.0, 0.016167591957586106
787.0, 0.01584935596917719
788.0, 0.016975652429737732
789.0, 0.012522972832358408
790.0, 0.025177821597353586
791.0, 0.020684154780111024
792.0, 0.006352834596364178
793.0, 0.02354764384686192
794.0, 0.017286568840588035
795.0, 0.014626790871270383
796.0, 0.01708218639350342
797.0, 0.022837655444502405
798.0, 0.018770792838539035
799.0, 0.024594543329882427
800.0, 0.02126305144558399
801.0, 0.014240921075911224
802.0, 0.026034812677361265
803.0, 0.022969863905407013
804.0, 0.015033719149175003
805.0, 0.020648676798995534
806.0, 0.04332514938465081
807.0, 0.021299272132526074
808.0, 0.03636952821374008
809.0, 0.05160800965540762
810.0, 0.05783789154625353
811.0, 0.05518860096552632
812.0, 0.07654025536966401
813.0, 0.08272461408992
814.0, 0.07870556322530568
815.0, 0.07301324242644229
816.0, 0.08774274351442903
817.0, 0.08505190859949428
818.0, 0.06969813681220631
819.0, 0.0510741198397164
820.0, 0.04148372118423318
821.0, 0.05033428718616289
822.0, 0.03442103524421045
823.0, 0.02351916187339703
824.0, 0.029252764680945103
825.0, 0.04082647614287669
826.0, 0.030828080556550702
827.0, 0.023344434248730478
828.0, 0.02266657629905601
829.0, 0.028539225248880865
830.0, 0.0221128366042537
831.0, 0.02405836075551165
832.0, 0.027494971133086195
833.0, 0.026294116817169665
834.0, 0.012246366365035294
835.0, 0.012503749517212401
836.0, 0.009305043436605764
837.0, 0.012423570608503546
838.0, 0.024270362794172096
839.0, 0.011425329833143113
840.0, 0.013712582586195026
841.0, 0.009518620142242305
842.0, 0.0077042921284502675
843.0, 0.02754423290917163
844.0, 0.009974573495911292
845.0, 0.004779242128043343
846.0, 0.014620601929370706
847.0, 0.027848070904645528
848.0, 0.002256996181191134
849.0, 0.00583179042148591
850.0, 0.00819343973375733
851.0, 0.008608208508424618
852.0, 0.010033318233399969
853.0, 0.01564644474109129
854.0, 0.01029597876553385
855.0, 0.006005544581218609
856.0, 0.007724987469733449
857.0, 0.017600135284869253
858.0, 0.02501737390654749
859.0, 0.014258309112083322
860.0, 0.00409576712740997
861.0, 0.0042430659486017396
862.0, 0.005040715045849435
863.0, 0.01750356817191305
864.0, 0.017531039732467276
865.0, 0.013999949075584757
866.0, 0.019291674237921247
867.0, 0.013714012606364408
868.0, 0.0065072802968777835
869.0, 0.01159989997431326
870.0, 0.02364893306895412
871.0, 0.022201353964338626
872.0, 0.007791437374233886
873.0, 0.00775750097319255
874.0, 0.00949047830170886
875.0, 0.005678889313121144
876.0, 0.0017686583492431433
877.0, 0.00652051897257761
878.0, 0.004807734440360921
879.0, 0.004617074809610362
880.0, 0.01441636945210335
881.0, 0.008225486641641955
882.0, 0.007733718822567366
883.0, 0.004932513027570398
884.0, 0.0029899011679522386
885.0, 0.012076364122853228
886.0, 0.014708149989922053
887.0, 0.008162067272998313
888.0, 0.003780014412869607
889.0, 0.005310701640488168
890.0, 0.003408880947381684
891.0, 0.003875639376351555
892.0, 0.0048570173765394705
893.0, 0.006535010601587914
894.0, 0.00882802544416842
895.0, 0.009024104884240491
896.0, 0.008784801583657843
897.0, 0.00840117205588043
898.0, 0.008425021129696893
899.0, 0.009264483561872443
900.0, 0.004260883968073264
901.0, 0.01265454989830048
902.0, 0.011951992989738085
903.0, 0.0030287843704967995
904.0, 0.0101375000726932
905.0, 0.018955666520466208
906.0, 0.011612825036758999
907.0, 0.0071130596149003265
908.0, 0.015064235554253874
909.0, 0.020630504854820705
910.0, 0.02305966304595895
911.0, 0.013867021296874083
912.0, 0.005426273803676891
913.0, 0.010266377008633521
914.0, 0.020646117577293066
915.0, 0.013354715220211321
916.0, 0.022328200938129195
917.0, 0.034119245542239544
918.0, 0.018012318485741946
919.0, 0.007741638313778611
920.0, 0.022233427883009856
921.0, 0.028042925795918796
922.0, 0.01934742745745903
923.0, 0.013600734793498248
924.0, 0.01659914193254171
925.0, 0.024452085777686546
926.0, 0.02531278013111575
927.0, 0.017018132792427795
928.0, 0.01595954835471857
929.0, 0.005658500884871824
930.0, 0.006854945044350657
931.0, 0.01259419974138641
932.0, 0.016709451508247156
933.0, 0.028190395153774493
934.0, 0.009303856015597481
935.0, 0.004602110014605352
936.0, 0.013038625966522431
937.0, 0.021376394896073105
938.0, 0.00700411847892469
939.0, 0.02195712404059006
940.0, 0.02226375926797499
941.0, 0.011743691642655936
942.0, 0.01536629109751546
943.0, 0.025578790085512407
944.0, 0.020740986242525832
945.0, 0.020263460341524594
946.0, 0.024322613668417894
947.0, 0.017019198791412733
948.0, 0.027373900733091282
949.0, 0.023044467201818606
950.0, 0.015989399063480538
951.0, 0.0147633976756174
952.0, 0.02379888523306181
953.0, 0.02301492278695265
954.0, 0.01921348771442799
955.0, 0.01852760268897514
956.0, 0.022457624299248195
957.0, 0.02148705956499976
958.0, 0.021380222197480446
959.0, 0.020078876123614378
960.0, 0.016180901065465016
961.0, 0.01142121719206892
962.0, 0.020198070598841968
963.0, 0.017889007745329106
964.0, 0.021568426931311366
965.0, 0.027776937228634137
966.0, 0.029416628691887273
967.0, 0.024754915749013694
968.0, 0.028552242564445628
969.0, 0.028834536880950504
970.0, 0.026754671708773207
971.0, 0.0272844796780795
972.0, 0.029228460550046492
973.0, 0.026644922808907717
974.0, 0.036057328558267085
975.0, 0.046811396136461014
976.0, 0.03828627603680955
977.0, 0.06291229338525936
978.0, 0.05435655677667635
979.0, 0.0434659436984997
980.0, 0.04332621633778609
981.0, 0.055678733614244365
982.0, 0.042163785566834505
983.0, 0.03463934277576582
984.0, 0.04727481764068493
985.0, 0.05747156060317525
986.0, 0.009091344933008902
987.0, 0.022377969140079525
988.0, 0.029805611275716973
989.0, 0.02597663478983231
990.0, 0.0218082966854847
991.0, 0.04745783718110118
992.0, 0.025197028158699716
993.0, 0.021833313907930793
994.0, 0.024673289639608055
995.0, 0.02616062331537072
996.0, 0.02727920020619521
997.0, 0.02935915026947588
998.0, 0.02349744988452468
999.0, 0.023898378248131978
1000.0, 0.029399586018737118
1001.0, 0.012595311203798702
1002.0, 0.04345928149798819
1003.0, 0.02917167363978249
1004.0, 0.020105297132350403
1005.0, 0.03634458162077711
1006.0, 0.03194746896712238
1007.0, 0.036553477680489
1008.0, 0.04165329952697339
1009.0, 0.044721803994772144
1010.0, 0.04786858722251658
1011.0, 0.06193581050661913
1012.0, 0.05645425574871187
1013.0, 0.05017603910756179
1014.0, 0.050768612814424255
1015.0, 0.05598807446214353
1016.0, 0.044787313375005626
1017.0, 0.03963594018053994
1018.0, 0.04566901531626613
1019.0, 0.052691901237839685
1020.0, 0.05123361584003999
1021.0, 0.03457120979439759
1022.0, 0.0460074513438255
1023.0, 0.06056226462984319
1024.0, 0.06193755912693761
1025.0, 0.05409574899982738
1026.0, 0.08041273107245131
1027.0, 0.06604056980380073
1028.0, 0.07529782238792423
1029.0, 0.0907293229586716
1030.0, 0.10012446060500785
1031.0, 0.11138929760689638
1032.0, 0.11234557327867713
1033.0, 0.10586063174693996
1034.0, 0.10048553427619941
1035.0, 0.10016916259340625
1036.0, 0.10074374129391635
1037.0, 0.07971080652843714
1038.0, 0.06774345117073412
1039.0, 0.06665650902029042
1040.0, 0.06788709337728364
1041.0, 0.04931202172139574
1042.0, 0.06744754768115173
1043.0, 0.05199256480568219
1044.0, 0.04350638328379333
1045.0, 0.05453962039431304
1046.0, 0.05843504715326567
1047.0, 0.04149058637906414
1048.0, 0.043040313528363364
1049.0, 0.04513782759670113
1050.0, 0.04519160875896049
1051.0, 0.05679765355952222
1052.0, 0.037744914737304125
1053.0, 0.052844508247389614
1054.0, 0.05473249041585083
1055.0, 0.038918505992792986
1056.0, 0.03511445280850993
1057.0, 0.022717294919436585
1058.0, 0.03658851617158473
1059.0, 0.03919940268585145
1060.0, 0.030614458278490703
1061.0, 0.03270933445597674
1062.0, 0.03539386118574803
1063.0, 0.031181057719392627
1064.0, 0.02933355560652437
1065.0, 0.029303836490180667
1066.0, 0.027067072623604454
1067.0, 0.028765561323451767
1068.0, 0.01248900264488009
1069.0, 0.019138555318644303
1070.0, 0.02512669706499436
1071.0, 0.0011805064688431024
1072.0, 0.008395870854252516
1073.0, 0.026505638755791663
1074.0, 0.02632824358772429
1075.0, 0.01871757502704578
1076.0, 0.020108635612637104
1077.0, 0.03382325840613846
1078.0, 0.021539399573050275
1079.0, 0.010633535335988908
1080.0, 0.019136431086381727
1081.0, 0.04148878080808706
1082.0, 0.01955845617678857
1083.0, 0.02475137080818514
1084.0, 0.024856757311797824
1085.0, 0.0288250169222133
1086.0, 0.034637165608283074
1087.0, 0.01909615637981641
1088.0, 0.02636786488980384
1089.0, 0.031832993110531414
1090.0, 0.03475800731770024
1091.0, 0.038796267764189
1092.0, 0.050451963695191754
1093.0, 0.04836599419319514
1094.0, 0.05170565606215309
1095.0, 0.060052135854768346
1096.0, 0.073434762752708
1097.0, 0.08949625715453972
1098.0, 0.07933449861553783
1099.0, 0.08751300421355493
1100.0, 0.09066129952954889
1101.0, 0.09269091088933223
1102.0, 0.10095994646696939
1103.0, 0.09247291583280227
1104.0, 0.08742078297728392
1105.0, 0.0755019654304718
1106.0, 0.06482767578348084
1107.0, 0.05967127140360207
1108.0, 0.04486762304519913
1109.0, 0.06362838704662084
1110.0, 0.04705720559149886
1111.0, 0.03730679805959572
1112.0, 0.048741234134567345
1113.0, 0.04261770925234127
1114.0, 0.043121471510533256
1115.0, 0.04490658272460756
1116.0, 0.04581510794129897
1117.0, 0.04552740671609319
1118.0, 0.04507785149139697
1119.0, 0.043064109985515166
1120.0, 0.041719303448267915
1121.0, 0.03415983121274545
1122.0, 0.03146421931124428
1123.0, 0.04543004727689623
1124.0, 0.05150352903908218
1125.0, 0.0395350846049414
1126.0, 0.03355341685034946
1127.0, 0.025668859842904904
1128.0, 0.011271944710044482
1129.0, 0.009761846581937463
1130.0, 0.0024935081652342162
1131.0, 0.01013359656520827
1132.0, 0.019265959175757845
1133.0, 0.019395833383050204
1134.0, 0.007663029214690083
1135.0, 0.001902857743326586
1136.0, 0.0022706918591553493
1137.0, 0.017851409296811272
1138.0, 0.029171014728904075
1139.0, 0.010112336777824926
1140.0, 0.017166604562577625
1141.0, 0.007447063210470248
1142.0, 0.003470233778657721
1143.0, 0.004746828841327681
1144.0, 0.00572582966126379
1145.0, 0.00479101985056073
1146.0, 0.0032074162905800802
1147.0, 0.009270455834754592
1148.0, 0.010258814771842865
1149.0, 0.006051152184815557
1150.0, 0.015639109568602025
1151.0, 0.01288456660225058
1152.0, 0.008388831728216443
1153.0, 0.012159862735073714
1154.0, 0.02109800667572586
1155.0, 0.02357605833386581
1156.0, 0.005179008138555048
1157.0, 0.016672038715585397
1158.0, 0.01718858259944643
1159.0, 0.011080848406736385
1160.0, 0.010190312610646311
1161.0, 0.015465975576825568
1162.0, 0.02324783319068305
1163.0, 0.01255550992402385
1164.0, 0.010141505074256135
1165.0, 0.029450034058768164
1166.0, 0.06209127271242055
1167.0, 0.04437595033948098
1168.0, 0.02262233187140392
1169.0, 0.016684098199282904
1170.0, 0.017549787430975926
1171.0, 0.010508627993662582
1172.0, 0.019352313138196634
1173.0, 0.00972260230941107
1174.0, 0.00558532129777881
1175.0, 0.005039271114444752
1176.0, 0.008195635158481918
1177.0, 0.0254318055268839
1178.0, 0.02176711295646317
1179.0, 0.011288711433101922
1180.0, 0.011360174167148235
1181.0, 0.017577396837470054
1182.0, 0.014009751865159872
1183.0, 0.013588179261290984
1184.0, 0.021970327955158138
1185.0, 0.026807751064689734
1186.0, 0.02651136844820167
1187.0, 0.023608870415898018
1188.0, 0.02373107746307443
1189.0, 0.03223203147965497
1190.0, 0.02871872016049279
1191.0, 0.020202681233505625
1192.0, 0.015325956993971924
1193.0, 0.021250431454539122
1194.0, 0.03333953973659157
1195.0, 0.023766527639917667
1196.0, 0.020953454909041914
1197.0, 0.021683822362287945
1198.0, 0.018772125254932173
1199.0, 0.019936255952101516
1200.0, 0.019038529876767834
1201.0, 0.022207094877700173
1202.0, 0.024455123520607823
1203.0, 0.029778947721855693
1204.0, 0.04535940471853031
1205.0, 0.00974427358016347
1206.0, 0.023485007403701023
1207.0, 0.022909713867537308
1208.0, 0.020269585851782505
1209.0, 0.029438964883873826
1210.0, 0.0061085834024531965
1211.0, 0.013977541680163942
1212.0, 0.02407330402646225
1213.0, 0.0288944447861667
1214.0, 0.025389643776354873
1215.0, 0.015054145410408512
1216.0, 0.012018137086921217
1217.0, 0.025448188250865762
1218.0, 0.021518387166729346
1219.0, 0.016349496165149333
1220.0, 0.022164381801907232
1221.0, 0.011677358798454341
1222.0, 0.008685605399946146
1223.0, 0.01714271045758466
1224.0, 0.014763734735899658
1225.0, 0.011815805824146671
1226.0, 0.03253641622856179
1227.0, 0.03104461928030161
1228.0, 0.02288143273958967
1229.0, 0.010962541763696605
1230.0, 0.010048603855512681
1231.0, 0.023462384215257086
1232.0, 0.031868745488967606
1233.0, 0.02032470158945376
1234.0, 0.01334498538641401
1235.0, 0.020162307740965956
1236.0, 0.027700195200996043
1237.0, 0.01932813639265367
1238.0, 0.011005868415627281
1239.0, 0.028221611122837033
1240.0, 0.027505307713532663
1241.0, 0.024007565185372927
1242.0, 0.0279631787982368
1243.0, 0.03477331614136281
1244.0, 0.026065870806293717
1245.0, 0.021278492299913705
1246.0, 0.016773778711336642
1247.0, 0.017796949477439518
1248.0, 0.027511743116581614
1249.0, 0.03797936998616188
1250.0, 0.012127949156467836
1251.0, 0.023029588091755804
1252.0, 0.022694881881834706
1253.0, 0.010212378065072653
1254.0, 0.012085373573040292
1255.0, 0.01243486947615667
1256.0, 0.014545696296057394
1257.0, 0.007545476469343048
1258.0, 0.0034340088395666017
1259.0, 0.005475417320673784
1260.0, 0.002571935704685153
1261.0, 0.0033397757066983137
1262.0, 0.0015102860279886479
1263.0, 0.007286707196722245
1264.0, 0.013230874318684423
1265.0, 0.014207712260855227
1266.0, 0.024314417256496343
1267.0, 0.011107536194482327
1268.0, 0.012698266199360238
1269.0, 0.011103208151542365
1270.0, 0.01363580140212666
1271.0, 0.03001804289997876
1272.0, 0.004745117678514666
1273.0, 0.014627384565398194
1274.0, 0.014721191553559543
1275.0, 0.011311668494886313
1276.0, 0.008777483268694883
1277.0, 0.004811245778511417
1278.0, 0.016286479431803138
1279.0, 0.00792039133550545
1280.0, 0.012131305901282492
1281.0, 0.01694581179043743
1282.0, 0.01267421402538501
1283.0, 0.011565930014602419
1284.0, 0.016034595910070292
1285.0, 0.012438298485617137
1286.0, 0.00897138161165053
1287.0, 0.011609183208385995
1288.0, 0.017135976266883686
1289.0, 0.0020252153390967736
1290.0, 0.015868914895655502
1291.0, 0.008094553217415217
1292.0, 0.009206054951103014
1293.0, 0.017773075130138385
1294.0, 0.01529111126962731
1295.0, 0.009056209133754742
1296.0, 0.010009823948816112
1297.0, 0.008874203382851343
1298.0, 0.010703267793706218
1299.0, 0.012345482944090134
1300.0, 0.00721982365252114
1301.0, 0.026800049596625127
1302.0, 0.01952135714476479
1303.0, 0.011679894258473354
1304.0, 0.008967602732175234
1305.0, 0.011686520338668273
1306.0, 0.016543731197016437
1307.0, 0.002141234654562745
1308.0, 0.015057780563046791
1309.0, 0.017060271248232253
1310.0, 0.013784271148030712
1311.0, 0.01715919341063068
1312.0, 0.02780554904058305
1313.0, 0.017890211558926766
1314.0, 0.018272277213970286
1315.0, 0.012721909258543955
1316.0, 0.015427936387706773
1317.0, 0.02883884283404875
1318.0, 0.009239898964524328
1319.0, 0.019072761807709355
1320.0, 0.015914966461030473
1321.0, 0.020234684999497897
1322.0, 0.02039310683994431
1323.0, 0.005564229169321568
1324.0, 0.007026162131590244
1325.0, 0.02257648931710881
1326.0, 0.013167805807000808
1327.0, 0.01961372341574448
1328.0, 0.029923076281569577
1329.0, 0.016075829082171932
1330.0, 0.0006719647918517965
1331.0, 0.013794726035037407
1332.0, 0.024780399494766632
1333.0, 0.02916413799866067
1334.0, 0.023926487274197467
1335.0, 0.012791062183532539
1336.0, 0.022876556186783185
1337.0, 0.02002277665114766
1338.0, 0.019172928293622764
1339.0, 0.020305991166055897
1340.0, 0.02337500918583749
1341.0, 0.027903492753805725
1342.0, 0.028605318417065706
1343.0, 0.029982202925760502
1344.0, 0.04042789075702488
1345.0, 0.04081943140178098
1346.0, 0.032737102856632706
1347.0, 0.03178899715767498
1348.0, 0.03641199095442632
1349.0, 0.045271414732254836
1350.0, 0.04357657115154813
1351.0, 0.03326486325876129
1352.0, 0.02877003130548706
1353.0, 0.042035527412653886
1354.0, 0.040424843773444345
1355.0, 0.043528245780189954
1356.0, 0.04866528737221724
1357.0, 0.048413309942931866
1358.0, 0.04192659509698949
1359.0, 0.03445881084906827
1360.0, 0.032968444928707465
1361.0, 0.0361987856040036
1362.0, 0.030635407601479554
1363.0, 0.01870739538257604
1364.0, 0.01059121890591638
1365.0, 0.016716177858086205
1366.0, 0.03286124129439409
1367.0, 0.01847003964598743
1368.0, 0.015947728288829798
1369.0, 0.025142618483679182
1370.0, 0.03181144924834659
1371.0, 0.021913768986471634
1372.0, 0.005571247259041222
1373.0, 0.027423928804850367
1374.0, 0.023621495082372563
1375.0, 0.020244463738907856
1376.0, 0.02169966064858286
1377.0, 0.01822193743584289
1378.0, 0.00904598894050104
1379.0, 0.005718046862161345
1380.0, 0.008093468383982057
1381.0, 0.009580395896067495
1382.0, 0.013711595631113991
1383.0, 0.02101515872543908
1384.0, 0.012294578820506965
1385.0, 0.018071160030176826
1386.0, 0.028735889861766537
1387.0, 0.025276341147526672
1388.0, 0.01596749204508499
1389.0, 0.015543881875116017
1390.0, 0.02546731939439712
1391.0, 0.004372324982351537
1392.0, 0.017602585757104546
1393.0, 0.012818190801162543
1394.0, 0.001534885767790573
1395.0, 0.006483013096038654
1396.0, 0.027882184785775158
1397.0, 0.007163544113535477
1398.0, 0.031233466879750645
1399.0, 0.028161398108322612
1400.0, 0.018244261255493957
1401.0, 0.015707242480265
1402.0, 0.004720193707052772
1403.0, 0.014636222965393911
1404.0, 0.01042443034490687
1405.0, 0.005263277557826837
1406.0, 0.0016465516466978702
1407, 0.0
1408, 0.0
1409, 0.0
1410, 0.0
1411, 0.0
1412, 0.0
1413, 0.0
1414, 0.0
1415, 0.0
1416, 0.0
1417, 0.0
1418, 0.0
1419, 0.0
1420, 0.0
1421, 0.0
1422, 0.0
1423, 0.0
1424, 0.0
1425, 0.0
1426, 0.0
1427, 0.0
1428, 0.0
1429, 0.0
1430, 0.0
1431, 0.0
1432, 0.0
1433, 0.0
1434, 0.0
1435, 0.0
1436, 0.0
1437, 0.0
1438, 0.0
1439, 0.0
1440, 0.0
1441, 0.0
1442, 0.0
1443, 0.0
1444, 0.0
1445, 0.0
1446, 0.0
1447, 0.0
1448, 0.0
1449, 0.0
1450, 0.0
1451, 0.0
1452, 0.0
1453, 0.0
1454, 0.0
1455, 0.0
1456, 0.0
1457, 0.0
1458, 0.0
1459, 0.0
1460, 0.0
1461, 0.0
1462, 0.0
1463, 0.0
1464, 0.0
1465, 0.0
1466, 0.0
1467, 0.0
1468, 0.0
1469, 0.0
1470, 0.0
1471, 0.0
1472, 0.0
1473, 0.0
1474, 0.0
1475, 0.0
1476, 0.0
1477, 0.0
1478, 0.0
1479, 0.0
1480, 0.0
1481, 0.0
1482, 0.0
1483, 0.0
1484, 0.0
1485, 0.0
1486, 0.0
1487, 0.0
1488, 0.0
1489, 0.0
1490, 0.0
1491, 0.0
1492, 0.0
1493, 0.0
1494, 0.0
1495, 0.0
1496, 0.0
1497, 0.0
1498, 0.0
1499, 0.0
1500, 0.0
1501, 0.0
1502, 0.0
1503, 0.0
1504, 0.0
1505, 0.0
1506, 0.0
1507, 0.0
1508, 0.0
1509, 0.0
1510, 0.0
1511, 0.0
1512, 0.0
1513, 0.0
1514, 0.0
1515, 0.0
1516, 0.0
1517, 0.0
1518, 0.0
1519, 0.0
1520, 0.0
1521, 0.0
1522, 0.0
1523, 0.0
1524, 0.0
1525, 0.0
1526, 0.0
1527, 0.0
1528, 0.0
1529, 0.0
1530, 0.0
1531, 0.0
1532, 0.0
1533, 0.0
1534, 0.0
1535, 0.0
1536, 0.0
1537, 0.0
1538, 0.0
1539, 0.0
1540, 0.0
1541, 0.0
1542, 0.0
1543, 0.0
1544, 0.0
1545, 0.0
1546, 0.0
1547, 0.0
1548, 0.0
1549, 0.0
1550, 0.0
1551, 0.0
1552, 0.0
1553, 0.0
1554, 0.0
1555, 0.0
1556, 0.0
1557, 0.0
1558, 0.0
1559, 0.0
1560, 0.0
1561, 0.0
1562, 0.0
1563, 0.0
1564, 0.0
1565, 0.0
1566, 0.0
1567, 0.0
1568, 0.0
1569, 0.0
1570, 0.0
1571, 0.0
1572, 0.0
1573, 0.0
1574, 0.0
1575, 0.0
1576, 0.0
1577, 0.0
1578, 0.0
1579, 0.0
1580, 0.0
1581, 0.0
1582, 0.0
1583, 0.0
1584, 0.0
1585, 0.0
1586, 0.0
1587, 0.0
1588, 0.0
1589, 0.0
1590, 0.0
1591, 0.0
1592, 0.0
1593, 0.0
1594, 0.0
1595, 0.0
1596, 0.0
1597, 0.0
1598, 0.0
1599, 0.0
