30, 0.0
31, 0.0
32, 0.0
33, 0.0
34, 0.0
35, 0.0
36, 0.0
37, 0.0
38, 0.0
39, 0.0
40, 0.0
41, 0.0
42, 0.0
43, 0.0
44, 0.0
45, 0.0
46, 0.0
47, 0.0
48, 0.0
49, 0.0
50, 0.0
51, 0.0
52, 0.0
53, 0.0
54, 0.0
55, 0.0
56, 0.0
57, 0.0
58, 0.0
59, 0.0
60, 0.0
61, 0.0
62, 0.0
63, 0.0
64, 0.0
65, 0.0
66, 0.0
67, 0.0
68, 0.0
69, 0.0
70, 0.0
71, 0.0
72, 0.0
73, 0.0
74, 0.0
75, 0.0
76, 0.0
77, 0.0
78, 0.0
79, 0.0
80, 0.0
81, 0.0
82, 0.0
83, 0.0
84, 0.0
85, 0.0
86, 0.0
87, 0.0
88, 0.0
89, 0.0
90, 0.0
91, 0.0
92, 0.0
93, 0.0
94, 0.0
95, 0.0
96, 0.0
97, 0.0
98, 0.0
99, 0.0
100, 0.0
101, 0.0
102, 0.0
103, 0.0
104, 0.0
105, 0.0
106, 0.0
107, 0.0
108, 0.0
109, 0.0
110, 0.0
111, 0.0
112, 0.0
113, 0.0
114, 0.0
115, 0.0
116, 0.0
117, 0.0
118, 0.0
119.0, 3.2010838668107455e-06
120.0, 7.595298993069645e-05
121.0, 0.002061781503223258
122.0, 0.004004550170900831
123.0, 0.0029624850212090627
124.0, 0.0012191470882365082
125.0, 0.0010396128763294971
126.0, 0.002370361732981164
127.0, 0.0007776628803906359
128.0, 0.003964103805900562
129.0, 0.006783727820557524
130.0, 0.004227985466510568
131.0, 0.006956371497068435
132.0, 0.010826291867599374
133.0, 0.014377425469985093
134.0, 0.012362461993119571
135.0, 0.016273145265570572
136.0, 0.022446353214062093
137.0, 0.02915827766719728
138.0, 0.044250697082175855
139.0, 0.056142898483215804
140.0, 0.0662357420959647
141.0, 0.07875747344360237
142.0, 0.09103705899337662
143.0, 0.10079032251805421
144.0, 0.10710991145151517
145.0, 0.11170019775494139
146.0, 0.1117775016387982
147.0, 0.11009100820596031
148.0, 0.11035167870929825
149.0, 0.1109739640544526
150.0, 0.11274922525767016
151.0, 0.117757680581056
152.0, 0.14105817064725865
153.0, 0.16332503307211282
154.0, 0.18921862568906858
155.0, 0.22330797620068582
156.0, 0.25011445120542725
157.0, 0.28785990122686295
158.0, 0.3301063212630195
159.0, 0.35098593212656265
160.0, 0.36110318782955875
161.0, 0.3650438546421295
162.0, 0.3638067606252045
163.0, 0.345155492045203
164.0, 0.3218138577146608
165.0, 0.2968025374998719
166.0, 0.27485391445781326
167.0, 0.26351108634004866
168.0, 0.2500406733646945
169.0, 0.23473867112798683
170.0, 0.23912188505962467
171.0, 0.23899790301909707
172.0, 0.23759375975555314
173.0, 0.23718428879971398
174.0, 0.2392607581196852
175.0, 0.2469515004164708
176.0, 0.2614502227529707
177.0, 0.287480342151482
178.0, 0.3050952933284877
179.0, 0.3234961570582204
180.0, 0.3459942358931711
181.0, 0.37421329280314847
182.0, 0.3894657910709497
183.0, 0.39866451899636446
184.0, 0.4094809021320274
185.0, 0.3969882419295744
186.0, 0.3789724603101961
187.0, 0.35649461595525184
188.0, 0.3228316371484811
189.0, 0.28971437385249393
190.0, 0.2571845911681429
191.0, 0.2253374747875667
192.0, 0.20132737271568021
193.0, 0.17866169902972331
194.0, 0.1581533422050138
195.0, 0.14192693623663305
196.0, 0.1321020971361083
197.0, 0.12547359474783829
198.0, 0.12165869823225225
199.0, 0.12219864595516144
200.0, 0.1313380604402892
201.0, 0.14415863698754483
202.0, 0.15771622939180122
203.0, 0.17906824841445168
204.0, 0.19907370850758094
205.0, 0.21886701414336363
206.0, 0.24209638060066102
207.0, 0.24329024237332458
208.0, 0.23805708512783738
209.0, 0.22935683745484145
210.0, 0.20867426112584006
211.0, 0.18405437433841906
212.0, 0.1569188531103317
213.0, 0.1280293770134459
214.0, 0.0970157044992447
215.0, 0.07574258257365944
216.0, 0.06263795933046153
217.0, 0.05310790724533408
218.0, 0.041743498871948635
219.0, 0.03232132080007218
220.0, 0.026019941487815945
221.0, 0.022828897993516926
222.0, 0.020418068580550338
223.0, 0.016172472004805778
224.0, 0.00739446589319784
225.0, 0.006751681018564483
226.0, 0.0071902155130293965
227.0, 0.006843544913112686
228.0, 0.0014830562975662966
229.0, 0.0028061664246245882
230.0, 0.0036930014002536397
231.0, 0.0025854068606236476
232.0, 0.003879902551885493
233.0, 0.0033258825789529776
234.0, 0.0026953513685878823
235.0, 0.0034263251369952177
236.0, 0.005609133278169365
237.0, 0.003891704019530235
238.0, 0.0015324789179995387
239.0, 0.006736382217221403
240.0, 0.006432742352901623
241.0, 0.004297444450895203
242.0, 0.0024235881270228393
243.0, 0.010951573178861754
244.0, 0.015212165849963485
245.0, 0.022481583093359823
246.0, 0.037891761699310945
247.0, 0.04130752165430785
248.0, 0.05102233834134101
249.0, 0.061014784952608314
250.0, 0.059843645754789385
251.0, 0.060674121642936805
252.0, 0.05676430413218817
253.0, 0.04812536300644668
254.0, 0.040299342101812116
255.0, 0.03241723190898505
256.0, 0.025809551943951136
257.0, 0.021184566832934845
258.0, 0.017990466842360255
259.0, 0.01529256273788977
260.0, 0.013286735344211511
261.0, 0.012339554750179362
262.0, 0.013472206773604873
263.0, 0.015817387120288382
264.0, 0.018993042924077625
265.0, 0.022169701155668128
266.0, 0.023810261624849432
267.0, 0.024775720347809213
268.0, 0.025852462955081264
269.0, 0.03246010220614889
270.0, 0.039651508142306405
271.0, 0.044448043025185895
272.0, 0.0444369480176224
273.0, 0.047577373125136616
274.0, 0.0549899777306724
275.0, 0.0637629621261937
276.0, 0.0689024358751031
277.0, 0.08385246114952404
278.0, 0.10068669478257461
279.0, 0.12033241369511763
280.0, 0.15204610077691763
281.0, 0.19743168647330606
282.0, 0.25121346621680485
283.0, 0.31248373431308857
284.0, 0.38980551886140513
285.0, 0.47813801748820783
286.0, 0.5656833857237487
287.0, 0.6419685117495246
288.0, 0.6975460562640659
289.0, 0.718414103634944
290.0, 0.7093090023823555
291.0, 0.6759301325403563
292.0, 0.601071764550147
293.0, 0.5143935019683333
294.0, 0.42420925617278654
295.0, 0.34644726815688764
296.0, 0.28147516784803467
297.0, 0.2242451067788114
298.0, 0.1740922488242224
299.0, 0.14265055325557247
300.0, 0.11435771201366711
301.0, 0.09033650948027773
302.0, 0.07203853141110925
303.0, 0.06662382383285144
304.0, 0.06128159306377613
305.0, 0.05512661869574595
306.0, 0.0470089881775608
307.0, 0.044610624363910556
308.0, 0.03989525013976675
309.0, 0.03414910849170049
310.0, 0.03620987603053631
311.0, 0.03399559240565735
312.0, 0.032485695492033624
313.0, 0.03218914061822884
314.0, 0.023333269321704778
315.0, 0.022741741290511472
316.0, 0.024493601873843564
317.0, 0.025121248486666928
318.0, 0.030593990572399032
319.0, 0.034590926357897255
320.0, 0.03935609237062097
321.0, 0.04784928466674086
322.0, 0.06622834925932403
323.0, 0.08268317955766905
324.0, 0.09871123898187201
325.0, 0.12004480778422003
326.0, 0.14137974103484754
327.0, 0.15398528992618793
328.0, 0.1544619299184572
329.0, 0.13428038577896229
330.0, 0.11886043365412705
331.0, 0.10228089749977283
332.0, 0.0824793801910594
333.0, 0.06267901673269383
334.0, 0.04612009876271295
335.0, 0.0360245962389083
336.0, 0.03506367207879969
337.0, 0.02583199451581967
338.0, 0.02297706867043061
339.0, 0.02168896872145364
340.0, 0.015859839616596125
341.0, 0.016759147670349576
342.0, 0.017450992698187354
343.0, 0.01706821098644146
344.0, 0.014639839505280763
345.0, 0.015179723695988847
346.0, 0.014252478781221281
347.0, 0.012254208526893299
348.0, 0.013884681659447007
349.0, 0.010095439969131504
350.0, 0.006048505182401727
351.0, 0.0036230467223677338
352.0, 0.004602764564544998
353.0, 0.003885645734122901
354.0, 0.0034892755585082336
355.0, 0.004333873618047229
356.0, 0.0019074416903381338
357.0, 0.0028645622484633044
358.0, 0.0034598484563458614
359.0, 0.00027675423343868346
360.0, 0.00304603841126697
361.0, 0.004253107437666456
362.0, 0.004012318207854291
363.0, 0.002560521336296147
364.0, 0.0014067818074876533
365.0, 0.0015338888541252848
366.0, 0.002814887121554534
367.0, 0.00486583024388647
368.0, 0.004326147143009981
369.0, 0.003537750664802236
370.0, 0.0028810843867114653
371.0, 0.0022770202712188116
372.0, 0.0013622033439031735
373.0, 0.0007348535184337349
374.0, 0.0010076018743807053
375.0, 0.00495888413244523
376.0, 0.0033654451875966894
377.0, 0.0020830594394675435
378.0, 0.0033860208606592613
379.0, 0.0026227808801837474
380.0, 0.0014289227611529965
381.0, 0.0009135034165240834
382.0, 0.001858451470889405
383.0, 0.003916803356951259
384.0, 0.0034148783460317485
385.0, 0.002382856410844475
386.0, 0.002815144112036
387.0, 0.0008570266751142415
388.0, 0.00021314240172520268
389.0, 0.0004815013098622516
390.0, 0.0010231645687068084
391.0, 0.0008573935297505808
392.0, 0.002471160523402664
393.0, 0.005641490597938396
394.0, 0.009664756941216617
395.0, 0.015726426916232914
396.0, 0.019124527668878753
397.0, 0.019489416462256236
398.0, 0.017392862878974763
399.0, 0.020849280539528454
400.0, 0.019839014126546876
401.0, 0.014818302235477272
402.0, 0.01618600708967593
403.0, 0.024697449699645203
404.0, 0.03212782303631803
405.0, 0.035245698232742276
406.0, 0.029421735438871784
407.0, 0.029206006028156723
408.0, 0.027571036534784862
409.0, 0.02206580024793311
410.0, 0.01655973315010114
411.0, 0.01190747073285327
412.0, 0.00923681770456491
413.0, 0.008950726998037267
414.0, 0.0068715264460859704
415.0, 0.0034237292064120905
416.0, 0.001994102180167534
417.0, 0.00469773330506671
418.0, 0.001848774451007797
419.0, 0.004032555132030916
420.0, 0.005719161360194215
421.0, 0.002091359544036821
422.0, 0.004726220029319597
423.0, 0.002871581522569862
424.0, 0.0009239678997592217
425.0, 0.0037813114241780927
426.0, 0.001423356796275533
427.0, 0.0020834500012193455
428.0, 0.004010210051030956
429.0, 0.004577550289855231
430.0, 0.001878540714696576
431.0, 0.001338656182271028
432.0, 0.0019017239456006335
433.0, 0.0014183690142208672
434.0, 0.001554890133627539
435.0, 0.002790640210120586
436.0, 0.005012391360859997
437.0, 0.00799066490753248
438.0, 0.004953688395070174
439.0, 0.003082776927464311
440.0, 0.004378293980758518
441.0, 0.011822784361294103
442.0, 0.00943610036093196
443.0, 0.006641654551240807
444.0, 0.006137313091888891
445.0, 0.011688444305298293
446.0, 0.012725236748553935
447.0, 0.01199928394830482
448.0, 0.011949571271513387
449.0, 0.018633025259011917
450.0, 0.02334515584694511
451.0, 0.0277355059872292
452.0, 0.03184809613338552
453.0, 0.034702186762015044
454.0, 0.037575050395482736
455.0, 0.03974686361194918
456.0, 0.040148619098208736
457.0, 0.035277001202075234
458.0, 0.037171410824741465
459.0, 0.04004068305976936
460.0, 0.04099652262940388
461.0, 0.033993466512186
462.0, 0.0335727248779506
463.0, 0.03720934465823839
464.0, 0.04366030290335324
465.0, 0.0503563194658069
466.0, 0.056105524088988785
467.0, 0.06535494565859824
468.0, 0.07869003424519884
469.0, 0.0926876208697045
470.0, 0.12354725387522061
471.0, 0.1571681408452431
472.0, 0.19277017878116381
473.0, 0.2470561624536622
474.0, 0.30981436674313356
475.0, 0.3750860719426486
476.0, 0.4375291367920871
477.0, 0.4795625732554807
478.0, 0.4796397514388884
479.0, 0.4597475097149388
480.0, 0.4242142211866755
481.0, 0.3613383882155451
482.0, 0.30780262519155044
483.0, 0.2558884742625428
484.0, 0.20558122009269236
485.0, 0.16842954595608015
486.0, 0.15066738948441943
487.0, 0.13199883760475306
488.0, 0.11000464190891995
489.0, 0.10208633985673995
490.0, 0.10108202200476062
491.0, 0.10143888082362014
492.0, 0.10225369750250007
493.0, 0.10664612278338938
494.0, 0.11769942628682782
495.0, 0.1353078495732214
496.0, 0.15988573871990627
497.0, 0.19314845303192762
498.0, 0.23284207562903764
499.0, 0.2925935833973458
500.0, 0.37375013153168324
501.0, 0.4683625498704024
502.0, 0.5999386379922869
503.0, 0.7406273904035441
504.0, 0.8726485861442196
505.0, 0.9568487562604445
506.0, 0.9889641746873878
507.0, 0.9564547046450586
508.0, 0.8684882987521494
509.0, 0.7595375495778195
510.0, 0.6344869995947042
511.0, 0.5198185387357022
512.0, 0.4197490612910746
513.0, 0.3334663909793224
514.0, 0.27739416166090214
515.0, 0.22859992118570996
516.0, 0.18555699914804671
517.0, 0.1528785516038554
518.0, 0.1342942238025503
519.0, 0.11800993749132148
520.0, 0.10462619532178893
521.0, 0.09820821366541285
522.0, 0.08999554734257613
523.0, 0.0806428412040617
524.0, 0.07176436457974172
525.0, 0.06595989393139898
526.0, 0.05754344974699585
527.0, 0.05219237493366605
528.0, 0.04900214289637694
529.0, 0.04624538348201483
530.0, 0.04400593149733991
531.0, 0.0419927980254871
532.0, 0.03912374584271081
533.0, 0.034179932285528146
534.0, 0.03616446871628508
535.0, 0.03417541078803289
536.0, 0.030795135862518894
537.0, 0.02859530695938084
538.0, 0.0295878583286627
539.0, 0.027689364359710412
540.0, 0.025565083465613328
541.0, 0.025061355297937606
542.0, 0.02292215693505711
543.0, 0.022565321266222016
544.0, 0.022878301077469795
545.0, 0.02316814890632538
546.0, 0.023139488900015284
547.0, 0.02142440682290745
548.0, 0.02137885456985543
549.0, 0.023123403677426983
550.0, 0.016977461082254057
551.0, 0.010316208531164234
552.0, 0.00969631109217849
553.0, 0.014384478319014089
554.0, 0.010234277320067812
555.0, 0.013809819230378741
556.0, 0.01600577592886186
557.0, 0.014833583098449014
558.0, 0.011454613509842814
559.0, 0.01885000619517294
560.0, 0.016845827827131014
561.0, 0.009401081007860223
562.0, 0.014558098111097678
563.0, 0.017603610749355198
564.0, 0.012670295397489234
565.0, 0.007512119045717731
566.0, 0.016595291335547577
567.0, 0.016297582359285263
568.0, 0.019738454350802116
569.0, 0.02446263102970508
570.0, 0.02650956716933383
571.0, 0.02733134771625061
572.0, 0.03039381263703443
573.0, 0.032545940589383544
574.0, 0.03128208567302271
575.0, 0.03522324315880085
576.0, 0.038637944523230904
577.0, 0.03869915816751195
578.0, 0.035070521493680104
579.0, 0.04214327529942699
580.0, 0.03268045179940173
581.0, 0.027111463724661833
582.0, 0.03073558732039617
583.0, 0.023337732146201266
584.0, 0.017700799108015107
585.0, 0.014699842371818993
586.0, 0.01380218844707586
587.0, 0.012334933738175369
588.0, 0.014313283014283985
589.0, 0.011739355840935013
590.0, 0.005974032498699069
591.0, 0.0031324059498621867
592.0, 0.006527147993304209
593.0, 0.008323899689032004
594.0, 0.008554356808769866
595.0, 0.008323896297088842
596.0, 0.014880777431024719
597.0, 0.009688926659143714
598.0, 0.003612816395088484
599.0, 0.006954256919775137
600.0, 0.004307041641267618
601.0, 0.008687777301099035
602.0, 0.010389408964331711
603.0, 0.004549403942741494
604.0, 0.0018343378212610797
605.0, 0.002263077681120142
606.0, 0.006100318059207516
607.0, 0.011297729958652214
608.0, 0.00825044648428805
609.0, 0.006515870811565273
610.0, 0.006269098994936409
611.0, 0.00652708365775876
612.0, 0.004646494531879754
613.0, 0.0020573894985621913
614.0, 0.004497342916159362
615.0, 0.008882930464643493
616.0, 0.0093424830040695
617.0, 0.005626460734896907
618.0, 0.0025590565792685182
619.0, 0.0014990952858375231
620.0, 0.003297858369417374
621.0, 0.0014838647197094636
622.0, 0.005876549164198208
623.0, 0.011279845037371726
624.0, 0.015114830458468762
625.0, 0.02104260827089534
626.0, 0.01979057645338329
627.0, 0.021495231371127948
628.0, 0.027087492345594714
629.0, 0.027536717544872313
630.0, 0.03512897593405376
631.0, 0.03787902701902593
632.0, 0.036567818712773474
633.0, 0.037015380367537085
634.0, 0.030079256652879076
635.0, 0.028405208487573195
636.0, 0.026322757110226486
637.0, 0.016991757550221143
638.0, 0.029971829016098434
639.0, 0.03098951245199045
640.0, 0.030121554901409702
641.0, 0.03317714368892996
642.0, 0.031267406105431106
643.0, 0.03460883051348297
644.0, 0.03596750852574423
645.0, 0.03496613950250871
646.0, 0.04011078351144698
647.0, 0.03504169809236464
648.0, 0.03260834718966966
649.0, 0.032636022452824515
650.0, 0.03032797192081927
651.0, 0.017582964591481648
652.0, 0.01515285950745317
653.0, 0.01713652756550589
654.0, 0.016118904556880132
655.0, 0.01851785285728548
656.0, 0.018468940351803343
657.0, 0.016363033296265064
658.0, 0.01318238653741522
659.0, 0.013616310752853923
660.0, 0.011490798584947054
661.0, 0.008379332090047521
662.0, 0.0058536628930498415
663.0, 0.007071306974188632
664.0, 0.004035160339669726
665.0, 0.0028862679619808315
666.0, 0.0025050334540992823
667.0, 0.00018393380672389998
668.0, 0.0022186488012445665
669.0, 0.004462186247441636
670.0, 0.004967235158915924
671.0, 0.0027568414965262315
672.0, 0.0024470042151443754
673.0, 0.0042438107779101
674.0, 0.004079433899605064
675.0, 0.002246083102584004
676.0, 0.005646239639635819
677.0, 0.004026812289606503
678.0, 0.006879393258851769
679.0, 0.009467096196297257
680.0, 0.0009961771939347
681.0, 0.002292294070344137
682.0, 0.0017813171883364189
683.0, 0.0011837467043848918
684.0, 0.002182315655902613
685.0, 0.0026288082854338236
686.0, 0.0012053292411148906
687.0, 0.0022627440822924937
688.0, 0.007151657382178085
689.0, 0.013868990793237949
690.0, 0.009296030308840386
691.0, 0.004123384811612446
692.0, 0.0017105006311645568
693.0, 0.00448800193190934
694.0, 0.0015546790766673053
695.0, 0.003962553585775853
696.0, 0.0065918356909164585
697.0, 0.0051444478861060305
698.0, 0.005159093366551208
699.0, 0.0027230268366939276
700.0, 0.0027310642447813723
701.0, 0.0052279189137004215
702.0, 0.0033842068808378543
703.0, 0.005616628452303395
704.0, 0.006565390611363635
705.0, 0.005072929164435257
706.0, 0.0007390677805851897
707.0, 0.0007718784072569569
708.0, 0.003542667383677354
709.0, 0.006224724817229294
710.0, 0.006846963656365472
711.0, 0.006457448996281456
712.0, 0.0060680932733607855
713.0, 0.004276288988855718
714.0, 0.002130606815664849
715.0, 0.0037183964965863685
716.0, 0.009655308490344478
717.0, 0.007383460368724156
718.0, 0.004378777648389631
719.0, 0.010566269517157199
720.0, 0.012152357811144592
721.0, 0.005597382576124023
722.0, 0.00184173810120242
723.0, 0.0045803842355679955
724.0, 0.0031048149692983165
725.0, 0.005251576559180502
726.0, 0.004185461529237469
727.0, 0.0025841421416612784
728.0, 0.007894418968068095
729.0, 0.009198353434652229
730.0, 0.00608612102314475
731.0, 0.0024570674097991875
732.0, 0.00155682628702281
733.0, 0.003534755996725777
734.0, 0.007731974074944802
735.0, 0.006255103673658937
736.0, 0.0007374239662407978
737.0, 0.002593179503499979
738.0, 0.005045035548748186
739.0, 0.004719879445344991
740.0, 0.0030038808191510335
741.0, 0.0020376074048322145
742.0, 0.005609524505120314
743.0, 0.0070809109730039345
744.0, 0.007321193402928443
745.0, 0.007062017152472044
746.0, 0.007453040389860834
747.0, 0.009894500150160327
748.0, 0.012176752434464384
749.0, 0.012844237272648967
750.0, 0.01056322295242964
751.0, 0.016524634324794354
752.0, 0.015888166827007506
753.0, 0.013541281624838185
754.0, 0.012348176050023833
755.0, 0.011555813108558908
756.0, 0.02430766876066587
757.0, 0.03063891042537233
758.0, 0.03210411937168345
759.0, 0.038448508584731415
760.0, 0.04185421890374778
761.0, 0.04672249014047989
762.0, 0.049813960321062736
763.0, 0.04970968594140395
764.0, 0.05170253004015857
765.0, 0.04472044024458992
766.0, 0.04227848845957964
767.0, 0.04021382836168376
768.0, 0.02426940342196994
769.0, 0.02913755475725074
770.0, 0.025952123554655693
771.0, 0.02005395251249241
772.0, 0.01736239524617015
773.0, 0.024907054968519502
774.0, 0.027781132839067073
775.0, 0.027341621968390142
776.0, 0.024697336126545916
777.0, 0.021409206194597453
778.0, 0.020917062733123097
779.0, 0.01811251655688233
780.0, 0.014611475696866268
781.0, 0.011730111669857993
782.0, 0.008541901769358843
783.0, 0.00897673922749093
784.0, 0.008664760078866086
785.0, 0.00860372944471341
786.0, 0.012995356813300718
787.0, 0.013120106661558427
788.0, 0.015318511848558258
789.0, 0.013837668300811455
790.0, 0.006082054926571812
791.0, 0.0028918408698609356
792.0, 0.007712517017064074
793.0, 0.00902520387143777
794.0, 0.008280846515683048
795.0, 0.013075868004428379
796.0, 0.013140765455653985
797.0, 0.011456554094944716
798.0, 0.009230631427225994
799.0, 0.00823512161841642
800.0, 0.013434046642225507
801.0, 0.014865256672044757
802.0, 0.014748646969230866
803.0, 0.016529049491376496
804.0, 0.024429432979417937
805.0, 0.023633201623783243
806.0, 0.023421080726694982
807.0, 0.027196577697634342
808.0, 0.03633969891442474
809.0, 0.049143879904552774
810.0, 0.055561907626593535
811.0, 0.06723373719302139
812.0, 0.08219796085268109
813.0, 0.09531619020068709
814.0, 0.09812351125397516
815.0, 0.09357175118548872
816.0, 0.084631947155865
817.0, 0.07408737663668485
818.0, 0.06608088304395503
819.0, 0.04654209399213394
820.0, 0.03362977725202026
821.0, 0.02951174052068004
822.0, 0.03197778437519295
823.0, 0.019727751426758325
824.0, 0.02067005782856764
825.0, 0.021358218793159956
826.0, 0.01846844126397132
827.0, 0.013645919535653746
828.0, 0.021377450704460378
829.0, 0.01694936285307589
830.0, 0.008586556589330456
831.0, 0.003912342624430996
832.0, 0.00953271173945598
833.0, 0.007792582513567058
834.0, 0.007102850247603215
835.0, 0.007041237175822346
836.0, 0.005047292490831321
837.0, 0.003400768941263597
838.0, 0.0022592052196718417
839.0, 0.004374095750812825
840.0, 0.00814718238190169
841.0, 0.0056621095180834635
842.0, 0.007002150213020756
843.0, 0.004661191310133986
844.0, 0.0036289536096763674
845.0, 0.007757408601906001
846.0, 0.00934498741325673
847.0, 0.004611243784603595
848.0, 0.005481726660545328
849.0, 0.008797650643030253
850.0, 0.004446043474381227
851.0, 0.007276640655807777
852.0, 0.005974652343501352
853.0, 0.002981301153205784
854.0, 0.0020215624017169333
855.0, 0.010956852647592096
856.0, 0.004784297218201676
857.0, 0.0022953878503871564
858.0, 0.004482471093876008
859.0, 0.008721705932131802
860.0, 0.003049382785288237
861.0, 0.009918723738787957
862.0, 0.010135342754826492
863.0, 0.0037644712132833625
864.0, 0.0005937508306774943
865.0, 0.007865804145054148
866.0, 0.0047006984292278535
867.0, 0.0050738706552515295
868.0, 0.010853052676144559
869.0, 0.0024166716250492125
870.0, 0.008376820750118164
871.0, 0.007336751354560082
872.0, 0.0036776052072754286
873.0, 0.0034244528597228395
874.0, 0.004257396415213044
875.0, 0.005027331936648897
876.0, 0.007510225219323606
877.0, 0.009285845916041023
878.0, 0.006093148697121721
879.0, 0.0032288637935174213
880.0, 0.005565985154547588
881.0, 0.00493695271899118
882.0, 0.0005096913444991317
883.0, 0.0005636361016320793
884.0, 0.009744995002959635
885.0, 0.011564753348226556
886.0, 0.009414932344646826
887.0, 0.007024892253491596
888.0, 0.004636802817247399
889.0, 0.004358037274901316
890.0, 0.0041392759007170725
891.0, 0.00437496690781712
892.0, 0.005768234955634011
893.0, 0.005859156681466954
894.0, 0.008814436429609232
895.0, 0.010777043529211043
896.0, 0.011010019254260315
897.0, 0.010647622525673226
898.0, 0.014720184196620804
899.0, 0.011133191152612479
900.0, 0.010326473495768863
901.0, 0.014125036388472506
902.0, 0.01012686344144593
903.0, 0.004244752255001003
904.0, 0.008707409094652249
905.0, 0.011852756566661548
906.0, 0.005397506981725938
907.0, 0.0013969418450913975
908.0, 0.004426161336699863
909.0, 0.010721524976091013
910.0, 0.013692106004416385
911.0, 0.0073804211562513095
912.0, 0.002570237302544007
913.0, 0.01216504469068334
914.0, 0.014623303889689611
915.0, 0.010795964763763106
916.0, 0.01362464798299483
917.0, 0.012062047637395172
918.0, 0.00684311424300775
919.0, 0.00971244239336693
920.0, 0.017344001370097707
921.0, 0.007668955814373317
922.0, 0.01904844004364628
923.0, 0.015708174624151965
924.0, 0.011278254474251976
925.0, 0.01397441278942811
926.0, 0.015662839684505842
927.0, 0.013658830705833307
928.0, 0.013852198784389825
929.0, 0.01599063571638119
930.0, 0.018391494525512225
931.0, 0.016431321891900975
932.0, 0.014820949849895702
933.0, 0.016686058368232354
934.0, 0.01723124707646634
935.0, 0.011377658697310564
936.0, 0.012264385737136455
937.0, 0.014813098715592275
938.0, 0.012300186692213246
939.0, 0.009919842762901927
940.0, 0.017865366970856892
941.0, 0.018755428641146703
942.0, 0.02153950933816278
943.0, 0.02264727536759028
944.0, 0.02206126576683442
945.0, 0.022612771487061936
946.0, 0.016784729151811582
947.0, 0.01891672467056168
948.0, 0.020762867257499436
949.0, 0.019575255791907043
950.0, 0.019657914497373953
951.0, 0.006834944899406762
952.0, 0.014068339790176968
953.0, 0.016475054506335206
954.0, 0.008109999772245715
955.0, 0.02693291939389877
956.0, 0.022699357540915042
957.0, 0.019132593174921903
958.0, 0.017953957349460915
959.0, 0.01819801327755886
960.0, 0.017065568579217826
961.0, 0.018496345624173106
962.0, 0.015774263217554454
963.0, 0.013274056984911135
964.0, 0.015912660220702497
965.0, 0.024059690975469505
966.0, 0.01949393278560896
967.0, 0.018842494406549743
968.0, 0.02208857354351102
969.0, 0.02445757406778639
970.0, 0.014765078467309307
971.0, 0.025494050649942517
972.0, 0.03165250763137766
973.0, 0.029402114704714898
974.0, 0.02347526519405303
975.0, 0.03664461879335397
976.0, 0.03325018602648472
977.0, 0.030627233173241557
978.0, 0.03557548284489692
979.0, 0.0471438112349567
980.0, 0.01783386877142204
981.0, 0.025308751797790293
982.0, 0.030887460369972843
983.0, 0.024918099581646286
984.0, 0.013205365926467006
985.0, 0.033188503614407026
986.0, 0.021693686896855184
987.0, 0.014417293639891473
988.0, 0.016929514411302058
989.0, 0.018176074475316734
990.0, 0.01625078921123465
991.0, 0.020118097025644308
992.0, 0.0177098954380656
993.0, 0.013136886037188178
994.0, 0.020237617317060835
995.0, 0.014220853286143111
996.0, 0.016805618747799907
997.0, 0.018185057072445186
998.0, 0.015816349951620453
999.0, 0.012614673913430487
1000.0, 0.023805556830961243
1001.0, 0.024865855458907505
1002.0, 0.023592987472212175
1003.0, 0.025472512902732843
1004.0, 0.033747685231762414
1005.0, 0.021187222363070597
1006.0, 0.022843307721297147
1007.0, 0.026801237092555663
1008.0, 0.026865106538332083
1009.0, 0.021567591328519826
1010.0, 0.031146454572423182
1011.0, 0.03151080804160287
1012.0, 0.02961299816133042
1013.0, 0.029924189579486823
1014.0, 0.03466569250679376
1015.0, 0.027021374665428144
1016.0, 0.02288244931103538
1017.0, 0.027130831148052915
1018.0, 0.033800310490664655
1019.0, 0.030160540050138657
1020.0, 0.03565338378191581
1021.0, 0.03245939636038726
1022.0, 0.03549187143048699
1023.0, 0.0413890395934273
1024.0, 0.03668414647282648
1025.0, 0.04259776175783923
1026.0, 0.05170574931917272
1027.0, 0.06146602198843546
1028.0, 0.06785195362709281
1029.0, 0.06713374643666749
1030.0, 0.07220702708842547
1031.0, 0.08051781565253006
1032.0, 0.08456710028432468
1033.0, 0.08369037440348587
1034.0, 0.07980921085734693
1035.0, 0.0660789742824779
1036.0, 0.05670124788942433
1037.0, 0.05079892253574268
1038.0, 0.04608666116620487
1039.0, 0.04088680784312558
1040.0, 0.04353607228594025
1041.0, 0.045841798482990956
1042.0, 0.04362202135959367
1043.0, 0.03727212378785984
1044.0, 0.030310351634694414
1045.0, 0.03502812867934121
1046.0, 0.04153889289650778
1047.0, 0.03722585250005263
1048.0, 0.030866310619354426
1049.0, 0.032519348720342685
1050.0, 0.038067336558796835
1051.0, 0.032540515252291326
1052.0, 0.035692783804293735
1053.0, 0.03380337466022629
1054.0, 0.021742169280340687
1055.0, 0.03266862997979929
1056.0, 0.030990117391145745
1057.0, 0.02519638751376895
1058.0, 0.025807513180471465
1059.0, 0.03516043614194353
1060.0, 0.03988692415202544
1061.0, 0.03207671671578758
1062.0, 0.029847092439123125
1063.0, 0.0302349140031395
1064.0, 0.0299668625537184
1065.0, 0.026854716647246285
1066.0, 0.03277161308674118
1067.0, 0.026922597646740036
1068.0, 0.02757879753545539
1069.0, 0.03382241828637269
1070.0, 0.028732940540022418
1071.0, 0.026443570459313784
1072.0, 0.02480168289737143
1073.0, 0.024700857598701758
1074.0, 0.026355316386126648
1075.0, 0.029797140372840945
1076.0, 0.037833007028955874
1077.0, 0.029292145672314855
1078.0, 0.030045464582646387
1079.0, 0.03504040648371566
1080.0, 0.03257278149373031
1081.0, 0.0319128720479336
1082.0, 0.0385444772631983
1083.0, 0.03873145595330946
1084.0, 0.04145934609330299
1085.0, 0.050275462431314734
1086.0, 0.04010126404453837
1087.0, 0.04646997298630486
1088.0, 0.05124631949214227
1089.0, 0.054369767040165336
1090.0, 0.060008350898496654
1091.0, 0.07635157948115148
1092.0, 0.0788965423620893
1093.0, 0.08485821312023938
1094.0, 0.09693035300253186
1095.0, 0.11089878468139976
1096.0, 0.11742959462269872
1097.0, 0.127162477209112
1098.0, 0.13922371838251638
1099.0, 0.13269344322094617
1100.0, 0.11772922182186964
1101.0, 0.11612905365857927
1102.0, 0.11716462978416445
1103.0, 0.0957752191406502
1104.0, 0.09290476430270249
1105.0, 0.09624084432993191
1106.0, 0.08751028471320318
1107.0, 0.07527687789887626
1108.0, 0.07792010935364284
1109.0, 0.07106730172168851
1110.0, 0.06748765769743731
1111.0, 0.07430345746936927
1112.0, 0.08241556661176183
1113.0, 0.07499713952065387
1114.0, 0.0738809177082862
1115.0, 0.07150176465267624
1116.0, 0.0647303881453402
1117.0, 0.055887176882038744
1118.0, 0.0635998559709517
1119.0, 0.057353569373420746
1120.0, 0.0553462822601068
1121.0, 0.057904679369330754
1122.0, 0.05670235106298121
1123.0, 0.036147889441821485
1124.0, 0.030398687162369653
1125.0, 0.02949729641396993
1126.0, 0.027137034378874117
1127.0, 0.022029264522513244
1128.0, 0.022277844504527175
1129.0, 0.021323772514333025
1130.0, 0.01943985351065128
1131.0, 0.021802721480573436
1132.0, 0.024027513006805674
1133.0, 0.014617222001224107
1134.0, 0.021943088852270885
1135.0, 0.019465465499129527
1136.0, 0.009997858601917639
1137.0, 0.008304680330140366
1138.0, 0.02234124951824024
1139.0, 0.002628906033371712
1140.0, 0.010793620045616547
1141.0, 0.015362568489075737
1142.0, 0.013183454925294224
1143.0, 0.011432952595771685
1144.0, 0.027536980266886845
1145.0, 0.006111284806427027
1146.0, 0.011059470124986552
1147.0, 0.017913128098014257
1148.0, 0.01646493327057115
1149.0, 0.011904149183303497
1150.0, 0.021769244231749203
1151.0, 0.017299787200003823
1152.0, 0.018463161036855462
1153.0, 0.0238811674064368
1154.0, 0.024826906722884623
1155.0, 0.011324081386116316
1156.0, 0.011014420840105224
1157.0, 0.015529785511826924
1158.0, 0.015899823050635857
1159.0, 0.01314869186416966
1160.0, 0.01961725829038752
1161.0, 0.004447331989101954
1162.0, 0.004271557151583826
1163.0, 0.010783942178061006
1164.0, 0.012644558383887125
1165.0, 0.003426177479250954
1166.0, 0.007076465418865731
1167.0, 0.014475807079667523
1168.0, 0.007996699468746859
1169.0, 0.001578007835847092
1170.0, 0.004945616132795453
1171.0, 0.011539902484123883
1172.0, 0.005217614595622078
1173.0, 0.015328091709039208
1174.0, 0.014938742767809555
1175.0, 0.004722775696125028
1176.0, 0.0022116371740283063
1177.0, 0.015537369950774475
1178.0, 0.00804272504191239
1179.0, 0.012788325542853559
1180.0, 0.014990451692012003
1181.0, 0.004779153986911488
1182.0, 0.0006594523953522106
1183.0, 0.016407702863782087
1184.0, 0.010396899586297113
1185.0, 0.009993654711326351
1186.0, 0.01723956371227176
1187.0, 0.01683175892683186
1188.0, 0.005035482178565223
1189.0, 0.016706601754040866
1190.0, 0.013714457301135852
1191.0, 0.007964503903041714
1192.0, 0.012870530737904744
1193.0, 0.023758555823354864
1194.0, 0.015580024345504291
1195.0, 0.008780110265854662
1196.0, 0.01280558648455066
1197.0, 0.019782885961120208
1198.0, 0.016044254129950586
1199.0, 0.019718080244689903
1200.0, 0.013449005117531436
1201.0, 0.009821303826033006
1202.0, 0.016018937728800427
1203.0, 0.025915063950827318
1204.0, 0.015174865539971171
1205.0, 0.022948170779150144
1206.0, 0.018301257642280976
1207.0, 0.00828022495823285
1208.0, 0.006560084466578768
1209.0, 0.01920325528207561
1210.0, 0.005895808031570309
1211.0, 0.010986631655637907
1212.0, 0.015435126185138797
1213.0, 0.01661113669844859
1214.0, 0.01611899961488257
1215.0, 0.017665036790865177
1216.0, 0.014883929742852294
1217.0, 0.014431868760123989
1218.0, 0.013842566065227878
1219.0, 0.012482895385839816
1220.0, 0.010698803804934388
1221.0, 0.00955936825421298
1222.0, 0.007863383148387915
1223.0, 0.009954078572681945
1224.0, 0.008402906132022568
1225.0, 0.00311997352012966
1226.0, 3.5585288006869824e-05
1227.0, 3.98201268993326e-06
1228, 0.0
1229, 0.0
1230, 0.0
1231, 0.0
1232, 0.0
1233, 0.0
1234, 0.0
1235, 0.0
1236, 0.0
1237, 0.0
1238, 0.0
1239, 0.0
1240, 0.0
1241, 0.0
1242, 0.0
1243, 0.0
1244, 0.0
1245, 0.0
1246, 0.0
1247, 0.0
1248, 0.0
1249, 0.0
1250, 0.0
1251, 0.0
1252, 0.0
1253, 0.0
1254, 0.0
1255, 0.0
1256, 0.0
1257, 0.0
1258, 0.0
1259, 0.0
1260, 0.0
1261, 0.0
1262, 0.0
1263, 0.0
1264, 0.0
1265, 0.0
1266, 0.0
1267, 0.0
1268, 0.0
1269, 0.0
1270, 0.0
1271, 0.0
1272, 0.0
1273, 0.0
1274, 0.0
1275, 0.0
1276, 0.0
1277, 0.0
1278, 0.0
1279, 0.0
1280, 0.0
1281, 0.0
1282, 0.0
1283, 0.0
1284, 0.0
1285, 0.0
1286, 0.0
1287, 0.0
1288, 0.0
1289, 0.0
1290, 0.0
1291, 0.0
1292, 0.0
1293, 0.0
1294, 0.0
1295, 0.0
1296, 0.0
1297, 0.0
1298, 0.0
1299, 0.0
1300, 0.0
1301, 0.0
1302, 0.0
1303, 0.0
1304, 0.0
1305, 0.0
1306, 0.0
1307, 0.0
1308, 0.0
1309, 0.0
1310, 0.0
1311, 0.0
1312, 0.0
1313, 0.0
1314, 0.0
1315, 0.0
1316, 0.0
1317, 0.0
1318, 0.0
1319, 0.0
1320, 0.0
1321, 0.0
1322, 0.0
1323, 0.0
1324, 0.0
1325, 0.0
1326, 0.0
1327, 0.0
1328, 0.0
1329, 0.0
1330, 0.0
1331, 0.0
1332, 0.0
1333, 0.0
1334, 0.0
1335, 0.0
1336, 0.0
1337, 0.0
1338, 0.0
1339, 0.0
1340, 0.0
1341, 0.0
1342, 0.0
1343, 0.0
1344, 0.0
1345, 0.0
1346, 0.0
1347, 0.0
1348, 0.0
1349, 0.0
1350, 0.0
1351, 0.0
1352, 0.0
1353, 0.0
1354, 0.0
1355, 0.0
1356, 0.0
1357, 0.0
1358, 0.0
1359, 0.0
1360, 0.0
1361, 0.0
1362, 0.0
1363, 0.0
1364, 0.0
1365, 0.0
1366, 0.0
1367, 0.0
1368, 0.0
1369, 0.0
1370, 0.0
1371, 0.0
1372, 0.0
1373, 0.0
1374, 0.0
1375, 0.0
1376, 0.0
1377, 0.0
1378, 0.0
1379, 0.0
1380, 0.0
1381, 0.0
1382, 0.0
1383, 0.0
1384, 0.0
1385, 0.0
1386, 0.0
1387, 0.0
1388, 0.0
1389, 0.0
1390, 0.0
1391, 0.0
1392, 0.0
1393, 0.0
1394, 0.0
1395, 0.0
1396, 0.0
1397, 0.0
1398, 0.0
1399, 0.0
1400, 0.0
1401, 0.0
1402, 0.0
1403, 0.0
1404, 0.0
1405, 0.0
1406, 0.0
1407, 0.0
1408, 0.0
1409, 0.0
1410, 0.0
1411, 0.0
1412, 0.0
1413, 0.0
1414, 0.0
1415, 0.0
1416, 0.0
1417, 0.0
1418, 0.0
1419, 0.0
1420, 0.0
1421, 0.0
1422, 0.0
1423, 0.0
1424, 0.0
1425, 0.0
1426, 0.0
1427, 0.0
1428, 0.0
1429, 0.0
1430, 0.0
1431, 0.0
1432, 0.0
1433, 0.0
1434, 0.0
1435, 0.0
1436, 0.0
1437, 0.0
1438, 0.0
1439, 0.0
1440, 0.0
1441, 0.0
1442, 0.0
1443, 0.0
1444, 0.0
1445, 0.0
1446, 0.0
1447, 0.0
1448, 0.0
1449, 0.0
1450, 0.0
1451, 0.0
1452, 0.0
1453, 0.0
1454, 0.0
1455, 0.0
1456, 0.0
1457, 0.0
1458, 0.0
1459, 0.0
1460, 0.0
1461, 0.0
1462, 0.0
1463, 0.0
1464, 0.0
1465, 0.0
1466, 0.0
1467, 0.0
1468, 0.0
1469, 0.0
1470, 0.0
1471, 0.0
1472, 0.0
1473, 0.0
1474, 0.0
1475, 0.0
1476, 0.0
1477, 0.0
1478, 0.0
1479, 0.0
1480, 0.0
1481, 0.0
1482, 0.0
1483, 0.0
1484, 0.0
1485, 0.0
1486, 0.0
1487, 0.0
1488, 0.0
1489, 0.0
1490, 0.0
1491, 0.0
1492, 0.0
1493, 0.0
1494, 0.0
1495, 0.0
1496, 0.0
1497, 0.0
1498, 0.0
1499, 0.0
1500, 0.0
1501, 0.0
1502, 0.0
1503, 0.0
1504, 0.0
1505, 0.0
1506, 0.0
1507, 0.0
1508, 0.0
1509, 0.0
1510, 0.0
1511, 0.0
1512, 0.0
1513, 0.0
1514, 0.0
1515, 0.0
1516, 0.0
1517, 0.0
1518, 0.0
1519, 0.0
1520, 0.0
1521, 0.0
1522, 0.0
1523, 0.0
1524, 0.0
1525, 0.0
1526, 0.0
1527, 0.0
1528, 0.0
1529, 0.0
1530, 0.0
1531, 0.0
1532, 0.0
1533, 0.0
1534, 0.0
1535, 0.0
1536, 0.0
1537, 0.0
1538, 0.0
1539, 0.0
1540, 0.0
1541, 0.0
1542, 0.0
1543, 0.0
1544, 0.0
1545, 0.0
1546, 0.0
1547, 0.0
1548, 0.0
1549, 0.0
1550, 0.0
1551, 0.0
1552, 0.0
1553, 0.0
1554, 0.0
1555, 0.0
1556, 0.0
1557, 0.0
1558, 0.0
1559, 0.0
1560, 0.0
1561, 0.0
1562, 0.0
1563, 0.0
1564, 0.0
1565, 0.0
1566, 0.0
1567, 0.0
1568, 0.0
1569, 0.0
1570, 0.0
1571, 0.0
1572, 0.0
1573, 0.0
1574, 0.0
1575, 0.0
1576, 0.0
1577, 0.0
1578, 0.0
1579, 0.0
1580, 0.0
1581, 0.0
1582, 0.0
1583, 0.0
1584, 0.0
1585, 0.0
1586, 0.0
1587, 0.0
1588, 0.0
1589, 0.0
1590, 0.0
1591, 0.0
1592, 0.0
1593, 0.0
1594, 0.0
1595, 0.0
1596, 0.0
1597, 0.0
1598, 0.0
1599, 0.0
