30, 0.0
31, 0.0
32, 0.0
33, 0.0
34, 0.0
35, 0.0
36, 0.0
37, 0.0
38, 0.0
39, 0.0
40, 0.0
41, 0.0
42, 0.0
43, 0.0
44, 0.0
45, 0.0
46, 0.0
47, 0.0
48, 0.0
49, 0.0
50, 0.0
51, 0.0
52, 0.0
53, 0.0
54, 0.0
55, 0.0
56, 0.0
57, 0.0
58, 0.0
59, 0.0
60, 0.0
61, 0.0
62, 0.0
63, 0.0
64, 0.0
65, 0.0
66, 0.0
67, 0.0
68, 0.0
69, 0.0
70, 0.0
71, 0.0
72, 0.0
73, 0.0
74, 0.0
75, 0.0
76, 0.0
77, 0.0
78, 0.0
79, 0.0
80, 0.0
81, 0.0
82, 0.0
83, 0.0
84, 0.0
85, 0.0
86, 0.0
87, 0.0
88, 0.0
89, 0.0
90.0, 0.00015913923423571503
91.0, 0.0003172370479442626
92.0, 0.0030167254197065274
93.0, 0.007521034833204026
94.0, 0.00858707060026482
95.0, 0.008382362433309407
96.0, 0.009069885613080718
97.0, 0.01104728499337734
98.0, 0.013287193619598169
99.0, 0.015501602096749922
100.0, 0.01747479362640057
101.0, 0.01739021718857954
102.0, 0.013856278324446915
103.0, 0.008043187840932565
104.0, 0.0025008701856057314
105.0, 0.00034972902158712197
106.0, 0.0008067094185109888
107.0, 0.0006897093915551214
108.0, 0.0013738349541095164
109.0, 0.005499024692095024
110.0, 0.006792295060598227
111.0, 0.008156441303215894
112.0, 0.010340765713905447
113.0, 0.01313661659041331
114.0, 0.015573537773211823
115.0, 0.017792647494528503
116.0, 0.01963963605441307
117.0, 0.020918740656450642
118.0, 0.021416563030646846
119.0, 0.021036757785119126
120.0, 0.02149940095781455
121.0, 0.02260493997496367
122.0, 0.023045474402368853
123.0, 0.023769014758076173
124.0, 0.02585117923538594
125.0, 0.027734622267900546
126.0, 0.027747492799034924
127.0, 0.028061286601986063
128.0, 0.027952237173207533
129.0, 0.02884863671724747
130.0, 0.03111441906668218
131.0, 0.031799813859925585
132.0, 0.031621923879943684
133.0, 0.029805199889776025
134.0, 0.026120530144519982
135.0, 0.021524982828492946
136.0, 0.017014677526647037
137.0, 0.014590134131495548
138.0, 0.013355840187853995
139.0, 0.010946909773181294
140.0, 0.01013543870807006
141.0, 0.010201553954067364
142.0, 0.010076215947829972
143.0, 0.009551162863310475
144.0, 0.009877254752793503
145.0, 0.010956938826594573
146.0, 0.011211322155659495
147.0, 0.010637221957015067
148.0, 0.011411169328567112
149.0, 0.010832772974649489
150.0, 0.010361092145064844
151.0, 0.010384728430479558
152.0, 0.010165686330988903
153.0, 0.010081060828523229
154.0, 0.00978493403924741
155.0, 0.008984401032054787
156.0, 0.0077563032728406225
157.0, 0.008107395321662906
158.0, 0.00772710558721206
159.0, 0.008121930563840746
160.0, 0.010184879340358216
161.0, 0.01246195295799267
162.0, 0.015309755127165084
163.0, 0.01730390883430129
164.0, 0.018399575313580496
165.0, 0.019726586429453203
166.0, 0.020899185104480394
167.0, 0.022530613510271483
168.0, 0.02271441462078498
169.0, 0.020937398264993485
170.0, 0.022554165276997513
171.0, 0.023085207716869637
172.0, 0.02326840939738818
173.0, 0.024366738902397034
174.0, 0.026011435505914976
175.0, 0.02833531564694679
176.0, 0.03162290338755933
177.0, 0.03598063315320069
178.0, 0.04103273109093088
179.0, 0.04480728247153996
180.0, 0.047651203093040446
181.0, 0.0484135887107311
182.0, 0.046307635331515454
183.0, 0.04241943187210758
184.0, 0.036249641107514316
185.0, 0.029821842464103493
186.0, 0.024354254294079797
187.0, 0.019394535099261853
188.0, 0.014667952575324758
189.0, 0.010352605463192147
190.0, 0.007089199564760013
191.0, 0.005023473064841536
192.0, 0.0020760988272614683
193.0, 0.0011845374158281328
194.0, 0.0005555037715654325
195.0, 0.0012806846218062658
196.0, 0.0017237862372587772
197.0, 0.0007021498924211801
198.0, 0.00017717011186869382
199.0, 0.0005789825418514263
200.0, 0.0007994322518379098
201.0, 0.0002570475918143012
202.0, 0.0005695434095892422
203.0, 0.0012677370145649065
204.0, 0.00047264711956132935
205.0, 0.000953106673945265
206.0, 0.0007414451618074345
207.0, 0.0008795073362386388
208.0, 0.0016401787305270852
209.0, 0.001910230213161456
210.0, 0.0036134712487569626
211.0, 0.003906495618282673
212.0, 0.0034401867097333524
213.0, 0.003672386204428004
214.0, 0.003998002937088224
215.0, 0.004041903546562617
216.0, 0.004290170641388219
217.0, 0.004686126133722354
218.0, 0.004665987328709472
219.0, 0.005209586446236201
220.0, 0.006009399493955893
221.0, 0.007613959746805784
222.0, 0.010183870157161823
223.0, 0.01136522938037051
224.0, 0.012666214289655609
225.0, 0.013393020053405815
226.0, 0.013457279519459976
227.0, 0.013480280912784448
228.0, 0.011337988630365092
229.0, 0.00849829730848214
230.0, 0.006396779613465738
231.0, 0.00568283794934943
232.0, 0.005901314472276744
233.0, 0.0068363324369329495
234.0, 0.007951961706244131
235.0, 0.009277840705418103
236.0, 0.011055348489972418
237.0, 0.01125901797265069
238.0, 0.01118368582289466
239.0, 0.011550470417636035
240.0, 0.012374676174738369
241.0, 0.012993746349841052
242.0, 0.01457209183576624
243.0, 0.015765444371159208
244.0, 0.016443068470256315
245.0, 0.017598252416341727
246.0, 0.018600432252533876
247.0, 0.017833816026815694
248.0, 0.01565549097271793
249.0, 0.013047950999735634
250.0, 0.011432052531365311
251.0, 0.008424867987947138
252.0, 0.005484224130831498
253.0, 0.0035652262139491166
254.0, 0.002744852081557707
255.0, 0.002587684179946197
256.0, 0.0021622086296401925
257.0, 0.0021237985161432433
258.0, 0.0027070936703721344
259.0, 0.0030016716857328846
260.0, 0.004222888347491985
261.0, 0.0049996713987445415
262.0, 0.0056182217145103
263.0, 0.006661462327236735
264.0, 0.007611320229712673
265.0, 0.009227722606205625
266.0, 0.010510784563817273
267.0, 0.011550861424210673
268.0, 0.013413652395527624
269.0, 0.01574520093404908
270.0, 0.01773016655445695
271.0, 0.019458886582790925
272.0, 0.021172772321301204
273.0, 0.022685193201137897
274.0, 0.022733633825898176
275.0, 0.021278850931711762
276.0, 0.01969620808050923
277.0, 0.019600354261253266
278.0, 0.01965181782056203
279.0, 0.018801950553173165
280.0, 0.01860558940010621
281.0, 0.018988388298220856
282.0, 0.017584159940589785
283.0, 0.01623883216568927
284.0, 0.015861782843658894
285.0, 0.016132223868023533
286.0, 0.01650744073035112
287.0, 0.01682751952126484
288.0, 0.016378923437535057
289.0, 0.01564983875156613
290.0, 0.0150723378740427
291.0, 0.014696277976955968
292.0, 0.01404026607887325
293.0, 0.014168083748639908
294.0, 0.01389880282918335
295.0, 0.013453793836473696
296.0, 0.014661943163390886
297.0, 0.014806708253320588
298.0, 0.014258624771571105
299.0, 0.01353746778744749
300.0, 0.01301737552799685
301.0, 0.013226688835333003
302.0, 0.012858241588421197
303.0, 0.011951352452299885
304.0, 0.011125369573102839
305.0, 0.010991478230198722
306.0, 0.011375249548185501
307.0, 0.011050296963317437
308.0, 0.01011742933954592
309.0, 0.008873213219711257
310.0, 0.007515548204650331
311.0, 0.006969879578471514
312.0, 0.006288415272604167
313.0, 0.004837347924330218
314.0, 0.003004300222791963
315.0, 0.0021696745406018184
316.0, 0.001763675511357757
317.0, 0.0008118489023433621
318.0, 0.00033829950982229367
319.0, 0.0008576980138371715
320.0, 0.0004843367138620644
321.0, 0.0019187029007961866
322.0, 0.0019514480448876489
323.0, 0.00119475954835212
324.0, 0.0021121286618130094
325.0, 0.0020506655707955212
326.0, 0.0017574748087855032
327.0, 0.0015715665761566818
328.0, 0.0013934337305141502
329.0, 0.0008962696701351948
330.0, 0.000669348692845074
331.0, 0.00017351974388075044
332.0, 0.0006968644342483572
333.0, 0.0008892502910732545
334.0, 0.0027439027365536365
335.0, 0.004137444995167492
336.0, 0.005414103702809303
337.0, 0.006961564257526571
338.0, 0.008868958573269
339.0, 0.011025832421831293
340.0, 0.013080882155181094
341.0, 0.01491900728504575
342.0, 0.016533510189098367
343.0, 0.01818478860699553
344.0, 0.0206028301506995
345.0, 0.021811984880799714
346.0, 0.023861222610407736
347.0, 0.026635254650916883
348.0, 0.028117296334911432
349.0, 0.028583878734221867
350.0, 0.029099449214219378
351.0, 0.02919877100484249
352.0, 0.029525011113358614
353.0, 0.031069105770882597
354.0, 0.030851658713734208
355.0, 0.030769457453738897
356.0, 0.030961240257510785
357.0, 0.03131067811286189
358.0, 0.03208468463188369
359.0, 0.033748424264166084
360.0, 0.03535274312471089
361.0, 0.03633626669533691
362.0, 0.03665942709711267
363.0, 0.03623461293600981
364.0, 0.03311607096611995
365.0, 0.029258844642864622
366.0, 0.02512489481430612
367.0, 0.02052338947349941
368.0, 0.015272857752198235
369.0, 0.01123422494944094
370.0, 0.00882107057748693
371.0, 0.006778143993809265
372.0, 0.004437868410306139
373.0, 0.003810499725054222
374.0, 0.003999996921354934
375.0, 0.003955008751823981
376.0, 0.003397991073613116
377.0, 0.0029329717787336144
378.0, 0.0034672714363172138
379.0, 0.0025466980103590626
380.0, 0.0015952255684604354
381.0, 0.0011262452264312575
382.0, 0.00044704729382332266
383.0, 0.00029616552377590495
384.0, 0.0007823709307932246
385.0, 0.0009935654965085576
386.0, 0.0009290504567416262
387.0, 0.00038418844992795133
388.0, 0.0009174639568854735
389.0, 0.002374191946955451
390.0, 0.0037596920481625935
391.0, 0.00581075646078607
392.0, 0.009142919374698475
393.0, 0.013162274049996692
394.0, 0.015706037427640384
395.0, 0.01917614400126881
396.0, 0.023953228554226713
397.0, 0.029054006419201514
398.0, 0.033757761281327785
399.0, 0.039263741445456773
400.0, 0.04486667213810084
401.0, 0.05118889770380097
402.0, 0.05873134511484247
403.0, 0.0649757381867597
404.0, 0.0721817134403573
405.0, 0.0809215175032724
406.0, 0.0886525912074549
407.0, 0.09327583989726008
408.0, 0.09860660696150081
409.0, 0.10112453132515485
410.0, 0.10110506277807887
411.0, 0.09929100286713267
412.0, 0.09562713134964122
413.0, 0.0889565000180626
414.0, 0.08011533545349594
415.0, 0.07063283644650618
416.0, 0.06235619643191901
417.0, 0.05535707549482901
418.0, 0.04700573600215882
419.0, 0.040609193447799403
420.0, 0.034876563765493696
421.0, 0.028996096397992874
422.0, 0.023372713210812995
423.0, 0.01908024070787004
424.0, 0.01533293415737507
425.0, 0.012191423241603716
426.0, 0.010600046942471646
427.0, 0.010637978830690627
428.0, 0.01013734295324965
429.0, 0.010742213833845408
430.0, 0.01302096531335965
431.0, 0.015386628995916012
432.0, 0.017302797119836177
433.0, 0.020869978385275427
434.0, 0.0245496262611616
435.0, 0.028120264514773848
436.0, 0.03173800528337899
437.0, 0.03573323637168466
438.0, 0.040284306345582666
439.0, 0.04441473826027858
440.0, 0.05012619296667247
441.0, 0.056410926414483836
442.0, 0.06229662174600684
443.0, 0.06814427918640828
444.0, 0.07293634189538088
445.0, 0.07899287118561683
446.0, 0.08576792717807712
447.0, 0.09123666459198862
448.0, 0.09350494150392082
449.0, 0.09289165548008967
450.0, 0.08891754337193523
451.0, 0.08222330704907985
452.0, 0.07345247659805741
453.0, 0.06382482614237754
454.0, 0.05512303663750341
455.0, 0.04704064515767892
456.0, 0.041305399996742334
457.0, 0.03675707630574191
458.0, 0.03203197309890826
459.0, 0.029031956966259913
460.0, 0.02698376680988434
461.0, 0.024862913697332463
462.0, 0.02269379861547901
463.0, 0.021097338350029186
464.0, 0.02028230747749792
465.0, 0.019021823303070094
466.0, 0.01813687231390667
467.0, 0.017420729509755418
468.0, 0.016498631751911724
469.0, 0.015777790699564035
470.0, 0.01684971293066515
471.0, 0.016087750005214427
472.0, 0.014723179197090878
473.0, 0.014683854537170438
474.0, 0.01599485854962682
475.0, 0.01523639002100347
476.0, 0.017451779940811332
477.0, 0.018512161344641315
478.0, 0.018269507199097236
479.0, 0.018717949880896735
480.0, 0.017618145379110037
481.0, 0.019800255918205847
482.0, 0.02070393106359216
483.0, 0.01993617121285673
484.0, 0.019587500003908364
485.0, 0.020221150143951806
486.0, 0.019232909633050584
487.0, 0.019812956047347598
488.0, 0.019567416657193092
489.0, 0.017752245843990214
490.0, 0.017025399133469697
491.0, 0.01823951333089624
492.0, 0.017195938163502515
493.0, 0.015347368484282507
494.0, 0.014352976495039468
495.0, 0.013941366642782036
496.0, 0.012819224911753017
497.0, 0.011376919940645146
498.0, 0.010356273278378474
499.0, 0.008639336593772938
500.0, 0.006599726283273829
501.0, 0.0072489599749956295
502.0, 0.007318709593036089
503.0, 0.00512061122886698
504.0, 0.0036311712374982024
505.0, 0.003110946779909247
506.0, 0.001035689213194001
507.0, 0.00031538480392415374
508.0, 0.0010621957704251513
509.0, 0.0011843984225064072
510.0, 0.0006470425851906299
511.0, 0.0012215426767514291
512.0, 0.0016315939704330026
513.0, 0.0020186379053851854
514.0, 0.0020892487438935866
515.0, 0.002689650870285283
516.0, 0.003463288607827411
517.0, 0.0020819086463276164
518.0, 0.001637736580618368
519.0, 0.00042545658985824645
520.0, 0.0007188421592588025
521.0, 0.0011181982207933386
522.0, 0.0020111986995371414
523.0, 0.003383810790168354
524.0, 0.0031728430154138385
525.0, 0.005395070611400351
526.0, 0.007502360999819249
527.0, 0.0077757353993312215
528.0, 0.010227090932988313
529.0, 0.009076824487999091
530.0, 0.011139940800516371
531.0, 0.014084067005595818
532.0, 0.01591391731015702
533.0, 0.01761921223282858
534.0, 0.02096510366563328
535.0, 0.023745659718528184
536.0, 0.024905635002220688
537.0, 0.025862288634843324
538.0, 0.027546364675525254
539.0, 0.02870617352367578
540.0, 0.030983913164774748
541.0, 0.03194396980814753
542.0, 0.03271433975489315
543.0, 0.034060630854103095
544.0, 0.03555331509570959
545.0, 0.03793765702003261
546.0, 0.03958117115838076
547.0, 0.039901237022511714
548.0, 0.0412451236900858
549.0, 0.04405205995968932
550.0, 0.04472393422916246
551.0, 0.0471290957156249
552.0, 0.04901998614555566
553.0, 0.05015686687766614
554.0, 0.04925601647707485
555.0, 0.04495906793352178
556.0, 0.03949546210568873
557.0, 0.035078997841424576
558.0, 0.030401877368036203
559.0, 0.026683783134283427
560.0, 0.023813022430686948
561.0, 0.019971330962949434
562.0, 0.01984274016787895
563.0, 0.01894608805451961
564.0, 0.017904507309362307
565.0, 0.017009259704772434
566.0, 0.014914889425589129
567.0, 0.01075176309291211
568.0, 0.008025126342065429
569.0, 0.005424929173188899
570.0, 0.002662969699454398
571.0, 0.0003779660581694051
572.0, 0.0008105175051546522
573.0, 0.0007702578880265451
574.0, 0.0003747935513570849
575.0, 0.0012562485993946118
576.0, 0.0009854242523888851
577.0, 0.0003535769105882932
578.0, 0.0003343468602882971
579.0, 0.0023405041473694784
580.0, 0.005307684264633151
581.0, 0.007025589724368905
582.0, 0.00939953256748857
583.0, 0.014143844528310493
584.0, 0.01752418702235801
585.0, 0.022258980456276514
586.0, 0.027807985299554992
587.0, 0.0340365587999214
588.0, 0.04069577612983048
589.0, 0.047195580084259704
590.0, 0.05323635255953828
591.0, 0.060127984598454885
592.0, 0.06674424557501338
593.0, 0.07202942834917317
594.0, 0.0757869161882587
595.0, 0.07837763825216576
596.0, 0.07986750557925978
597.0, 0.07826303803832274
598.0, 0.0740211591213701
599.0, 0.0680272071514834
600.0, 0.06221569521747758
601.0, 0.05949885533820254
602.0, 0.058560513171270125
603.0, 0.05989766124825522
604.0, 0.06156266526641057
605.0, 0.06182926559625189
606.0, 0.06032748680018632
607.0, 0.05724616678321323
608.0, 0.050214854531738295
609.0, 0.04598642970403416
610.0, 0.043965387605688515
611.0, 0.0428767931893238
612.0, 0.04310355358781381
613.0, 0.04505666854274633
614.0, 0.04691184757146732
615.0, 0.04584105697161985
616.0, 0.04482577360646462
617.0, 0.046579355840044696
618.0, 0.049632550053855196
619.0, 0.05063271046738434
620.0, 0.052174171825106586
621.0, 0.05471795842692741
622.0, 0.0566400765620032
623.0, 0.05710134725582882
624.0, 0.056540704180338325
625.0, 0.05286507522981003
626.0, 0.04687590999793458
627.0, 0.040738576797985954
628.0, 0.03503042435679136
629.0, 0.02988422506127628
630.0, 0.025585484105325157
631.0, 0.020798994441013813
632.0, 0.018451584658413806
633.0, 0.015816546650702003
634.0, 0.012420070807451035
635.0, 0.009956122191202482
636.0, 0.009656813899132219
637.0, 0.007840572787868443
638.0, 0.006238297879482705
639.0, 0.0055331831247887745
640.0, 0.005115769049468808
641.0, 0.0050901848944245745
642.0, 0.0058159620710334725
643.0, 0.0035623834285281116
644.0, 0.003924197052216485
645.0, 0.004839482054517294
646.0, 0.004814078307732805
647.0, 0.0046584923342475135
648.0, 0.005220236664442452
649.0, 0.003992819646219592
650.0, 0.004489103638158485
651.0, 0.004677247331154834
652.0, 0.004895924579599996
653.0, 0.005477968310561839
654.0, 0.005036061720762046
655.0, 0.004839808386499505
656.0, 0.005573746225611005
657.0, 0.0050239379733391844
658.0, 0.0045163210656943825
659.0, 0.0050766767339775545
660.0, 0.005090682954747889
661.0, 0.004216202633805646
662.0, 0.0049472604237713776
663.0, 0.005192578343835454
664.0, 0.005577337562690775
665.0, 0.00585656460098149
666.0, 0.004290659575671879
667.0, 0.004708055531201784
668.0, 0.005359793956351326
669.0, 0.00466547157687299
670.0, 0.003192612674131428
671.0, 0.0025934092711759607
672.0, 0.0032557002192997635
673.0, 0.0030041329791223813
674.0, 0.002488361563974364
675.0, 0.002482318361008028
676.0, 0.0011457628398175302
677.0, 0.0005092103332871612
678.0, 0.00031762500032240143
679.0, 0.001423888960287948
680.0, 0.0003208326903758261
681.0, 0.0006589478219683376
682.0, 0.0011876458826638764
683.0, 0.002207668397847276
684.0, 0.0010523656835479999
685.0, 0.0010255500493493227
686.0, 0.00023356307316231846
687.0, 0.0003099315126943153
688.0, 0.0002360563456480487
689.0, 8.220493341742361e-05
690.0, 0.0002014487577316135
691.0, 0.0011236883721697506
692.0, 0.0010293329423640796
693.0, 0.00023704149552708522
694.0, 0.0001556727724246107
695.0, 0.00012584591825620564
696.0, 0.0008164102087728522
697.0, 0.0015939981753316076
698.0, 0.001550907151438741
699.0, 0.0014756866784676338
700.0, 0.001793871716033585
701.0, 0.0014441561348134315
702.0, 0.00041579774925600807
703.0, 0.00036426725779074517
704.0, 0.0029656256738578163
705.0, 0.002741144853833724
706.0, 0.003408969999786477
707.0, 0.004094541379336758
708.0, 0.004005659393909253
709.0, 0.004454262199267157
710.0, 0.006976003410832489
711.0, 0.007372822804818665
712.0, 0.006461486798782942
713.0, 0.005577392698285487
714.0, 0.005459353780839897
715.0, 0.006491675997626072
716.0, 0.008425342575252208
717.0, 0.008892487539928006
718.0, 0.00763675657755597
719.0, 0.007719864965047023
720.0, 0.00856762794342524
721.0, 0.0095894967395388
722.0, 0.010987583945079689
723.0, 0.011421038871769573
724.0, 0.011067464392920104
725.0, 0.011878379441693208
726.0, 0.011609311995951112
727.0, 0.010497899753520359
728.0, 0.010548746669384754
729.0, 0.011201129290285711
730.0, 0.0089626759747946
731.0, 0.007942404112795742
732.0, 0.00839568185736447
733.0, 0.007381947964191438
734.0, 0.005945063031661704
735.0, 0.006808919086392013
736.0, 0.00523807608421631
737.0, 0.0060118516090294965
738.0, 0.0063303307193984
739.0, 0.005526704519822718
740.0, 0.005446425553936379
741.0, 0.005872721834299083
742.0, 0.004739923761376516
743.0, 0.00784262927024581
744.0, 0.007882228619155947
745.0, 0.00767540862391071
746.0, 0.008657874426572176
747.0, 0.00971125822599569
748.0, 0.009976312504998041
749.0, 0.012117575674677123
750.0, 0.013590869372855809
751.0, 0.01530039988629387
752.0, 0.015734061946830132
753.0, 0.016091883678230702
754.0, 0.01744419934114175
755.0, 0.018134604249395288
756.0, 0.018519821721981005
757.0, 0.018627004539651795
758.0, 0.018522629349928342
759.0, 0.01836577751286391
760.0, 0.01786108528967633
761.0, 0.017203410823425462
762.0, 0.017854855862012034
763.0, 0.017548051693872295
764.0, 0.01671929181557166
765.0, 0.015571686051898877
766.0, 0.013637828676642736
767.0, 0.012075915190339449
768.0, 0.01218585944831585
769.0, 0.010943316481147937
770.0, 0.009667183947489322
771.0, 0.009483728911618422
772.0, 0.009799552962172112
773.0, 0.009523329017767156
774.0, 0.008467541758537483
775.0, 0.007648132407134284
776.0, 0.008581268483308356
777.0, 0.00899790615712773
778.0, 0.009232096483106132
779.0, 0.007987609356792994
780.0, 0.00654875287844809
781.0, 0.0064748319958829615
782.0, 0.006213084273036092
783.0, 0.006818586968974544
784.0, 0.006332141228780677
785.0, 0.006946723921593039
786.0, 0.006879002321522505
787.0, 0.005091464216762511
788.0, 0.003572296462251654
789.0, 0.004220114021353401
790.0, 0.0037249936758995427
791.0, 0.0031400758427392863
792.0, 0.002764489061643982
793.0, 0.0023497739621012735
794.0, 0.001560587406393829
795.0, 0.000840675521240851
796.0, 0.001349350431187665
797.0, 0.0014939104848319634
798.0, 0.0002824796756356638
799.0, 0.0004989077165174191
800.0, 0.0011168811120369875
801.0, 0.0002316336893750184
802.0, 0.0004708282166527364
803.0, 0.00043477596885432916
804.0, 0.0012236143364048554
805.0, 0.0005438939780249332
806.0, 0.001069398320271436
807.0, 0.0010148537217248446
808.0, 0.001175527594082496
809.0, 0.0016601816558977568
810.0, 0.0032089298691859265
811.0, 0.003360877048819883
812.0, 0.0006524603776310802
813.0, 0.0003418461836283578
814.0, 0.00013572700907729483
815.0, 0.00019012646125294232
816.0, 0.0010812476901545698
817.0, 0.0007642148942832014
818.0, 0.0023059870586458527
819.0, 0.0026530682153683223
820.0, 0.002031493280614129
821.0, 0.0020878853009807775
822.0, 0.0019529114349694436
823.0, 0.0008966952624832108
824.0, 0.002541781624810881
825.0, 0.0014351666783467918
826.0, 0.001423199084267343
827.0, 0.0006606015511873167
828.0, 0.00032236933665955736
829.0, 0.0003068083327226678
830.0, 0.0009012948558213563
831.0, 0.0012679451480867808
832.0, 0.0011982792520194429
833.0, 0.0005064846335293477
834.0, 0.00039362022049943795
835.0, 0.00026275722097276474
836.0, 0.0005794132784140158
837.0, 0.0005835537957600594
838.0, 0.000535918708865106
839.0, 0.00017945353876498737
840.0, 0.0014803647893491712
841.0, 0.0014474551668125508
842.0, 0.0011488131183646538
843.0, 0.0016318478111796485
844.0, 0.0023408916940031894
845.0, 0.0021049475908422742
846.0, 0.0020812908569642673
847.0, 0.002157030592345472
848.0, 0.0025364895400675326
849.0, 0.002545738387212122
850.0, 0.0018494618096311316
851.0, 0.001679252430293564
852.0, 0.003148316897036638
853.0, 0.0010570539185603901
854.0, 0.0018359485739645877
855.0, 0.0020677254042287254
856.0, 0.0033775706067392997
857.0, 0.004122019958814044
858.0, 0.0031058139304537147
859.0, 0.0031289333860604917
860.0, 0.00469246463530727
861.0, 0.004933241229697942
862.0, 0.004196096371520723
863.0, 0.004055583712676849
864.0, 0.0035425088782805986
865.0, 0.0036007664772836345
866.0, 0.004673880046575306
867.0, 0.004033520603348464
868.0, 0.0036340749443685987
869.0, 0.004067152581115412
870.0, 0.003556505494396442
871.0, 0.003305472387351777
872.0, 0.0040877784227847614
873.0, 0.004664496955299672
874.0, 0.004180847813179264
875.0, 0.004515552030153473
876.0, 0.004636812073209484
877.0, 0.003895720699577999
878.0, 0.004851650351026272
879.0, 0.004364660235053262
880.0, 0.0035386280981732792
881.0, 0.00461071186896309
882.0, 0.003727266010772166
883.0, 0.0037697807955983853
884.0, 0.004143753751160212
885.0, 0.004399892054602046
886.0, 0.004107212405188401
887.0, 0.0035648346893157536
888.0, 0.003406113141309884
889.0, 0.003650401076988468
890.0, 0.003936441578742689
891.0, 0.0053394211136694025
892.0, 0.003242806932861709
893.0, 0.003989859950766737
894.0, 0.005429009258546291
895.0, 0.004905969392295663
896.0, 0.003369646494701968
897.0, 0.002585705491256334
898.0, 0.0024389423300563017
899.0, 0.0018260330147064146
900.0, 0.003757949453783052
901.0, 0.003539511733659633
902.0, 0.001638820802905716
903.0, 0.000779894337695419
904.0, 0.0010046076666878334
905.0, 0.001084124210796926
906.0, 0.0007734188089637365
907.0, 0.0010128170793514057
908.0, 0.0015395658354007758
909.0, 0.0018925803136241133
910.0, 0.0008418472174558212
911.0, 0.000501223507155016
912.0, 0.0012566402957161112
913.0, 0.0001422239635051307
914.0, 0.00012119352347884464
915.0, 0.0007794945077277821
916.0, 0.0003973115219624645
917.0, 0.0010207009641459268
918.0, 0.001477183442311876
919.0, 0.0015848225186831455
920.0, 0.0008334000225232414
921.0, 0.0010135705525932672
922.0, 0.0019109537580983193
923.0, 0.0007658469370617273
924.0, 0.00021422825118526476
925.0, 0.0013202431182531456
926.0, 0.0016375782005922713
927.0, 0.0009087470288532111
928.0, 0.001176796996384894
929.0, 0.00018731070135131095
930.0, 0.0003371218081138217
931.0, 0.0005265376958558369
932.0, 0.0005232533375959231
933.0, 0.001165079200196407
934.0, 0.0023410657722984255
935.0, 0.0029292807510797707
936.0, 0.003037109464535849
937.0, 0.005116092848339125
938.0, 0.00557662847926332
939.0, 0.0083144754165241
940.0, 0.008786885104908255
941.0, 0.011199907421116373
942.0, 0.01549848415145199
943.0, 0.018552643862553283
944.0, 0.022212893985356915
945.0, 0.029846271654690778
946.0, 0.03889118815454881
947.0, 0.051925280187130336
948.0, 0.0705440796018921
949.0, 0.09565242448261885
950.0, 0.12643038661385378
951.0, 0.1615581878152679
952.0, 0.2023819287756902
953.0, 0.25505219297118004
954.0, 0.32067442069272356
955.0, 0.4073929896233139
956.0, 0.5161788796924385
957.0, 0.650245933222857
958.0, 0.802187313243195
959.0, 0.9287590714454175
960.0, 0.990992976516489
961.0, 0.9796790920601908
962.0, 0.8398888565998035
963.0, 0.5634230016238824
964.0, 0.35761598975736586
965.0, 0.26049326369353565
966.0, 0.23171596146328946
967.0, 0.23364108890205684
968.0, 0.25230454639945693
969.0, 0.2833907991062975
970.0, 0.33115035495701434
971.0, 0.4038777397935155
972.0, 0.4972447198355644
973.0, 0.6064810415349361
974.0, 0.7346329731864155
975.0, 0.871446761676183
976.0, 0.9379676537179278
977.0, 0.8259871013503612
978.0, 0.5749202123709923
979.0, 0.3621133433099298
980.0, 0.23742189342920944
981.0, 0.175709678567387
982.0, 0.14574683633664515
983.0, 0.13097766348258136
984.0, 0.1201397603153273
985.0, 0.10839502515177682
986.0, 0.09738456665428862
987.0, 0.08928688367453103
988.0, 0.07815636835205982
989.0, 0.06525925181290185
990.0, 0.05308391910142743
991.0, 0.04425662483867805
992.0, 0.03917428696479231
993.0, 0.03615525023252652
994.0, 0.03300680139161279
995.0, 0.0292962719171157
996.0, 0.027204521941728906
997.0, 0.026375767973141676
998.0, 0.026044432799357774
999.0, 0.02501462580087784
1000.0, 0.02561373093715189
1001.0, 0.02473424167762277
1002.0, 0.02242779921610644
1003.0, 0.023435389435400748
1004.0, 0.023186832854067873
1005.0, 0.022899001655184464
1006.0, 0.02334482326854202
1007.0, 0.024161090155834227
1008.0, 0.025375398832019974
1009.0, 0.027157795246293043
1010.0, 0.028729755462936588
1011.0, 0.030252798834135602
1012.0, 0.032561421909090595
1013.0, 0.03464721539650693
1014.0, 0.03993395083856154
1015.0, 0.04278006516386966
1016.0, 0.04678664689458746
1017.0, 0.051971121345594354
1018.0, 0.0582217973828512
1019.0, 0.059313073583718574
1020.0, 0.05199041269385399
1021.0, 0.0446917931086318
1022.0, 0.03966889864386648
1023.0, 0.03612587189463566
1024.0, 0.03854084957609181
1025.0, 0.04296598560635353
1026.0, 0.047594881462070804
1027.0, 0.051352691254245304
1028.0, 0.05329877512094279
1029.0, 0.053507843910922864
1030.0, 0.05318055794512721
1031.0, 0.054396755698004284
1032.0, 0.05770310049159847
1033.0, 0.05663668343915021
1034.0, 0.04911779288190422
1035.0, 0.03430603841413569
1036.0, 0.02364987289164952
1037.0, 0.01777737561312102
1038.0, 0.012618368390421682
1039.0, 0.01112545061647657
1040.0, 0.011063962085121823
1041.0, 0.011679528687873907
1042.0, 0.01237108950549556
1043.0, 0.013201739872453115
1044.0, 0.015592129827143997
1045.0, 0.019124041329990453
1046.0, 0.022800744441401143
1047.0, 0.0261953313083839
1048.0, 0.02721992079433826
1049.0, 0.023064117293891694
1050.0, 0.015949396255203887
1051.0, 0.008258211714376046
1052.0, 0.0031599292058473146
1053.0, 0.0009622558583147915
1054.0, 0.0010217465872262882
1055.0, 0.0018993713495824146
1056.0, 0.001062559907884196
1057.0, 0.00041212075626844796
1058.0, 0.001148554314922624
1059.0, 0.0013316488859842
1060.0, 0.0004210829110991437
1061.0, 0.002482381186542029
1062.0, 0.002068809111962155
1063.0, 0.0006891519549147674
1064.0, 0.0003323520198735665
1065.0, 0.0021505827573030014
1066.0, 0.004831310108405464
1067.0, 0.007303875192511949
1068.0, 0.011807238651861443
1069.0, 0.016383466909610775
1070.0, 0.018782527054775736
1071.0, 0.01878268623575058
1072.0, 0.014937540986844102
1073.0, 0.012806306028000538
1074.0, 0.015665943534835594
1075.0, 0.020336325659133195
1076.0, 0.026047106945074467
1077.0, 0.03448699019310088
1078.0, 0.04152588415625479
1079.0, 0.05278871609155823
1080.0, 0.06618143938903644
1081.0, 0.08325231382014665
1082.0, 0.10191491760308101
1083.0, 0.120795012884461
1084.0, 0.12587142250945896
1085.0, 0.10697428920314941
1086.0, 0.07391548677022383
1087.0, 0.04481840897180873
1088.0, 0.02560220752732222
1089.0, 0.012719494997430676
1090.0, 0.00731968226101307
1091.0, 0.0030871872142072144
1092.0, 0.0005287637776636499
1093.0, 0.0006960482132333416
1094.0, 0.0022599808752502464
1095.0, 0.0034163511370682146
1096.0, 0.0035060904790516173
1097.0, 0.003472388358079181
1098.0, 0.0006926870730364378
1099.0, 0.00016031710577640547
1100.0, 0.0002918781733443673
1101.0, 0.0017757653939263999
1102.0, 0.0022152206393485797
1103.0, 0.003253587489449454
1104.0, 0.005029880488075917
1105.0, 0.006797478886646788
1106.0, 0.0069709292499760475
1107.0, 0.005517638238953447
1108.0, 0.0072511780612981806
1109.0, 0.008384890735119156
1110.0, 0.009908558386578723
1111.0, 0.010325817128474994
1112.0, 0.00826544420102486
1113.0, 0.006788144645067845
1114.0, 0.006544161543177463
1115.0, 0.004823959334735784
1116.0, 0.0016135499745084797
1117.0, 0.0004398044944343244
1118.0, 0.0011704695531811978
1119.0, 0.0003524658511548822
1120.0, 0.0004967225781168855
1121.0, 0.004790222755865309
1122.0, 0.004033709616434183
1123.0, 0.0009226028063762925
1124.0, 0.0005718883534117498
1125.0, 0.0007202396833124302
1126.0, 0.00034873505803891366
1127.0, 0.0010650945318567999
1128.0, 0.0024976291904276627
1129.0, 0.0033809376498223215
1130.0, 0.003160515304877369
1131.0, 0.00586173641790412
1132.0, 0.007113052416209218
1133.0, 0.008010144951942537
1134.0, 0.00732242731545137
1135.0, 0.005938268393148068
1136.0, 0.0039149875387699705
1137.0, 0.002316778486746885
1138.0, 0.0025470036201764934
1139.0, 0.0018882255777601343
1140.0, 9.467754384334316e-05
1141.0, 0.0004713207658799022
1142.0, 0.0020650549757262686
1143.0, 0.0014957569852475185
1144.0, 0.0008263380655384326
1145.0, 0.00033153410805927277
1146.0, 0.0007438998063705703
1147.0, 0.0011025595810313993
1148.0, 0.0013656831862245602
1149.0, 0.0021981523983329115
1150.0, 0.0020251963475607536
1151.0, 0.0029121309161332823
1152.0, 0.0036912398425080193
1153.0, 0.002640962198583482
1154.0, 0.002669943372710177
1155.0, 0.0030193681767474168
1156.0, 0.003680490599424115
1157.0, 0.00293531291922418
1158.0, 0.002245824662780934
1159.0, 0.0028143353271767335
1160.0, 0.003117498248265085
1161.0, 0.0030892001383857797
1162.0, 0.0027494370022187746
1163.0, 0.0031624491560863143
1164.0, 0.0027774916706065655
1165.0, 0.0040466632110275885
1166.0, 0.005085735536660276
1167.0, 0.005456476490963442
1168.0, 0.005473302117628626
1169.0, 0.004723403983448719
1170.0, 0.004611592756098353
1171.0, 0.005937566049795757
1172.0, 0.006273688740986676
1173.0, 0.005625963402956795
1174.0, 0.005681212846498035
1175.0, 0.006021670854959489
1176.0, 0.007443065388923914
1177.0, 0.006011787966042167
1178.0, 0.005774949869582586
1179.0, 0.006396307500107352
1180.0, 0.006602219034026507
1181.0, 0.007611025045593923
1182.0, 0.007859683137045362
1183.0, 0.006258966159974225
1184.0, 0.00676732870710736
1185.0, 0.007793042378196507
1186.0, 0.008356776408024902
1187.0, 0.008096565557257065
1188.0, 0.00861070423395575
1189.0, 0.00683140527126289
1190.0, 0.006881577021044463
1191.0, 0.007585846746188831
1192.0, 0.008142469041459727
1193.0, 0.008246658308478044
1194.0, 0.007935438850789836
1195.0, 0.007771650458372221
1196.0, 0.006718817438877958
1197.0, 0.006333342592050991
1198.0, 0.0066901272031175355
1199.0, 0.004645309550804359
1200.0, 0.006506576731302902
1201.0, 0.00525223208740298
1202.0, 0.005331318268270778
1203.0, 0.007257724677687457
1204.0, 0.006795987504381146
1205.0, 0.005249852330610789
1206.0, 0.004980532397361573
1207.0, 0.004509088438241206
1208.0, 0.00388651675023285
1209.0, 0.004125736402932607
1210.0, 0.005085275797898661
1211.0, 0.004371189097301706
1212.0, 0.005595965405455329
1213.0, 0.00486851379555681
1214.0, 0.004954248331846124
1215.0, 0.004785648624433653
1216.0, 0.00489790336257705
1217.0, 0.0045296931808182835
1218.0, 0.0037876734557189917
1219.0, 0.004354942054684817
1220.0, 0.005178597864680428
1221.0, 0.005170989292239396
1222.0, 0.0055923958709138384
1223.0, 0.005525180262441877
1224.0, 0.0045867966813469795
1225.0, 0.003544499246444902
1226.0, 0.0037630769720481357
1227.0, 0.004063086899631714
1228.0, 0.003964285865909863
1229.0, 0.00265146218339014
1230.0, 0.0017993000472901982
1231.0, 0.002591151245894828
1232.0, 0.0029880867411582485
1233.0, 0.002702752689464213
1234.0, 0.004092513486476329
1235.0, 0.003503716958717899
1236.0, 0.0024941815181451187
1237.0, 0.0021940701895478945
1238.0, 0.002095164665862181
1239.0, 0.0030475354515234095
1240.0, 0.002526402614350906
1241.0, 0.003229991286964405
1242.0, 0.003150196989872029
1243.0, 0.002724901631452222
1244.0, 0.0027626773153208288
1245.0, 0.0020791583527505764
1246.0, 0.002097937396416135
1247.0, 0.0022745052327621607
1248.0, 0.003421012692379433
1249.0, 0.002696985443680618
1250.0, 0.0029875685758544023
1251.0, 0.0025027089483672838
1252.0, 0.0026986211308247733
1253.0, 0.002582073531245529
1254.0, 0.001576424868456267
1255.0, 0.00016381527727152577
1256.0, 0.00048007767143432576
1257.0, 0.0002848563013757324
1258.0, 0.001175326293061049
1259.0, 0.0014159781231466635
1260.0, 0.0009444231859348941
1261.0, 0.001058309345211001
1262.0, 0.0014626028979711247
1263.0, 0.0008664164873973504
1264.0, 0.0009119397452480879
1265.0, 0.0002098609129637758
1266.0, 0.00025364459164074055
1267.0, 0.001025647741764779
1268.0, 0.0011123587572010388
1269.0, 0.00017160106664324104
1270.0, 0.0005623930618721719
1271.0, 0.00054027051015751
1272.0, 0.0008811251026395158
1273.0, 0.00031600283084475613
1274.0, 0.0008166509052938508
1275.0, 0.0017146464630321758
1276.0, 0.0007884261616478987
1277.0, 0.0006501973131627337
1278.0, 0.0010446575051265123
1279.0, 0.0008047595179767768
1280.0, 0.0015561046020933517
1281.0, 0.0019260983368956464
1282.0, 0.0005037688242909233
1283.0, 0.0006677689543050794
1284.0, 0.0011418008961537923
1285.0, 0.000781194696551465
1286.0, 0.0008408157215875592
1287.0, 0.0010561576607915318
1288.0, 0.0005924135360005782
1289.0, 0.0003347102042046306
1290.0, 0.0005296464708155008
1291.0, 4.471316854917651e-05
1292.0, 0.0005677120414409963
1293.0, 0.0001647647866620763
1294.0, 0.0005858414137237714
1295.0, 0.0013315609631389476
1296.0, 0.0008095707824579748
1297.0, 0.0013106151794714783
1298.0, 0.0012874004813307129
1299.0, 0.0012294020709249572
1300.0, 0.0008040195460377437
1301.0, 8.003352348377876e-05
1302, 0.0
1303, 0.0
1304, 0.0
1305, 0.0
1306, 0.0
1307, 0.0
1308, 0.0
1309, 0.0
1310, 0.0
1311, 0.0
1312, 0.0
1313, 0.0
1314, 0.0
1315, 0.0
1316, 0.0
1317, 0.0
1318, 0.0
1319, 0.0
1320, 0.0
1321, 0.0
1322, 0.0
1323, 0.0
1324, 0.0
1325, 0.0
1326, 0.0
1327, 0.0
1328, 0.0
1329, 0.0
1330, 0.0
1331, 0.0
1332, 0.0
1333, 0.0
1334, 0.0
1335, 0.0
1336, 0.0
1337, 0.0
1338, 0.0
1339, 0.0
1340, 0.0
1341, 0.0
1342, 0.0
1343, 0.0
1344, 0.0
1345, 0.0
1346, 0.0
1347, 0.0
1348, 0.0
1349, 0.0
1350, 0.0
1351, 0.0
1352, 0.0
1353, 0.0
1354, 0.0
1355, 0.0
1356, 0.0
1357, 0.0
1358, 0.0
1359, 0.0
1360, 0.0
1361, 0.0
1362, 0.0
1363, 0.0
1364, 0.0
1365, 0.0
1366, 0.0
1367, 0.0
1368, 0.0
1369, 0.0
1370, 0.0
1371, 0.0
1372, 0.0
1373, 0.0
1374, 0.0
1375, 0.0
1376, 0.0
1377, 0.0
1378, 0.0
1379, 0.0
1380, 0.0
1381, 0.0
1382, 0.0
1383, 0.0
1384, 0.0
1385, 0.0
1386, 0.0
1387, 0.0
1388, 0.0
1389, 0.0
1390, 0.0
1391, 0.0
1392, 0.0
1393, 0.0
1394, 0.0
1395, 0.0
1396, 0.0
1397, 0.0
1398, 0.0
1399, 0.0
1400, 0.0
1401, 0.0
1402, 0.0
1403, 0.0
1404, 0.0
1405, 0.0
1406, 0.0
1407, 0.0
1408, 0.0
1409, 0.0
1410, 0.0
1411, 0.0
1412, 0.0
1413, 0.0
1414, 0.0
1415, 0.0
1416, 0.0
1417, 0.0
1418, 0.0
1419, 0.0
1420, 0.0
1421, 0.0
1422, 0.0
1423, 0.0
1424, 0.0
1425, 0.0
1426, 0.0
1427, 0.0
1428, 0.0
1429, 0.0
1430, 0.0
1431, 0.0
1432, 0.0
1433, 0.0
1434, 0.0
1435, 0.0
1436, 0.0
1437, 0.0
1438, 0.0
1439, 0.0
1440, 0.0
1441, 0.0
1442, 0.0
1443, 0.0
1444, 0.0
1445, 0.0
1446, 0.0
1447, 0.0
1448, 0.0
1449, 0.0
1450, 0.0
1451, 0.0
1452, 0.0
1453, 0.0
1454, 0.0
1455, 0.0
1456, 0.0
1457, 0.0
1458, 0.0
1459, 0.0
1460, 0.0
1461, 0.0
1462, 0.0
1463, 0.0
1464, 0.0
1465, 0.0
1466, 0.0
1467, 0.0
1468, 0.0
1469, 0.0
1470, 0.0
1471, 0.0
1472, 0.0
1473, 0.0
1474, 0.0
1475, 0.0
1476, 0.0
1477, 0.0
1478, 0.0
1479, 0.0
1480, 0.0
1481, 0.0
1482, 0.0
1483, 0.0
1484, 0.0
1485, 0.0
1486, 0.0
1487, 0.0
1488, 0.0
1489, 0.0
1490, 0.0
1491, 0.0
1492, 0.0
1493, 0.0
1494, 0.0
1495, 0.0
1496, 0.0
1497, 0.0
1498, 0.0
1499, 0.0
1500, 0.0
1501, 0.0
1502, 0.0
1503, 0.0
1504, 0.0
1505, 0.0
1506, 0.0
1507, 0.0
1508, 0.0
1509, 0.0
1510, 0.0
1511, 0.0
1512, 0.0
1513, 0.0
1514, 0.0
1515, 0.0
1516, 0.0
1517, 0.0
1518, 0.0
1519, 0.0
1520, 0.0
1521, 0.0
1522, 0.0
1523, 0.0
1524, 0.0
1525, 0.0
1526, 0.0
1527, 0.0
1528, 0.0
1529, 0.0
1530, 0.0
1531, 0.0
1532, 0.0
1533, 0.0
1534, 0.0
1535, 0.0
1536, 0.0
1537, 0.0
1538, 0.0
1539, 0.0
1540, 0.0
1541, 0.0
1542, 0.0
1543, 0.0
1544, 0.0
1545, 0.0
1546, 0.0
1547, 0.0
1548, 0.0
1549, 0.0
1550, 0.0
1551, 0.0
1552, 0.0
1553, 0.0
1554, 0.0
1555, 0.0
1556, 0.0
1557, 0.0
1558, 0.0
1559, 0.0
1560, 0.0
1561, 0.0
1562, 0.0
1563, 0.0
1564, 0.0
1565, 0.0
1566, 0.0
1567, 0.0
1568, 0.0
1569, 0.0
1570, 0.0
1571, 0.0
1572, 0.0
1573, 0.0
1574, 0.0
1575, 0.0
1576, 0.0
1577, 0.0
1578, 0.0
1579, 0.0
1580, 0.0
1581, 0.0
1582, 0.0
1583, 0.0
1584, 0.0
1585, 0.0
1586, 0.0
1587, 0.0
1588, 0.0
1589, 0.0
1590, 0.0
1591, 0.0
1592, 0.0
1593, 0.0
1594, 0.0
1595, 0.0
1596, 0.0
1597, 0.0
1598, 0.0
1599, 0.0
