30, 0.0
31, 0.0
32, 0.0
33, 0.0
34, 0.0
35, 0.0
36, 0.0
37, 0.0
38, 0.0
39, 0.0
40, 0.0
41, 0.0
42, 0.0
43, 0.0
44, 0.0
45, 0.0
46, 0.0
47, 0.0
48, 0.0
49, 0.0
50, 0.0
51, 0.0
52, 0.0
53, 0.0
54, 0.0
55, 0.0
56, 0.0
57, 0.0
58, 0.0
59, 0.0
60, 0.0
61, 0.0
62, 0.0
63, 0.0
64, 0.0
65, 0.0
66, 0.0
67, 0.0
68, 0.0
69, 0.0
70, 0.0
71, 0.0
72, 0.0
73, 0.0
74, 0.0
75, 0.0
76, 0.0
77, 0.0
78, 0.0
79, 0.0
80, 0.0
81, 0.0
82, 0.0
83, 0.0
84, 0.0
85, 0.0
86, 0.0
87, 0.0
88, 0.0
89, 0.0
90, 0.0
91, 0.0
92, 0.0
93, 0.0
94, 0.0
95, 0.0
96, 0.0
97, 0.0
98, 0.0
99, 0.0
100, 0.0
101, 0.0
102, 0.0
103, 0.0
104, 0.0
105, 0.0
106, 0.0
107, 0.0
108, 0.0
109, 0.0
110, 0.0
111, 0.0
112, 0.0
113, 0.0
114, 0.0
115, 0.0
116, 0.0
117, 0.0
118, 0.0
119, 0.0
120, 0.0
121, 0.0
122, 0.0
123, 0.0
124, 0.0
125, 0.0
126, 0.0
127, 0.0
128, 0.0
129, 0.0
130, 0.0
131, 0.0
132, 0.0
133, 0.0
134, 0.0
135, 0.0
136, 0.0
137, 0.0
138, 0.0
139, 0.0
140, 0.0
141, 0.0
142, 0.0
143, 0.0
144, 0.0
145, 0.0
146, 0.0
147, 0.0
148, 0.0
149, 0.0
150, 0.0
151, 0.0
152, 0.0
153, 0.0
154, 0.0
155, 0.0
156, 0.0
157, 0.0
158, 0.0
159, 0.0
160, 0.0
161, 0.0
162, 0.0
163, 0.0
164, 0.0
165.0, 8.41388530567055e-05
166.0, 0.000401919278948436
167.0, 0.0012572974298947792
168.0, 0.003993746881014896
169.0, 0.010797988483970662
170.0, 0.012053686925606226
171.0, 0.03765748724579386
172.0, 0.06243508189167682
173.0, 0.07613471798516279
174.0, 0.0781061846217865
175.0, 0.07414390658022948
176.0, 0.0529582121267835
177.0, 0.0364459419814763
178.0, 0.02585568097131405
179.0, 0.025874922109409604
180.0, 0.054890818032379204
181.0, 0.06513936369673529
182.0, 0.07878433023209302
183.0, 0.10580177966171594
184.0, 0.13422124211905184
185.0, 0.14135478113711125
186.0, 0.15514341762221362
187.0, 0.18686111446160264
188.0, 0.22675094737034787
189.0, 0.27481469183051505
190.0, 0.3300467401588549
191.0, 0.38270391645749385
192.0, 0.3902673782082047
193.0, 0.36362234377396274
194.0, 0.3149404821905923
195.0, 0.2567523655760693
196.0, 0.20089090743191365
197.0, 0.1640847169168273
198.0, 0.15428914103309577
199.0, 0.13450787142659157
200.0, 0.11633247672562115
201.0, 0.11650679382983181
202.0, 0.11366261624305128
203.0, 0.1144924336674943
204.0, 0.10501196435106579
205.0, 0.09089739456587101
206.0, 0.07564258003356672
207.0, 0.05983556771859685
208.0, 0.07627678046173458
209.0, 0.0741950855206216
210.0, 0.07615008732595432
211.0, 0.08097372069974755
212.0, 0.08499883092212944
213.0, 0.10716167405866665
214.0, 0.11763860808138302
215.0, 0.1289065128765986
216.0, 0.1422865035398411
217.0, 0.15712733301704965
218.0, 0.1715913482309704
219.0, 0.18131652302183013
220.0, 0.20391777792089938
221.0, 0.22547420841624724
222.0, 0.2450290268875003
223.0, 0.26183365196352
224.0, 0.2612677213253447
225.0, 0.24238422980007648
226.0, 0.2098383836658321
227.0, 0.17069599263094917
228.0, 0.13490659107524205
229.0, 0.11185634445011958
230.0, 0.08672068653371738
231.0, 0.07428602377791467
232.0, 0.05561854884619472
233.0, 0.039547462515014474
234.0, 0.03581016866821554
235.0, 0.037016136199041635
236.0, 0.0410311770607654
237.0, 0.03228578837988855
238.0, 0.031324944998624066
239.0, 0.0408226360027368
240.0, 0.0486568092621079
241.0, 0.043638784228922256
242.0, 0.051370585547361236
243.0, 0.05651740374006053
244.0, 0.06845086013207358
245.0, 0.08919877858437864
246.0, 0.10090624896411556
247.0, 0.0963626907104061
248.0, 0.11522610228271041
249.0, 0.13175101724940258
250.0, 0.15088074413077007
251.0, 0.1860118366817074
252.0, 0.22003584741423193
253.0, 0.2510365000786094
254.0, 0.25482415972227423
255.0, 0.24143471484327994
256.0, 0.2181814919986131
257.0, 0.18439003106569898
258.0, 0.13557018816846428
259.0, 0.11027799642807168
260.0, 0.09498513061908076
261.0, 0.08331421114669497
262.0, 0.07328437898848984
263.0, 0.06823146386003294
264.0, 0.061484751674867284
265.0, 0.0541524943073735
266.0, 0.049763618927240606
267.0, 0.04686732012045579
268.0, 0.043130160241574185
269.0, 0.04760420882825983
270.0, 0.046833029835938525
271.0, 0.050962652684801185
272.0, 0.05794628762525814
273.0, 0.06610994428826861
274.0, 0.07527329751590252
275.0, 0.07052199990445635
276.0, 0.08021022078941388
277.0, 0.09063479992916482
278.0, 0.09640554257525057
279.0, 0.09544453647838366
280.0, 0.08722969607904928
281.0, 0.10671401356581607
282.0, 0.10082093188323833
283.0, 0.09748605156610055
284.0, 0.09684628063463445
285.0, 0.08267042560957816
286.0, 0.04167449109266204
287.0, 0.0390084291171593
288.0, 0.030107822220960728
289.0, 0.020843692780933693
290.0, 0.017893282065204477
291.0, 0.02081065033934916
292.0, 0.005950362367859853
293.0, 0.011426169699754225
294.0, 0.009139627783176873
295.0, 0.0037117846027889877
296.0, 0.0033710400447658343
297.0, 0.009647293164457754
298.0, 0.009041792236523
299.0, 0.01482457447928613
300.0, 0.02044555127337628
301.0, 0.020152131412659435
302.0, 0.01470151895465083
303.0, 0.018883350564915934
304.0, 0.009190766723658515
305.0, 0.01525918350650668
306.0, 0.01543934381412357
307.0, 0.013377361124423861
308.0, 0.019898111884586296
309.0, 0.009533450528062995
310.0, 0.0048630444221179885
311.0, 0.00713849146886044
312.0, 0.007770542055408139
313.0, 0.007851229273774829
314.0, 0.015484538611312335
315.0, 0.024307515064708952
316.0, 0.028103177018525695
317.0, 0.038936754517939806
318.0, 0.04590729276328197
319.0, 0.04738411252895887
320.0, 0.05605788401216412
321.0, 0.06609770151367445
322.0, 0.0706870230238255
323.0, 0.0747304723484067
324.0, 0.07162278856211364
325.0, 0.06137378214139073
326.0, 0.05767728275897384
327.0, 0.0346555866758308
328.0, 0.042411583917889115
329.0, 0.041009944793967364
330.0, 0.03123254658055985
331.0, 0.02768116311821226
332.0, 0.04007082453771847
333.0, 0.04478780889513271
334.0, 0.04626396953102346
335.0, 0.04126109681818644
336.0, 0.03792643054601922
337.0, 0.043461022994261675
338.0, 0.048159087366962096
339.0, 0.049746951717400685
340.0, 0.05727707626404026
341.0, 0.06170832888091251
342.0, 0.06426658520008492
343.0, 0.06991351906805637
344.0, 0.0736082462417153
345.0, 0.07367022276621346
346.0, 0.07464177271604147
347.0, 0.07440013158220457
348.0, 0.0697120378389062
349.0, 0.059887355468022034
350.0, 0.05583458002205276
351.0, 0.05463172235085276
352.0, 0.05437214237086613
353.0, 0.05075450123674408
354.0, 0.04665622142807801
355.0, 0.04697127142928391
356.0, 0.03780316310583165
357.0, 0.03708046362170581
358.0, 0.04230744125828393
359.0, 0.041095634121023995
360.0, 0.042211686474430514
361.0, 0.06056262249917449
362.0, 0.0376962759153687
363.0, 0.04813127445880217
364.0, 0.039987318743646943
365.0, 0.03360602693406623
366.0, 0.03407061116728628
367.0, 0.029809585682573234
368.0, 0.05092279964345846
369.0, 0.055004845298721405
370.0, 0.05659733020671809
371.0, 0.05656297549470701
372.0, 0.06043305196414442
373.0, 0.07331206685899666
374.0, 0.061901171059492756
375.0, 0.06368310229830518
376.0, 0.0530400710083765
377.0, 0.04904327225158952
378.0, 0.05803203332839812
379.0, 0.06662245430710675
380.0, 0.05526305600695822
381.0, 0.0371280807372325
382.0, 0.03766024257435683
383.0, 0.040236837474990086
384.0, 0.03657532561990491
385.0, 0.033604679906219126
386.0, 0.04616717039918491
387.0, 0.032769749437459555
388.0, 0.04017358688217612
389.0, 0.04467996919569353
390.0, 0.038530914060988845
391.0, 0.03256628912081377
392.0, 0.021603283622357222
393.0, 0.03314033246417951
394.0, 0.03641671211223444
395.0, 0.035593115512688414
396.0, 0.04081520200871412
397.0, 0.05359835618209591
398.0, 0.03503582645612286
399.0, 0.03575773819313473
400.0, 0.0467335226575932
401.0, 0.06015148441537232
402.0, 0.07444121151438161
403.0, 0.09177016054301465
404.0, 0.1116870778627181
405.0, 0.1442741163366915
406.0, 0.17270750328999182
407.0, 0.21263996151526224
408.0, 0.2533166092320374
409.0, 0.2847794190647988
410.0, 0.34186018483634334
411.0, 0.4026172368689957
412.0, 0.453090738580068
413.0, 0.4745839901002525
414.0, 0.4458213184813363
415.0, 0.36491099811950345
416.0, 0.2694667037870337
417.0, 0.18566236923532775
418.0, 0.13676423997411058
419.0, 0.10964137065042624
420.0, 0.08672986023457588
421.0, 0.0630103501336788
422.0, 0.05477108059855915
423.0, 0.057452834397056986
424.0, 0.05226045726416302
425.0, 0.05085495894889269
426.0, 0.059329554699256534
427.0, 0.0666722814256292
428.0, 0.05130255220097537
429.0, 0.06074172077707266
430.0, 0.054778844294161674
431.0, 0.05180520586231642
432.0, 0.0468890677874848
433.0, 0.04073313027709173
434.0, 0.04050499221194679
435.0, 0.03937268286403837
436.0, 0.02476268865833251
437.0, 0.029304073389959637
438.0, 0.025171425797021186
439.0, 0.021517483739247015
440.0, 0.03776143367104371
441.0, 0.03073030032656021
442.0, 0.02946996272758562
443.0, 0.02096472290619469
444.0, 0.03042990970148564
445.0, 0.040341070561914785
446.0, 0.032945726191990786
447.0, 0.03390358066224657
448.0, 0.04452923046355701
449.0, 0.04059202090763636
450.0, 0.04159448434942097
451.0, 0.05052926733152652
452.0, 0.062213236550480104
453.0, 0.07035377716237125
454.0, 0.08843746539335416
455.0, 0.11669111895653414
456.0, 0.14008816282506212
457.0, 0.16396915624076053
458.0, 0.1889277815619383
459.0, 0.20888274747808505
460.0, 0.22233859590920219
461.0, 0.2385846715106686
462.0, 0.23731997099257426
463.0, 0.24348393608351024
464.0, 0.25481819987938065
465.0, 0.2504935377786647
466.0, 0.21280346574985315
467.0, 0.2082815243920124
468.0, 0.2019413636265036
469.0, 0.19707982032952967
470.0, 0.20003188118312318
471.0, 0.21205805349870113
472.0, 0.22612816989159348
473.0, 0.23842351156104397
474.0, 0.26173835723181843
475.0, 0.2785444288620745
476.0, 0.28477156240045065
477.0, 0.29292896193308016
478.0, 0.3122282109337745
479.0, 0.29382784549804025
480.0, 0.2751284371970232
481.0, 0.2421087685088534
482.0, 0.20807203123668522
483.0, 0.1716091483592649
484.0, 0.13322076526140678
485.0, 0.1115720599686198
486.0, 0.07820901356953726
487.0, 0.06446931924821846
488.0, 0.0522919591945006
489.0, 0.04274890708913782
490.0, 0.03808744709015347
491.0, 0.03558969894290563
492.0, 0.030606212039003024
493.0, 0.021761991251815545
494.0, 0.011967560326464208
495.0, 0.009053014952415998
496.0, 0.01194658477025819
497.0, 0.012313091210029534
498.0, 0.00043575312880049836
499.0, 0.002252303998008341
500.0, 0.014923989813569323
501.0, 0.010790533425047223
502.0, 0.009017895112389648
503.0, 0.013662151124024465
504.0, 0.0017509990289681374
505.0, 0.01570993828727613
506.0, 0.013693592702395648
507.0, 0.017240084073017227
508.0, 0.014342193064114463
509.0, 0.008654960896863866
510.0, 0.011165438594150402
511.0, 0.018842914063893382
512.0, 0.02229157509045177
513.0, 0.025740174246654497
514.0, 0.02812367242362807
515.0, 0.028538088208735074
516.0, 0.028174718826195277
517.0, 0.02921228448504079
518.0, 0.02643471743425998
519.0, 0.006428146862395821
520.0, 0.014010700963916121
521.0, 0.016950559879003946
522.0, 0.016267804871444545
523.0, 0.019918354989380726
524.0, 0.0023203843047993854
525.0, 0.02180878534240016
526.0, 0.024651690854032418
527.0, 0.01563669514782003
528.0, 0.012246047726670364
529.0, 0.016303487915315242
530.0, 0.01524275019497316
531.0, 0.015584649576247226
532.0, 0.012060060805118894
533.0, 0.007690768181616606
534.0, 0.009275351048803771
535.0, 0.01329488931888578
536.0, 0.016410967987493575
537.0, 0.021538739849970165
538.0, 0.010466688761379638
539.0, 0.007511355891862021
540.0, 0.01158929556354863
541.0, 0.007826673696098489
542.0, 0.006937091429019126
543.0, 0.019795156994216644
544.0, 0.00737109068521373
545.0, 0.00461990961823905
546.0, 0.007231459760203702
547.0, 0.014461618998938686
548.0, 0.016177541002746577
549.0, 0.009924059626871757
550.0, 0.003969876155669806
551.0, 0.002874140333572227
552.0, 0.01121540964629683
553.0, 0.010015461876821893
554.0, 0.0072183879524945265
555.0, 0.004262506125777779
556.0, 0.003014406755572899
557.0, 0.009289771439916234
558.0, 0.008013380645776358
559.0, 0.01298940470748424
560.0, 0.013013363949256526
561.0, 0.013629152363411638
562.0, 0.015431500243647705
563.0, 0.015620618946891783
564.0, 0.014685863156501496
565.0, 0.010553004932257547
566.0, 0.015461728966220164
567.0, 0.00894827137351853
568.0, 0.0031946014716923874
569.0, 0.005611471307777836
570.0, 0.01198499270578605
571.0, 0.017247368899204665
572.0, 0.019676139692482483
573.0, 0.020992600118153383
574.0, 0.03140008235145116
575.0, 0.034868214084536685
576.0, 0.02622150229819182
577.0, 0.023067236606973726
578.0, 0.0477490537349551
579.0, 0.045231425823085744
580.0, 0.036721058391483825
581.0, 0.02943312982387255
582.0, 0.026988784020571685
583.0, 0.025185240044459573
584.0, 0.016551909399148388
585.0, 0.02064982028066915
586.0, 0.015597807370562022
587.0, 0.011027997864040812
588.0, 0.01288127081670569
589.0, 0.016280556913120855
590.0, 0.016223161046202732
591.0, 0.016238855153751505
592.0, 0.02090928903229605
593.0, 0.020258933618103915
594.0, 0.018822236034481393
595.0, 0.023641860140925647
596.0, 0.030139544041449823
597.0, 0.03390518723916324
598.0, 0.04175483741943673
599.0, 0.04816087707965978
600.0, 0.057947742230657406
601.0, 0.06731352759966715
602.0, 0.07452492147084971
603.0, 0.08091962390826796
604.0, 0.08829068425021758
605.0, 0.09573075733167836
606.0, 0.10057857630343875
607.0, 0.10926446046816402
608.0, 0.1110360110588929
609.0, 0.1133794560736733
610.0, 0.11614602258878423
611.0, 0.11698224313700792
612.0, 0.12081511050206399
613.0, 0.10127131485043381
614.0, 0.10653730931634436
615.0, 0.10655141622683317
616.0, 0.10771291541426435
617.0, 0.10861041506270117
618.0, 0.10605277157902565
619.0, 0.10945072607362816
620.0, 0.10159705685172941
621.0, 0.11772519143065134
622.0, 0.11879585397616087
623.0, 0.11351274534837903
624.0, 0.11594822807812437
625.0, 0.1257866274332729
626.0, 0.1230774892702135
627.0, 0.12288037546608774
628.0, 0.13425272105496242
629.0, 0.13669465809733516
630.0, 0.1368962540774191
631.0, 0.13551184410183179
632.0, 0.13408326645794064
633.0, 0.1427149231519884
634.0, 0.14266852304618918
635.0, 0.14981499817726046
636.0, 0.14986823946421363
637.0, 0.15152868662216595
638.0, 0.1558016018646877
639.0, 0.159691143556712
640.0, 0.16365899439307488
641.0, 0.1711363464818407
642.0, 0.1791857929602452
643.0, 0.1791878246614231
644.0, 0.1885523709831556
645.0, 0.1941010206704022
646.0, 0.19091107589647907
647.0, 0.19617534800406225
648.0, 0.18136682408298313
649.0, 0.18680284660170615
650.0, 0.16855902000437156
651.0, 0.1512812117361955
652.0, 0.13687279572538336
653.0, 0.12594932174880707
654.0, 0.12177399864953292
655.0, 0.10305213963140189
656.0, 0.09836146234941746
657.0, 0.0858148348539918
658.0, 0.07347485991744761
659.0, 0.06390095023292533
660.0, 0.06164058542824728
661.0, 0.06732399691456464
662.0, 0.06482692357782871
663.0, 0.057535257904424715
664.0, 0.053060581128423226
665.0, 0.04469303846229646
666.0, 0.034999460892510145
667.0, 0.03028118251564057
668.0, 0.029726379800558603
669.0, 0.020499432718569056
670.0, 0.01857332732037567
671.0, 0.025963111134120708
672.0, 0.016806499146814015
673.0, 0.010290879693042241
674.0, 0.00802740581226861
675.0, 0.009384845024645688
676.0, 0.01898343719355159
677.0, 0.0030799279083487483
678.0, 0.01096677109724098
679.0, 0.016220130299357587
680.0, 0.018768211433503885
681.0, 0.01223416551248919
682.0, 0.0030070727835537856
683.0, 0.003937166439071872
684.0, 0.004074726442433268
685.0, 0.004177170146165406
686.0, 0.009773805106897133
687.0, 0.005811596927005994
688.0, 0.007781210318269606
689.0, 0.012414483066310591
690.0, 0.011461033963570448
691.0, 0.01625327677855254
692.0, 0.010581348675014585
693.0, 0.008843961571106108
694.0, 0.007813545862924806
695.0, 0.00769031663182583
696.0, 0.006123788707140562
697.0, 0.003006159173165198
698.0, 0.001432338124332612
699.0, 0.000878335124791407
700.0, 0.0006247790474996221
701.0, 0.003461394501222004
702.0, 0.009691007236382172
703.0, 0.012350725868637521
704.0, 0.011712849747332554
705.0, 0.012337798701328288
706.0, 0.012812537718132106
707.0, 0.011185822825314422
708.0, 0.01125230563327842
709.0, 0.012047873157409645
710.0, 0.01611650975781572
711.0, 0.01749356740657205
712.0, 0.014311548080655918
713.0, 0.014558214560572429
714.0, 0.024574443509911167
715.0, 0.027810008578132133
716.0, 0.024290557138909367
717.0, 0.021867898222265487
718.0, 0.016625284759624256
719.0, 0.011949535208208113
720.0, 0.0123815746647548
721.0, 0.01173604992225727
722.0, 0.011575308020026062
723.0, 0.017941633718090984
724.0, 0.019016491667261468
725.0, 0.026201941168616925
726.0, 0.03600537680226067
727.0, 0.038480943762879645
728.0, 0.03516983644711424
729.0, 0.05299753738247008
730.0, 0.04390174847746929
731.0, 0.05521165594626974
732.0, 0.061120286147284444
733.0, 0.06688161479286564
734.0, 0.07318996683216468
735.0, 0.07804989798966624
736.0, 0.0840280540888395
737.0, 0.09293496224077723
738.0, 0.11019746909243248
739.0, 0.11414906061211298
740.0, 0.1165992880742348
741.0, 0.12418561655087965
742.0, 0.1310735440735024
743.0, 0.12974805516846888
744.0, 0.12551051656540535
745.0, 0.124179912399193
746.0, 0.11504298721654956
747.0, 0.11706430727367118
748.0, 0.0947337286109074
749.0, 0.08614997352747787
750.0, 0.0932050583128378
751.0, 0.07923552917100202
752.0, 0.06975541355686153
753.0, 0.0735848766038233
754.0, 0.05926342820362266
755.0, 0.044075155333537105
756.0, 0.03974640088814567
757.0, 0.037478917505157694
758.0, 0.03672225334185737
759.0, 0.04379342729188611
760.0, 0.027519287925167175
761.0, 0.02508518544684951
762.0, 0.034875821360010516
763.0, 0.02594496421434597
764.0, 0.01882492753903997
765.0, 0.020176838103235548
766.0, 0.02570573161688509
767.0, 0.03211978062154019
768.0, 0.030647222769937
769.0, 0.03241047521963869
770.0, 0.017947151651489635
771.0, 0.020595486223523158
772.0, 0.024470450301455803
773.0, 0.018440527930718133
774.0, 0.013558227196688349
775.0, 0.026698858476591026
776.0, 0.029337065454040696
777.0, 0.016476287588455697
778.0, 0.02318751076726641
779.0, 0.03034117614644038
780.0, 0.030456603685897813
781.0, 0.026752927242525034
782.0, 0.025288664218970257
783.0, 0.02536102010598465
784.0, 0.013712914859759086
785.0, 0.027946950964798788
786.0, 0.026499450354166253
787.0, 0.02988368716381912
788.0, 0.029985780870810483
789.0, 0.027633746890780297
790.0, 0.025117546681821666
791.0, 0.016115919200094034
792.0, 0.0092375682471223
793.0, 0.005681415237001571
794.0, 0.019843280096991617
795.0, 0.028000014490837773
796.0, 0.03361365798064827
797.0, 0.03222538458227414
798.0, 0.023099590212538407
799.0, 0.01855201871833516
800.0, 0.018321251840712736
801.0, 0.018296234315506844
802.0, 0.03177403619209595
803.0, 0.03505526393809457
804.0, 0.03897653834476936
805.0, 0.03734680309162677
806.0, 0.03333575671192425
807.0, 0.039156038929362265
808.0, 0.017171342769789946
809.0, 0.02096483100726341
810.0, 0.018777460275907373
811.0, 0.02331456730930598
812.0, 0.025222292293938707
813.0, 0.020691100775075265
814.0, 0.017885453913058978
815.0, 0.02271953324233843
816.0, 0.01812139366622778
817.0, 0.010543387823747133
818.0, 0.028436352534952074
819.0, 0.02682894933585875
820.0, 0.0257011175100022
821.0, 0.020300570158210993
822.0, 0.01140525657927493
823.0, 0.011428496820903274
824.0, 0.022193516792700544
825.0, 0.025961286917443146
826.0, 0.022350352291388927
827.0, 0.02364716644074753
828.0, 0.023815748153725343
829.0, 0.021987289285809543
830.0, 0.020643669052062844
831.0, 0.02128636353694557
832.0, 0.02187728853231834
833.0, 0.019517646615731715
834.0, 0.021958724964793973
835.0, 0.023604009214619966
836.0, 0.023511462687544154
837.0, 0.02316977699215215
838.0, 0.02314975258903571
839.0, 0.02209145989596538
840.0, 0.018990140397654395
841.0, 0.016690566871350555
842.0, 0.013899634037754413
843.0, 0.012024382097029288
844.0, 0.010343653419775476
845.0, 0.009453361549862576
846.0, 0.009745603780828439
847.0, 0.010363369779773661
848.0, 0.01275409713617405
849.0, 0.020689448211999126
850.0, 0.023674565495209812
851.0, 0.022344526411888534
852.0, 0.029335865105869517
853.0, 0.03291939458437496
854.0, 0.03725157076769236
855.0, 0.032061739421903934
856.0, 0.02018929472343488
857.0, 0.02047900861657628
858.0, 0.023613050506761428
859.0, 0.028611577292240006
860.0, 0.032153984979944025
861.0, 0.034354771955223025
862.0, 0.03258946304041558
863.0, 0.03372540221745844
864.0, 0.030572375502117773
865.0, 0.018465339981204924
866.0, 0.01382311519813499
867.0, 0.01515922092032926
868.0, 0.024769763574673802
869.0, 0.017993821678406175
870.0, 0.02320730193854578
871.0, 0.02885033520960176
872.0, 0.02966644982218735
873.0, 0.022511938343786436
874.0, 0.011896890900808667
875.0, 0.019920163431046918
876.0, 0.02615335909973877
877.0, 0.005058981164539527
878.0, 0.012509056591711186
879.0, 0.015370119955121173
880.0, 0.010154156409011836
881.0, 0.005840167625448919
882.0, 0.00584837668965578
883.0, 0.008777362561517867
884.0, 0.02205650938846883
885.0, 0.007661556351420314
886.0, 0.018110908200518337
887.0, 0.0188533641167629
888.0, 0.01888293711072266
889.0, 0.02178081223202969
890.0, 0.02095057389787363
891.0, 0.017322550043336594
892.0, 0.020018068573891015
893.0, 0.009981990133111771
894.0, 0.006006016657833675
895.0, 0.011435096406012797
896.0, 0.01031140605661604
897.0, 0.019925469452800645
898.0, 0.013941781385224417
899.0, 0.004269681802617981
900.0, 0.008546060436910712
901.0, 0.0036859967405039372
902.0, 0.020374216978608226
903.0, 0.024260039015967617
904.0, 0.012748374479450611
905.0, 0.004166080828056903
906.0, 0.01821532597599373
907.0, 0.018961132811065044
908.0, 0.01242865563704613
909.0, 0.015703382629700523
910.0, 0.0018107259772124806
911.0, 0.01092357895720283
912.0, 0.025842876094181906
913.0, 0.006827927896777799
914.0, 0.009610742287705
915.0, 0.009885669047131871
916.0, 0.011252772303158378
917.0, 0.014100755380631002
918.0, 0.010077353294153405
919.0, 0.002366386994368276
920.0, 0.004619604052050256
921.0, 0.0027253275338108324
922.0, 0.012374939749033205
923.0, 0.007443690225866405
924.0, 0.002707343740291149
925.0, 0.014283652526090332
926.0, 0.018134549028078012
927.0, 0.007872378056558198
928.0, 0.016247597853322967
929.0, 0.003677512174197208
930.0, 0.003797700269316362
931.0, 0.002440116354945919
932.0, 0.0033146735961471505
933.0, 0.003034385340048848
934.0, 0.001468225570791375
935.0, 0.0015594348035504891
936.0, 0.0024882959969799705
937.0, 0.0011199359227407218
938.0, 0.0028518270750901606
939.0, 0.005604600617636445
940.0, 0.005566400373817954
941.0, 0.007739956159166096
942.0, 0.004780254483254625
943.0, 0.008046140509987455
944.0, 0.010764535133597498
945.0, 0.011576667267052324
946.0, 0.015490818667847838
947.0, 0.009456806204874593
948.0, 0.0010366403001318054
949.0, 0.003071424960800373
950.0, 0.014443869918256368
951.0, 0.005910275838730007
952.0, 0.0011351799335495311
953.0, 0.006951233908685203
954.0, 0.00844233251035479
955.0, 0.001622647093533866
956.0, 0.0057470781177596094
957.0, 0.015557840300352978
958.0, 0.002615813842142072
959.0, 0.005529373212515617
960.0, 0.0038674247112149038
961.0, 0.004974967285397092
962.0, 0.0067992647678167175
963.0, 0.004614650789371716
964.0, 0.0030440834681476825
965.0, 0.007916511146034859
966.0, 0.008170433925369733
967.0, 0.0013080988619787065
968.0, 0.002487126520319895
969.0, 0.002667017943084712
970.0, 0.006922913925175581
971.0, 0.006710933137231968
972.0, 0.003140670888766056
973.0, 0.0006375595990313807
974.0, 0.0024749611456212754
975.0, 0.008159145405258523
976.0, 0.008574527006736504
977.0, 0.007550732991644959
978.0, 0.0012091742848697154
979.0, 0.004919548487856003
980.0, 0.0056384677981023345
981.0, 0.015076147657093857
982.0, 0.023367135309663237
983.0, 0.025629110157065687
984.0, 0.022799809322679266
985.0, 0.008781657636390851
986.0, 0.020628982245072494
987.0, 0.037666690774370494
988.0, 0.029685216679746197
989.0, 0.04009688682957567
990.0, 0.04541032879048543
991.0, 0.049798614401408065
992.0, 0.05631053761123114
993.0, 0.06793417938172269
994.0, 0.07943949166205289
995.0, 0.07287529182791742
996.0, 0.09147900582377165
997.0, 0.10146852374164624
998.0, 0.10387935547715442
999.0, 0.10645310127964214
1000.0, 0.12433892844378928
1001.0, 0.12459959091947788
1002.0, 0.12335077976421356
1003.0, 0.13055334524737786
1004.0, 0.12752530018102584
1005.0, 0.13174649002785016
1006.0, 0.11368858505281143
1007.0, 0.11801633075089646
1008.0, 0.11565065693752792
1009.0, 0.10197418736791052
1010.0, 0.10439691669308314
1011.0, 0.10199431993030493
1012.0, 0.09227195943285249
1013.0, 0.09801058158616983
1014.0, 0.11650778206500147
1015.0, 0.10684116421788108
1016.0, 0.1103580992887562
1017.0, 0.12444459241384108
1018.0, 0.1322368586646878
1019.0, 0.10371102208298266
1020.0, 0.09396490565074671
1021.0, 0.0970287229912479
1022.0, 0.09666315928209802
1023.0, 0.0968268886124923
1024.0, 0.10280524037688234
1025.0, 0.09991763533331034
1026.0, 0.08987208639653718
1027.0, 0.09607532065637583
1028.0, 0.08710994083066165
1029.0, 0.09332705092892354
1030.0, 0.090835987343555
1031.0, 0.08747164362739408
1032.0, 0.08606167282093047
1033.0, 0.08571935135826986
1034.0, 0.0859997567695155
1035.0, 0.08549617408622318
1036.0, 0.08859073525030388
1037.0, 0.0936557193224015
1038.0, 0.09546365073296544
1039.0, 0.11232496205912476
1040.0, 0.12148908159360323
1041.0, 0.14152072688123132
1042.0, 0.1700762328342832
1043.0, 0.19408652634774204
1044.0, 0.2108856960265159
1045.0, 0.23222893127071823
1046.0, 0.270711850108757
1047.0, 0.3225905235503324
1048.0, 0.37177077458952934
1049.0, 0.464487523280058
1050.0, 0.5410400270725332
1051.0, 0.6188818989847499
1052.0, 0.7010420717541809
1053.0, 0.7950519005223998
1054.0, 0.8782352378128508
1055.0, 0.9339631118947848
1056.0, 0.9848674032622045
1057.0, 0.9956196301506139
1058.0, 0.9522496316418897
1059.0, 0.921143415709746
1060.0, 0.8203274190639622
1061.0, 0.7137743722660382
1062.0, 0.6307375522366893
1063.0, 0.5416538707815007
1064.0, 0.45192575891758874
1065.0, 0.3850655300150787
1066.0, 0.32750877802920875
1067.0, 0.25596938724523904
1068.0, 0.22660861256745007
1069.0, 0.1938100773664024
1070.0, 0.18096715951639492
1071.0, 0.17178247578350198
1072.0, 0.1543824370462987
1073.0, 0.14963897990699446
1074.0, 0.13982865454172577
1075.0, 0.12716512242238107
1076.0, 0.12406095896510311
1077.0, 0.12304415555003942
1078.0, 0.11849205970328233
1079.0, 0.10822520851721164
1080.0, 0.11309679135531304
1081.0, 0.11647701477857898
1082.0, 0.10878620633101663
1083.0, 0.1003086195387786
1084.0, 0.11014761584849782
1085.0, 0.11869531862379548
1086.0, 0.11697118549959871
1087.0, 0.1179291218826009
1088.0, 0.12776913868187895
1089.0, 0.1351262415191204
1090.0, 0.1324326765401113
1091.0, 0.13953848902621618
1092.0, 0.15523400312340782
1093.0, 0.16249383403387324
1094.0, 0.16868811188684935
1095.0, 0.18305637196369962
1096.0, 0.2208649880949429
1097.0, 0.24435037393245124
1098.0, 0.2410328764580155
1099.0, 0.24479589062761792
1100.0, 0.241669077876085
1101.0, 0.21667138243837442
1102.0, 0.2099271509050988
1103.0, 0.20049657307891644
1104.0, 0.17521065449169826
1105.0, 0.1490226623987355
1106.0, 0.13684069559656686
1107.0, 0.1221875050053411
1108.0, 0.11080203767374593
1109.0, 0.11230039504454709
1110.0, 0.10792446069956618
1111.0, 0.0836870711168509
1112.0, 0.08298522009174357
1113.0, 0.08271054326511065
1114.0, 0.10106025926164311
1115.0, 0.08884099130222406
1116.0, 0.08139224376313295
1117.0, 0.0869289166963214
1118.0, 0.07234379033100882
1119.0, 0.06918337727584171
1120.0, 0.08462145836637015
1121.0, 0.09251505552844327
1122.0, 0.09113524292598825
1123.0, 0.0935294647298441
1124.0, 0.09529745086445508
1125.0, 0.10012521765960808
1126.0, 0.09841906911962378
1127.0, 0.10462061519356665
1128.0, 0.11334012005644514
1129.0, 0.13811768171240063
1130.0, 0.15581489438396806
1131.0, 0.1722909225365094
1132.0, 0.18748593530652488
1133.0, 0.19347817687810612
1134.0, 0.20909044281178493
1135.0, 0.24242438301778446
1136.0, 0.24903771251386264
1137.0, 0.23940368945025883
1138.0, 0.21176426541962734
1139.0, 0.20055749900969816
1140.0, 0.19147901986320187
1141.0, 0.1840162297192887
1142.0, 0.1675315808933939
1143.0, 0.14737857531415613
1144.0, 0.13110650662972392
1145.0, 0.1170867909439968
1146.0, 0.10532052397138861
1147.0, 0.09876363559094133
1148.0, 0.10138175221828283
1149.0, 0.08646874780106804
1150.0, 0.10477029475631254
1151.0, 0.08998494229329493
1152.0, 0.09593885071567329
1153.0, 0.09810624868961304
1154.0, 0.08552025448316954
1155.0, 0.08683276965185374
1156.0, 0.09501891963179436
1157.0, 0.09065465441389932
1158.0, 0.09094043827211744
1159.0, 0.08377040606177111
1160.0, 0.07363919857604204
1161.0, 0.09537473216095471
1162.0, 0.07240530735606701
1163.0, 0.08297965501062794
1164.0, 0.09123358282764546
1165.0, 0.08502408521378842
1166.0, 0.09263778719335013
1167.0, 0.08763307098907842
1168.0, 0.07493431576580345
1169.0, 0.0775376789910954
1170.0, 0.08324480997482406
1171.0, 0.09057028153027306
1172.0, 0.0943082820844748
1173.0, 0.09927263354221706
1174.0, 0.1015089008609238
1175.0, 0.1123014766342964
1176.0, 0.1022628009850783
1177.0, 0.10001920011367248
1178.0, 0.09304775525824041
1179.0, 0.09033832585086848
1180.0, 0.09328457697658833
1181.0, 0.09941713297989263
1182.0, 0.10422146892552189
1183.0, 0.09426913085162217
1184.0, 0.07463487181954134
1185.0, 0.059955232601218926
1186.0, 0.07436329903824125
1187.0, 0.07946343383535374
1188.0, 0.05572682443164442
1189.0, 0.053813075727665916
1190.0, 0.04597302071197188
1191.0, 0.043686493105224336
1192.0, 0.03680089742436452
1193.0, 0.02589110993933709
1194.0, 0.02481978441542325
1195.0, 0.027458371721680686
1196.0, 0.021481468914567477
1197.0, 0.02910346951722772
1198.0, 0.040018010355968005
1199.0, 0.028439890640525146
1200.0, 0.02599274123004067
1201.0, 0.017190181723219518
1202.0, 0.028246753131426213
1203.0, 0.03163058292442125
1204.0, 0.02575497236928634
1205.0, 0.020269888913071132
1206.0, 0.03293691116929712
1207.0, 0.049759977896388655
1208.0, 0.045114781453224596
1209.0, 0.03416404862803033
1210.0, 0.029983606832836872
1211.0, 0.021382366249168342
1212.0, 0.01181779790398581
1213.0, 0.032961102251350835
1214.0, 0.028913499508680225
1215.0, 0.027926309547074236
1216.0, 0.02711959942146942
1217.0, 0.030525640416328437
1218.0, 0.031758754745232015
1219.0, 0.026241763488050223
1220.0, 0.017829059595706343
1221.0, 0.014102203765497168
1222.0, 0.01761048967216909
1223.0, 0.021410172750561743
1224.0, 0.018062135232521974
1225.0, 0.0021490227151690004
1226.0, 0.009401277406769822
1227.0, 0.013196645368463588
1228.0, 0.0163048997664038
1229.0, 0.024085049721363844
1230.0, 0.010620313199312125
1231.0, 0.009812081995671566
1232.0, 0.00735699277810894
1233.0, 0.011158778087582023
1234.0, 0.022187370366707367
1235.0, 0.016585420929149906
1236.0, 0.005110254190243227
1237.0, 0.004189990104049588
1238.0, 0.0038635200006180547
1239.0, 0.004924130966320361
1240.0, 0.0008960022672827072
1241.0, 0.007441147249915514
1242.0, 0.005153888784711446
1243.0, 0.001617563964464201
1244.0, 0.000456886508210253
1245.0, 0.003942622423014275
1246.0, 0.007692805272531203
1247.0, 0.007896825252554182
1248.0, 0.00629718272328033
1249.0, 0.004030663890944118
1250.0, 0.0008464030381549242
1251.0, 0.0028094876102956645
1252.0, 0.00859361420923704
1253.0, 0.00890994536518729
1254.0, 0.00845301052251439
1255.0, 0.012292063406758633
1256.0, 0.007448389340697734
1257.0, 0.01546641659469589
1258.0, 0.009544717712075643
1259.0, 0.002228572170107754
1260.0, 0.00549277602765304
1261.0, 0.01133598859547086
1262.0, 0.009505064372907766
1263.0, 0.01033058597917468
1264.0, 0.016666092199995704
1265.0, 0.006246458520039001
1266.0, 0.005378113021249627
1267.0, 0.009937652642318077
1268.0, 0.014576681417650015
1269.0, 0.007043750295627668
1270.0, 0.0008945863010687291
1271.0, 0.004594571143893945
1272.0, 0.012258229230746468
1273.0, 0.017598159978679622
1274.0, 0.017978499561437853
1275.0, 0.017742852943413382
1276.0, 0.019033493416907906
1277.0, 0.014227220527710548
1278.0, 0.005460650769203869
1279.0, 0.006817308926933874
1280.0, 0.014951705338722783
1281.0, 0.02186042080267707
1282.0, 0.002549669463693142
1283.0, 0.009450334792992236
1284.0, 0.01596820571538423
1285.0, 0.006616549844386042
1286.0, 0.005701641193489672
1287.0, 0.010628380488356164
1288.0, 0.014384460124776273
1289.0, 0.01882268351844043
1290.0, 0.016672422799444947
1291.0, 0.012273893987202368
1292.0, 0.01646901340774562
1293.0, 0.02079959016831343
1294.0, 0.018384762354209907
1295.0, 0.020971827438600328
1296.0, 0.008682827696614702
1297.0, 0.003160197393123102
1298.0, 0.02599117577944645
1299.0, 0.010080219759600701
1300.0, 0.01736965108506956
1301.0, 0.024339491402848933
1302.0, 0.022293267615073158
1303.0, 0.021511435481499586
1304.0, 0.01684011906485088
1305.0, 0.0135547273517777
1306.0, 0.01055924994038103
1307.0, 0.00833473324144727
1308.0, 0.01569660661688808
1309.0, 0.02142288853328978
1310.0, 0.015381583180424046
1311.0, 0.025527065160498595
1312.0, 0.02526653946366081
1313.0, 0.018580684057651516
1314.0, 0.031406859006369046
1315.0, 0.0450259064648644
1316.0, 0.013433920770314986
1317.0, 0.025394807793295622
1318.0, 0.03416081805367908
1319.0, 0.03262077016991929
1320.0, 0.034324697356755876
1321.0, 0.028390109210355653
1322.0, 0.026856072518940528
1323.0, 0.03007552479214307
1324.0, 0.03178001886218014
1325.0, 0.03640319714380065
1326.0, 0.03843894424883264
1327.0, 0.028477767617619554
1328.0, 0.024035956944434642
1329.0, 0.03857889303322878
1330.0, 0.005365932273803574
1331.0, 0.0036275738778548043
1332.0, 0.007838588650382202
1333.0, 0.0032279576219118485
1334.0, 0.020228427173979137
1335.0, 0.01880472644087198
1336.0, 0.032867167225533345
1337.0, 0.021997730878658996
1338.0, 0.020484408992921716
1339.0, 0.02240953065507569
1340.0, 0.02323360224932689
1341.0, 0.027143145913872797
1342.0, 0.02190194044992761
1343.0, 0.01250470074366703
1344.0, 0.007685395953930923
1345.0, 0.006165633891564327
1346.0, 0.011040010704827406
1347.0, 0.016544236551969356
1348.0, 0.007469772055082185
1349.0, 0.018686262126581282
1350.0, 0.03319675562703339
1351.0, 0.01334976602563439
1352.0, 0.0261791829214346
1353.0, 0.02848066968173364
1354.0, 0.01865270723019143
1355.0, 0.015172919057620632
1356.0, 0.011434806026145158
1357.0, 0.006173894715638407
1358.0, 0.013396861053138604
1359.0, 0.01737725874505224
1360.0, 0.008295998926323971
1361.0, 0.011103092335698964
1362.0, 0.0029285332830259656
1363.0, 0.0030690433810216305
1364.0, 0.016329208667464654
1365.0, 0.022115074145181438
1366.0, 0.02790108343982284
1367.0, 0.016676833953636873
1368.0, 0.02129885466967121
1369.0, 0.019035704996125613
1370.0, 0.016401644840618006
1371.0, 0.01352298038099167
1372.0, 0.00936315511420579
1373.0, 0.0033239483504749136
1374.0, 0.01010637144158721
1375.0, 0.02154235571675597
1376.0, 0.02438252329470846
1377.0, 0.02362245110295121
1378.0, 0.021652421641690105
1379.0, 0.016112294500741312
1380.0, 0.013766241605934733
1381.0, 0.01064071429609047
1382.0, 0.012161394352477367
1383.0, 0.004472652520666767
1384.0, 0.010181127969848987
1385.0, 0.016154436794038766
1386.0, 0.03232685014655342
1387.0, 0.009985914469641727
1388.0, 0.013836573458585556
1389.0, 0.010746026360857926
1390.0, 0.020585196438949207
1391.0, 0.020281053097050823
1392.0, 0.02454429204350095
1393.0, 0.015683653336242182
1394.0, 0.003457289509037901
1395.0, 0.015154008105105225
1396.0, 0.021594869246931714
1397.0, 0.013426287114800869
1398.0, 0.022408301070790677
1399.0, 0.019404931211708807
1400.0, 0.02273904211897593
1401.0, 0.02831319302244318
1402.0, 0.006152747317257485
1403.0, 0.017996736996036815
1404.0, 0.022138857129082572
1405.0, 0.02231358961476162
1406.0, 0.035347434507673206
1407.0, 0.03272249910391428
1408.0, 0.0291077089292218
1409.0, 0.019331983059559705
1410.0, 0.009871707865453976
1411.0, 0.010045923819558598
1412.0, 0.008745359487485787
1413.0, 0.0038914125542659633
1414.0, 0.0034290883952360018
1415.0, 0.011940526255395682
1416.0, 0.01512982151622578
1417.0, 0.012817999160001484
1418.0, 0.020653519050241022
1419.0, 0.018351332414018533
1420.0, 0.010599339594218181
1421.0, 0.020156807184905656
1422.0, 0.00304890510341787
1423.0, 0.006582738287129962
1424.0, 0.011417751096727836
1425.0, 0.007435989402630426
1426.0, 0.006310808942205663
1427.0, 0.013089745514911504
1428.0, 0.016298158547320377
1429.0, 0.041831271694564784
1430.0, 0.03685948633157507
1431.0, 0.010811332519159762
1432.0, 0.007963694309242514
1433.0, 0.017169455363432423
1434.0, 0.019000699254279625
1435.0, 0.017135332375560534
1436.0, 0.017842071682298333
1437.0, 0.023118411733759087
1438.0, 0.024385482887387417
1439.0, 0.02545175701928281
1440.0, 0.040074972030038444
1441.0, 0.03859996844689724
1442.0, 0.0326924616706728
1443.0, 0.0320603606718484
1444.0, 0.03101606842729502
1445.0, 0.04239971671038888
1446.0, 0.038392148590812136
1447.0, 0.054975250312693645
1448.0, 0.06018635888025842
1449.0, 0.038829454347540995
1450.0, 0.06240150783004059
1451.0, 0.06919366504910583
1452.0, 0.05021854685354851
1453.0, 0.042412772132678196
1454.0, 0.03860871139401252
1455.0, 0.03091806680218301
1456.0, 0.03280365047827763
1457.0, 0.036849927107465236
1458.0, 0.04303307019601155
1459.0, 0.05141575922002126
1460.0, 0.048187246388489556
1461.0, 0.04811741125842029
1462.0, 0.057819034464219494
1463.0, 0.04276782484513478
1464.0, 0.028003978276759343
1465.0, 0.03571452478691683
1466.0, 0.03540668547571874
1467.0, 0.036978761745735444
1468.0, 0.028578611968073077
1469.0, 0.03397950201128972
1470.0, 0.03332427969483651
1471.0, 0.030676346790821908
1472.0, 0.03436059251375761
1473.0, 0.036241200830920584
1474.0, 0.016182428223819427
1475.0, 0.022859523251186866
1476.0, 0.02443389902134077
1477.0, 0.014406794125586372
1478.0, 0.014858017162611202
1479.0, 0.022771614211636225
1480.0, 0.01982963479945025
1481.0, 0.020768615098675083
1482.0, 0.024206099275304722
1483.0, 0.01725967065502849
1484.0, 0.006890945649699853
1485.0, 0.01506223538863952
1486.0, 0.03311496177840747
1487.0, 0.02864133255953279
1488.0, 0.014132973592963732
1489.0, 0.004295143898795612
1490.0, 0.00828498190496929
1491.0, 0.014398882676040198
1492.0, 0.015767488811075175
1493.0, 0.005049393323053773
1494.0, 0.018975362907518094
1495.0, 0.0075366768465863
1496.0, 0.011272589933321487
1497.0, 0.016854685033968822
1498.0, 0.015366081477732942
1499.0, 0.017269200905010124
1500.0, 0.017614845264075755
1501.0, 0.015044955999321494
1502.0, 0.01621680176239675
1503.0, 0.011865385832229595
1504.0, 0.010148166316835829
1505.0, 0.007063240054619914
1506.0, 0.007067959778955489
1507.0, 0.008138127971239015
1508.0, 0.00641267748681408
1509.0, 0.005262956177050922
1510.0, 0.005192955446588932
1511.0, 0.006092247108861389
1512.0, 0.007463782048956381
1513.0, 0.00726908189404947
1514.0, 0.009694246096280102
1515.0, 0.016567626916676126
1516.0, 0.019448722986770767
1517.0, 0.01275510173799482
1518.0, 0.013650334412565376
1519.0, 0.01653558107034802
1520.0, 0.011136793636516538
1521.0, 0.015350328036427467
1522.0, 0.027634865587273447
1523.0, 0.017518403531489767
1524.0, 0.034026585905400135
1525.0, 0.02017343053980816
1526.0, 0.011355152799699234
1527.0, 0.04039745128948336
1528.0, 0.03326546352751618
1529.0, 0.02611859747560445
1530.0, 0.010153173007407836
1531.0, 0.00249413943461356
1532.0, 0.007185780904760247
1533.0, 0.008302122965232214
1534.0, 0.01945960318905482
1535.0, 0.020334645755091044
1536.0, 0.008470812383492007
1537.0, 0.004273142587819761
1538.0, 0.002440552378340488
1539, 0.0
1540, 0.0
1541, 0.0
1542, 0.0
1543, 0.0
1544, 0.0
1545, 0.0
1546, 0.0
1547, 0.0
1548, 0.0
1549, 0.0
1550, 0.0
1551, 0.0
1552, 0.0
1553, 0.0
1554, 0.0
1555, 0.0
1556, 0.0
1557, 0.0
1558, 0.0
1559, 0.0
1560, 0.0
1561, 0.0
1562, 0.0
1563, 0.0
1564, 0.0
1565, 0.0
1566, 0.0
1567, 0.0
1568, 0.0
1569, 0.0
1570, 0.0
1571, 0.0
1572, 0.0
1573, 0.0
1574, 0.0
1575, 0.0
1576, 0.0
1577, 0.0
1578, 0.0
1579, 0.0
1580, 0.0
1581, 0.0
1582, 0.0
1583, 0.0
1584, 0.0
1585, 0.0
1586, 0.0
1587, 0.0
1588, 0.0
1589, 0.0
1590, 0.0
1591, 0.0
1592, 0.0
1593, 0.0
1594, 0.0
1595, 0.0
1596, 0.0
1597, 0.0
1598, 0.0
1599, 0.0
