30, 0.0
31, 0.0
32, 0.0
33, 0.0
34, 0.0
35, 0.0
36, 0.0
37, 0.0
38, 0.0
39, 0.0
40, 0.0
41, 0.0
42, 0.0
43, 0.0
44, 0.0
45, 0.0
46, 0.0
47, 0.0
48, 0.0
49, 0.0
50, 0.0
51, 0.0
52, 0.0
53, 0.0
54, 0.0
55, 0.0
56, 0.0
57, 0.0
58, 0.0
59, 0.0
60, 0.0
61, 0.0
62, 0.0
63, 0.0
64, 0.0
65, 0.0
66, 0.0
67, 0.0
68, 0.0
69, 0.0
70, 0.0
71, 0.0
72, 0.0
73, 0.0
74, 0.0
75, 0.0
76, 0.0
77, 0.0
78, 0.0
79, 0.0
80, 0.0
81, 0.0
82, 0.0
83, 0.0
84, 0.0
85, 0.0
86, 0.0
87, 0.0
88, 0.0
89, 0.0
90, 0.0
91, 0.0
92, 0.0
93, 0.0
94, 0.0
95, 0.0
96, 0.0
97, 0.0
98, 0.0
99, 0.0
100, 0.0
101, 0.0
102, 0.0
103, 0.0
104, 0.0
105, 0.0
106, 0.0
107, 0.0
108, 0.0
109, 0.0
110, 0.0
111, 0.0
112, 0.0
113, 0.0
114, 0.0
115, 0.0
116, 0.0
117, 0.0
118.0, 1.6204840095005272e-05
119.0, 0.0009960397986236423
120.0, 0.004054198188057162
121.0, 0.00834953776888996
122.0, 0.014525131315022284
123.0, 0.026862288840411207
124.0, 0.03973889017451806
125.0, 0.04583718842578917
126.0, 0.04096885880512613
127.0, 0.026340466958186672
128.0, 0.014962527356661648
129.0, 0.009014180079073304
130.0, 0.006265643789334657
131.0, 0.0041282003609841526
132.0, 0.003228509328291455
133.0, 0.002580361506808624
134.0, 0.0013359932737832783
135.0, 0.0006424408042190855
136.0, 0.00044595013548764673
137.0, 0.0010402477526989062
138.0, 0.002869821292968914
139.0, 0.003985661790743782
140.0, 0.006653799595348234
141.0, 0.010511993277565562
142.0, 0.015276557220996242
143.0, 0.02093574864386745
144.0, 0.027048008497454454
145.0, 0.023658723912289018
146.0, 0.0148857199411306
147.0, 0.006024336822048342
148.0, 0.0013559407094874284
149.0, 0.00019803771813692425
150.0, 7.840877191059236e-05
151.0, 0.00040883528029776544
152.0, 0.0012298318499150201
153.0, 0.0006316014383266338
154.0, 0.0003010031129235212
155.0, 0.0012123737323327605
156.0, 0.003908428202824671
157.0, 0.005485502342117535
158.0, 0.009595380720193652
159.0, 0.012419714838377852
160.0, 0.014980023641560631
161.0, 0.02039434637887925
162.0, 0.02820346372317291
163.0, 0.03995215861587678
164.0, 0.054488885232049755
165.0, 0.0709399613492338
166.0, 0.08972979551251915
167.0, 0.10946300589531201
168.0, 0.12814174645102763
169.0, 0.14524694404778435
170.0, 0.1578340838660009
171.0, 0.14448903198450225
172.0, 0.10662679145230647
173.0, 0.06644176061888922
174.0, 0.04265391470305016
175.0, 0.02991970794715449
176.0, 0.023252772375032933
177.0, 0.02150462203320012
178.0, 0.022562274926214532
179.0, 0.02358848760712573
180.0, 0.028146222070179513
181.0, 0.03377514074287708
182.0, 0.041010196647344226
183.0, 0.0499954879372163
184.0, 0.05755866835080706
185.0, 0.055872519231884764
186.0, 0.047463798905212906
187.0, 0.037309216692730504
188.0, 0.029426382891619203
189.0, 0.025221155609061765
190.0, 0.026981154499843726
191.0, 0.03204645151126225
192.0, 0.036745656211462974
193.0, 0.04199969215825367
194.0, 0.05452950971276823
195.0, 0.07195958729976688
196.0, 0.0898328806858429
197.0, 0.10274076904732686
198.0, 0.1031378354267435
199.0, 0.08708601127011302
200.0, 0.06359448016781004
201.0, 0.046553923758659674
202.0, 0.03571118397552954
203.0, 0.027890344685793312
204.0, 0.021778825973537086
205.0, 0.0171182434318266
206.0, 0.013939833579552287
207.0, 0.010404232790939955
208.0, 0.00791429439908651
209.0, 0.005397314646378732
210.0, 0.0013921954707096966
211.0, 4.676023947529225e-05
212.0, 0.00011931068005368301
213.0, 0.00029471641062503803
214.0, 0.0005310035842846156
215.0, 0.00031730963875999796
216.0, 0.0016032822461302413
217.0, 0.0037641895160742574
218.0, 0.004246208955115682
219.0, 0.003016966321959308
220.0, 0.007614329190934891
221.0, 0.010599459224070032
222.0, 0.014523771010750763
223.0, 0.020423212830890602
224.0, 0.025700081120990672
225.0, 0.02720980181873054
226.0, 0.024371757455160743
227.0, 0.019137582144208937
228.0, 0.013896952511360684
229.0, 0.009696938145534467
230.0, 0.006457439656167305
231.0, 0.0040464992622690375
232.0, 0.002262484570431326
233.0, 0.0011476625419975727
234.0, 0.00018446457608464403
235.0, 0.000432036435774188
236.0, 0.0018244702006737054
237.0, 0.0025273283721056004
238.0, 0.0005148113200566179
239.0, 0.0007395131263151495
240.0, 0.0012009198437285243
241.0, 0.00039259174522735695
242.0, 0.001462171080766435
243.0, 0.0007133277126278555
244.0, 0.0004577489064427366
245.0, 0.001145694023067304
246.0, 0.0010521809313392854
247.0, 6.42968023258895e-05
248.0, 0.0025494953342649323
249.0, 0.004795216344078834
250.0, 0.005681031570531102
251.0, 0.006070388679644534
252.0, 0.008552663781247692
253.0, 0.013011080473649093
254.0, 0.01653094059308595
255.0, 0.01831088712386239
256.0, 0.019235183172730718
257.0, 0.018188305751013146
258.0, 0.01721721541720894
259.0, 0.01525586833679752
260.0, 0.012452064717242216
261.0, 0.01145160278647556
262.0, 0.012697134419113465
263.0, 0.012398498207480619
264.0, 0.01108925297564071
265.0, 0.010538836157885726
266.0, 0.01051473736692318
267.0, 0.013133790155519008
268.0, 0.015437465070795327
269.0, 0.016596357790835858
270.0, 0.018367123762812756
271.0, 0.02023963289601243
272.0, 0.022194095348812327
273.0, 0.02241614435450153
274.0, 0.02065569824452029
275.0, 0.018961032097683333
276.0, 0.015553934237258982
277.0, 0.012527097264606154
278.0, 0.009215420509969428
279.0, 0.005295854662021349
280.0, 0.004401589684145812
281.0, 0.002830164219773022
282.0, 0.0024861045041785737
283.0, 0.0028920743336049476
284.0, 0.0022909595872251933
285.0, 0.004005220765091798
286.0, 0.004108124176543668
287.0, 0.002545986033925262
288.0, 0.0018113033558631057
289.0, 0.004113882340655438
290.0, 0.004426444346275541
291.0, 0.006250197370757506
292.0, 0.008066048529490541
293.0, 0.009464389258270945
294.0, 0.014362796571254265
295.0, 0.014037199283739964
296.0, 0.015191986801912177
297.0, 0.018932386929694688
298.0, 0.02164377470515002
299.0, 0.021896992161750194
300.0, 0.02955320391462514
301.0, 0.03202414781538575
302.0, 0.02789958019684728
303.0, 0.025605480260738313
304.0, 0.024436781723024114
305.0, 0.023646506677351985
306.0, 0.023351694760492224
307.0, 0.022963119729597484
308.0, 0.02147244865618942
309.0, 0.019526431557656498
310.0, 0.018210086537063064
311.0, 0.017077489707850634
312.0, 0.01575889545386903
313.0, 0.015563718173845314
314.0, 0.014720190506545949
315.0, 0.014005312601319705
316.0, 0.014254519587549232
317.0, 0.015386483050368892
318.0, 0.016161891195169923
319.0, 0.015821272633642657
320.0, 0.01488227151527766
321.0, 0.015527620686613605
322.0, 0.01878366497157489
323.0, 0.019162237263385975
324.0, 0.0186919060813793
325.0, 0.020325924537956733
326.0, 0.02249627694987621
327.0, 0.02220503846374126
328.0, 0.023067968602311636
329.0, 0.023628074677593435
330.0, 0.024556971236760556
331.0, 0.026113717128588496
332.0, 0.027541578078214113
333.0, 0.03120052922146958
334.0, 0.033382772637018956
335.0, 0.035063765914298904
336.0, 0.03753362697135021
337.0, 0.039647058936262136
338.0, 0.0392341452055574
339.0, 0.039393007732216725
340.0, 0.03895241887405992
341.0, 0.03594140023146386
342.0, 0.031093644817163372
343.0, 0.027436364215854634
344.0, 0.026103556883366363
345.0, 0.02488214910548185
346.0, 0.022229648819867207
347.0, 0.020500266856425992
348.0, 0.02127562332198622
349.0, 0.020193884969859476
350.0, 0.018246459901880775
351.0, 0.017618347412252225
352.0, 0.015421697588616548
353.0, 0.014145201709005954
354.0, 0.0134803309225815
355.0, 0.012086049903764703
356.0, 0.009955293943095056
357.0, 0.009999839422887543
358.0, 0.00908560713416137
359.0, 0.007140190505829824
360.0, 0.005224083397538518
361.0, 0.00371482879836598
362.0, 0.0006790707870782066
363.0, 0.0015085158769149402
364.0, 0.001228745752310107
365.0, 0.0012557050693289373
366.0, 0.002704544148094352
367.0, 0.00030813969759080096
368.0, 0.0006342416417259877
369.0, 0.00021428010994668388
370.0, 0.0013385314882831787
371.0, 0.00018038142736621435
372.0, 0.00035775474681920853
373.0, 0.000856609578168386
374.0, 0.0009091370398974474
375.0, 0.0008250884753225276
376.0, 0.0005392136027466652
377.0, 0.00023163850002420078
378.0, 0.001598286636863168
379.0, 0.0018129959092642966
380.0, 0.0006635735783415029
381.0, 0.00018324682762023165
382.0, 0.0009631938325860141
383.0, 0.00037580243511757126
384.0, 0.001414108000478298
385.0, 0.0008553744169650648
386.0, 0.0003286183097753994
387.0, 0.0030236440215804863
388.0, 0.0029727098291050334
389.0, 0.00191492911558214
390.0, 0.001291222571645354
391.0, 0.000503818956977163
392.0, 0.0023458891739248635
393.0, 0.0013408248691205334
394.0, 0.00013219153381882935
395.0, 0.00040807949707373086
396.0, 0.0018796096611853083
397.0, 0.0016862927508037458
398.0, 0.0024359635550572053
399.0, 0.0032372781013242868
400.0, 0.00329435381055503
401.0, 0.002769022816804626
402.0, 0.004612111632550069
403.0, 0.005081304214905633
404.0, 0.004604115843542714
405.0, 0.005141113631289069
406.0, 0.007338774708013459
407.0, 0.007573275405013379
408.0, 0.009130690034396304
409.0, 0.010078508535036883
410.0, 0.00998237919467024
411.0, 0.01037757291316374
412.0, 0.012751901176657492
413.0, 0.012332281079057428
414.0, 0.014085446289701875
415.0, 0.018510289367540903
416.0, 0.02325298757186203
417.0, 0.028870710791852237
418.0, 0.03154921668023546
419.0, 0.035857411819987035
420.0, 0.044017055404199
421.0, 0.05453571845594373
422.0, 0.06453984238835786
423.0, 0.0770756440876799
424.0, 0.09059552461695743
425.0, 0.10565422560873514
426.0, 0.12012106874756612
427.0, 0.12691408301476775
428.0, 0.119675848054242
429.0, 0.10227538668884399
430.0, 0.08307228814703932
431.0, 0.06787396592233688
432.0, 0.05689448387253707
433.0, 0.05091182303402604
434.0, 0.04803291440197111
435.0, 0.0483522652651386
436.0, 0.05104090243650539
437.0, 0.054272409358135244
438.0, 0.059508908302359886
439.0, 0.06687582577803756
440.0, 0.07726870853410407
441.0, 0.08978183919911265
442.0, 0.10377725075091336
443.0, 0.12469251495103867
444.0, 0.14928334823068815
445.0, 0.17937998684221634
446.0, 0.21331763549342878
447.0, 0.24441324372426934
448.0, 0.2650492999595616
449.0, 0.266381291029628
450.0, 0.24812544215903312
451.0, 0.21406875113150162
452.0, 0.17101598330854767
453.0, 0.13324945374268124
454.0, 0.1032724679099654
455.0, 0.07929808595430844
456.0, 0.062423362490588365
457.0, 0.05094825259450137
458.0, 0.03984168111927523
459.0, 0.03432065107343869
460.0, 0.028005157074956915
461.0, 0.022877170010526745
462.0, 0.02042517547893443
463.0, 0.01823612174771498
464.0, 0.015636420052486576
465.0, 0.012889602611143743
466.0, 0.011180004482427194
467.0, 0.01014009850730446
468.0, 0.008579108374251621
469.0, 0.006298432152624825
470.0, 0.009227466255811004
471.0, 0.007080325710403649
472.0, 0.0038800850127765126
473.0, 0.005171053956446769
474.0, 0.0023894589662489304
475.0, 0.0009154128601900286
476.0, 0.0010266705652628183
477.0, 0.0019266843852788033
478.0, 0.0025512659633183674
479.0, 0.0016960277702553499
480.0, 7.633753540926186e-05
481.0, 0.0008625500483801908
482.0, 0.0008150714894524911
483.0, 0.0006018030517354643
484.0, 0.0011271932517842721
485.0, 0.002033992939281401
486.0, 0.0034639812331226667
487.0, 0.002161749853033307
488.0, 0.0003088909957153919
489.0, 0.0006323149447591822
490.0, 0.0008737212877777276
491.0, 0.001035240183166702
492.0, 0.0017186114770448096
493.0, 0.0021019912677766603
494.0, 0.001626780385542855
495.0, 0.0008183286038658145
496.0, 1.2663722187287535e-05
497.0, 0.0009968764015803712
498.0, 0.0013042629542408984
499.0, 0.002363659443174492
500.0, 0.0029650226632974334
501.0, 0.005950887426836981
502.0, 0.006347065932454414
503.0, 0.00870139592911717
504.0, 0.012697857100763483
505.0, 0.016024457574995755
506.0, 0.018115907452042647
507.0, 0.025229443369247196
508.0, 0.03234731162866304
509.0, 0.044209152036522016
510.0, 0.061017891421102595
511.0, 0.07459176199423616
512.0, 0.08409130427572145
513.0, 0.10480979114074743
514.0, 0.13609768209611572
515.0, 0.17310902680297954
516.0, 0.21756718153384752
517.0, 0.2764249849631659
518.0, 0.3400975177332293
519.0, 0.3562501208426502
520.0, 0.30875064358714077
521.0, 0.22369266332797738
522.0, 0.14960626694647175
523.0, 0.10015566344859124
524.0, 0.06955130771308583
525.0, 0.053435400104152785
526.0, 0.047194941643101604
527.0, 0.04529932070464129
528.0, 0.04486548055535482
529.0, 0.052541737272860434
530.0, 0.05864979216921685
531.0, 0.06641166565311833
532.0, 0.07842303866007845
533.0, 0.08894466566737104
534.0, 0.08357058893669501
535.0, 0.07242721255973272
536.0, 0.05754186461802419
537.0, 0.044010927615128606
538.0, 0.03575084321944593
539.0, 0.028840832319662005
540.0, 0.027860282735292414
541.0, 0.028726177032426404
542.0, 0.029880505364033295
543.0, 0.03156598145421306
544.0, 0.03312704774601299
545.0, 0.032210637985489406
546.0, 0.032319030262632525
547.0, 0.033336105529314
548.0, 0.03325878496564328
549.0, 0.0322762109305153
550.0, 0.03471933261630556
551.0, 0.03458727317306185
552.0, 0.03491259291207081
553.0, 0.03458089483402621
554.0, 0.03290958040129718
555.0, 0.030725596855115556
556.0, 0.027965233709975668
557.0, 0.025364652671431454
558.0, 0.02331909459549148
559.0, 0.023051634046105895
560.0, 0.024044509299286983
561.0, 0.020719973746584023
562.0, 0.01832059569318986
563.0, 0.017392186884624572
564.0, 0.019237647790305
565.0, 0.021944488924904956
566.0, 0.025530635384005223
567.0, 0.03855268623495182
568.0, 0.03614211309154749
569.0, 0.038339724392462526
570.0, 0.044702604645641
571.0, 0.053486788438572276
572.0, 0.06862799309803136
573.0, 0.08022744824224476
574.0, 0.10065061269312633
575.0, 0.11731017427376907
576.0, 0.12990639465945042
577.0, 0.14294125425079965
578.0, 0.15585397262464437
579.0, 0.16236439053900403
580.0, 0.16708906532732984
581.0, 0.1755402182122508
582.0, 0.18774336492437593
583.0, 0.20210688931293982
584.0, 0.21991359849598446
585.0, 0.23462152364358616
586.0, 0.24339878976432147
587.0, 0.24251142983088245
588.0, 0.23266226107908827
589.0, 0.21681315585318586
590.0, 0.19747800225600803
591.0, 0.1792835654713157
592.0, 0.16823917752509926
593.0, 0.16203558165647514
594.0, 0.16080303025333453
595.0, 0.16685337748607318
596.0, 0.16538415820348118
597.0, 0.15369717344194078
598.0, 0.1336407443693609
599.0, 0.11319437183533985
600.0, 0.09521969562653403
601.0, 0.07268795108834619
602.0, 0.06126171074760984
603.0, 0.054072239279564845
604.0, 0.04544150820592291
605.0, 0.038208208085964715
606.0, 0.03556655496932847
607.0, 0.03203710588321554
608.0, 0.027940592749642026
609.0, 0.024906878184827754
610.0, 0.022478798731008044
611.0, 0.020378602030658537
612.0, 0.01825159076767553
613.0, 0.01342010984442579
614.0, 0.01712679572493463
615.0, 0.016909721485991628
616.0, 0.01675239193729153
617.0, 0.016943835152189363
618.0, 0.013847468673276062
619.0, 0.013968875625400067
620.0, 0.012888771196831385
621.0, 0.010304311364469286
622.0, 0.00872417557319117
623.0, 0.007668050832370616
624.0, 0.00518534550589461
625.0, 0.0037529908384213856
626.0, 0.0027426996803585468
627.0, 0.002547093237880413
628.0, 0.003130029436590469
629.0, 0.002725682773439026
630.0, 0.0004941254259242443
631.0, 0.0029139989946087856
632.0, 0.004907731610179254
633.0, 0.0038483083472067737
634.0, 0.0032080913608124708
635.0, 0.0037020798592896347
636.0, 0.0027520921820915114
637.0, 0.00572045990365662
638.0, 0.004794421602050046
639.0, 0.0006731009438620868
640.0, 8.027503155725972e-05
641.0, 0.0021993126486289896
642.0, 0.0005794241899770808
643.0, 0.0014176919100909837
644.0, 0.0011374933265766358
645.0, 0.0010349749466989618
646.0, 0.000737056614802863
647.0, 0.0025110735803150954
648.0, 0.002815908040394979
649.0, 0.0032986275777285735
650.0, 0.0016642640323251512
651.0, 0.00024673270638211865
652.0, 0.0012749000636478754
653.0, 0.0034728172307548965
654.0, 0.0016008067350791464
655.0, 0.0023663658049311127
656.0, 0.0017243100473985965
657.0, 0.00097031819315875
658.0, 0.00032340979020050516
659.0, 0.00024539227725710235
660.0, 0.001263477834569016
661.0, 0.0006705033677523826
662.0, 0.002639440555531362
663.0, 0.0032234422731548746
664.0, 0.002927040344578781
665.0, 0.003854374177886504
666.0, 0.004538924659626381
667.0, 0.004371756033999817
668.0, 0.005472764923590762
669.0, 0.008321278703815821
670.0, 0.009864217755385868
671.0, 0.009776560180810061
672.0, 0.010792739043209163
673.0, 0.01228699714083675
674.0, 0.015406874247086321
675.0, 0.016560075095380964
676.0, 0.018470765616123812
677.0, 0.021558029191292127
678.0, 0.023101935139659552
679.0, 0.02292155094873066
680.0, 0.02288762134749562
681.0, 0.024693008849028694
682.0, 0.024792671899687996
683.0, 0.02274129981575125
684.0, 0.0220211096371795
685.0, 0.024634700320285204
686.0, 0.023695137291229063
687.0, 0.024954414962104786
688.0, 0.027892823011024387
689.0, 0.028886701871158313
690.0, 0.027610461114555958
691.0, 0.027736693973935946
692.0, 0.02713400513354558
693.0, 0.029012335398135157
694.0, 0.02937783362513356
695.0, 0.03070310082762266
696.0, 0.03374867003786573
697.0, 0.033916607902014576
698.0, 0.031442699546269263
699.0, 0.033858036461014575
700.0, 0.03599793772384788
701.0, 0.036720878059852836
702.0, 0.037619636052030905
703.0, 0.03787553164064432
704.0, 0.035580842913108125
705.0, 0.03484831448985824
706.0, 0.03605483965254581
707.0, 0.03716519944677105
708.0, 0.03594709340560574
709.0, 0.03238050488210489
710.0, 0.02630787428619523
711.0, 0.025008697680683718
712.0, 0.022672502348070923
713.0, 0.022374974659540036
714.0, 0.021041624310112746
715.0, 0.018525020017016433
716.0, 0.014997305345232248
717.0, 0.016238763452278274
718.0, 0.014690970592357504
719.0, 0.010498888696488053
720.0, 0.008580744644052228
721.0, 0.009904293349917995
722.0, 0.010841634541781565
723.0, 0.008778639190780108
724.0, 0.006738118409149046
725.0, 0.0067714309134696065
726.0, 0.006436443234857338
727.0, 0.007014439366119801
728.0, 0.008299822992156683
729.0, 0.004992551572526091
730.0, 0.0029728697060663147
731.0, 0.0017956644297833202
732.0, 0.0026135785928375274
733.0, 0.004548863991716254
734.0, 0.006072215698085163
735.0, 0.006300535703764007
736.0, 0.004467159375276057
737.0, 0.00675003760483246
738.0, 0.006886154831848544
739.0, 0.007456875110398631
740.0, 0.008456956251799888
741.0, 0.008351847155376194
742.0, 0.010183674326190717
743.0, 0.007539701180129358
744.0, 0.008152929390378344
745.0, 0.011270431944285498
746.0, 0.01202150783661831
747.0, 0.010463349823992085
748.0, 0.010952505144155739
749.0, 0.013110738327470391
750.0, 0.013388626820953355
751.0, 0.01447709607610766
752.0, 0.017248326968917562
753.0, 0.020785508014660118
754.0, 0.024498508123666225
755.0, 0.02856288323336539
756.0, 0.029141455646645963
757.0, 0.03408079499184365
758.0, 0.03751574320903848
759.0, 0.03842882133218029
760.0, 0.040065334735239565
761.0, 0.04334969635497015
762.0, 0.04250967232268871
763.0, 0.04068863032094906
764.0, 0.04209515138802375
765.0, 0.04207336897438876
766.0, 0.0404833312268492
767.0, 0.03918593126621092
768.0, 0.036888761643792845
769.0, 0.034794140908698465
770.0, 0.036235975581314854
771.0, 0.03351083682405269
772.0, 0.029132623550192697
773.0, 0.026322425865622688
774.0, 0.025311428524258894
775.0, 0.02718136848697845
776.0, 0.024886437711555763
777.0, 0.023412494592359605
778.0, 0.024104343867404388
779.0, 0.023479016355770953
780.0, 0.02005864304077545
781.0, 0.01706100600010338
782.0, 0.016891363710231394
783.0, 0.015483574372003716
784.0, 0.017018264585595647
785.0, 0.016403682977797044
786.0, 0.013557694578383826
787.0, 0.012447387022375297
788.0, 0.014110875484273077
789.0, 0.014566768044790332
790.0, 0.013227184875799517
791.0, 0.011827833680502558
792.0, 0.01164566195759651
793.0, 0.009677459146264559
794.0, 0.007460656317409715
795.0, 0.01088533488813403
796.0, 0.008304884998483973
797.0, 0.007727190462618406
798.0, 0.005300746586343001
799.0, 0.004739848671155456
800.0, 0.0052694412959281
801.0, 0.005770223065860083
802.0, 0.007960131851341666
803.0, 0.005402119946721294
804.0, 0.00546261892515495
805.0, 0.005033298627208519
806.0, 0.0005242075154008242
807.0, 0.0010662491931904907
808.0, 0.004558131262437865
809.0, 0.004093850127777879
810.0, 0.0026663727860675147
811.0, 0.002430467725289986
812.0, 0.0033529920834146866
813.0, 0.0033880618672771073
814.0, 0.0020694233518661017
815.0, 0.0006007175072800571
816.0, 0.0014598775240428827
817.0, 0.0032494802100437046
818.0, 0.0017579845762427074
819.0, 0.00027859151083148005
820.0, 0.0023019286453761162
821.0, 0.00447721540789396
822.0, 0.003120860572405893
823.0, 0.0032949081111615167
824.0, 0.0040823038988915105
825.0, 0.0018842905220048034
826.0, 0.0034176321949474504
827.0, 0.0024321360943316507
828.0, 0.00016668634552407667
829.0, 0.0015560592499264541
830.0, 0.0018657341706662036
831.0, 0.0026593427884688808
832.0, 0.002401398212965082
833.0, 0.001870448977532324
834.0, 0.0023796540991986026
835.0, 0.0012763125181930663
836.0, 0.003669530525415696
837.0, 0.0008309541059341972
838.0, 0.0011033539365595522
839.0, 0.0028445467903560943
840.0, 0.00034029434271549107
841.0, 0.0008839320123541486
842.0, 0.0005733142533616434
843.0, 0.0005337272708370556
844.0, 0.0011870234227454712
845.0, 0.003441092451629475
846.0, 0.0018153225326033272
847.0, 0.0009682145935870996
848.0, 0.0020430176628618455
849.0, 0.002042496160125216
850.0, 0.0003428084607990347
851.0, 0.00021053085815355284
852.0, 0.0025931275068514425
853.0, 0.0028424744105941683
854.0, 0.002696817552995413
855.0, 0.003193555418874405
856.0, 0.002933499679233489
857.0, 0.0023321384282716903
858.0, 0.0023333805369820447
859.0, 0.0012811601191791574
860.0, 0.0029996500588240337
861.0, 0.0010463020213155715
862.0, 0.0015722100049990438
863.0, 0.0030926373386022925
864.0, 0.0015770170642040878
865.0, 0.0005172420680566609
866.0, 0.0007521976069038457
867.0, 0.005898760004549904
868.0, 0.001679480919343897
869.0, 0.0018134783652530512
870.0, 0.0007725815922847796
871.0, 0.004428717762748789
872.0, 0.004007244616817283
873.0, 0.001704331096374005
874.0, 0.0029163616746294423
875.0, 0.0021846709975968455
876.0, 0.0030624477826257913
877.0, 0.0017453746808929747
878.0, 0.00241064428939357
879.0, 0.006366497054066377
880.0, 0.005986687009734034
881.0, 0.00327445957552588
882.0, 0.00197884468445724
883.0, 0.0051992317254751785
884.0, 0.009621481096701774
885.0, 0.009544137843704472
886.0, 0.006103007664474174
887.0, 0.0052673563402991334
888.0, 0.005894101846894782
889.0, 0.007942780936429835
890.0, 0.0078974170579077
891.0, 0.008139324149085138
892.0, 0.007277042503125228
893.0, 0.006757691910681873
894.0, 0.008735218943283562
895.0, 0.011135942016871217
896.0, 0.009594614207908218
897.0, 0.0068685016564127305
898.0, 0.010525007628995822
899.0, 0.007666050653914895
900.0, 0.00822617609197903
901.0, 0.0111529029919626
902.0, 0.012139860640144596
903.0, 0.011386039427250392
904.0, 0.007161895930083221
905.0, 0.006806576680192805
906.0, 0.007028714156666645
907.0, 0.008534565356866725
908.0, 0.009299584016209964
909.0, 0.007956973198816891
910.0, 0.008006377623530452
911.0, 0.012669236924827505
912.0, 0.009901668599382164
913.0, 0.009422149647239636
914.0, 0.008565124889573861
915.0, 0.007612154357431295
916.0, 0.006923707601927769
917.0, 0.004813512295821651
918.0, 0.004811101510911144
919.0, 0.00697577740762968
920.0, 0.008223870559695812
921.0, 0.004326097194233582
922.0, 0.0023936546448427624
923.0, 0.00317132779234509
924.0, 0.002268123219834963
925.0, 0.0003315903477153594
926.0, 0.0026033736725074646
927.0, 0.0007359618987715756
928.0, 0.00036727696466290407
929.0, 0.0005414460045852619
930.0, 0.0016980176593651944
931.0, 0.0017230056432737827
932.0, 0.0010056544446926622
933.0, 0.0008581817374302015
934.0, 0.0013382675709623377
935.0, 0.003759546822571376
936.0, 0.0033899677707016976
937.0, 0.0018606578296095646
938.0, 0.0007832111020269031
939.0, 0.00048386853120670285
940.0, 0.0011695871150583534
941.0, 0.0011913475862461956
942.0, 0.0025309357991302075
943.0, 0.0035486331754844085
944.0, 0.0007084443187895041
945.0, 0.0011340170227527608
946.0, 0.0016979147710060691
947.0, 0.0018796520497719495
948.0, 0.0035874660457043575
949.0, 0.005592628414133768
950.0, 0.007519890761636124
951.0, 0.007656213775566867
952.0, 0.0077833934306404265
953.0, 0.013343262150943037
954.0, 0.015479018566309385
955.0, 0.01507670690709129
956.0, 0.017629065827578273
957.0, 0.020924063640728404
958.0, 0.023618895665354765
959.0, 0.02805068039436626
960.0, 0.028467028831796422
961.0, 0.032679020523712105
962.0, 0.03582100433323644
963.0, 0.0402509840811164
964.0, 0.049399047192092774
965.0, 0.05846791804584879
966.0, 0.06337794159044716
967.0, 0.07636973024439579
968.0, 0.09482849786779446
969.0, 0.11446668227326551
970.0, 0.1322208792087415
971.0, 0.15615296729245856
972.0, 0.18875051492986777
973.0, 0.2262623858271856
974.0, 0.27101940806011104
975.0, 0.3160767684714424
976.0, 0.36419360532408884
977.0, 0.42186473525635826
978.0, 0.4742767762195517
979.0, 0.52221753395073
980.0, 0.5689364686504195
981.0, 0.6045991450166491
982.0, 0.6201132653781177
983.0, 0.6305487657247709
984.0, 0.6252192107292436
985.0, 0.608099387926819
986.0, 0.5832734541780505
987.0, 0.5559162000548636
988.0, 0.5293608573479368
989.0, 0.5080182023682965
990.0, 0.4937213508294331
991.0, 0.480527845268733
992.0, 0.4797503962882586
993.0, 0.4800431178849589
994.0, 0.48911076668103737
995.0, 0.5047817486935389
996.0, 0.5289802442479475
997.0, 0.5655206790190913
998.0, 0.6077187902168758
999.0, 0.6503905221092889
1000.0, 0.7174353388704132
1001.0, 0.7847031623378586
1002.0, 0.8565186287067181
1003.0, 0.921848951224121
1004.0, 0.9719706152974001
1005.0, 0.997925446283961
1006.0, 0.9841197873557177
1007.0, 0.9173478239923488
1008.0, 0.8158146999754747
1009.0, 0.7027356310405553
1010.0, 0.5877814373679726
1011.0, 0.4939518855552878
1012.0, 0.4153953054344068
1013.0, 0.35023380865495385
1014.0, 0.3036760163661297
1015.0, 0.2704262401184166
1016.0, 0.24045344488344048
1017.0, 0.21821722361421114
1018.0, 0.20115729764363804
1019.0, 0.18153997677741415
1020.0, 0.16831420215758194
1021.0, 0.16179404744415152
1022.0, 0.15555608973382792
1023.0, 0.148656009459765
1024.0, 0.14355286515072962
1025.0, 0.13535170101289687
1026.0, 0.12809505357598702
1027.0, 0.11758951338911366
1028.0, 0.11116093807395831
1029.0, 0.10476290531848804
1030.0, 0.09549352818305006
1031.0, 0.08805722032713682
1032.0, 0.08345870136001264
1033.0, 0.07773008253285088
1034.0, 0.07233613962591905
1035.0, 0.059437054811053276
1036.0, 0.050877627141006486
1037.0, 0.04340652027811527
1038.0, 0.03747744872663512
1039.0, 0.030487383111396964
1040.0, 0.024919312639285925
1041.0, 0.02094007456623049
1042.0, 0.015600649449853567
1043.0, 0.017302669137049545
1044.0, 0.01222414093485637
1045.0, 0.009676036351027803
1046.0, 0.006810046740054994
1047.0, 0.005309316292189989
1048.0, 0.006585312303072981
1049.0, 0.009810585900058129
1050.0, 0.008960633620344936
1051.0, 0.0028358812265018873
1052.0, 0.005244759266154642
1053.0, 0.00462893081764982
1054.0, 0.0030739758072851043
1055.0, 0.0038101382163837527
1056.0, 0.00322904873537437
1057.0, 0.004074392359398618
1058.0, 0.004704693582460951
1059.0, 0.0023069883651819206
1060.0, 0.00036648582830201573
1061.0, 0.0020479015843590537
1062.0, 0.0008800758821694743
1063.0, 0.0036219411581494064
1064.0, 0.0028149169923761125
1065.0, 0.0025595057065569784
1066.0, 0.0013375069508663386
1067.0, 0.0005685730635578148
1068.0, 0.0003575788605673934
1069.0, 0.0009729242997518828
1070.0, 0.00288190696498943
1071.0, 0.006333704381562978
1072.0, 0.001186176178670424
1073.0, 0.0017293384277702814
1074.0, 0.0007942101487839962
1075.0, 0.0007820812087452535
1076.0, 0.003444211794305546
1077.0, 0.005118857864416088
1078.0, 0.004409832638127857
1079.0, 0.0065626500630722095
1080.0, 0.012070204056067724
1081.0, 0.015162394819475882
1082.0, 0.025099100751707463
1083.0, 0.032273966446056325
1084.0, 0.04131336553562871
1085.0, 0.04597352067374816
1086.0, 0.04545712613999695
1087.0, 0.042791290396197695
1088.0, 0.03493841565213098
1089.0, 0.026938178129707654
1090.0, 0.022874919714173585
1091.0, 0.019668759504110598
1092.0, 0.016465527968378614
1093.0, 0.012461989450773009
1094.0, 0.011603890612575524
1095.0, 0.013036105921329224
1096.0, 0.011658966873114693
1097.0, 0.00758714298065091
1098.0, 0.006702278243503645
1099.0, 0.00977182347610565
1100.0, 0.007935568456844703
1101.0, 0.0038682614992141466
1102.0, 0.008232631453898367
1103.0, 0.006780392845657934
1104.0, 0.004039281769925988
1105.0, 0.005300206087891014
1106.0, 0.006953119300955643
1107.0, 0.006868497083370369
1108.0, 0.0048909963457633866
1109.0, 0.003416903343076605
1110.0, 0.007371749862503154
1111.0, 0.009292212447510422
1112.0, 0.011124171884786042
1113.0, 0.011719503755035696
1114.0, 0.016143222392067353
1115.0, 0.018246548636495316
1116.0, 0.015891697664754102
1117.0, 0.018855659171882012
1118.0, 0.022607117073675655
1119.0, 0.030093911129219875
1120.0, 0.03476351963991695
1121.0, 0.03680424937441547
1122.0, 0.04928552088320044
1123.0, 0.0642784527785467
1124.0, 0.0787291840714036
1125.0, 0.09807020847854882
1126.0, 0.12452635432951958
1127.0, 0.15500778699926696
1128.0, 0.18311608275083502
1129.0, 0.2001277408729234
1130.0, 0.22549452115240234
1131.0, 0.16530138850783951
1132.0, 0.11503566268938492
1133.0, 0.08685364829461818
1134.0, 0.07140903105647024
1135.0, 0.06456699236607322
1136.0, 0.06284914150912482
1137.0, 0.06677468414779582
1138.0, 0.07305995649106059
1139.0, 0.08550685603321537
1140.0, 0.10764927513328709
1141.0, 0.12110870751525833
1142.0, 0.12338786777328015
1143.0, 0.10451854092048768
1144.0, 0.08099827413614313
1145.0, 0.061286142403302345
1146.0, 0.04515437548281857
1147.0, 0.0330485585061425
1148.0, 0.02206191583643594
1149.0, 0.014982422466206138
1150.0, 0.015238310667596693
1151.0, 0.012576142002663089
1152.0, 0.01048253521739775
1153.0, 0.0065898601938861705
1154.0, 0.006080094698621333
1155.0, 0.0062231447460819435
1156.0, 0.006205415100912211
1157.0, 0.006491421759448586
1158.0, 0.003315902773608853
1159.0, 0.00029434599417882455
1160.0, 0.0029598863985594234
1161.0, 0.0021806059145449974
1162.0, 0.003620191617602696
1163.0, 0.0030450331968908547
1164.0, 0.0031890395379024863
1165.0, 0.0039027173521146217
1166.0, 0.0033140450630172705
1167.0, 0.0038922038393554795
1168.0, 0.004479604515097038
1169.0, 0.0007333654659226358
1170.0, 0.0023687145019951708
1171.0, 0.003137659646023376
1172.0, 0.0006950034431986079
1173.0, 0.002210153196382214
1174.0, 0.0048832211181155305
1175.0, 0.005057213074995058
1176.0, 0.004026370048123402
1177.0, 0.0003475723690618283
1178.0, 0.0010212690984697033
1179.0, 0.004373456854054915
1180.0, 0.0015046761041514838
1181.0, 0.0005734943608833753
1182.0, 0.0023137589305593396
1183.0, 0.0009522887970305073
1184.0, 0.001333867336657532
1185.0, 0.003068311274744602
1186.0, 0.0017231773082558703
1187.0, 0.001481977807469213
1188.0, 0.002901641050670165
1189.0, 0.0030578714861829353
1190.0, 0.0003826470486066524
1191.0, 0.0003449054646362395
1192.0, 0.0012716315694304718
1193.0, 0.002091363438604386
1194.0, 0.005449899710855528
1195.0, 0.004128595225619645
1196.0, 0.002643244799271833
1197.0, 0.0008015157808958585
1198.0, 0.0010586200390748665
1199.0, 0.0014543147695568258
1200.0, 0.004039616657349311
1201.0, 0.00328410500168901
1202.0, 0.004327333390543691
1203.0, 0.005331002715265902
1204.0, 0.006727427515105216
1205.0, 0.0029175671989995935
1206.0, 0.001618342529929494
1207.0, 0.0025862092849658416
1208.0, 0.00394131919574266
1209.0, 0.004682739548453011
1210.0, 0.005627315117739863
1211.0, 0.0053093563942553205
1212.0, 0.002181802116943756
1213.0, 0.0031502193314928944
1214.0, 0.01004627056680452
1215.0, 0.007181579800239172
1216.0, 0.006151238400957756
1217.0, 0.004417280232840442
1218.0, 0.004269577466360675
1219.0, 0.005987598405314994
1220.0, 0.003283536713209349
1221.0, 0.0031538362563751574
1222.0, 0.005397286612732005
1223.0, 0.0048302994073532194
1224.0, 0.0027032726663799847
1225.0, 0.004477246539759996
1226.0, 0.007820624385868863
1227.0, 0.0047114340712890845
1228.0, 0.0061947848468398604
1229.0, 0.007972076902303995
1230.0, 0.006232783312681264
1231.0, 0.005785364656811824
1232.0, 0.00706439030838202
1233.0, 0.006191359901801615
1234.0, 0.0020717282792898986
1235.0, 0.0045431556034125275
1236.0, 0.010555354515224739
1237.0, 0.009743143815657863
1238.0, 0.012178728687614557
1239.0, 0.0089236909996726
1240.0, 0.01180059531994516
1241.0, 0.008606549795486503
1242.0, 0.006156985836008247
1243.0, 0.005284303915807947
1244.0, 0.005446448119049707
1245.0, 0.002858797798022554
1246.0, 0.0074720621890665626
1247.0, 0.00821608164059643
1248.0, 0.002620124111755744
1249.0, 0.00517265408162227
1250.0, 0.008180603333238314
1251.0, 0.007406316847656697
1252.0, 0.0020198826406160847
1253.0, 0.004534984104040641
1254.0, 0.004981698423414878
1255.0, 0.005856772573618519
1256.0, 0.0029101200871549
1257.0, 0.0013240637887541843
1258.0, 0.003232401567049807
1259.0, 0.004811177405828857
1260.0, 0.004375677945642747
1261.0, 0.0050627496224295914
1262.0, 0.005253913881731527
1263.0, 0.0018323757600333447
1264.0, 0.005295615896434557
1265.0, 0.0014012763582662482
1266.0, 0.005070874599888887
1267.0, 0.006049001263196857
1268.0, 0.0010404487906846025
1269.0, 0.0013914855621163852
1270.0, 0.004087210949430654
1271.0, 0.006081835444855482
1272.0, 0.005246192890412495
1273.0, 0.005173174704927768
1274.0, 0.00587721043481597
1275.0, 0.002445791990865382
1276.0, 0.004142461230297942
1277.0, 0.0013487522383758663
1278.0, 0.004681566475096549
1279.0, 0.010682350017392532
1280.0, 0.006961857158064994
1281.0, 0.004588570928664522
1282.0, 0.006414548298630075
1283.0, 0.0066757905654691715
1284.0, 0.005899209867687329
1285.0, 0.003524757848004745
1286.0, 0.002916833225670834
1287.0, 0.0060766599918962
1288.0, 0.005357185693310769
1289.0, 0.006154020921461053
1290.0, 0.000537889003384391
1291.0, 0.0032303113348331166
1292.0, 0.0033921082184431356
1293.0, 0.005205761678459989
1294.0, 0.006283174547938972
1295.0, 0.003130036559983719
1296.0, 0.002289514329894089
1297.0, 0.0004967749764216228
1298.0, 0.001955504578841684
1299.0, 0.0040485388392450285
1300.0, 0.001443042395564126
1301.0, 0.00042919288274116164
1302, 0.0
1303, 0.0
1304, 0.0
1305, 0.0
1306, 0.0
1307, 0.0
1308, 0.0
1309, 0.0
1310, 0.0
1311, 0.0
1312, 0.0
1313, 0.0
1314, 0.0
1315, 0.0
1316, 0.0
1317, 0.0
1318, 0.0
1319, 0.0
1320, 0.0
1321, 0.0
1322, 0.0
1323, 0.0
1324, 0.0
1325, 0.0
1326, 0.0
1327, 0.0
1328, 0.0
1329, 0.0
1330, 0.0
1331, 0.0
1332, 0.0
1333, 0.0
1334, 0.0
1335, 0.0
1336, 0.0
1337, 0.0
1338, 0.0
1339, 0.0
1340, 0.0
1341, 0.0
1342, 0.0
1343, 0.0
1344, 0.0
1345, 0.0
1346, 0.0
1347, 0.0
1348, 0.0
1349, 0.0
1350, 0.0
1351, 0.0
1352, 0.0
1353, 0.0
1354, 0.0
1355, 0.0
1356, 0.0
1357, 0.0
1358, 0.0
1359, 0.0
1360, 0.0
1361, 0.0
1362, 0.0
1363, 0.0
1364, 0.0
1365, 0.0
1366, 0.0
1367, 0.0
1368, 0.0
1369, 0.0
1370, 0.0
1371, 0.0
1372, 0.0
1373, 0.0
1374, 0.0
1375, 0.0
1376, 0.0
1377, 0.0
1378, 0.0
1379, 0.0
1380, 0.0
1381, 0.0
1382, 0.0
1383, 0.0
1384, 0.0
1385, 0.0
1386, 0.0
1387, 0.0
1388, 0.0
1389, 0.0
1390, 0.0
1391, 0.0
1392, 0.0
1393, 0.0
1394, 0.0
1395, 0.0
1396, 0.0
1397, 0.0
1398, 0.0
1399, 0.0
1400, 0.0
1401, 0.0
1402, 0.0
1403, 0.0
1404, 0.0
1405, 0.0
1406, 0.0
1407, 0.0
1408, 0.0
1409, 0.0
1410, 0.0
1411, 0.0
1412, 0.0
1413, 0.0
1414, 0.0
1415, 0.0
1416, 0.0
1417, 0.0
1418, 0.0
1419, 0.0
1420, 0.0
1421, 0.0
1422, 0.0
1423, 0.0
1424, 0.0
1425, 0.0
1426, 0.0
1427, 0.0
1428, 0.0
1429, 0.0
1430, 0.0
1431, 0.0
1432, 0.0
1433, 0.0
1434, 0.0
1435, 0.0
1436, 0.0
1437, 0.0
1438, 0.0
1439, 0.0
1440, 0.0
1441, 0.0
1442, 0.0
1443, 0.0
1444, 0.0
1445, 0.0
1446, 0.0
1447, 0.0
1448, 0.0
1449, 0.0
1450, 0.0
1451, 0.0
1452, 0.0
1453, 0.0
1454, 0.0
1455, 0.0
1456, 0.0
1457, 0.0
1458, 0.0
1459, 0.0
1460, 0.0
1461, 0.0
1462, 0.0
1463, 0.0
1464, 0.0
1465, 0.0
1466, 0.0
1467, 0.0
1468, 0.0
1469, 0.0
1470, 0.0
1471, 0.0
1472, 0.0
1473, 0.0
1474, 0.0
1475, 0.0
1476, 0.0
1477, 0.0
1478, 0.0
1479, 0.0
1480, 0.0
1481, 0.0
1482, 0.0
1483, 0.0
1484, 0.0
1485, 0.0
1486, 0.0
1487, 0.0
1488, 0.0
1489, 0.0
1490, 0.0
1491, 0.0
1492, 0.0
1493, 0.0
1494, 0.0
1495, 0.0
1496, 0.0
1497, 0.0
1498, 0.0
1499, 0.0
1500, 0.0
1501, 0.0
1502, 0.0
1503, 0.0
1504, 0.0
1505, 0.0
1506, 0.0
1507, 0.0
1508, 0.0
1509, 0.0
1510, 0.0
1511, 0.0
1512, 0.0
1513, 0.0
1514, 0.0
1515, 0.0
1516, 0.0
1517, 0.0
1518, 0.0
1519, 0.0
1520, 0.0
1521, 0.0
1522, 0.0
1523, 0.0
1524, 0.0
1525, 0.0
1526, 0.0
1527, 0.0
1528, 0.0
1529, 0.0
1530, 0.0
1531, 0.0
1532, 0.0
1533, 0.0
1534, 0.0
1535, 0.0
1536, 0.0
1537, 0.0
1538, 0.0
1539, 0.0
1540, 0.0
1541, 0.0
1542, 0.0
1543, 0.0
1544, 0.0
1545, 0.0
1546, 0.0
1547, 0.0
1548, 0.0
1549, 0.0
1550, 0.0
1551, 0.0
1552, 0.0
1553, 0.0
1554, 0.0
1555, 0.0
1556, 0.0
1557, 0.0
1558, 0.0
1559, 0.0
1560, 0.0
1561, 0.0
1562, 0.0
1563, 0.0
1564, 0.0
1565, 0.0
1566, 0.0
1567, 0.0
1568, 0.0
1569, 0.0
1570, 0.0
1571, 0.0
1572, 0.0
1573, 0.0
1574, 0.0
1575, 0.0
1576, 0.0
1577, 0.0
1578, 0.0
1579, 0.0
1580, 0.0
1581, 0.0
1582, 0.0
1583, 0.0
1584, 0.0
1585, 0.0
1586, 0.0
1587, 0.0
1588, 0.0
1589, 0.0
1590, 0.0
1591, 0.0
1592, 0.0
1593, 0.0
1594, 0.0
1595, 0.0
1596, 0.0
1597, 0.0
1598, 0.0
1599, 0.0
