30, 0.0
31, 0.0
32, 0.0
33, 0.0
34, 0.0
35, 0.0
36, 0.0
37, 0.0
38, 0.0
39, 0.0
40, 0.0
41, 0.0
42, 0.0
43, 0.0
44, 0.0
45, 0.0
46, 0.0
47, 0.0
48, 0.0
49, 0.0
50, 0.0
51, 0.0
52, 0.0
53, 0.0
54, 0.0
55, 0.0
56, 0.0
57, 0.0
58, 0.0
59, 0.0
60, 0.0
61, 0.0
62, 0.0
63, 0.0
64, 0.0
65, 0.0
66, 0.0
67, 0.0
68, 0.0
69, 0.0
70, 0.0
71, 0.0
72, 0.0
73, 0.0
74, 0.0
75, 0.0
76, 0.0
77, 0.0
78, 0.0
79, 0.0
80, 0.0
81, 0.0
82, 0.0
83, 0.0
84, 0.0
85, 0.0
86, 0.0
87, 0.0
88, 0.0
89, 0.0
90, 0.0
91, 0.0
92, 0.0
93, 0.0
94, 0.0
95, 0.0
96, 0.0
97, 0.0
98, 0.0
99, 0.0
100, 0.0
101, 0.0
102, 0.0
103, 0.0
104, 0.0
105, 0.0
106, 0.0
107, 0.0
108, 0.0
109, 0.0
110, 0.0
111, 0.0
112, 0.0
113, 0.0
114, 0.0
115, 0.0
116, 0.0
117.0, 0.00015162852521177943
118.0, 0.002356132146067208
119.0, 0.006998709235051514
120.0, 0.007801299250971931
121.0, 0.01170259589858265
122.0, 0.018893554886227057
123.0, 0.030712589522679492
124.0, 0.04043764091845441
125.0, 0.050204555569238925
126.0, 0.06051644846099854
127.0, 0.07249845458310733
128.0, 0.0805142097813681
129.0, 0.08689881777614576
130.0, 0.09343628218545882
131.0, 0.09313032696282607
132.0, 0.09102927296962562
133.0, 0.08758737494450376
134.0, 0.08244796368282788
135.0, 0.07239761584999241
136.0, 0.060430608103564015
137.0, 0.04794449903502721
138.0, 0.045192156379476586
139.0, 0.039697423190477366
140.0, 0.032976016380212414
141.0, 0.02979032905366036
142.0, 0.026330565033766316
143.0, 0.02373767442948289
144.0, 0.02245851179146145
145.0, 0.022361028387867087
146.0, 0.02111918012309271
147.0, 0.021089552820942846
148.0, 0.026252324290273667
149.0, 0.025955204997507364
150.0, 0.026668041255252115
151.0, 0.029521706130124743
152.0, 0.03468955960423431
153.0, 0.03889533672087688
154.0, 0.04281165652954937
155.0, 0.04691506551004936
156.0, 0.05453958770279589
157.0, 0.060959553678059906
158.0, 0.06694133698658956
159.0, 0.07615888560851578
160.0, 0.08487740795382118
161.0, 0.09250260312802465
162.0, 0.09864217238309542
163.0, 0.10112838129623182
164.0, 0.10276494305379559
165.0, 0.1035327571810979
166.0, 0.10316552963860338
167.0, 0.10015235111359636
168.0, 0.09586695453371903
169.0, 0.09063462285443201
170.0, 0.08522562767548966
171.0, 0.07837460227727797
172.0, 0.07083173104757637
173.0, 0.06304424180086576
174.0, 0.05815012116960224
175.0, 0.05315495645018251
176.0, 0.04779822179622642
177.0, 0.04169322870295078
178.0, 0.03859851010811352
179.0, 0.03602036313389178
180.0, 0.033196226753199665
181.0, 0.03140232740821971
182.0, 0.028582849672301285
183.0, 0.02569575276383868
184.0, 0.023999233824898103
185.0, 0.020502464965126588
186.0, 0.01896938726220701
187.0, 0.019080237669653347
188.0, 0.01678692164341929
189.0, 0.01545305262671109
190.0, 0.01369813673835445
191.0, 0.010730553749562709
192.0, 0.007269392296045176
193.0, 0.004758813668947342
194.0, 0.0032307811863334355
195.0, 0.002956380109487651
196.0, 0.002169014885458789
197.0, 0.001740629282776614
198.0, 0.0017918779049245065
199.0, 0.0018388788483384643
200.0, 0.002909988661981472
201.0, 0.003445979014652654
202.0, 0.002213282653645102
203.0, 0.0026386736176102475
204.0, 0.002591001135033785
205.0, 0.0020678378914824906
206.0, 0.0011532863713418322
207.0, 0.0007435906456670365
208.0, 0.0009717005351378074
209.0, 0.0016884043093094506
210.0, 0.0006819534863018808
211.0, 0.0016327219167035414
212.0, 0.0035932783239522583
213.0, 0.005930285748149825
214.0, 0.002309082743698907
215.0, 0.0013685396966444756
216.0, 0.0023384610532984624
217.0, 0.002109690517788963
218.0, 0.002520259609775932
219.0, 0.0026875544702441995
220.0, 0.002288406085117564
221.0, 0.0006392591423010801
222.0, 0.0015729933347117743
223.0, 0.0025714083565522216
224.0, 0.001373155519987338
225.0, 0.0011118700089166587
226.0, 0.0011505554915392903
227.0, 0.0014127003000360136
228.0, 0.001829713298235793
229.0, 0.0012844013464277165
230.0, 0.0010804440797440532
231.0, 0.0015331975131282962
232.0, 0.002032245850458988
233.0, 0.002035375976125087
234.0, 0.002081619653918359
235.0, 0.0026194567247192313
236.0, 0.0019760267781014267
237.0, 0.0022840948090058167
238.0, 0.00271825359526291
239.0, 0.0011165387469658885
240.0, 0.00034404513386358034
241.0, 0.001149401423864774
242.0, 0.003061067877211497
243.0, 0.0007721012453965362
244.0, 0.0006609740130690889
245.0, 0.0014158032015527467
246.0, 0.0022853619116068743
247.0, 0.0018658193987104081
248.0, 0.0011461981236769458
249.0, 0.0006361779299454979
250.0, 0.001295023976003252
251.0, 0.002747230561148125
252.0, 0.004591415543450941
253.0, 0.006617539723045128
254.0, 0.008080443791052314
255.0, 0.008597270458582407
256.0, 0.010124716235839331
257.0, 0.01353597701070217
258.0, 0.015121700595592924
259.0, 0.01780259846080416
260.0, 0.021609767309139737
261.0, 0.0267853393634213
262.0, 0.031262582295312966
263.0, 0.03487116220977922
264.0, 0.03839869848234415
265.0, 0.04434979131580514
266.0, 0.05117123998170848
267.0, 0.05692601221407622
268.0, 0.06119166916024424
269.0, 0.0656904012780778
270.0, 0.06983021385371752
271.0, 0.07294597719406114
272.0, 0.07444190163828512
273.0, 0.07524571558115098
274.0, 0.07540836258216357
275.0, 0.0751268839314318
276.0, 0.07467659083185263
277.0, 0.07199381509658385
278.0, 0.07023601202368178
279.0, 0.06909482276807526
280.0, 0.06529813155936753
281.0, 0.06544805557830244
282.0, 0.06634378719290333
283.0, 0.06689614233119731
284.0, 0.06832246904336862
285.0, 0.07012168204567419
286.0, 0.07407536587144112
287.0, 0.08203624678859145
288.0, 0.08695109947371366
289.0, 0.09494574914427734
290.0, 0.10605597410832365
291.0, 0.1204289803236782
292.0, 0.13556558011822845
293.0, 0.15495277583418104
294.0, 0.17880559635867826
295.0, 0.20567379501836658
296.0, 0.2418614627242494
297.0, 0.28260480026983537
298.0, 0.32657792558579735
299.0, 0.37736915387829006
300.0, 0.43083393677982174
301.0, 0.47956947627497803
302.0, 0.5167982560919042
303.0, 0.5355121908007976
304.0, 0.5407546046670232
305.0, 0.5320004475284772
306.0, 0.5061057968977158
307.0, 0.47073988040516246
308.0, 0.431820082665955
309.0, 0.39266751122828436
310.0, 0.36270298404304574
311.0, 0.3353995411568764
312.0, 0.30860103463644606
313.0, 0.281799956953241
314.0, 0.2563741936094711
315.0, 0.23002310311438665
316.0, 0.20632489731230208
317.0, 0.1876471087473263
318.0, 0.1644708058064066
319.0, 0.14674074294400094
320.0, 0.13234979912104927
321.0, 0.11902751378908417
322.0, 0.1080307943130004
323.0, 0.10187687162535718
324.0, 0.09752953776890844
325.0, 0.0873865580250994
326.0, 0.0859328098351405
327.0, 0.0833224556555575
328.0, 0.07846155387556805
329.0, 0.07524178012241577
330.0, 0.07118275694464693
331.0, 0.06729030977973686
332.0, 0.06393260094229399
333.0, 0.06078443229576809
334.0, 0.05681626385756716
335.0, 0.05446249379525712
336.0, 0.05550045258017726
337.0, 0.04882020194293028
338.0, 0.04411104533438387
339.0, 0.041803170239448566
340.0, 0.042717214046628905
341.0, 0.04153757293608502
342.0, 0.04077708044295171
343.0, 0.03973318510576397
344.0, 0.03635481542386847
345.0, 0.03551714345029178
346.0, 0.03467161839574498
347.0, 0.03390858200841204
348.0, 0.0353959217493981
349.0, 0.03380876442862224
350.0, 0.03192850713471773
351.0, 0.030838491778266267
352.0, 0.03209938203901801
353.0, 0.0319573973977151
354.0, 0.031929019595106134
355.0, 0.03287673857054305
356.0, 0.035518062938845824
357.0, 0.03560115751429792
358.0, 0.03593044236596363
359.0, 0.03906211701046649
360.0, 0.03492182009691297
361.0, 0.0343443292918543
362.0, 0.035428813322879595
363.0, 0.03519200854927466
364.0, 0.03508270599201449
365.0, 0.03675291753258193
366.0, 0.03885082530337253
367.0, 0.0378636373012645
368.0, 0.03772244072910068
369.0, 0.03918294458448616
370.0, 0.04157705834928831
371.0, 0.04189715182091165
372.0, 0.040255812166537876
373.0, 0.03737924248260059
374.0, 0.03414823330069977
375.0, 0.03501350254087292
376.0, 0.03146419099843822
377.0, 0.02897478035908722
378.0, 0.02974383743212482
379.0, 0.029848086124884456
380.0, 0.027961759233833008
381.0, 0.02601581707748999
382.0, 0.025294596983620028
383.0, 0.025140476756062596
384.0, 0.024817077044534445
385.0, 0.023900540275772725
386.0, 0.021926981222345585
387.0, 0.019836419521497426
388.0, 0.01932111902746574
389.0, 0.019632526480380722
390.0, 0.019689163266445268
391.0, 0.019800016227547724
392.0, 0.018406613474282657
393.0, 0.016482258440732804
394.0, 0.016236565139050384
395.0, 0.0167458024117131
396.0, 0.016390503148923364
397.0, 0.015593704104712322
398.0, 0.016207219457713144
399.0, 0.013491127818447055
400.0, 0.012851087894713169
401.0, 0.014267452542731278
402.0, 0.01306862914575293
403.0, 0.012301163953047128
404.0, 0.012614485380177747
405.0, 0.013573269086096218
406.0, 0.011347015688512327
407.0, 0.012174721767568309
408.0, 0.013188871592684746
409.0, 0.013111632987858847
410.0, 0.010815720349985335
411.0, 0.01139997608477467
412.0, 0.0126589202366166
413.0, 0.0134945458227077
414.0, 0.01453097499027849
415.0, 0.016710422664665738
416.0, 0.019679698006572533
417.0, 0.02317157638671745
418.0, 0.025274401998212504
419.0, 0.03330051487985073
420.0, 0.044984916033648084
421.0, 0.05850663793070057
422.0, 0.0793793044995492
423.0, 0.1027157153515915
424.0, 0.12440535750372325
425.0, 0.13980012075841325
426.0, 0.15294834006209065
427.0, 0.15290813047082855
428.0, 0.1419631914307606
429.0, 0.12303687391995585
430.0, 0.101674133099693
431.0, 0.08231179850266429
432.0, 0.06576988071833571
433.0, 0.05319875451595401
434.0, 0.04326041688866122
435.0, 0.0354564234454044
436.0, 0.030066831663801547
437.0, 0.027897605322787615
438.0, 0.024494930407091272
439.0, 0.021958100676421448
440.0, 0.020151275228122597
441.0, 0.0182646180699851
442.0, 0.01836284335790557
443.0, 0.018581781961243292
444.0, 0.01854507221645166
445.0, 0.017941319043191593
446.0, 0.018838594660463545
447.0, 0.01824041383534245
448.0, 0.016881490476326685
449.0, 0.01853690047849746
450.0, 0.020126078980974158
451.0, 0.019566742104612483
452.0, 0.01753736787898168
453.0, 0.017754026699227324
454.0, 0.02155370545544892
455.0, 0.02373883331475415
456.0, 0.02368409284273598
457.0, 0.02343723006390507
458.0, 0.02559222709822144
459.0, 0.0281225753032024
460.0, 0.0303949781273257
461.0, 0.031868676446299114
462.0, 0.033025293532582496
463.0, 0.03544979473111216
464.0, 0.03845180879674197
465.0, 0.03699240030645873
466.0, 0.043769171701777985
467.0, 0.0485278190409181
468.0, 0.0500737655475154
469.0, 0.05677674156358898
470.0, 0.06213446340811695
471.0, 0.06850651229608687
472.0, 0.0764197205495492
473.0, 0.08494350619863855
474.0, 0.09285135845251492
475.0, 0.10257739344883417
476.0, 0.11441847348533084
477.0, 0.12603848832040296
478.0, 0.1376652634243811
479.0, 0.14806651643348356
480.0, 0.15711685299273742
481.0, 0.16616685820245322
482.0, 0.17041453683812965
483.0, 0.17242931029476322
484.0, 0.17304389698162137
485.0, 0.17255551498236907
486.0, 0.1680822847245586
487.0, 0.16471531457874664
488.0, 0.16343070299946894
489.0, 0.16157339138957286
490.0, 0.1545062212701176
491.0, 0.15003574559752772
492.0, 0.14786518729141884
493.0, 0.13653281039136897
494.0, 0.1317943383967651
495.0, 0.1294818326475646
496.0, 0.12623823867437675
497.0, 0.1128400179195622
498.0, 0.11039513398341902
499.0, 0.10679005412947401
500.0, 0.10028366008096018
501.0, 0.09591343502132138
502.0, 0.08740798485298176
503.0, 0.07972027380257479
504.0, 0.07430106587474536
505.0, 0.0722571651983302
506.0, 0.06402382450257219
507.0, 0.05916002559187412
508.0, 0.05746473973171162
509.0, 0.05247307393236593
510.0, 0.04768035938248168
511.0, 0.043225506490894086
512.0, 0.03886648712334601
513.0, 0.0338964439276615
514.0, 0.031581069808965904
515.0, 0.027878939613842788
516.0, 0.023995238564344466
517.0, 0.02409593438799288
518.0, 0.02120385134588992
519.0, 0.017436637478436094
520.0, 0.013774033974420988
521.0, 0.011647899527759709
522.0, 0.010644947545638446
523.0, 0.0115923868980273
524.0, 0.01210109195733779
525.0, 0.008058042790575919
526.0, 0.006635697549557358
527.0, 0.008993405228910999
528.0, 0.010420160836463396
529.0, 0.004249669532638891
530.0, 0.004467488007915127
531.0, 0.0034010319601041213
532.0, 0.0019767779437297275
533.0, 0.0015454583896307543
534.0, 0.0012348214005637602
535.0, 0.0017420969127511427
536.0, 0.0020547562565507286
537.0, 0.0012374145942546572
538.0, 0.00035961725826359704
539.0, 0.0004433878895737805
540.0, 0.0007001703154579015
541.0, 0.000630372269400421
542.0, 0.002020560874194054
543.0, 0.0018046433319999185
544.0, 0.0020432665511275804
545.0, 0.0034526023393774523
546.0, 0.0006782763159678495
547.0, 0.0007404832673897694
548.0, 0.0019670267501478355
549.0, 0.0031326630792453385
550.0, 0.0012078399583773237
551.0, 0.0005730642677747307
552.0, 0.0009197539568167427
553.0, 0.0020951000709962505
554.0, 0.003877960728433666
555.0, 0.0016948016204915307
556.0, 0.00040624607053671517
557.0, 0.0006315657720250875
558.0, 0.00028380790355532416
559.0, 0.0013617742779545726
560.0, 0.00118223338076573
561.0, 0.00037714692237580114
562.0, 0.0015996355670376606
563.0, 0.0021795095752605107
564.0, 0.0019736137801050348
565.0, 0.0012893136621882901
566.0, 0.0006760299292440981
567.0, 0.000910725587986235
568.0, 0.002470868555942997
569.0, 0.004510566971415855
570.0, 0.005947406122829682
571.0, 0.004749446437711347
572.0, 0.005514373895350071
573.0, 0.006494229545667061
574.0, 0.006194300984712102
575.0, 0.007650514823922973
576.0, 0.008470441290653953
577.0, 0.009318423340030938
578.0, 0.010538923938821127
579.0, 0.011357838215201437
580.0, 0.011649977500556984
581.0, 0.01205899128439825
582.0, 0.012844784610824705
583.0, 0.013878407630616086
584.0, 0.01454238803615363
585.0, 0.015760137476642826
586.0, 0.01759274990905253
587.0, 0.019340949531345082
588.0, 0.021158077219936438
589.0, 0.023792634467889675
590.0, 0.027026321545043155
591.0, 0.03008868979741134
592.0, 0.03494545461244385
593.0, 0.040637992145665186
594.0, 0.047138904616863306
595.0, 0.054526130195149555
596.0, 0.06886394552210151
597.0, 0.08790895441763683
598.0, 0.10989059730905625
599.0, 0.13323351562490682
600.0, 0.1620442418867603
601.0, 0.19576531346371462
602.0, 0.22865797762036352
603.0, 0.25458988708066976
604.0, 0.25174874109068096
605.0, 0.2413537207113071
606.0, 0.224578274530566
607.0, 0.20198271591612238
608.0, 0.17407186043903838
609.0, 0.14880031418497042
610.0, 0.12730883451205535
611.0, 0.11068454546998163
612.0, 0.10107045950598903
613.0, 0.09093217779441673
614.0, 0.08306755331297207
615.0, 0.07806032924093968
616.0, 0.07627692116167467
617.0, 0.07317614970922748
618.0, 0.07211615581172345
619.0, 0.07240045053769675
620.0, 0.07325312376496396
621.0, 0.07561672957580548
622.0, 0.07800437515353804
623.0, 0.08104441784817579
624.0, 0.08549011571909601
625.0, 0.09414638005139583
626.0, 0.10322068582461884
627.0, 0.11317241914089175
628.0, 0.12454244276210259
629.0, 0.1387044849517047
630.0, 0.15287526734427148
631.0, 0.16851690214706339
632.0, 0.18320630398408275
633.0, 0.19160867894454453
634.0, 0.2024795430600264
635.0, 0.2083416299903699
636.0, 0.2126816607118238
637.0, 0.22010199667194683
638.0, 0.23139092146266552
639.0, 0.25257783200381795
640.0, 0.28319851562681136
641.0, 0.3241306089311936
642.0, 0.3872145919236211
643.0, 0.4556839998029221
644.0, 0.5366371620481625
645.0, 0.6232736630641943
646.0, 0.6805716380893755
647.0, 0.6894948347382758
648.0, 0.6696219582713261
649.0, 0.6180206168531432
650.0, 0.5227692683823949
651.0, 0.44001375652285335
652.0, 0.3599486587483545
653.0, 0.29059760177361227
654.0, 0.24016901264198276
655.0, 0.1938134057802647
656.0, 0.16125781861953997
657.0, 0.1356398935843814
658.0, 0.11310293815044187
659.0, 0.09542994756677164
660.0, 0.08268940409262945
661.0, 0.07336002712862746
662.0, 0.06573648684595867
663.0, 0.05622936579678284
664.0, 0.05171261422393596
665.0, 0.0460011466454979
666.0, 0.04036706296618655
667.0, 0.03770832688310184
668.0, 0.03504675859753689
669.0, 0.033291017066437695
670.0, 0.030419364523337367
671.0, 0.02555688559108876
672.0, 0.025529783431536186
673.0, 0.023854479236486766
674.0, 0.020429186744865553
675.0, 0.01701442569225132
676.0, 0.020233293567514635
677.0, 0.016729774319637142
678.0, 0.014851202440351886
679.0, 0.014640556558890218
680.0, 0.013737687829803407
681.0, 0.01431909723139025
682.0, 0.013390185816445486
683.0, 0.012013066570643292
684.0, 0.011216624459469577
685.0, 0.010837561975506936
686.0, 0.00785963145479526
687.0, 0.006297950264417206
688.0, 0.0068337907927509154
689.0, 0.005364718833045475
690.0, 0.007357373610684274
691.0, 0.008103466525721616
692.0, 0.007231492799841963
693.0, 0.005626920941308776
694.0, 0.004736436593246486
695.0, 0.005160347507575431
696.0, 0.005720471257792675
697.0, 0.005293033760362509
698.0, 0.0030157897299619716
699.0, 0.003333795788650401
700.0, 0.004482255154998308
701.0, 0.005128090011551548
702.0, 0.0030796874588421425
703.0, 0.0018734526296004684
704.0, 0.0020204615509381058
705.0, 0.002920130234308215
706.0, 0.0035032848209743694
707.0, 0.0033966835373353947
708.0, 0.0025409447303119765
709.0, 0.0016123403883507557
710.0, 0.0011446386419516042
711.0, 0.0013266687537699473
712.0, 0.002689875876876824
713.0, 0.0035951737136167886
714.0, 0.00340894287205048
715.0, 0.001850542522108257
716.0, 0.001845912431472216
717.0, 0.0028313164334355517
718.0, 0.0036008724408364942
719.0, 0.0028614926901163753
720.0, 0.0024064374530920795
721.0, 0.0025596096766539135
722.0, 0.0026235574905692574
723.0, 0.002234717437598316
724.0, 0.0014703157169028245
725.0, 0.000636515836488086
726.0, 0.00029362269100934236
727.0, 0.00027099493672436375
728.0, 3.632589591258021e-05
729.0, 0.002998548698151888
730.0, 0.003259063177333149
731.0, 0.0020055473120390954
732.0, 0.0008504794541042947
733.0, 0.0036180913440994555
734.0, 0.0028353845422675146
735.0, 0.00361234957965828
736.0, 0.005104413991527823
737.0, 0.0004991237505714021
738.0, 6.953994652137556e-05
739.0, 0.002678635387736737
740.0, 0.004351752284974485
741.0, 0.001230612500870209
742.0, 0.0002583052310785236
743.0, 0.0011759218470821491
744.0, 0.0014158429841047073
745.0, 0.0007574593005592277
746.0, 0.002867642600588794
747.0, 0.00255586812078135
748.0, 0.001764981190667704
749.0, 0.0011866251519793206
750.0, 0.0013371371497715172
751.0, 0.0003931084389101515
752.0, 0.0007844373696263192
753.0, 0.0009986649151930936
754.0, 0.0005734608615839084
755.0, 0.0017409843632683057
756.0, 0.0015887169610984948
757.0, 0.0009475900891999215
758.0, 0.000751599465007794
759.0, 0.002254905924471149
760.0, 0.0018968811693962579
761.0, 0.0009721960734905756
762.0, 0.0003496172937193769
763.0, 0.0004471570306774971
764.0, 0.00018077226086394378
765.0, 0.0023843302230568612
766.0, 0.0023690504136581678
767.0, 0.0010884981733340366
768.0, 0.0026016159924081425
769.0, 0.0035600592103567034
770.0, 0.0024902858199765186
771.0, 0.003258824287307585
772.0, 0.007253885943633596
773.0, 0.0036877259133514923
774.0, 0.0038386120003433555
775.0, 0.004637696809429058
776.0, 0.004435890285583327
777.0, 0.0016330950021750741
778.0, 0.005324428971390368
779.0, 0.005935779801001602
780.0, 0.006164987685440612
781.0, 0.007754625056264437
782.0, 0.006015642870716388
783.0, 0.0069080568910354235
784.0, 0.00852302014855057
785.0, 0.009933724472893389
786.0, 0.010335974592284584
787.0, 0.010473387643048643
788.0, 0.011523167545371821
789.0, 0.01363850458873508
790.0, 0.01638911295503216
791.0, 0.01678421826455923
792.0, 0.01717893175874604
793.0, 0.02023890879092246
794.0, 0.023645446681981055
795.0, 0.02216400605035817
796.0, 0.026497010340876318
797.0, 0.028832192477080378
798.0, 0.03142369333413324
799.0, 0.03489657067904694
800.0, 0.03421520036139791
801.0, 0.03766756072220544
802.0, 0.04103877189632135
803.0, 0.04274057859504762
804.0, 0.04184512118979672
805.0, 0.045988489236260206
806.0, 0.047781718541854666
807.0, 0.0499097366794982
808.0, 0.05243369662335281
809.0, 0.04960118588821351
810.0, 0.051288506602735005
811.0, 0.05306430594253207
812.0, 0.0528603827913214
813.0, 0.04944071594984618
814.0, 0.05062995073639387
815.0, 0.051613093601324024
816.0, 0.050184760802764745
817.0, 0.048098058606533226
818.0, 0.05304733055739063
819.0, 0.04878197777787134
820.0, 0.04762029330939086
821.0, 0.04556468129325727
822.0, 0.03919700462564279
823.0, 0.040651620401986194
824.0, 0.040580427470166956
825.0, 0.038720368379047576
826.0, 0.0364270496223382
827.0, 0.03653684885825464
828.0, 0.03218078293830005
829.0, 0.027904821995250777
830.0, 0.02643270967454983
831.0, 0.02756826937535601
832.0, 0.022025738617452946
833.0, 0.017649104902655557
834.0, 0.016625977197779054
835.0, 0.016460581619884354
836.0, 0.013514902060079673
837.0, 0.01523502007979259
838.0, 0.012862876583907579
839.0, 0.011283460084256597
840.0, 0.011197394643316176
841.0, 0.008333535354050644
842.0, 0.006726697057422732
843.0, 0.0052072703872236385
844.0, 0.004100568487747331
845.0, 0.003722238680219598
846.0, 0.0038249123841122877
847.0, 0.005266419762068481
848.0, 0.004875792403426315
849.0, 0.0038008866764818157
850.0, 0.0052084755360523195
851.0, 0.0020666483302982644
852.0, 0.0007458086384916868
853.0, 0.0022580179841714034
854.0, 0.005081428129347136
855.0, 0.0024787777938230066
856.0, 0.0033108503254384077
857.0, 0.002044395025824735
858.0, 0.0010929964643627645
859.0, 0.0029153365791770827
860.0, 0.0032746383383938336
861.0, 0.0018628334392724408
862.0, 0.002120673977010165
863.0, 0.003258374356302397
864.0, 0.0022203840473795254
865.0, 0.0008057636987652489
866.0, 0.0019761250876598494
867.0, 0.003680251765480106
868.0, 0.004337489302182803
869.0, 0.0025983463477205217
870.0, 0.004603920859748678
871.0, 0.004221055686197468
872.0, 0.0030201274485746788
873.0, 0.003011835204324876
874.0, 0.003397471117584668
875.0, 0.0033144647100742503
876.0, 0.003828858914552218
877.0, 0.0039059345852931146
878.0, 0.00164444259983942
879.0, 0.0006373630968801644
880.0, 0.002645141327357859
881.0, 0.003873465145223413
882.0, 0.0030703770530829955
883.0, 0.0017764741977811592
884.0, 0.0011300993783834679
885.0, 0.000963818863239599
886.0, 0.0007382030629196356
887.0, 0.00040384421368116347
888.0, 0.0018759564012265724
889.0, 0.0011931903285401176
890.0, 0.00046353703918553376
891.0, 0.0004176825428073102
892.0, 0.0012531239900919794
893.0, 0.0003546605409333082
894.0, 0.0006295510267415709
895.0, 0.0006004188141316568
896.0, 0.00037230767009120474
897.0, 0.0010742192959717293
898.0, 0.002323611382154562
899.0, 0.002519421082823987
900.0, 0.0016901025597943346
901.0, 0.0008133530524168815
902.0, 0.0027435761252947583
903.0, 0.001641136960047146
904.0, 0.0008284460237199144
905.0, 0.0011162978429705697
906.0, 0.002417270729134861
907.0, 0.002090137500716506
908.0, 0.0025874136451042046
909.0, 0.0030533526092396185
910.0, 0.002572134605356865
911.0, 0.0006604992438152983
912.0, 0.0017023964010175903
913.0, 0.0016229300284912056
914.0, 0.002715663608498276
915.0, 0.00407593065605202
916.0, 0.0030065045964904713
917.0, 0.0024587943556684047
918.0, 0.0011614867793078103
919.0, 0.0010015234452840386
920.0, 0.001921520437371598
921.0, 0.001545608362530806
922.0, 0.003969120935863736
923.0, 0.00305955474298736
924.0, 0.0017903023210065348
925.0, 0.0017648660581414163
926.0, 0.0006594103365351356
927.0, 0.0006591956754014174
928.0, 0.002160601266625211
929.0, 0.003139997671700975
930.0, 0.002400765767245932
931.0, 0.003885240440738817
932.0, 0.002060097628713958
933.0, 0.001506747011631886
934.0, 0.0022420543952269244
935.0, 0.0031571948936639084
936.0, 0.004074152171513934
937.0, 0.0017779482635108118
938.0, 0.0019285588808818433
939.0, 0.0035924500201795053
940.0, 0.0028846143038074325
941.0, 0.0024402066205527523
942.0, 0.004958779410783491
943.0, 0.005940878559679612
944.0, 0.004609555781601471
945.0, 0.003074849015938038
946.0, 0.004261621697099472
947.0, 0.005255599102562225
948.0, 0.006570682957621631
949.0, 0.007712380344527548
950.0, 0.0067258942511971296
951.0, 0.008100327251425314
952.0, 0.007079282017648993
953.0, 0.00718379812348078
954.0, 0.009260222418018823
955.0, 0.008002283819331496
956.0, 0.008519132407068803
957.0, 0.00954080399874525
958.0, 0.00995354260876558
959.0, 0.010048807687100748
960.0, 0.014532684021604552
961.0, 0.01778988508650857
962.0, 0.015298474182841412
963.0, 0.015245074163293723
964.0, 0.022144586249201428
965.0, 0.015692367347141203
966.0, 0.021167997479828022
967.0, 0.023339646176720342
968.0, 0.023443773489278886
969.0, 0.025929511146909077
970.0, 0.03233768666546927
971.0, 0.026911500195780685
972.0, 0.028943217167576047
973.0, 0.035699000237824234
974.0, 0.03871690632151256
975.0, 0.04048053823755087
976.0, 0.042471494198221715
977.0, 0.046709052455498654
978.0, 0.05013850536388713
979.0, 0.04910980528462644
980.0, 0.05909792528674433
981.0, 0.060198337959482096
982.0, 0.06365383662250987
983.0, 0.06988387545680033
984.0, 0.0740554851214724
985.0, 0.07171570657750681
986.0, 0.08707919132417109
987.0, 0.09576504356107411
988.0, 0.09922346091452236
989.0, 0.11265716189923584
990.0, 0.12266999185343672
991.0, 0.13073871717188154
992.0, 0.14647336149908388
993.0, 0.1688488973175579
994.0, 0.1898284734566355
995.0, 0.21029184600384118
996.0, 0.2375758280189629
997.0, 0.2630626537352763
998.0, 0.29114358563779064
999.0, 0.33462068605636924
1000.0, 0.36442742898996594
1001.0, 0.4001799884540719
1002.0, 0.44917365186521696
1003.0, 0.5037499368974107
1004.0, 0.5453489404000679
1005.0, 0.5982323135168467
1006.0, 0.6490297433912681
1007.0, 0.6906298332190846
1008.0, 0.7309895100269601
1009.0, 0.7881392354818527
1010.0, 0.8009481057867867
1011.0, 0.8139705811018699
1012.0, 0.8169658632529968
1013.0, 0.800129033663863
1014.0, 0.755819868548219
1015.0, 0.7357980739380859
1016.0, 0.6854447117048886
1017.0, 0.6309159546990285
1018.0, 0.5824504772134678
1019.0, 0.5387686447857285
1020.0, 0.4830468186539673
1021.0, 0.4404853944943298
1022.0, 0.3999992975723556
1023.0, 0.36022401420160205
1024.0, 0.32614457850182227
1025.0, 0.3085508206161369
1026.0, 0.28295050600877963
1027.0, 0.261245761371567
1028.0, 0.24615458427135548
1029.0, 0.23500574086360118
1030.0, 0.2233170950546872
1031.0, 0.220674140777811
1032.0, 0.22008456799259715
1033.0, 0.21925055673108926
1034.0, 0.2186037807025388
1035.0, 0.22566443959510743
1036.0, 0.23001591367190016
1037.0, 0.23730705619824047
1038.0, 0.24599518480869664
1039.0, 0.2528127668972851
1040.0, 0.2629422503626758
1041.0, 0.27470700459969133
1042.0, 0.28359782912985115
1043.0, 0.2913925010747471
1044.0, 0.3020186765559878
1045.0, 0.3207251666838985
1046.0, 0.3293406215129899
1047.0, 0.335933440043343
1048.0, 0.3473010597892204
1049.0, 0.3660807799077528
1050.0, 0.3800973346519234
1051.0, 0.4010604893171324
1052.0, 0.4213970830188093
1053.0, 0.4448194172762362
1054.0, 0.4751110143134607
1055.0, 0.5121177620968709
1056.0, 0.5457960760689674
1057.0, 0.5999942599037333
1058.0, 0.668094920510482
1059.0, 0.7364619198842665
1060.0, 0.7841819946965395
1061.0, 0.8816114451372112
1062.0, 0.9437076671868595
1063.0, 0.9805745685218178
1064.0, 0.9968648213236484
1065.0, 0.9835236354668273
1066.0, 0.9093631395555021
1067.0, 0.8354173850648955
1068.0, 0.7402466426856705
1069.0, 0.6296093529403423
1070.0, 0.5329844703243525
1071.0, 0.46643788449669044
1072.0, 0.3950177049403959
1073.0, 0.33292376446105637
1074.0, 0.2831982568274899
1075.0, 0.24215441823562306
1076.0, 0.20550878556754582
1077.0, 0.18506648661065778
1078.0, 0.16303838831523146
1079.0, 0.1412121305050984
1080.0, 0.12652490887590162
1081.0, 0.11872487398943113
1082.0, 0.10481470984014106
1083.0, 0.09488320258141901
1084.0, 0.08808396088282852
1085.0, 0.08102437966613615
1086.0, 0.06932879818094327
1087.0, 0.07001501489706441
1088.0, 0.0674296435757459
1089.0, 0.06573904745677397
1090.0, 0.06576279021242817
1091.0, 0.05990459723723056
1092.0, 0.05649470282951457
1093.0, 0.055824271029418164
1094.0, 0.05734837093147521
1095.0, 0.057997430674597554
1096.0, 0.053264835002499386
1097.0, 0.056581036629126745
1098.0, 0.056121238485303544
1099.0, 0.05941634381905329
1100.0, 0.064616865671371
1101.0, 0.06624386779459325
1102.0, 0.06761946434627776
1103.0, 0.07162186200238722
1104.0, 0.0743263377112979
1105.0, 0.07717162407378653
1106.0, 0.08313488359447024
1107.0, 0.09592138795445332
1108.0, 0.10053004233641004
1109.0, 0.10651664666116603
1110.0, 0.11422543830528072
1111.0, 0.12103351158759594
1112.0, 0.12130471068231623
1113.0, 0.1309001067579132
1114.0, 0.14043280842618078
1115.0, 0.1424228599044431
1116.0, 0.14241325537285615
1117.0, 0.15427878065363626
1118.0, 0.15371938990252326
1119.0, 0.16025803453974655
1120.0, 0.16573274660016205
1121.0, 0.16659221950480563
1122.0, 0.16442455079890506
1123.0, 0.17675781409621358
1124.0, 0.1746403013109121
1125.0, 0.17000578377299294
1126.0, 0.1666592727207823
1127.0, 0.1647528123053874
1128.0, 0.15958149884703723
1129.0, 0.15589658213370827
1130.0, 0.15138872434988504
1131.0, 0.1471710217820239
1132.0, 0.1432740534973109
1133.0, 0.1386398689861604
1134.0, 0.13418954281119938
1135.0, 0.12979956351881927
1136.0, 0.1243432177671678
1137.0, 0.1165033790584152
1138.0, 0.10705802208153427
1139.0, 0.10717376459160853
1140.0, 0.09704277622006328
1141.0, 0.09195606665585078
1142.0, 0.08660689325318305
1143.0, 0.0756418707003089
1144.0, 0.06008932037318313
1145.0, 0.06606476869163255
1146.0, 0.058024089023806874
1147.0, 0.05157609992095112
1148.0, 0.04943251366196351
1149.0, 0.04323039386058077
1150.0, 0.03435617862416601
1151.0, 0.03411171095581444
1152.0, 0.0371956623269479
1153.0, 0.03740283510706995
1154.0, 0.03211126116083305
1155.0, 0.0313941960749879
1156.0, 0.02929700939692503
1157.0, 0.028068989479026602
1158.0, 0.028354316072861617
1159.0, 0.028370043906696053
1160.0, 0.023960821562855984
1161.0, 0.021212637245005137
1162.0, 0.0283944954289584
1163.0, 0.02634066499339694
1164.0, 0.02206896824180678
1165.0, 0.0286715883889335
1166.0, 0.02384749637383852
1167.0, 0.023620015360476965
1168.0, 0.024703174808761705
1169.0, 0.024719465500082544
1170.0, 0.023581794905087466
1171.0, 0.02473696894352474
1172.0, 0.03020207533023709
1173.0, 0.02330788352464825
1174.0, 0.025019669980939848
1175.0, 0.031002119745102825
1176.0, 0.02558756171055986
1177.0, 0.0273114832168352
1178.0, 0.02830099935574918
1179.0, 0.02973956280080323
1180.0, 0.02929294093046153
1181.0, 0.027531220754232942
1182.0, 0.03178795128916385
1183.0, 0.030303809540587506
1184.0, 0.03167427275167898
1185.0, 0.03436772043814434
1186.0, 0.03628258881003076
1187.0, 0.03617765622099509
1188.0, 0.039877064916790377
1189.0, 0.04199776682668935
1190.0, 0.04196384104897627
1191.0, 0.04345683676865593
1192.0, 0.046552552667496104
1193.0, 0.04294572556963458
1194.0, 0.048510871494865895
1195.0, 0.051166350475488676
1196.0, 0.04736986231054781
1197.0, 0.04370470864489659
1198.0, 0.04929596807073327
1199.0, 0.0507479305670413
1200.0, 0.0492048899316589
1201.0, 0.050094453659683284
1202.0, 0.04839374547154508
1203.0, 0.04444847886574803
1204.0, 0.04981585395808037
1205.0, 0.0507201323788339
1206.0, 0.04474965826161583
1207.0, 0.04429120091242538
1208.0, 0.04556922632537165
1209.0, 0.04012050413941042
1210.0, 0.037352322886455326
1211.0, 0.041530418580373755
1212.0, 0.03677285818479607
1213.0, 0.03384464275613059
1214.0, 0.03646813929414969
1215.0, 0.035568513053673256
1216.0, 0.025787731962841152
1217.0, 0.029437199170843295
1218.0, 0.029993598427671794
1219.0, 0.02731771394241836
1220.0, 0.02523526237576744
1221.0, 0.02104441465990919
1222.0, 0.019282738609266065
1223.0, 0.019542455962432977
1224.0, 0.017946633142209265
1225.0, 0.014388046206407778
1226.0, 0.012012837094514615
1227.0, 0.013505913014429173
1228.0, 0.010834222838613189
1229.0, 0.011315002949218549
1230.0, 0.011587092489789574
1231.0, 0.008504506380291066
1232.0, 0.003361458206212936
1233.0, 0.006241107765409288
1234.0, 0.009140187387356264
1235.0, 0.005821631485408095
1236.0, 0.002777349590779227
1237.0, 0.0065657814667784125
1238.0, 0.0035023970555788874
1239.0, 0.004216439563886911
1240.0, 0.005742675544964782
1241.0, 0.005019794346435975
1242.0, 0.003133702466302874
1243.0, 0.0038353149350022347
1244.0, 0.002463265244061882
1245.0, 0.0013507897472712755
1246.0, 0.0030671915341399895
1247.0, 0.00357858196972783
1248.0, 0.0014641462900077786
1249.0, 0.0015671562111920227
1250.0, 0.003029581445611938
1251.0, 0.004261514390511654
1252.0, 0.004171772832978695
1253.0, 0.004206055175079349
1254.0, 0.005192562996354542
1255.0, 0.0032516305015970596
1256.0, 0.003739961535616855
1257.0, 0.0022368906640113815
1258.0, 0.0017067258526191151
1259.0, 0.0025096360329111846
1260.0, 0.002852052067662156
1261.0, 0.0011862639005142217
1262.0, 0.0029293532656931116
1263.0, 0.004976773116136824
1264.0, 0.006134336919076758
1265.0, 0.005479797281647537
1266.0, 0.0028307198959895614
1267.0, 0.005134781418659763
1268.0, 0.002504626755872287
1269.0, 0.0019523337273540337
1270.0, 0.0018066362405686615
1271.0, 0.0013670962548463807
1272.0, 0.00507200714817846
1273.0, 0.006805660291640628
1274.0, 0.0026076719853292294
1275.0, 0.0019093308479215926
1276.0, 0.002451229835686062
1277.0, 0.0005776600176607926
1278.0, 0.001626330062016327
1279.0, 0.0009454717134800857
1280.0, 0.004584256903536625
1281.0, 0.004802861997761407
1282.0, 0.0028635089959566824
1283.0, 0.004027010238058737
1284.0, 0.006852159697171234
1285.0, 0.0027274056188217833
1286.0, 0.0009360046898854098
1287.0, 0.0014747110230350024
1288.0, 0.0022381565307499885
1289.0, 0.0011126519632161098
1290.0, 0.0013050754973425477
1291.0, 0.003461522083753929
1292.0, 0.003923756974307466
1293.0, 0.0029259688693849214
1294.0, 0.001413596119083555
1295.0, 0.0005310574153482371
1296.0, 0.002490764205613667
1297.0, 0.003007869242936023
1298.0, 0.0034924164292760296
1299.0, 0.0027133283920643793
1300.0, 0.001023855838411708
1301.0, 0.0011730852436123648
1302.0, 0.003452271855767942
1303.0, 0.0013421518854105055
1304.0, 0.0010822313791772752
1305.0, 0.001321022450572889
1306.0, 0.0008852580997989109
1307.0, 0.001704382022949281
1308.0, 0.0004935804901165344
1309.0, 0.0012388067984895495
1310.0, 0.004985061071823228
1311.0, 0.008782059619544924
1312.0, 0.00845942818012266
1313.0, 0.0009265248734242277
1314.0, 0.0014258211080494419
1315.0, 0.0067046643549442
1316.0, 0.004872652792258162
1317.0, 0.0006533618672583972
1318.0, 0.0011829706172598329
1319.0, 0.005554682431567641
1320.0, 0.003145697111528306
1321.0, 0.004368952105669974
1322.0, 0.004457074147752191
1323.0, 0.0036323428721537817
1324.0, 0.004384213155992344
1325.0, 0.009190513001568888
1326.0, 0.01115618051437931
1327.0, 0.0038845988584615973
1328.0, 0.004808920487848388
1329.0, 0.006885257850418501
1330.0, 0.0020797353265673
1331.0, 0.002437069978199208
1332.0, 0.008690206768488947
1333.0, 0.004253658513511486
1334.0, 0.0018640326202349594
1335.0, 0.0018575670806501535
1336.0, 0.0016023682462380706
1337.0, 0.0038296939193309
1338.0, 0.004635805179017771
1339.0, 0.00497630938346021
1340.0, 0.003805038279103254
1341.0, 0.001895866134416869
1342.0, 0.0016414876585892461
1343.0, 0.006615663795472693
1344.0, 0.009135824564369784
1345.0, 0.006491032488771164
1346.0, 0.0032324649225496617
1347.0, 0.004184416319338709
1348.0, 0.007969522095388697
1349.0, 0.0034184019604788993
1350.0, 0.002489265354822112
1351.0, 0.005855501576467234
1352.0, 0.0049886069720934565
1353.0, 0.003574627085227258
1354.0, 0.00550258845249791
1355.0, 0.008084779971583968
1356.0, 0.005999549049335231
1357.0, 0.005376822115008411
1358.0, 0.007452224435869986
1359.0, 0.006356388458712713
1360.0, 0.0034166560372383675
1361.0, 0.009493000101839838
1362.0, 0.005100270094699871
1363.0, 0.00571545986043742
1364.0, 0.00901536299031354
1365.0, 0.009372238869884543
1366.0, 0.005549422992909037
1367.0, 0.002605698329058313
1368.0, 0.008321573921232742
1369.0, 0.004693707288639765
1370.0, 0.002840284592490655
1371.0, 0.0018853547543206508
1372.0, 0.0007890795628435312
1373.0, 0.0002512390758529438
1374.0, 0.0015197710014744855
1375.0, 0.0010813272996141542
1376.0, 0.003906780541444211
1377.0, 0.0044569387084110665
1378.0, 0.0034683294749828547
1379.0, 0.005235954398357226
1380.0, 0.007833743095819499
1381.0, 0.006827878752958872
1382.0, 0.0034622762964204696
1383.0, 0.007145390084532152
1384.0, 0.011674062691163676
1385.0, 0.00925909080426361
1386.0, 0.008720886317729713
1387.0, 0.013348113207341066
1388.0, 0.008346387028908638
1389.0, 0.008872250763751902
1390.0, 0.010085983853079563
1391.0, 0.00646418634428869
1392.0, 0.004535065740232706
1393.0, 0.010315283436994258
1394.0, 0.010829395999203843
1395.0, 0.010282294543399583
1396.0, 0.010770853359788545
1397.0, 0.011744850167764102
1398.0, 0.01078202810470506
1399.0, 0.009011570800067049
1400.0, 0.010573227969304672
1401.0, 0.009103957672919258
1402.0, 0.01147899345784631
1403.0, 0.014039980231198982
1404.0, 0.008128363049602362
1405.0, 0.001730445438342258
1406.0, 0.007502700425712161
1407.0, 0.009297891647318068
1408.0, 0.007649690915947344
1409.0, 0.008402691977186242
1410.0, 0.012051734957984457
1411.0, 0.00485558624463183
1412.0, 0.0077244729715938805
1413.0, 0.009276793109676178
1414.0, 0.006538273750758338
1415.0, 0.007843227563863082
1416.0, 0.012016042061195189
1417.0, 0.005134742786773387
1418.0, 0.0033775549727297627
1419.0, 0.012390602498727974
1420.0, 0.010399748405718667
1421.0, 0.007420671110246058
1422.0, 0.009683905151378087
1423.0, 0.013166373526405869
1424.0, 0.00468483860316153
1425.0, 0.005084306772210509
1426.0, 0.013328096079045297
1427.0, 0.011698755095540657
1428.0, 0.008135493906672744
1429.0, 0.010450348900174163
1430.0, 0.0038881990426137443
1431.0, 0.002298218331407447
1432.0, 0.009785331005815832
1433.0, 0.012624316513562068
1434.0, 0.009348901715462809
1435.0, 0.0073125997988808655
1436.0, 0.013706682659092636
1437.0, 0.00688099091082787
1438.0, 0.009605264146594687
1439.0, 0.010102023932530037
1440.0, 0.005818912321422716
1441.0, 0.00565357706263269
1442.0, 0.01506162312440665
1443.0, 0.018459376813055595
1444.0, 0.010985079563609884
1445.0, 0.014268485256779104
1446.0, 0.014728190095041758
1447.0, 0.01104617433810061
1448.0, 0.00870751491324412
1449.0, 0.012857347246702587
1450.0, 0.008541416716454732
1451.0, 0.009958207198895341
1452.0, 0.014115201658383076
1453.0, 0.009915776447223556
1454.0, 0.005373259861238682
1455.0, 0.011266721659645608
1456.0, 0.01580408941132999
1457.0, 0.0114674265815824
1458.0, 0.015504098650810259
1459.0, 0.015356724879667978
1460.0, 0.012371247896846982
1461.0, 0.013022645096916814
1462.0, 0.020093428939889184
1463.0, 0.014471110161028682
1464.0, 0.01667007515878427
1465.0, 0.0184671264913382
1466.0, 0.013858308246602008
1467.0, 0.008911487970770795
1468.0, 0.010541321711878585
1469.0, 0.013720204801748433
1470.0, 0.015481709598412103
1471.0, 0.017036894867206127
1472.0, 0.018263330764594167
1473.0, 0.01606946724346964
1474.0, 0.014298005154377959
1475.0, 0.01830008805147269
1476.0, 0.01330121673935964
1477.0, 0.01152106014053488
1478.0, 0.010506363932965838
1479.0, 0.010575004150336858
1480.0, 0.012444699448613459
1481.0, 0.014991672540483943
1482.0, 0.014548006850778485
1483.0, 0.009030140983990773
1484.0, 0.012008660387308714
1485.0, 0.015417124583655573
1486.0, 0.010553315514394212
1487.0, 0.00704879721013907
1488.0, 0.012783114929440662
1489.0, 0.004758911563438786
1490.0, 0.011797837016481627
1491.0, 0.009630784449570693
1492.0, 0.00743570723652783
1493.0, 0.010394099308660773
1494.0, 0.014523144629205656
1495.0, 0.010948336185156683
1496.0, 0.001658836068961147
1497.0, 0.01118802381001609
1498.0, 0.010438953482249805
1499.0, 0.006635884669370558
1500.0, 0.008303268894125868
1501.0, 0.012330980222656428
1502.0, 0.005304983689643847
1503.0, 0.005110593110941598
1504.0, 0.012271589443741049
1505.0, 0.009157207856753474
1506.0, 0.007835058639953943
1507.0, 0.010557906829997842
1508.0, 0.010448851726344754
1509.0, 0.0010609645360741948
1510.0, 0.007107939532622926
1511.0, 0.012122794360169706
1512.0, 0.007560086439563601
1513.0, 0.007925329902053423
1514.0, 0.012548768278535833
1515.0, 0.010385984695458404
1516.0, 0.001459650375660061
1517.0, 0.008260360530632154
1518.0, 0.002488487048727487
1519.0, 7.209474544324013e-06
1520, 0.0
1521, 0.0
1522, 0.0
1523, 0.0
1524, 0.0
1525, 0.0
1526, 0.0
1527, 0.0
1528, 0.0
1529, 0.0
1530, 0.0
1531, 0.0
1532, 0.0
1533, 0.0
1534, 0.0
1535, 0.0
1536, 0.0
1537, 0.0
1538, 0.0
1539, 0.0
1540, 0.0
1541, 0.0
1542, 0.0
1543, 0.0
1544, 0.0
1545, 0.0
1546, 0.0
1547, 0.0
1548, 0.0
1549, 0.0
1550, 0.0
1551, 0.0
1552, 0.0
1553, 0.0
1554, 0.0
1555, 0.0
1556, 0.0
1557, 0.0
1558, 0.0
1559, 0.0
1560, 0.0
1561, 0.0
1562, 0.0
1563, 0.0
1564, 0.0
1565, 0.0
1566, 0.0
1567, 0.0
1568, 0.0
1569, 0.0
1570, 0.0
1571, 0.0
1572, 0.0
1573, 0.0
1574, 0.0
1575, 0.0
1576, 0.0
1577, 0.0
1578, 0.0
1579, 0.0
1580, 0.0
1581, 0.0
1582, 0.0
1583, 0.0
1584, 0.0
1585, 0.0
1586, 0.0
1587, 0.0
1588, 0.0
1589, 0.0
1590, 0.0
1591, 0.0
1592, 0.0
1593, 0.0
1594, 0.0
1595, 0.0
1596, 0.0
1597, 0.0
1598, 0.0
1599, 0.0
