30, 0.0
31, 0.0
32, 0.0
33, 0.0
34, 0.0
35, 0.0
36, 0.0
37, 0.0
38, 0.0
39, 0.0
40, 0.0
41, 0.0
42, 0.0
43, 0.0
44, 0.0
45, 0.0
46, 0.0
47, 0.0
48, 0.0
49, 0.0
50, 0.0
51, 0.0
52, 0.0
53, 0.0
54, 0.0
55, 0.0
56, 0.0
57, 0.0
58, 0.0
59, 0.0
60, 0.0
61, 0.0
62, 0.0
63, 0.0
64, 0.0
65, 0.0
66, 0.0
67, 0.0
68, 0.0
69, 0.0
70, 0.0
71, 0.0
72, 0.0
73, 0.0
74, 0.0
75, 0.0
76, 0.0
77, 0.0
78, 0.0
79, 0.0
80, 0.0
81, 0.0
82, 0.0
83, 0.0
84, 0.0
85, 0.0
86, 0.0
87, 0.0
88, 0.0
89, 0.0
90, 0.0
91, 0.0
92, 0.0
93, 0.0
94, 0.0
95, 0.0
96, 0.0
97, 0.0
98, 0.0
99, 0.0
100, 0.0
101, 0.0
102, 0.0
103, 0.0
104, 0.0
105, 0.0
106, 0.0
107, 0.0
108, 0.0
109, 0.0
110, 0.0
111, 0.0
112, 0.0
113, 0.0
114, 0.0
115, 0.0
116, 0.0
117.0, 5.1682316381362654e-05
118.0, 0.00017905010783311826
119.0, 0.0003939281187080987
120.0, 0.0006846979959962052
121.0, 0.0017739434486238974
122.0, 0.003440907658778905
123.0, 0.005540007409706452
124.0, 0.009525803044956888
125.0, 0.012823698437143913
126.0, 0.015229568152989731
127.0, 0.019169555940960793
128.0, 0.020348768394542006
129.0, 0.02115081805092791
130.0, 0.02374692698461036
131.0, 0.025781318801000312
132.0, 0.02583631917153194
133.0, 0.02449511708676088
134.0, 0.02502055936244139
135.0, 0.02350007621959778
136.0, 0.022282079821023853
137.0, 0.02277151073923263
138.0, 0.019572286653841094
139.0, 0.019268715572490918
140.0, 0.02022029652322557
141.0, 0.017755715923703917
142.0, 0.016338168502648017
143.0, 0.015793548583234458
144.0, 0.01608428344619555
145.0, 0.01577157851987813
146.0, 0.01572216980507085
147.0, 0.01582051860257548
148.0, 0.01593226682849006
149.0, 0.014928154905973165
150.0, 0.014179725661375554
151.0, 0.013829511192719137
152.0, 0.013150991274902017
153.0, 0.014321244308628847
154.0, 0.01596193165419403
155.0, 0.017068897274921457
156.0, 0.017464820790664103
157.0, 0.016154330602959996
158.0, 0.014192486610713402
159.0, 0.015393197632565258
160.0, 0.011474182849115588
161.0, 0.008419482873282832
162.0, 0.0086980093437849
163.0, 0.010327201961378147
164.0, 0.011988377328581976
165.0, 0.013617831540499944
166.0, 0.015097769416040128
167.0, 0.016617384102545756
168.0, 0.017542932674589222
169.0, 0.018188099436880534
170.0, 0.022091424578797134
171.0, 0.026126479416074017
172.0, 0.028574544504832194
173.0, 0.02775445691061217
174.0, 0.030188849530154376
175.0, 0.03142594169913519
176.0, 0.032237584302890795
177.0, 0.03569467588782395
178.0, 0.037421242578631615
179.0, 0.03805691306287116
180.0, 0.03786302312326242
181.0, 0.03969668938081376
182.0, 0.04095712047292699
183.0, 0.04204806219904623
184.0, 0.04346413512291502
185.0, 0.043543291497391466
186.0, 0.044671167600635164
187.0, 0.04680927079452555
188.0, 0.04824568128919309
189.0, 0.04639250949295871
190.0, 0.04479652596501369
191.0, 0.04538936400537138
192.0, 0.044775814355101466
193.0, 0.042682634471670054
194.0, 0.03990429877083088
195.0, 0.0378657585042175
196.0, 0.03567292596726063
197.0, 0.0328767121162044
198.0, 0.02934324182594704
199.0, 0.024821493972672956
200.0, 0.021537541917421528
201.0, 0.018436931609031232
202.0, 0.014781601143933539
203.0, 0.011839819819451664
204.0, 0.008544671676395835
205.0, 0.0054134833191495195
206.0, 0.003882960565406569
207.0, 0.0027662222657285464
208.0, 0.0017304617938343051
209.0, 0.0007334505619178355
210.0, 0.00020094141025916936
211.0, 0.0003019088365732227
212.0, 0.0004977318495757374
213.0, 0.0003379710972244132
214.0, 0.00037252903420139754
215.0, 0.0007172369980633577
216.0, 0.0010422307897619554
217.0, 0.0003949346998671244
218.0, 0.00021765337940635236
219.0, 0.0008890924048724034
220.0, 0.002286917529943515
221.0, 0.0012001040777618612
222.0, 0.0010436684510255854
223.0, 0.0009806213952771
224.0, 0.0002725511543396144
225.0, 0.00108133523649254
226.0, 0.0017952791807213135
227.0, 0.001965491395040532
228.0, 0.0004924633127979671
229.0, 0.0007954780074685197
230.0, 0.000940299947700122
231.0, 0.0005414792005794763
232.0, 0.0012026273544633727
233.0, 0.001173364376390866
234.0, 0.0011374951165574604
235.0, 0.001653753624767836
236.0, 0.0023756827651171273
237.0, 0.002043490425601467
238.0, 0.0010452706334526996
239.0, 0.0003058400264178592
240.0, 0.00033100444447131075
241.0, 0.0008935089380638285
242.0, 0.0016839150027148158
243.0, 0.0005908388150993435
244.0, 0.0007549129609601545
245.0, 0.0008669739730761431
246.0, 6.413596595499004e-05
247.0, 0.00028048109394391223
248.0, 0.000689988585733895
249.0, 0.0008900565871267599
250.0, 0.00011569204563622698
251.0, 0.000838087744372026
252.0, 0.0009499723830290073
253.0, 0.0004198813316232022
254.0, 0.0008234751510910576
255.0, 0.0007052309576242867
256.0, 0.000864733014322002
257.0, 0.0016295073684658502
258.0, 0.0009414209353762757
259.0, 0.0009858117451547737
260.0, 0.0015103363236613368
261.0, 0.0022909973977065013
262.0, 0.0026020789937875426
263.0, 0.0022995480655570565
264.0, 0.0018268452547073712
265.0, 0.0025881171003402817
266.0, 0.002634743879687226
267.0, 0.003010887682936297
268.0, 0.0038895943170355295
269.0, 0.0039062232226253144
270.0, 0.004848884283038105
271.0, 0.005621805542683156
272.0, 0.005420282066326254
273.0, 0.004359701672383555
274.0, 0.005018836221530908
275.0, 0.006657145976651153
276.0, 0.008052401549658783
277.0, 0.007644417127463499
278.0, 0.008731008473958963
279.0, 0.011041619650518829
280.0, 0.011431927267748963
281.0, 0.013760997424817713
282.0, 0.016849054304379434
283.0, 0.020192511566609422
284.0, 0.022350099821431928
285.0, 0.025293194203917093
286.0, 0.029009359564928415
287.0, 0.03359065805997383
288.0, 0.038612169905528584
289.0, 0.046744704762198254
290.0, 0.05683652405075344
291.0, 0.0667039791204285
292.0, 0.08309236118099259
293.0, 0.1032853223933019
294.0, 0.12611576145620024
295.0, 0.1483451751995512
296.0, 0.1871988198118093
297.0, 0.22860382799918755
298.0, 0.26806024085379376
299.0, 0.3171930551592875
300.0, 0.3617559571968155
301.0, 0.4000623908618237
302.0, 0.42995097639746815
303.0, 0.4318997613720495
304.0, 0.42400356978437775
305.0, 0.4074879063020944
306.0, 0.3825485675963308
307.0, 0.35468060380455924
308.0, 0.32762351179949983
309.0, 0.3033616494009441
310.0, 0.2876962299639809
311.0, 0.27306486859703744
312.0, 0.25924954154781665
313.0, 0.24578582558472517
314.0, 0.228841975080655
315.0, 0.21496218547159907
316.0, 0.20051429155756118
317.0, 0.1831696731657376
318.0, 0.16402216292098495
319.0, 0.14439777471551823
320.0, 0.1250560571184622
321.0, 0.10700166205747698
322.0, 0.0926892155810605
323.0, 0.08179637152140744
324.0, 0.07285983336398565
325.0, 0.06263979324515215
326.0, 0.05650570082566269
327.0, 0.052187682517231625
328.0, 0.049043581937458315
329.0, 0.04608389166123696
330.0, 0.04404382076605707
331.0, 0.04221136818515144
332.0, 0.04034244498166381
333.0, 0.038674515981982426
334.0, 0.03720178124333656
335.0, 0.03585775051253443
336.0, 0.034605084543806244
337.0, 0.03333666626943881
338.0, 0.032537772002459116
339.0, 0.03165636153636072
340.0, 0.02996310796454682
341.0, 0.02943262971198775
342.0, 0.028591688255304146
343.0, 0.02776611122981513
344.0, 0.02794336786755704
345.0, 0.027426848208760943
346.0, 0.027602866279334847
347.0, 0.028520855284440337
348.0, 0.029438001508331042
349.0, 0.029527613847555555
350.0, 0.02928651169266542
351.0, 0.029024718163010974
352.0, 0.030013961794616534
353.0, 0.03074617566738975
354.0, 0.031132584333721985
355.0, 0.031170047899400713
356.0, 0.03238433488165458
357.0, 0.033035138918482566
358.0, 0.032887014936100224
359.0, 0.031662577748822335
360.0, 0.03236823552802348
361.0, 0.033711666356564064
362.0, 0.03542873291044822
363.0, 0.03719734835214742
364.0, 0.035733273601309144
365.0, 0.03447546508942418
366.0, 0.034490178949706296
367.0, 0.03773732812129024
368.0, 0.036296866121007354
369.0, 0.035885297670002134
370.0, 0.03652044388653137
371.0, 0.034558884536597986
372.0, 0.03486876748523065
373.0, 0.03459179761335255
374.0, 0.03316498309904549
375.0, 0.032352208872153516
376.0, 0.03099371296834384
377.0, 0.03027932835763995
378.0, 0.03048520859474656
379.0, 0.02803138806151881
380.0, 0.025761342359588626
381.0, 0.02488535260342225
382.0, 0.02615361508527528
383.0, 0.023255316182788817
384.0, 0.02072265928232186
385.0, 0.019100557773779524
386.0, 0.01899537357044814
387.0, 0.01935487385970613
388.0, 0.01814553160449493
389.0, 0.01641096561512285
390.0, 0.015701420191628065
391.0, 0.015433372085528257
392.0, 0.014637372776181375
393.0, 0.013523076212562777
394.0, 0.012646619968304688
395.0, 0.012817823057167449
396.0, 0.013552682210433077
397.0, 0.014036672376124673
398.0, 0.012059980779461289
399.0, 0.011487995294961719
400.0, 0.012024827088362939
401.0, 0.01315067603316161
402.0, 0.012971460660692297
403.0, 0.011442575346342914
404.0, 0.010591346036253755
405.0, 0.010728127123323055
406.0, 0.010067849223476047
407.0, 0.010766065447379621
408.0, 0.011575251652155115
409.0, 0.012000188372685941
410.0, 0.01207940689661361
411.0, 0.011479429589609158
412.0, 0.012131979813520308
413.0, 0.014838992791149886
414.0, 0.01549537221164209
415.0, 0.017469908051404418
416.0, 0.020251054807987362
417.0, 0.023592255587839894
418.0, 0.029618804550147707
419.0, 0.037169638259041855
420.0, 0.04625169684680618
421.0, 0.05693294719789041
422.0, 0.07113100016176087
423.0, 0.08399247567445388
424.0, 0.09399615591037247
425.0, 0.09933263566291498
426.0, 0.09890263922643013
427.0, 0.09118867106794133
428.0, 0.0785275086682935
429.0, 0.06390279366332051
430.0, 0.04963000920587447
431.0, 0.0377433096677484
432.0, 0.0278727575276067
433.0, 0.01936694978188162
434.0, 0.013533220577732435
435.0, 0.010713178142281845
436.0, 0.009230954068977533
437.0, 0.005842804297152188
438.0, 0.00616699637296244
439.0, 0.00555385967903196
440.0, 0.0035911106492097023
441.0, 0.0004411210626894932
442.0, 0.0011093829447593217
443.0, 0.001287072956110719
444.0, 0.0008217207800011342
445.0, 0.000911280634462483
446.0, 0.0014370443809456044
447.0, 0.0018212604833681353
448.0, 0.001925380243072599
449.0, 0.0016143848527150895
450.0, 0.0011104251783491358
451.0, 0.0013393473442684374
452.0, 0.0018601053009056011
453.0, 0.000531899681059849
454.0, 0.0011308928723568216
455.0, 0.0011536388071889262
456.0, 0.0004195856418023029
457.0, 0.00038205880596313234
458.0, 0.0003502806097077785
459.0, 0.0002116368450250281
460.0, 0.0003873602317033644
461.0, 0.0027524593949842134
462.0, 0.0025474721811713282
463.0, 0.0021974863827100735
464.0, 0.0024498371398856507
465.0, 0.003723055999236252
466.0, 0.0033539960249958623
467.0, 0.0030251728562485872
468.0, 0.0034936529885336
469.0, 0.006067606435629343
470.0, 0.007279390276203502
471.0, 0.009114701747953083
472.0, 0.011524838031747446
473.0, 0.011329142465904838
474.0, 0.012624196358665345
475.0, 0.014055459557999535
476.0, 0.015505058074610606
477.0, 0.018467258264780614
478.0, 0.020573457128716742
479.0, 0.022884581431013316
480.0, 0.025484168429259126
481.0, 0.027127249199640404
482.0, 0.028318162339377905
483.0, 0.029314459089433448
484.0, 0.030267591165363206
485.0, 0.03153870862461666
486.0, 0.031447806502239294
487.0, 0.032923311110431876
488.0, 0.03523457949587278
489.0, 0.030735429276594856
490.0, 0.028211367607648228
491.0, 0.027939836558543714
492.0, 0.02900532282674827
493.0, 0.026923047044424647
494.0, 0.02606820719370509
495.0, 0.02519949865440773
496.0, 0.02397466138681287
497.0, 0.022378820484436436
498.0, 0.020787021134858235
499.0, 0.019109901631400125
500.0, 0.01735565086377861
501.0, 0.01564144558432966
502.0, 0.01306390088619636
503.0, 0.011376939766042534
504.0, 0.01028645421980081
505.0, 0.0074149150958874414
506.0, 0.0062974076780247384
507.0, 0.006576581141567916
508.0, 0.006985532619061878
509.0, 0.003907938940056296
510.0, 0.005288934180448186
511.0, 0.005948291662775938
512.0, 0.0050712200634611335
513.0, 0.0028864647953361546
514.0, 0.0020059792919502506
515.0, 0.0019200643862275328
516.0, 0.0020113322127883414
517.0, 0.0010381265240466018
518.0, 0.00042041023058948725
519.0, 0.0006997885513371105
520.0, 0.001237970184740689
521.0, 0.0006558064884827936
522.0, 0.0009529269901351452
523.0, 0.002160234123392992
524.0, 0.0028680301346561674
525.0, 0.0007125271440326698
526.0, 0.00022753541914277825
527.0, 0.0025033978898372066
528.0, 0.00419919843629644
529.0, 0.0005650614943046796
530.0, 0.00053962124480064
531.0, 0.0004826980883196412
532.0, 0.0014308455708208765
533.0, 0.0046980085254812055
534.0, 0.0028129616584136397
535.0, 0.001570473945800254
536.0, 0.0011046494315120224
537.0, 0.0014540667684467346
538.0, 0.0006644440135043029
539.0, 0.0004754147270888105
540.0, 0.0014043277245078922
541.0, 0.0035284880073009036
542.0, 0.0012817190989481027
543.0, 0.0013206148265200938
544.0, 0.0014255587060502798
545.0, 0.0007070997531435849
546.0, 0.003680756769499632
547.0, 0.001971253406152703
548.0, 0.0005868333843145007
549.0, 0.0016996362820424226
550.0, 0.004203459921867564
551.0, 0.0022456418684995713
552.0, 0.002324586109726917
553.0, 0.004911872622371267
554.0, 0.0015918436846496372
555.0, 0.0023189788498292133
556.0, 0.0044015183715579885
557.0, 0.0061440777465150975
558.0, 0.004224734896034051
559.0, 0.0029606344634801217
560.0, 0.003335904260808626
561.0, 0.00426275333266433
562.0, 0.0027257090684013278
563.0, 0.004934172827848148
564.0, 0.004652489548487757
565.0, 0.0035391838407376145
566.0, 0.005655063034970427
567.0, 0.004475716536317686
568.0, 0.004492956977770094
569.0, 0.00574847751424692
570.0, 0.007959999116476064
571.0, 0.00850854139532985
572.0, 0.006811160478839372
573.0, 0.005683457873272994
574.0, 0.007484862131733711
575.0, 0.007859523792144881
576.0, 0.008887391495334225
577.0, 0.010334680792974504
578.0, 0.011718768651130744
579.0, 0.009773981058451415
580.0, 0.011515448821614867
581.0, 0.012610559038578651
582.0, 0.011812192620716545
583.0, 0.012727586769461905
584.0, 0.012093071788836516
585.0, 0.013375214694689297
586.0, 0.016144450291946666
587.0, 0.015531689427004107
588.0, 0.01802889133579514
589.0, 0.019013127879413182
590.0, 0.018887712731345464
591.0, 0.020347090821144668
592.0, 0.023193242601455263
593.0, 0.02569946621037957
594.0, 0.02884986399243442
595.0, 0.03427996696773062
596.0, 0.03790243601480017
597.0, 0.04159367943769656
598.0, 0.0467192419698391
599.0, 0.05435053469137687
600.0, 0.06016249351476247
601.0, 0.06586420813436582
602.0, 0.07004140289582815
603.0, 0.07142388605443202
604.0, 0.06667989408323236
605.0, 0.06431193536086037
606.0, 0.06002787338578058
607.0, 0.053601456841723516
608.0, 0.05149901765438198
609.0, 0.04665575833605056
610.0, 0.04428481520081833
611.0, 0.04425300012748858
612.0, 0.04311135455780275
613.0, 0.042604108184452295
614.0, 0.04309655104831173
615.0, 0.04439836135163373
616.0, 0.0461357244576635
617.0, 0.04683707184208939
618.0, 0.04944702226856609
619.0, 0.053291489516423624
620.0, 0.057697865143384534
621.0, 0.06521528099804084
622.0, 0.06872882831679734
623.0, 0.07454137732031721
624.0, 0.08533230235967551
625.0, 0.09359998001587763
626.0, 0.10034818916373155
627.0, 0.11189146925476143
628.0, 0.1279187138691109
629.0, 0.1395865262364016
630.0, 0.15849753966052268
631.0, 0.17425814870472117
632.0, 0.18464228689326842
633.0, 0.18892928669038098
634.0, 0.19249835684874053
635.0, 0.19097888879832528
636.0, 0.18901809325297442
637.0, 0.19226190843060656
638.0, 0.20071624508172758
639.0, 0.21469595974212605
640.0, 0.23887045050597783
641.0, 0.27624812958279155
642.0, 0.32738199176686833
643.0, 0.3737327972970829
644.0, 0.4222824747569328
645.0, 0.4667529864476368
646.0, 0.47426243182495853
647.0, 0.4577218858914458
648.0, 0.4208827314358748
649.0, 0.3684014176119871
650.0, 0.30815270103907827
651.0, 0.25241140096759973
652.0, 0.2030188567982387
653.0, 0.16437624506280998
654.0, 0.14008355070679002
655.0, 0.11321866662502704
656.0, 0.09644840117195184
657.0, 0.08304777017670106
658.0, 0.06968071604080985
659.0, 0.060663162329224994
660.0, 0.05412107110375516
661.0, 0.04833826772904181
662.0, 0.04250643724807454
663.0, 0.03576854118948282
664.0, 0.03520311967012066
665.0, 0.031098640431641542
666.0, 0.026520829919800155
667.0, 0.027574865996351637
668.0, 0.024859078268498667
669.0, 0.02315517236896468
670.0, 0.02192449106975615
671.0, 0.02040710954397952
672.0, 0.01574290944063869
673.0, 0.016580046111417952
674.0, 0.015591148565495476
675.0, 0.012396032953428894
676.0, 0.016095037932028412
677.0, 0.011640518586508643
678.0, 0.008527860284329747
679.0, 0.008215984302900237
680.0, 0.010400786509877087
681.0, 0.008712743310842316
682.0, 0.007386062060561387
683.0, 0.007431407647094695
684.0, 0.009057734455562178
685.0, 0.005775374882069273
686.0, 0.0058112571623466875
687.0, 0.005764245056602121
688.0, 0.004808805853717061
689.0, 0.005464213738856107
690.0, 0.0051366072751236275
691.0, 0.004772214729542706
692.0, 0.00453209307107635
693.0, 0.004396735156309945
694.0, 0.00371303150858829
695.0, 0.0034464164341986704
696.0, 0.0032189650518484754
697.0, 0.0026933856703057367
698.0, 0.002105644361605376
699.0, 0.0035426637065266602
700.0, 0.00409047072909115
701.0, 0.0033456421631598557
702.0, 0.00404354080308958
703.0, 0.0030249338595972628
704.0, 0.003453753314322522
705.0, 0.004960039993878035
706.0, 0.006187459926384105
707.0, 0.0032723152247805484
708.0, 0.0012244273279293032
709.0, 0.0007219685572020253
710.0, 0.001878929391342168
711.0, 0.002349981937243661
712.0, 0.0020473884319395655
713.0, 0.0022373979495827704
714.0, 0.0027863700787158123
715.0, 0.0022173282894911283
716.0, 0.002344461994048636
717.0, 0.0019925298113112984
718.0, 0.0016201538950270699
719.0, 0.001901488465724228
720.0, 0.0025574169465521967
721.0, 0.0016559115619686558
722.0, 0.0013174951211943253
723.0, 0.002134111959084188
724.0, 0.0014356843307976681
725.0, 0.0024197057365827187
726.0, 0.0021678802203540424
727.0, 0.0010264428252871314
728.0, 0.0007561770696331187
729.0, 0.0008140612129350379
730.0, 0.0004961313166153904
731.0, 0.0005115259393347552
732.0, 0.001192853160049514
733.0, 0.00030686384558268524
734.0, 0.0015985298599640744
735.0, 0.0018023984126842834
736.0, 0.0008171266658817995
737.0, 0.0012971134331765332
738.0, 0.0009065925499324565
739.0, 0.001018404947815536
740.0, 0.001338071031139164
741.0, 0.0014388627853042684
742.0, 0.0022579054978873895
743.0, 0.002387579727299459
744.0, 0.0028041521859167146
745.0, 0.003442863947801742
746.0, 0.0023539240515807716
747.0, 0.002961339679487948
748.0, 0.003109133488022495
749.0, 0.0024387601495415023
750.0, 0.0009733116782171354
751.0, 0.00035256272819999645
752.0, 0.00029939197672763864
753.0, 0.0005019920642434233
754.0, 0.000670772326589632
755.0, 0.00034470466923420195
756.0, 0.00034674727012027137
757.0, 0.0007299207111635683
758.0, 0.0009386571673417278
759.0, 3.336026953285108e-05
760.0, 0.0003137132264854131
761.0, 0.0010369199396093518
762.0, 0.0015793062925701972
763.0, 0.001706794268774163
764.0, 0.002626287464405335
765.0, 0.0013827338859510115
766.0, 0.0007030735651008775
767.0, 0.0009945220722125563
768.0, 0.0017155281636294284
769.0, 0.000937825218032475
770.0, 0.0013056454171634759
771.0, 0.0019535452554082264
772.0, 0.0020898008019612246
773.0, 0.001366001830378247
774.0, 0.002231326960919342
775.0, 0.00177102531915706
776.0, 0.0004736904223816141
777.0, 0.0009038007228668164
778.0, 0.003943096986534856
779.0, 0.002606114296644797
780.0, 0.0013162436818046678
781.0, 0.002967332187620066
782.0, 0.002045559060445787
783.0, 0.0014421263459719494
784.0, 0.002784102741947844
785.0, 0.004830564854382295
786.0, 0.004292905225471234
787.0, 0.005068467222037633
788.0, 0.004154855685866796
789.0, 0.003861839161589618
790.0, 0.005245842888553103
791.0, 0.0037413264886317424
792.0, 0.0046583968598052404
793.0, 0.006905086354269706
794.0, 0.008381747098369318
795.0, 0.005908853428942594
796.0, 0.006105432786771878
797.0, 0.007425075564144415
798.0, 0.009039757035763207
799.0, 0.01035044345171319
800.0, 0.011161371900878066
801.0, 0.012161229333979588
802.0, 0.012271362497732856
803.0, 0.012161759846472563
804.0, 0.013155897669062088
805.0, 0.013332692599555444
806.0, 0.013445112772635427
807.0, 0.01359673431883344
808.0, 0.01382562941492513
809.0, 0.014054266904393037
810.0, 0.013602356614359488
811.0, 0.013758800420682967
812.0, 0.014053690492518887
813.0, 0.01376286771181159
814.0, 0.014765049361408622
815.0, 0.015766993654232564
816.0, 0.014509816075273158
817.0, 0.01174115849946718
818.0, 0.01235555900485212
819.0, 0.015305398980715989
820.0, 0.01454556347973888
821.0, 0.01145603666109959
822.0, 0.008435503452978825
823.0, 0.00982402921342938
824.0, 0.00869629180289662
825.0, 0.008429390761215842
826.0, 0.009381000779300768
827.0, 0.010187930595406354
828.0, 0.006825466523891594
829.0, 0.006347980586210794
830.0, 0.0059269297778331755
831.0, 0.0043266129940354135
832.0, 0.0057156828086081315
833.0, 0.005084968920399745
834.0, 0.004716945300224515
835.0, 0.004199443232848393
836.0, 0.0024950078254836533
837.0, 0.0011657077882782007
838.0, 0.0011445248524609025
839.0, 0.002501215968897347
840.0, 0.004032609534545302
841.0, 0.00231273118010499
842.0, 0.004576550677925029
843.0, 0.0032998626331669635
844.0, 0.0010205121989285062
845.0, 0.0008314519907871051
846.0, 0.0046618238030162636
847.0, 0.004036979011525681
848.0, 0.0025774105303893813
849.0, 0.0016493527183536307
850.0, 0.0019299764856172596
851.0, 0.0021917420781930866
852.0, 0.001535216965908063
853.0, 0.0013636304274727844
854.0, 0.0019227126606788806
855.0, 0.0014784330371537294
856.0, 0.0011735664021536936
857.0, 0.0008558716644113891
858.0, 0.0004966958975498672
859.0, 0.00016217340830999735
860.0, 0.0005180437771877467
861.0, 0.0003245219574187861
862.0, 0.0005958604480170295
863.0, 0.0010207310013222836
864.0, 0.0005731565050170265
865.0, 0.00046739306774285834
866.0, 0.0021585068147627596
867.0, 0.0026455963332388597
868.0, 0.0012905505236758942
869.0, 0.001474618271060196
870.0, 0.0006114416732818837
871.0, 0.0012839551473155235
872.0, 0.0024912749990534584
873.0, 0.0028976464117739906
874.0, 0.0016241051587923237
875.0, 0.003883586573205079
876.0, 0.003549020308696344
877.0, 0.0015157921597219529
878.0, 0.0016027133119045013
879.0, 0.0016203390322772802
880.0, 0.0014602273151746482
881.0, 0.00302070542423598
882.0, 0.004872808130878975
883.0, 0.0007657873461953167
884.0, 0.001985200798165913
885.0, 0.0014336401841858932
886.0, 0.0015291448778087253
887.0, 0.0036998172691020113
888.0, 0.0037364732516467734
889.0, 0.0012212069490446364
890.0, 0.0005308998559136221
891.0, 0.001632375460094581
892.0, 0.0031188142763088214
893.0, 0.0007827431711241774
894.0, 0.0032867759946455005
895.0, 0.00390301960081472
896.0, 0.0022323850873233906
897.0, 0.0018581598353271957
898.0, 0.004608473735171556
899.0, 0.0023140396207822155
900.0, 0.0014810191889569084
901.0, 0.0038420606661993617
902.0, 0.00347049629328883
903.0, 0.003451807243317416
904.0, 0.004081742283117868
905.0, 0.004555020718466906
906.0, 0.00440662969104065
907.0, 0.004834748323696709
908.0, 0.004882354035249266
909.0, 0.0043814783337539995
910.0, 0.003849192462885033
911.0, 0.0038018668405090856
912.0, 0.0025767812777500966
913.0, 0.003417341240099664
914.0, 0.0040793805797196304
915.0, 0.003849700855141115
916.0, 0.0028262085178999254
917.0, 0.005398639130799074
918.0, 0.004529408336440302
919.0, 0.0027073396622566506
920.0, 0.002418528544812234
921.0, 0.006757054064665835
922.0, 0.004617498131827313
923.0, 0.005325931030850626
924.0, 0.005129595714451723
925.0, 0.00321628828602687
926.0, 0.007070001057104635
927.0, 0.00761925116280021
928.0, 0.005920797267807646
929.0, 0.0043968744825853235
930.0, 0.0051523581104533514
931.0, 0.00832392459143308
932.0, 0.0057258438724091575
933.0, 0.006346656131710689
934.0, 0.0075784743116149725
935.0, 0.0053017059443638374
936.0, 0.010637565687884362
937.0, 0.007773994108134586
938.0, 0.006152184609352239
939.0, 0.0076098013347477185
940.0, 0.010492501617115844
941.0, 0.010720247649367106
942.0, 0.010184902663504082
943.0, 0.010343167111502677
944.0, 0.010653246230410715
945.0, 0.008913275384958586
946.0, 0.012473864773773673
947.0, 0.014161891080520907
948.0, 0.014802358360768392
949.0, 0.015032734674903599
950.0, 0.015263418146956526
951.0, 0.013602213913133989
952.0, 0.014630129602861797
953.0, 0.016744856505702108
954.0, 0.018017264186665934
955.0, 0.016081911915800606
956.0, 0.017987086760797223
957.0, 0.01887032961985993
958.0, 0.019266297821275296
959.0, 0.019863255520811238
960.0, 0.020294276342833584
961.0, 0.02143402744766178
962.0, 0.024046773785847658
963.0, 0.02705885773394036
964.0, 0.028579148579371324
965.0, 0.024077813223689383
966.0, 0.028526186649542044
967.0, 0.030276433571361852
968.0, 0.03080486630289218
969.0, 0.03364830168320029
970.0, 0.03684573595468385
971.0, 0.03778754713353854
972.0, 0.03925810656305702
973.0, 0.04080290476577533
974.0, 0.04143770104500516
975.0, 0.04426955823072437
976.0, 0.04673282370736841
977.0, 0.050154790805058844
978.0, 0.05434836088457806
979.0, 0.058619308099898244
980.0, 0.06399961636109609
981.0, 0.06841837676782046
982.0, 0.07327389032144954
983.0, 0.0791360259933314
984.0, 0.08584753297422458
985.0, 0.08767277524686369
986.0, 0.10227028436806775
987.0, 0.11215725704286832
988.0, 0.12020488400162554
989.0, 0.13983071589249804
990.0, 0.15427659374049435
991.0, 0.17171155463702914
992.0, 0.19577260841642385
993.0, 0.22392491895133615
994.0, 0.24979163268786245
995.0, 0.28491427050631174
996.0, 0.322315063137458
997.0, 0.3604941644215726
998.0, 0.40282143754970445
999.0, 0.4556582834805834
1000.0, 0.5035401761156288
1001.0, 0.5495768888920514
1002.0, 0.6080530340950706
1003.0, 0.6756275906289543
1004.0, 0.7359995821676684
1005.0, 0.8079843832965294
1006.0, 0.8555149835385935
1007.0, 0.9013041338519104
1008.0, 0.9505381276311143
1009.0, 0.9944099365539578
1010.0, 0.9940709851654199
1011.0, 0.9977111005310694
1012.0, 0.9815291811276724
1013.0, 0.9380876772698982
1014.0, 0.8739109383644331
1015.0, 0.8420057843432638
1016.0, 0.7653546625115512
1017.0, 0.6938156064441923
1018.0, 0.634401757620186
1019.0, 0.5653864307539537
1020.0, 0.5044716323126464
1021.0, 0.45772018854337615
1022.0, 0.40718683140834266
1023.0, 0.35576105496658295
1024.0, 0.3187171965812591
1025.0, 0.2919119797943225
1026.0, 0.2599725252210369
1027.0, 0.2361450466640056
1028.0, 0.21743160843228795
1029.0, 0.19328849562062173
1030.0, 0.17963208297042768
1031.0, 0.16804667110898006
1032.0, 0.15718902615627062
1033.0, 0.14765742298420045
1034.0, 0.14055386339052844
1035.0, 0.1332611140550268
1036.0, 0.12465151273686448
1037.0, 0.12260397189934634
1038.0, 0.12197844520391476
1039.0, 0.11569821468958795
1040.0, 0.12135029602812096
1041.0, 0.12093271147727407
1042.0, 0.12385690216112422
1043.0, 0.12778935440466335
1044.0, 0.12856347680254576
1045.0, 0.13163401216135484
1046.0, 0.13418495492589863
1047.0, 0.13903179232492066
1048.0, 0.14598434278765385
1049.0, 0.1544621926314596
1050.0, 0.16550471369404904
1051.0, 0.1738764739052432
1052.0, 0.18585277683948945
1053.0, 0.20367525804003767
1054.0, 0.22542265962610017
1055.0, 0.23987956456554277
1056.0, 0.2641326132030996
1057.0, 0.29817920422757405
1058.0, 0.33338941457056737
1059.0, 0.364653781318944
1060.0, 0.3952801430246572
1061.0, 0.4320541643018964
1062.0, 0.45534892402696286
1063.0, 0.46637140393023657
1064.0, 0.4621128385077033
1065.0, 0.43264151316849364
1066.0, 0.3970162220328605
1067.0, 0.35561193612000563
1068.0, 0.30660402127876235
1069.0, 0.2576460979397745
1070.0, 0.2233879315911328
1071.0, 0.19009778952718093
1072.0, 0.15948073984516295
1073.0, 0.1347755154326953
1074.0, 0.11502793335353316
1075.0, 0.09739259691886386
1076.0, 0.08568664346611268
1077.0, 0.07915991677162562
1078.0, 0.06996040114495665
1079.0, 0.061540424407794087
1080.0, 0.05832321624728211
1081.0, 0.049820173959561724
1082.0, 0.04289840167818469
1083.0, 0.04082038194993118
1084.0, 0.037848529338104474
1085.0, 0.03134508421459838
1086.0, 0.03285175571903678
1087.0, 0.027846975896257356
1088.0, 0.025388492950358582
1089.0, 0.024928240717054777
1090.0, 0.02427750245270356
1091.0, 0.020174976865915573
1092.0, 0.019633729334779276
1093.0, 0.018400326668329737
1094.0, 0.017516498815570745
1095.0, 0.017573389191007538
1096.0, 0.018365911858200776
1097.0, 0.013860671841541975
1098.0, 0.011771053617963993
1099.0, 0.01627623786529515
1100.0, 0.019289449211480465
1101.0, 0.01084757726489475
1102.0, 0.01297852678684156
1103.0, 0.01595826178115505
1104.0, 0.012457170648699284
1105.0, 0.010477192633359217
1106.0, 0.015855596236556496
1107.0, 0.01375794656443513
1108.0, 0.01609530831914893
1109.0, 0.01689485163699941
1110.0, 0.015809047173860807
1111.0, 0.014209521668284788
1112.0, 0.015126923661137466
1113.0, 0.014064866014954911
1114.0, 0.015841202189792625
1115.0, 0.017738641056411958
1116.0, 0.017887960323408503
1117.0, 0.015722546952880497
1118.0, 0.016036885510123774
1119.0, 0.01819339525420355
1120.0, 0.018728872289395654
1121.0, 0.0184789287077154
1122.0, 0.019276879264754354
1123.0, 0.019190841358102294
1124.0, 0.01785618117705003
1125.0, 0.019815638776861048
1126.0, 0.01900083557363318
1127.0, 0.013214195721401346
1128.0, 0.012126530974372742
1129.0, 0.018425042929097732
1130.0, 0.01345808907535014
1131.0, 0.012431827110530678
1132.0, 0.015900175717896658
1133.0, 0.010179512021002387
1134.0, 0.009097264251996275
1135.0, 0.011883638983790636
1136.0, 0.011495561648257702
1137.0, 0.008759208203085612
1138.0, 0.007824792595920994
1139.0, 0.012224586522896149
1140.0, 0.00702638650911541
1141.0, 0.009034927442222397
1142.0, 0.010391866868039291
1143.0, 0.005764714170285647
1144.0, 0.002274133937920015
1145.0, 0.008591500333638065
1146.0, 0.0142519276280292
1147.0, 0.013315735201286873
1148.0, 0.008122709211150894
1149.0, 0.006714533010186112
1150.0, 0.0063130405189357666
1151.0, 0.007091468428903547
1152.0, 0.00400945097088838
1153.0, 0.00044967245498575824
1154.0, 0.0010286021008652172
1155.0, 0.005380211127629651
1156.0, 0.0018373331012856338
1157.0, 0.0029948357479932285
1158.0, 0.004403705197113908
1159.0, 0.0032889418981802347
1160.0, 0.00128112767076261
1161.0, 0.0025753837200639756
1162.0, 0.004243042543804638
1163.0, 0.0033889620501534995
1164.0, 0.002694318169778376
1165.0, 0.005075015893242517
1166.0, 0.0007208684096516359
1167.0, 0.003448755490719249
1168.0, 0.002938928470815965
1169.0, 0.0014460765258026002
1170.0, 0.0018723574442619769
1171.0, 0.004575292953692593
1172.0, 0.005749038902410289
1173.0, 0.003808587111267061
1174.0, 0.005218350570203501
1175.0, 0.006474470124936282
1176.0, 0.0008454871940587162
1177.0, 0.002241628987682032
1178.0, 0.0034370077399164456
1179.0, 0.002592583885041768
1180.0, 0.0021647971238143147
1181.0, 0.003966779933040837
1182.0, 0.006790519478302159
1183.0, 0.0057581115113941395
1184.0, 0.004684803032549303
1185.0, 0.0034970460733029555
1186.0, 0.002845212790473831
1187.0, 0.003436168390127231
1188.0, 0.002768016709919738
1189.0, 0.004034093333294303
1190.0, 0.005441156774555293
1191.0, 0.005650067190486644
1192.0, 0.004848854562329672
1193.0, 0.005843549895665617
1194.0, 0.007522429544780241
1195.0, 0.006001136048461766
1196.0, 0.004821176028760774
1197.0, 0.004306808952715222
1198.0, 0.0033348569126060313
1199.0, 0.005901597682118856
1200.0, 0.007194722096307718
1201.0, 0.008206091229925435
1202.0, 0.006336382339149781
1203.0, 0.00408757082474173
1204.0, 0.012431495170111492
1205.0, 0.00462986628982957
1206.0, 0.0040268418337432825
1207.0, 0.006294949679068821
1208.0, 0.006916472749307558
1209.0, 0.0038850652531254794
1210.0, 0.0056267419494948345
1211.0, 0.005172001451511955
1212.0, 0.0034897263393386816
1213.0, 0.005054556448633257
1214.0, 0.008358993644197798
1215.0, 0.005231581973345071
1216.0, 0.007373508902382862
1217.0, 0.005828499396171907
1218.0, 0.006704416167687198
1219.0, 0.008398804636811577
1220.0, 0.007856363236652262
1221.0, 0.006156804595994771
1222.0, 0.006569392816474145
1223.0, 0.008586096964508252
1224.0, 0.008384062956290074
1225.0, 0.0067147522106252655
1226.0, 0.007210328657320007
1227.0, 0.005493124814124053
1228.0, 0.005440176958336524
1229.0, 0.007861275403522437
1230.0, 0.006800623287598458
1231.0, 0.0023003807755350636
1232.0, 0.005935466645523756
1233.0, 0.010728212231648018
1234.0, 0.008943274281137802
1235.0, 0.007092098600374961
1236.0, 0.007588750644646931
1237.0, 0.008515458685221699
1238.0, 0.0004917356945948132
1239.0, 0.010067850657848985
1240.0, 0.006992722418905702
1241.0, 0.0020827136981819566
1242.0, 0.0026777580364390693
1243.0, 0.007624001878386917
1244.0, 0.0013902796283139962
1245.0, 0.0054936625724609665
1246.0, 0.007877878673557957
1247.0, 0.005584863846720845
1248.0, 0.0025613826980907944
1249.0, 0.009148296323964937
1250.0, 0.003516827966814584
1251.0, 0.004845306006948847
1252.0, 0.008175181168946116
1253.0, 0.008284491500995023
1254.0, 0.003960434745147099
1255.0, 0.004882421890274393
1256.0, 0.005597564813409601
1257.0, 0.005406021526296262
1258.0, 0.006884291277760401
1259.0, 0.007830817765650278
1260.0, 0.0046972580395212024
1261.0, 0.005035607340084548
1262.0, 0.01257511408689501
1263.0, 0.010307990606656688
1264.0, 0.004230554933485114
1265.0, 0.002727671278504631
1266.0, 0.01020916045614649
1267.0, 0.0064005325370017855
1268.0, 0.008735777283093804
1269.0, 0.007199209647077857
1270.0, 0.004863331472950823
1271.0, 0.006218478650608665
1272.0, 0.011629444961420168
1273.0, 0.0065791900433134305
1274.0, 0.005370179980928695
1275.0, 0.007267199216766641
1276.0, 0.006671134986892557
1277.0, 0.002289294010848443
1278.0, 0.008112400605321913
1279.0, 0.005308968216592429
1280.0, 0.0024723795700898237
1281.0, 0.00589842465863604
1282.0, 0.008949462196965699
1283.0, 0.0030796364311970505
1284.0, 0.0008868687768974694
1285.0, 0.006801490201973081
1286.0, 0.0038993280878231095
1287.0, 0.004002483812474751
1288.0, 0.006515207360388899
1289.0, 0.0022960600447879185
1290.0, 0.001582290862157503
1291.0, 0.00526369867900599
1292.0, 0.005243458774905112
1293.0, 0.0038603679317502585
1294.0, 0.004209295501771755
1295.0, 0.007083211588909259
1296.0, 0.0021987273941710627
1297.0, 0.0011358290092311491
1298.0, 0.004737409647781765
1299.0, 0.006800463410320717
1300.0, 0.005523565919148982
1301.0, 0.005910154868178386
1302.0, 0.0026557668844602563
1303.0, 0.0008045298243066937
1304.0, 0.006173739746984858
1305.0, 0.007755514124465943
1306.0, 0.0019931552367214054
1307.0, 0.0026029674745074475
1308.0, 0.00882252691730673
1309.0, 0.005286316165991097
1310.0, 0.0024816615234277495
1311.0, 0.0046795649767206095
1312.0, 0.008469199706725092
1313.0, 0.0022478671696864504
1314.0, 0.0052568906537035776
1315.0, 0.005115457266482572
1316.0, 0.003158748573328126
1317.0, 0.004374054044351318
1318.0, 0.00863256244484755
1319.0, 0.004302254575906941
1320.0, 0.003912211383667528
1321.0, 0.006692339754958761
1322.0, 0.004800228273792714
1323.0, 0.004262971672095267
1324.0, 0.009475582290737014
1325.0, 0.01004912661342339
1326.0, 0.0020065949899614566
1327.0, 0.004128891718901468
1328.0, 0.003926566573914592
1329.0, 0.002896281758429057
1330.0, 0.005688696606077126
1331.0, 0.010380126934187557
1332.0, 0.003776010408364806
1333.0, 0.004663286507903147
1334.0, 0.007103654724623846
1335.0, 0.006500598149188831
1336.0, 0.0035683078409641
1337.0, 0.007687617171432286
1338.0, 0.004997645759899601
1339.0, 0.002976469700041233
1340.0, 0.008443252068253696
1341.0, 0.009603048562935352
1342.0, 0.0011538803365302198
1343.0, 0.004267597951383985
1344.0, 0.007775893223215152
1345.0, 0.004509418531878165
1346.0, 0.006290591041941266
1347.0, 0.008394546052625657
1348.0, 0.005715872157385398
1349.0, 0.003983793645278427
1350.0, 0.007281381073114313
1351.0, 0.005068580335198933
1352.0, 0.005944262770460095
1353.0, 0.007696830989772317
1354.0, 0.006370912140317372
1355.0, 0.002123939693891519
1356.0, 0.009356318735389436
1357.0, 0.0053689198815980695
1358.0, 0.0067961152736442385
1359.0, 0.00998218347686959
1360.0, 0.010579062990719283
1361.0, 0.010887379549582151
1362.0, 0.007126616450383147
1363.0, 0.009508311332656668
1364.0, 0.006208455367137141
1365.0, 0.005338836995570151
1366.0, 0.00900921255887604
1367.0, 0.008499465735586183
1368.0, 0.0032906154950013435
1369.0, 0.009811430175227589
1370.0, 0.007724413941190603
1371.0, 0.004194015360732804
1372.0, 0.004031187552966852
1373.0, 0.004819745888821262
1374.0, 0.000988524321016621
1375.0, 0.0013839871740185315
1376.0, 0.00681523701351574
1377.0, 0.005611962685918142
1378.0, 0.00208643911024359
1379.0, 0.006475067254702889
1380.0, 0.006648113473135685
1381.0, 0.0038774186037744606
1382.0, 0.008085564009502963
1383.0, 0.010254372520742202
1384.0, 0.009317092187069744
1385.0, 0.009210037323924072
1386.0, 0.013307743741709534
1387.0, 0.008979246363278624
1388.0, 0.0078690467190082
1389.0, 0.011898132623975039
1390.0, 0.012211429723377744
1391.0, 0.00658277959571621
1392.0, 0.008820590983137144
1393.0, 0.01406384412933257
1394.0, 0.008371045785880216
1395.0, 0.010515621105271062
1396.0, 0.011629828470166966
1397.0, 0.007703332343005585
1398.0, 0.007934424311213238
1399.0, 0.017778868996889925
1400.0, 0.007100865710786634
1401.0, 0.007286810940145434
1402.0, 0.013793650775053456
1403.0, 0.01414053163476665
1404.0, 0.003309050888474159
1405.0, 0.008731003983508649
1406.0, 0.012132060564942832
1407.0, 0.009274112529514586
1408.0, 0.008921985511195774
1409.0, 0.01058373540610021
1410.0, 0.009177434324515791
1411.0, 0.0023780112617223454
1412.0, 0.014864808343121698
1413.0, 0.007703582149335003
1414.0, 0.007733086582846396
1415.0, 0.012650244846911006
1416.0, 0.012288199032469464
1417.0, 0.0031291222884883216
1418.0, 0.012490759406373767
1419.0, 0.00980157501694819
1420.0, 0.007410408491802007
1421.0, 0.009499237089019839
1422.0, 0.01181170821590959
1423.0, 0.007870323119801919
1424.0, 0.003436668861075256
1425.0, 0.00849631951257768
1426.0, 0.00899939538429877
1427.0, 0.008506059039879273
1428.0, 0.010995912140722909
1429.0, 0.012897084149366148
1430.0, 0.0006054856933883019
1431.0, 0.008883599621221901
1432.0, 0.010541365616200272
1433.0, 0.007283002919238451
1434.0, 0.0090507110218362
1435.0, 0.012893764568996388
1436.0, 0.005691393710525534
1437.0, 0.0018310799995672625
1438.0, 0.015303809101599918
1439.0, 0.008560914303455968
1440.0, 0.005025996094625066
1441.0, 0.011081461700729149
1442.0, 0.016411988805220087
1443.0, 0.007237562800759738
1444.0, 0.014525739906437572
1445.0, 0.011503645349446933
1446.0, 0.008291062495117718
1447.0, 0.009106272207748024
1448.0, 0.011513455798264507
1449.0, 0.009832067030161498
1450.0, 0.011202625625166168
1451.0, 0.011004001791294807
1452.0, 0.01035344726718748
1453.0, 0.008636102919620204
1454.0, 0.009735245225343702
1455.0, 0.013628465911460403
1456.0, 0.006371340066406998
1457.0, 0.010183926166442477
1458.0, 0.014845726411490224
1459.0, 0.011398048082516087
1460.0, 0.010790200463537084
1461.0, 0.014815137740689157
1462.0, 0.011579490040915422
1463.0, 0.007443198751123318
1464.0, 0.015973959787465724
1465.0, 0.01151493387242865
1466.0, 0.007313791889246864
1467.0, 0.010531451959866557
1468.0, 0.015353745265715039
1469.0, 0.005287828659553472
1470.0, 0.013685970357058253
1471.0, 0.012869298510799822
1472.0, 0.009014740948422096
1473.0, 0.012323999557084906
1474.0, 0.01761868590004912
1475.0, 0.011786240019041778
1476.0, 0.0086441328422701
1477.0, 0.01645000786525981
1478.0, 0.008691402831844317
1479.0, 0.007010740135315178
1480.0, 0.01155800793843422
1481.0, 0.012343013679728168
1482.0, 0.004228323328214604
1483.0, 0.010359348014783703
1484.0, 0.01610207837457418
1485.0, 0.008381847888289188
1486.0, 0.007343650481384583
1487.0, 0.011813482392843997
1488.0, 0.009278622278991816
1489.0, 0.0038454914243211593
1490.0, 0.01503421930621504
1491.0, 0.009546439700908441
1492.0, 0.004990481025014809
1493.0, 0.009242035874874805
1494.0, 0.013188333989467275
1495.0, 0.00422705237156481
1496.0, 0.0076462768347361895
1497.0, 0.015397702152994793
1498.0, 0.00595237124970565
1499.0, 0.0052781354864795274
1500.0, 0.010376277545570025
1501.0, 0.009888938606072218
1502.0, 0.0031476734309033826
1503.0, 0.012327750506657706
1504.0, 0.007980593043854607
1505.0, 0.004211408300513846
1506.0, 0.009581231887486052
1507.0, 0.01237324165910926
1508.0, 0.0038774757454080972
1509.0, 0.0007340941141862267
1510.0, 0.010665695049652396
1511.0, 0.007308775150797935
1512.0, 0.0042881044053139005
1513.0, 0.006131474409239008
1514.0, 0.006426493592295643
1515, 0.0
1516, 0.0
1517, 0.0
1518, 0.0
1519, 0.0
1520, 0.0
1521, 0.0
1522, 0.0
1523, 0.0
1524, 0.0
1525, 0.0
1526, 0.0
1527, 0.0
1528, 0.0
1529, 0.0
1530, 0.0
1531, 0.0
1532, 0.0
1533, 0.0
1534, 0.0
1535, 0.0
1536, 0.0
1537, 0.0
1538, 0.0
1539, 0.0
1540, 0.0
1541, 0.0
1542, 0.0
1543, 0.0
1544, 0.0
1545, 0.0
1546, 0.0
1547, 0.0
1548, 0.0
1549, 0.0
1550, 0.0
1551, 0.0
1552, 0.0
1553, 0.0
1554, 0.0
1555, 0.0
1556, 0.0
1557, 0.0
1558, 0.0
1559, 0.0
1560, 0.0
1561, 0.0
1562, 0.0
1563, 0.0
1564, 0.0
1565, 0.0
1566, 0.0
1567, 0.0
1568, 0.0
1569, 0.0
1570, 0.0
1571, 0.0
1572, 0.0
1573, 0.0
1574, 0.0
1575, 0.0
1576, 0.0
1577, 0.0
1578, 0.0
1579, 0.0
1580, 0.0
1581, 0.0
1582, 0.0
1583, 0.0
1584, 0.0
1585, 0.0
1586, 0.0
1587, 0.0
1588, 0.0
1589, 0.0
1590, 0.0
1591, 0.0
1592, 0.0
1593, 0.0
1594, 0.0
1595, 0.0
1596, 0.0
1597, 0.0
1598, 0.0
1599, 0.0
