30, 0.0
31, 0.0
32, 0.0
33, 0.0
34, 0.0
35, 0.0
36, 0.0
37, 0.0
38, 0.0
39, 0.0
40, 0.0
41, 0.0
42, 0.0
43, 0.0
44, 0.0
45, 0.0
46, 0.0
47, 0.0
48, 0.0
49, 0.0
50, 0.0
51, 0.0
52, 0.0
53, 0.0
54, 0.0
55, 0.0
56, 0.0
57, 0.0
58, 0.0
59, 0.0
60, 0.0
61, 0.0
62, 0.0
63, 0.0
64, 0.0
65, 0.0
66, 0.0
67, 0.0
68, 0.0
69, 0.0
70, 0.0
71, 0.0
72, 0.0
73, 0.0
74, 0.0
75, 0.0
76, 0.0
77, 0.0
78, 0.0
79, 0.0
80, 0.0
81, 0.0
82, 0.0
83, 0.0
84, 0.0
85, 0.0
86, 0.0
87, 0.0
88, 0.0
89, 0.0
90, 0.0
91, 0.0
92, 0.0
93, 0.0
94, 0.0
95.0, 0.00339186819897337
96.0, 0.00822884069147887
97.0, 0.00821318294885448
98.0, 0.0017707753683492795
99.0, 0.0006358009034567725
100.0, 0.0010293463749837042
101.0, 0.002414284726185712
102.0, 0.0007871427360595948
103.0, 0.002326640345401489
104.0, 0.007191141330880324
105.0, 0.01542006429598062
106.0, 0.030086856160486217
107.0, 0.04385972954710096
108.0, 0.054406629887933156
109.0, 0.06340665132395121
110.0, 0.07474739057089866
111.0, 0.08689178666566175
112.0, 0.10246122749330235
113.0, 0.12064460231906876
114.0, 0.13932888229369403
115.0, 0.15958181700747823
116.0, 0.17700310223639928
117.0, 0.19623584617017395
118.0, 0.21947752597712464
119.0, 0.23806947607854112
120.0, 0.26053920840932987
121.0, 0.28511306828707855
122.0, 0.3122465105117965
123.0, 0.3474635852255869
124.0, 0.37324543639851715
125.0, 0.396358737635869
126.0, 0.42470396338538324
127.0, 0.4600404713916934
128.0, 0.49333215471926234
129.0, 0.5285288890248422
130.0, 0.5679894694729462
131.0, 0.6111310292173487
132.0, 0.6541819830839831
133.0, 0.6999466838495989
134.0, 0.7495291469942966
135.0, 0.8014188880126859
136.0, 0.8513051830564271
137.0, 0.8989738422042215
138.0, 0.943146468777179
139.0, 0.9788528761829007
140.0, 0.997929995408224
141.0, 0.996849004836146
142.0, 0.9827803523619667
143.0, 0.9604957604329161
144.0, 0.9318697509171433
145.0, 0.9071153683655114
146.0, 0.8879742576969438
147.0, 0.8743772793471377
148.0, 0.8657246955902488
149.0, 0.8608015605754693
150.0, 0.8624544328566025
151.0, 0.8651073516614769
152.0, 0.8642195167273841
153.0, 0.8589422409223263
154.0, 0.8558180345680712
155.0, 0.8505725405888895
156.0, 0.8434591668059331
157.0, 0.8375023111480707
158.0, 0.8262845436754073
159.0, 0.8140074078060612
160.0, 0.8023400644089034
161.0, 0.7907479362562033
162.0, 0.7770333864477008
163.0, 0.7595937628276397
164.0, 0.7380221935707388
165.0, 0.7135146289598074
166.0, 0.6879279868318328
167.0, 0.6587394289892713
168.0, 0.6262889696131955
169.0, 0.5927473938297392
170.0, 0.5600377279025042
171.0, 0.5273654662673084
172.0, 0.493155038682361
173.0, 0.4597168777260242
174.0, 0.42952346644330447
175.0, 0.40398950461730265
176.0, 0.37697943438126336
177.0, 0.3524640083222711
178.0, 0.33212320533440887
179.0, 0.31362799739811875
180.0, 0.29707027057570556
181.0, 0.28160350072014617
182.0, 0.265939628724631
183.0, 0.2501626635392152
184.0, 0.2383007244296076
185.0, 0.2248664745232689
186.0, 0.2121587506945998
187.0, 0.20223365643128885
188.0, 0.19199657886140253
189.0, 0.18142032513144699
190.0, 0.1726897929668893
191.0, 0.16541661761906076
192.0, 0.15720524676392136
193.0, 0.14873264585119403
194.0, 0.14199994779539224
195.0, 0.13652172310560437
196.0, 0.13082915014229937
197.0, 0.12409593360240813
198.0, 0.11708161306566774
199.0, 0.11077318115027011
200.0, 0.1048278517847775
201.0, 0.09798559283671478
202.0, 0.09259860802596209
203.0, 0.08713879331701574
204.0, 0.08149258426193819
205.0, 0.07627385396036321
206.0, 0.07067951509472775
207.0, 0.06412391268453937
208.0, 0.058234772198994984
209.0, 0.05315000077981657
210.0, 0.047839968460963576
211.0, 0.04377243480942498
212.0, 0.040436511367147536
213.0, 0.0368476121979557
214.0, 0.03283937997182221
215.0, 0.03138573818554891
216.0, 0.027653473040846692
217.0, 0.023554513006085513
218.0, 0.021551281213714312
219.0, 0.02125085238406006
220.0, 0.018619347690162612
221.0, 0.016134436135147864
222.0, 0.014182822191266807
223.0, 0.011174066900028094
224.0, 0.008715886027312
225.0, 0.011259943889772653
226.0, 0.011959188680901683
227.0, 0.008535314539231991
228.0, 0.009006628071571477
229.0, 0.009167360879638417
230.0, 0.009860205420857773
231.0, 0.010942743187367363
232.0, 0.011801987638970727
233.0, 0.012192051471782237
234.0, 0.014300706724141401
235.0, 0.01538857974437154
236.0, 0.014678394808475374
237.0, 0.015434625347799534
238.0, 0.01611106046097876
239.0, 0.015507320638794548
240.0, 0.014096052756615027
241.0, 0.012842145967853871
242.0, 0.012272717179449825
243.0, 0.01073696178220088
244.0, 0.008747598826611441
245.0, 0.00673873671865691
246.0, 0.00461743517757605
247.0, 0.0033671831382956533
248.0, 0.0025394136544044286
249.0, 0.001907901697397206
250.0, 0.0014021883423833005
251.0, 0.0008555766517285093
252.0, 0.001294449994883908
253.0, 0.00015743429156293398
254.0, 0.002609580238228017
255.0, 0.0025749117778600386
256.0, 0.0031593993312818563
257.0, 0.0034631084173971367
258.0, 0.003439859663707145
259.0, 0.003766290041620208
260.0, 0.005466505304156439
261.0, 0.0055163272648761
262.0, 0.006102774009558944
263.0, 0.006470056148405121
264.0, 0.004675768389097596
265.0, 0.005902852429519621
266.0, 0.004713821223918475
267.0, 0.005118552192925551
268.0, 0.008317614494340946
269.0, 0.007278796152143984
270.0, 0.004377534361848011
271.0, 0.00395042045345465
272.0, 0.005359633710973307
273.0, 0.005775193251643354
274.0, 0.004806605362630236
275.0, 0.004643542225751671
276.0, 0.004594631139013352
277.0, 0.003253207143819799
278.0, 0.0002336358088899717
279.0, 0.0011921274347608144
280.0, 0.0010508213039400677
281.0, 0.00010932860027132744
282.0, 0.0006481258032020106
283.0, 0.0002619036866858054
284.0, 0.00011873324123381612
285.0, 0.0014600363389163954
286.0, 0.003039335331830056
287.0, 0.0034960402852335735
288.0, 0.005423731005280693
289.0, 0.0058687702970004136
290.0, 0.0055401446180685515
291.0, 0.005740129690556943
292.0, 0.006776027510198929
293.0, 0.008409925654000817
294.0, 0.00859411946923451
295.0, 0.009578282300218687
296.0, 0.012537836159350509
297.0, 0.014678951631688761
298.0, 0.015553282822122727
299.0, 0.017638256691833446
300.0, 0.020885978174223538
301.0, 0.023654835665108082
302.0, 0.02536102830892584
303.0, 0.027161819073159368
304.0, 0.028835984209236627
305.0, 0.03068627437599089
306.0, 0.03331856397654009
307.0, 0.03606022527172458
308.0, 0.03640777311579347
309.0, 0.03692013336982608
310.0, 0.03885259124274907
311.0, 0.04039721150344132
312.0, 0.04072237072631099
313.0, 0.04340532799052719
314.0, 0.0464547640583982
315.0, 0.047926889076169044
316.0, 0.050647582055265365
317.0, 0.05157842720937253
318.0, 0.05097542780708247
319.0, 0.050150868651422584
320.0, 0.05009310832642117
321.0, 0.05145643343430782
322.0, 0.05182705467378171
323.0, 0.05166857028122851
324.0, 0.05156017033089047
325.0, 0.051179414520013226
326.0, 0.04948647577773297
327.0, 0.04894824244387011
328.0, 0.04913511918698783
329.0, 0.04975830050974928
330.0, 0.05164970419530938
331.0, 0.049462233514864694
332.0, 0.04505755308230814
333.0, 0.042257478563482935
334.0, 0.042147555659322926
335.0, 0.040257779021021324
336.0, 0.03897323060317856
337.0, 0.03875995103995972
338.0, 0.03809008115388174
339.0, 0.03634283624242816
340.0, 0.03746680613494581
341.0, 0.034919942740273324
342.0, 0.03507813312899394
343.0, 0.037504795710994236
344.0, 0.036563336474672636
345.0, 0.03492843851916039
346.0, 0.03479593333431161
347.0, 0.035950896703346946
348.0, 0.037863184031975874
349.0, 0.039962242900556215
350.0, 0.0400057289725661
351.0, 0.0410480425976716
352.0, 0.04225811812361115
353.0, 0.04358760022083948
354.0, 0.04638267168650666
355.0, 0.0473976324528271
356.0, 0.0517353387683534
357.0, 0.055149008020717594
358.0, 0.05581619643663008
359.0, 0.058788498870175405
360.0, 0.06178069588230669
361.0, 0.0647568647156714
362.0, 0.06771520069756053
363.0, 0.0708845902105806
364.0, 0.07505450608515402
365.0, 0.07791726864473357
366.0, 0.08233531080863651
367.0, 0.08652996613486583
368.0, 0.08881937523588936
369.0, 0.09236546325161754
370.0, 0.0951271607523333
371.0, 0.09702098364920875
372.0, 0.0977500473692397
373.0, 0.09749649006904439
374.0, 0.09810537996463592
375.0, 0.09641995459935904
376.0, 0.0961465592576755
377.0, 0.0957859503588177
378.0, 0.09251403484977135
379.0, 0.08981858529321103
380.0, 0.0875356547224375
381.0, 0.08372236169818534
382.0, 0.07887443535334177
383.0, 0.07483238452279652
384.0, 0.07132633535807452
385.0, 0.06831463256726868
386.0, 0.06474234543069651
387.0, 0.06154126837877636
388.0, 0.0596530742155793
389.0, 0.05631707440527411
390.0, 0.05415002226858724
391.0, 0.051923343764744036
392.0, 0.04981538924830185
393.0, 0.048757536043181296
394.0, 0.047078143625428406
395.0, 0.04596807677495341
396.0, 0.045406357133698866
397.0, 0.043954506116911055
398.0, 0.04106512973547658
399.0, 0.0411959263656975
400.0, 0.03868178133372946
401.0, 0.035991706856588666
402.0, 0.03445475133881436
403.0, 0.03353810624223147
404.0, 0.029829814163943154
405.0, 0.027271074282884465
406.0, 0.02446678476490811
407.0, 0.022282331974147276
408.0, 0.02234508592819397
409.0, 0.02151685960409119
410.0, 0.020192627074271472
411.0, 0.021072436737888164
412.0, 0.02233656984091871
413.0, 0.02127790798036005
414.0, 0.02068887172923977
415.0, 0.020554323380710535
416.0, 0.019895495170225878
417.0, 0.018063684403487133
418.0, 0.015550799757887096
419.0, 0.014933679655265946
420.0, 0.014025015310060162
421.0, 0.012949536182806223
422.0, 0.011636023172593471
423.0, 0.010241379626493952
424.0, 0.01034977484868203
425.0, 0.010736484752965675
426.0, 0.00992975203464347
427.0, 0.00920351867835364
428.0, 0.009405797034970902
429.0, 0.0076611468876774036
430.0, 0.005207810103635939
431.0, 0.004442761949385112
432.0, 0.004770715636407684
433.0, 0.004623871204272715
434.0, 0.0036022126297149855
435.0, 0.0027969427441290307
436.0, 0.0025231576205873634
437.0, 0.0019091285982674403
438.0, 0.0010140158532560709
439.0, 0.0013197834999252966
440.0, 0.00253155587070733
441.0, 0.0010689956539853421
442.0, 0.0005374310803416723
443.0, 0.00025347301557818635
444.0, 0.0010158905694791747
445.0, 0.0013326263849256098
446.0, 0.0007838915463103548
447.0, 0.0001809578893135272
448.0, 0.0002919671037583555
449.0, 0.0006768724861023936
450.0, 0.00021521475922761112
451.0, 0.0002271875809924145
452.0, 0.0009769105074978871
453.0, 0.00139807483887993
454.0, 0.0012376977826686394
455.0, 0.0027791520692722156
456.0, 0.0022527463132335276
457.0, 0.0013728670989449521
458.0, 0.0010268897487154946
459.0, 0.0007294434412509521
460.0, 0.0001616599216083919
461.0, 0.0001999630408302436
462.0, 0.0010084803338134207
463.0, 0.0006554687277014997
464.0, 0.001725844559226604
465.0, 0.00153208521936767
466.0, 0.000495788996275994
467.0, 0.0008113644788638356
468.0, 0.001207852518585104
469.0, 0.00021141333185498653
470.0, 0.0018665141715505588
471.0, 0.001463188240914071
472.0, 0.0001452431245872396
473.0, 0.00048222029556946983
474.0, 0.000764681121599535
475.0, 0.00038935524123131333
476.0, 0.000866282931094966
477.0, 0.0005901067139305961
478.0, 0.0001373626980526095
479.0, 0.0004893695166590088
480.0, 0.001493001445772815
481.0, 0.0017159906470891554
482.0, 0.0012379660290293094
483.0, 0.001131408917452037
484.0, 0.0009594144895771195
485.0, 0.0004077457875717633
486.0, 0.00021698478090108672
487.0, 0.0006862953292787913
488.0, 0.0016772188533903125
489.0, 0.0025804078356463744
490.0, 0.002633704269365911
491.0, 0.0012441992811812151
492.0, 0.0015197288278824253
493.0, 0.0042579787384450785
494.0, 0.0042756421848055455
495.0, 0.002358912743487376
496.0, 0.002181698385781547
497.0, 0.0011255973996610999
498.0, 0.000834634018336937
499.0, 0.0026194753867005735
500.0, 0.004375557871869469
501.0, 0.004614287216356871
502.0, 0.005199868119893676
503.0, 0.007356376235382013
504.0, 0.007266638869260346
505.0, 0.007275309157174794
506.0, 0.008295892334874664
507.0, 0.00807463072905507
508.0, 0.006630481739365349
509.0, 0.006285912619919018
510.0, 0.005186789366315482
511.0, 0.004159883678584613
512.0, 0.004912850252948737
513.0, 0.005679815352693705
514.0, 0.00534273532257207
515.0, 0.004037400394692999
516.0, 0.00398459314764248
517.0, 0.005714674454108702
518.0, 0.006692483734855829
519.0, 0.004459748594267292
520.0, 0.005120874435264938
521.0, 0.006611576681879141
522.0, 0.006179013416088399
523.0, 0.0039510269597168675
524.0, 0.004414658381266146
525.0, 0.0035585569243075836
526.0, 0.003229584594643604
527.0, 0.003278216104384511
528.0, 0.0030943938478998328
529.0, 0.004597267065155037
530.0, 0.006764641192617962
531.0, 0.005919514649858115
532.0, 0.005286166573037599
533.0, 0.007399933201343341
534.0, 0.009679830142525622
535.0, 0.003914632450866614
536.0, 0.0033217241902426006
537.0, 0.0026641408982912684
538.0, 0.0006296045844841205
539.0, 0.0008492211879960127
540.0, 0.0009663921502584993
541.0, 0.00037143892051257445
542.0, 0.00034739304648076
543.0, 0.00025302835933216784
544.0, 0.0007069759537056501
545.0, 0.0006881234169221894
546.0, 0.004379955031597565
547.0, 0.004161446697552842
548.0, 0.003811041064244925
549.0, 0.002695448321737607
550.0, 0.0006849435659252727
551.0, 0.0021143489234538054
552.0, 0.00245047447159274
553.0, 0.00297832662424232
554.0, 0.003993599820551561
555.0, 0.005419945486733444
556.0, 0.006995041391493186
557.0, 0.00800329551533904
558.0, 0.006636808088977848
559.0, 0.006532228759366249
560.0, 0.008285568351631637
561.0, 0.00946750175222657
562.0, 0.00834742716085938
563.0, 0.011176410126522988
564.0, 0.010997922322290844
565.0, 0.012186934361992727
566.0, 0.015304307098980091
567.0, 0.017971144794788042
568.0, 0.0189366973449577
569.0, 0.02061865788452028
570.0, 0.022435277777190954
571.0, 0.024371202647421576
572.0, 0.026737342400274536
573.0, 0.029504804936166074
574.0, 0.03224924434445947
575.0, 0.03403620490601609
576.0, 0.03605183553778909
577.0, 0.03958360884826666
578.0, 0.04407249755396104
579.0, 0.04708082422410768
580.0, 0.048740540159232966
581.0, 0.051902111794116836
582.0, 0.05365889369676317
583.0, 0.05664266052365097
584.0, 0.06291599451282079
585.0, 0.06657135742277884
586.0, 0.06682302972990839
587.0, 0.06895175323906576
588.0, 0.07185351976921263
589.0, 0.07288353031052046
590.0, 0.07310673870149383
591.0, 0.08148418485689521
592.0, 0.0781832889317861
593.0, 0.07741893853891713
594.0, 0.0787238834347147
595.0, 0.0785886321649723
596.0, 0.0790270115299523
597.0, 0.0812974378529833
598.0, 0.08074967676768038
599.0, 0.0802918208272809
600.0, 0.08153381942037757
601.0, 0.08171383257302076
602.0, 0.07734516958187825
603.0, 0.07805666499452131
604.0, 0.07782136852636304
605.0, 0.07587755469233967
606.0, 0.07237882917222173
607.0, 0.06876805031733109
608.0, 0.06799897120418529
609.0, 0.06605985512172946
610.0, 0.06421625094744879
611.0, 0.0605956312075646
612.0, 0.0566392369598695
613.0, 0.05438926775755283
614.0, 0.051177148754778364
615.0, 0.04754422846087905
616.0, 0.044548684267446285
617.0, 0.04169531546726327
618.0, 0.03881490590095744
619.0, 0.036122213721553074
620.0, 0.03320113384164124
621.0, 0.030393784708607954
622.0, 0.028574532988147598
623.0, 0.026719113321093578
624.0, 0.024138504822454384
625.0, 0.021329155587279134
626.0, 0.020297601454367573
627.0, 0.019190367015792395
628.0, 0.017579633701689336
629.0, 0.01603318760220642
630.0, 0.014656610209366363
631.0, 0.013151248708672441
632.0, 0.012307475750680138
633.0, 0.010379628136923707
634.0, 0.008806501940540248
635.0, 0.007605218308431278
636.0, 0.005837706559623661
637.0, 0.0037900544803333635
638.0, 0.0054821272280038014
639.0, 0.003874328664832383
640.0, 0.00211379687286252
641.0, 0.001119109461198776
642.0, 0.0005217038242562473
643.0, 0.0008650006250058774
644.0, 0.0014898364069838338
645.0, 0.00013810012748416726
646.0, 0.0001834312272358135
647.0, 0.0005392627656780315
648.0, 0.0008593817060180806
649.0, 0.000735771760608353
650.0, 0.002353830435891291
651.0, 0.002878368859134192
652.0, 0.004133162129250425
653.0, 0.006315232819530688
654.0, 0.0071575256862570005
655.0, 0.00581708867754402
656.0, 0.006546986225545842
657.0, 0.009288454987295356
658.0, 0.01299482751491163
659.0, 0.014680909990985844
660.0, 0.014523639058920451
661.0, 0.016377801023122574
662.0, 0.020732529862988812
663.0, 0.02073444881620667
664.0, 0.023039353957936486
665.0, 0.026218167751082287
666.0, 0.027612512211061032
667.0, 0.027716077367367732
668.0, 0.025907066684695165
669.0, 0.020508128094811326
670.0, 0.015959749478133133
671.0, 0.013057840902996705
672.0, 0.009994752536312
673.0, 0.005945400359232895
674.0, 0.0034153506853529694
675.0, 0.0006490668357828173
676.0, 5.649728151284304e-05
677.0, 0.00034739968043214756
678.0, 0.001794609714079443
679.0, 0.0026100129877652052
680.0, 0.0011943203015481112
681.0, 0.0013310595824811728
682.0, 0.00036933033755592165
683.0, 4.690941487208078e-05
684.0, 0.00011547914247660392
685.0, 0.0013526805423116541
686.0, 0.003226457359030347
687.0, 0.005129788809088453
688.0, 0.008596508160978789
689.0, 0.0068898781268399885
690.0, 0.004382518854454172
691.0, 0.004801985518198015
692.0, 0.0028256444991824705
693.0, 0.001390849825996393
694.0, 0.002551069440979677
695.0, 0.00231809025060731
696.0, 0.002707916887447546
697.0, 0.0035648838884672265
698.0, 0.0019309328425014217
699.0, 0.0013812101809546602
700.0, 2.9845314213461758e-05
701.0, 0.0007914839659019484
702.0, 0.0011352209354372343
703.0, 0.0003329928823033846
704.0, 5.264545075718657e-05
705.0, 0.0002951706134588401
706.0, 0.00048661731594442265
707.0, 0.00017017540587181427
708.0, 0.0012755586222576278
709.0, 0.0019462949461124177
710.0, 0.0010862584988837955
711.0, 0.0014008731923664663
712.0, 0.00019707378514703772
713.0, 0.0005774816516134358
714.0, 0.0012561917618987859
715.0, 0.0009657974242002832
716.0, 0.0008225496086269426
717.0, 0.0019330832035378324
718.0, 0.0003205149687728893
719.0, 8.960030624513686e-05
720.0, 0.0003407122999800172
721.0, 0.0004456527451863747
722.0, 0.001051381749140894
723.0, 0.00037980613611106535
724.0, 0.0003130936247547824
725.0, 0.0012839921426319005
726.0, 0.0012724706663360399
727.0, 0.0008633126402945608
728.0, 0.0007758850939188431
729.0, 0.0009704297749391146
730.0, 0.0014517597312797717
731.0, 0.001914249899304707
732.0, 0.0016178632235296288
733.0, 0.0016448447450531371
734.0, 0.0013299764027405365
735.0, 0.0011127888265794633
736.0, 0.001872113646753439
737.0, 0.00267295871784438
738.0, 0.003023522184954708
739.0, 0.0012850135231943388
740.0, 0.0007273538509630855
741.0, 0.0016134691026387067
742.0, 0.002378885426570581
743.0, 0.002027546075200474
744.0, 0.0013288611341548398
745.0, 0.0012556344567425748
746.0, 0.0016296363892540904
747.0, 0.0013678764683489346
748.0, 0.0008772539539472186
749.0, 0.0011295083403066166
750.0, 0.0016887699061289988
751.0, 0.00042955584624707055
752.0, 0.0001834479974450526
753.0, 0.0002806455367537628
754.0, 0.000557621478484913
755.0, 0.000455368737688665
756.0, 0.0007530391349164777
757.0, 0.0008213527620401802
758.0, 0.0015776198239981626
759.0, 0.0007456314352729456
760.0, 0.0019136856549760988
761.0, 0.0019978128805661645
762.0, 0.002047017105096169
763.0, 0.0008224434918493325
764.0, 0.0011349703060083583
765.0, 9.705487610249687e-05
766.0, 0.002073361734572643
767.0, 0.004975609051047529
768.0, 0.005546438490468646
769.0, 0.002593829004779684
770.0, 0.002805051893454823
771.0, 0.001766463799219637
772.0, 0.003680204167130897
773.0, 0.004646334718179597
774.0, 0.0040302898081710165
775.0, 0.0034001215844431994
776.0, 0.00323094083992395
777.0, 0.0035362177263335236
778.0, 0.0019057729642636648
779.0, 0.002580088376855969
780.0, 0.003435152023102259
781.0, 0.0038709327993028154
782.0, 0.003989440277901804
783.0, 0.0033033395988392054
784.0, 0.00454423919863313
785.0, 0.004124338514773284
786.0, 0.002276633708202667
787.0, 0.0025971322373188922
788.0, 0.003932702207034424
789.0, 0.003673624504587652
790.0, 0.00290698034082529
791.0, 0.0034045187995275666
792.0, 0.004084767352217617
793.0, 0.004556164090804099
794.0, 0.004093650375213355
795.0, 0.003971481517034712
796.0, 0.005063415254305767
797.0, 0.005459582329601694
798.0, 0.005622121737930803
799.0, 0.004609543172198605
800.0, 0.0033741561524764656
801.0, 0.0033914499809927783
802.0, 0.003993148817833254
803.0, 0.004358373531149749
804.0, 0.005163223453528252
805.0, 0.0029933928877007195
806.0, 0.0049857074318181436
807.0, 0.006283027511180974
808.0, 0.00577016533378028
809.0, 0.00538549955469534
810.0, 0.005504593126043245
811.0, 0.004055685375624074
812.0, 0.007117903516479892
813.0, 0.006142231411058472
814.0, 0.004946998005005281
815.0, 0.005572946162228031
816.0, 0.0065593645711471095
817.0, 0.007465388768475412
818.0, 0.009128175219841024
819.0, 0.008453698782513853
820.0, 0.009225843988992611
821.0, 0.008101792313466442
822.0, 0.006877974828278278
823.0, 0.0071102980229759355
824.0, 0.007533321165731413
825.0, 0.006727721140314975
826.0, 0.00566712262522282
827.0, 0.005436425444274482
828.0, 0.006806828666482395
829.0, 0.007467813517145348
830.0, 0.00632920189881667
831.0, 0.005567014006355433
832.0, 0.0073968376076739666
833.0, 0.00880826974922936
834.0, 0.007706584123640915
835.0, 0.00654371050161464
836.0, 0.006439150187997687
837.0, 0.007582764504733097
838.0, 0.010327492485269572
839.0, 0.013033338070722014
840.0, 0.010068766921321299
841.0, 0.008420526464017841
842.0, 0.007960124640467662
843.0, 0.008075318661495445
844.0, 0.009783518608692646
845.0, 0.01022453157296625
846.0, 0.007012795425163653
847.0, 0.007612310341665586
848.0, 0.006681499410438762
849.0, 0.007683874072115731
850.0, 0.007978387087737824
851.0, 0.00830027515510306
852.0, 0.008533885238224117
853.0, 0.007015124062662116
854.0, 0.005527857923839852
855.0, 0.006140260032187319
856.0, 0.0052670510090395434
857.0, 0.005620744066793271
858.0, 0.0060528766609899975
859.0, 0.0055946143961999205
860.0, 0.005505148347878083
861.0, 0.006922105795189182
862.0, 0.007913533759769461
863.0, 0.007877982540236483
864.0, 0.00873716128198966
865.0, 0.008337955035644514
866.0, 0.007240302036181491
867.0, 0.007315954267184649
868.0, 0.007881467225793866
869.0, 0.007231767816236306
870.0, 0.006302852846979633
871.0, 0.0059399357700774084
872.0, 0.005755707575213525
873.0, 0.0048002120027481
874.0, 0.0034306156909829034
875.0, 0.002633451886107283
876.0, 0.0025442460279254844
877.0, 0.0028006366192770715
878.0, 0.0035278340534629143
879.0, 0.0036597631895792775
880.0, 0.0029241971944494838
881.0, 0.0026882095602091074
882.0, 0.003540087116581385
883.0, 0.004087886948616578
884.0, 0.003522537299177058
885.0, 0.005033820935801585
886.0, 0.002755271689916319
887.0, 0.0021495387100498604
888.0, 0.001670289776452412
889.0, 0.0009472289588597362
890.0, 0.0017820042405539411
891.0, 0.0022157692181041843
892.0, 0.0006523829472479983
893.0, 0.002244049119546725
894.0, 0.0021123400351996282
895.0, 0.002536968091278655
896.0, 0.0033735829217570673
897.0, 0.003112770396985354
898.0, 0.003216080375164064
899.0, 0.0037718918631884225
900.0, 0.003921235300143317
901.0, 0.0019849891834433295
902.0, 0.0017553065645649162
903.0, 0.0017238090967046874
904.0, 0.0013547371442892788
905.0, 0.000768778818300568
906.0, 7.774093805674529e-05
907.0, 0.0006695216557025551
908.0, 0.0010412754171776409
909.0, 0.0005160047320388566
910.0, 0.0009199655676949474
911.0, 0.0016900146603940425
912.0, 0.0004890246420053763
913.0, 0.0014850675012178865
914.0, 0.0003363073374438422
915.0, 0.0010383500023195468
916.0, 0.000139743438288627
917.0, 0.00025193413718113265
918.0, 2.188151413736786e-05
919.0, 0.00018961447373951678
920.0, 0.0004313501515302404
921.0, 0.0011366322337616208
922.0, 0.0003550874975215691
923.0, 0.0007461246892012172
924.0, 0.0003156253463880095
925.0, 0.0023282907172170455
926.0, 0.001663029757773681
927.0, 0.0010967926556920689
928.0, 0.0016330436849781367
929.0, 0.0018643400996688042
930.0, 0.002756251132735297
931.0, 0.001510494741634659
932.0, 0.000843515475279489
933.0, 0.00022010843148403486
934.0, 0.0010668379054221543
935.0, 0.001195257169317814
936.0, 0.0009544068891362562
937.0, 0.0034054140585953775
938.0, 0.0031238164806947134
939.0, 0.00038381798639285303
940.0, 4.084211646966374e-05
941.0, 0.0009837201234682374
942.0, 0.0021483604325993394
943.0, 0.004386767031364101
944.0, 0.005449907449712153
945.0, 0.004081549145022128
946.0, 0.003397514367449697
947.0, 0.0021414587694736963
948.0, 0.0012093051530384484
949.0, 0.0013270978622731534
950.0, 0.0011132615180829133
951.0, 0.0013638500333021948
952.0, 0.00217523660834703
953.0, 0.002287090404634892
954.0, 0.001519603527792386
955.0, 0.002048052858156957
956.0, 0.002220509762269569
957.0, 0.0015232152265974028
958.0, 0.0033646942416192395
959.0, 0.003602982952091439
960.0, 0.0032375088470184468
961.0, 0.0034883526047501732
962.0, 0.0029803541120145987
963.0, 0.003921386075788811
964.0, 0.0012203826666593858
965.0, 0.0009717918770912507
966.0, 0.0011032291007015897
967.0, 0.0003537159463733802
968.0, 0.000448778004032457
969.0, 0.0011056072354120974
970.0, 0.000956771925549276
971.0, 0.0016422447761580093
972.0, 0.001575025515065221
973.0, 0.0031949647361063506
974.0, 0.000940322834027381
975.0, 0.0018598019348590664
976.0, 0.005557580686773405
977.0, 0.005947025774623013
978.0, 0.003048022991576126
979.0, 0.0021284793262884793
980.0, 0.0026339638725988205
981.0, 0.0009184168906575549
982.0, 0.00399090733095713
983.0, 0.0028969300607810306
984.0, 0.0020643101418278634
985.0, 0.001619841312012873
986.0, 0.0003649026904530739
987.0, 0.0003182285949652906
988.0, 0.0014326562794843992
989.0, 0.0009321554173460797
990.0, 0.0022434031060295494
991.0, 0.0008303892695064203
992.0, 0.0011236259862950247
993.0, 0.0020151502701204953
994.0, 0.0018629746889091362
995.0, 0.000702187452391285
996.0, 0.00023005047511708197
997.0, 0.0013309343409997393
998.0, 0.0010310437169792361
999.0, 0.00028303148582986006
1000.0, 0.00020485470212756204
1001.0, 0.0007696979659667379
1002.0, 0.0004538606633609873
1003.0, 8.838650946614961e-05
1004.0, 0.00045238834045174917
1005.0, 0.0016935547728643885
1006.0, 0.0023222151613394517
1007.0, 0.0007311959824307442
1008.0, 0.0033885811604006427
1009.0, 0.0016397895350179475
1010.0, 0.0011497905084511865
1011.0, 0.002226577376539947
1012.0, 0.003186583849670941
1013.0, 0.0037614012246055275
1014.0, 0.003541077082077974
1015.0, 0.0038852723973816033
1016.0, 0.0036795921586384316
1017.0, 0.002295238224884823
1018.0, 0.00388623885676364
1019.0, 0.003632087100860052
1020.0, 0.0022734267698686864
1021.0, 0.0028241932964245433
1022.0, 0.003507100524573654
1023.0, 0.0014419512623900378
1024.0, 0.0016704649707115125
1025.0, 0.003956705694748467
1026.0, 0.005354163347402514
1027.0, 0.005081144206647786
1028.0, 0.004215040686792783
1029.0, 0.004286398300037636
1030.0, 0.004906470355736471
1031.0, 0.004307538959280366
1032.0, 0.0033248147372105697
1033.0, 0.005838918850394701
1034.0, 0.00589181258005476
1035.0, 0.005651294385096863
1036.0, 0.0057163788890189846
1037.0, 0.004695024739164404
1038.0, 0.00409512782454352
1039.0, 0.0045835339820739845
1040.0, 0.005460179107924531
1041.0, 0.006625664551370818
1042.0, 0.007326381019706997
1043.0, 0.0067751872690346125
1044.0, 0.009424857959920228
1045.0, 0.008194685117721777
1046.0, 0.008888754344679964
1047.0, 0.010850947094946106
1048.0, 0.011708653777214693
1049.0, 0.012252853911837079
1050.0, 0.013830663247879805
1051.0, 0.01595741043261438
1052.0, 0.018139084203364443
1053.0, 0.02017763313215474
1054.0, 0.024880439437197692
1055.0, 0.029278610665050987
1056.0, 0.033566375165210466
1057.0, 0.04201751074361342
1058.0, 0.050964732142561864
1059.0, 0.05734085191010606
1060.0, 0.06723244581195281
1061.0, 0.08076797135566902
1062.0, 0.0918517989558433
1063.0, 0.10390265535024623
1064.0, 0.11747669360168808
1065.0, 0.13039485831429826
1066.0, 0.13841181582441137
1067.0, 0.14317251845748774
1068.0, 0.14357290399010972
1069.0, 0.13422977370298766
1070.0, 0.11723777322694948
1071.0, 0.09588010656851421
1072.0, 0.07390129197520116
1073.0, 0.056449412014112826
1074.0, 0.040784115186778463
1075.0, 0.030238079330954896
1076.0, 0.022769125325706376
1077.0, 0.017205150819929876
1078.0, 0.01367012590388434
1079.0, 0.010662934947307749
1080.0, 0.008164624994164843
1081.0, 0.007844337818095862
1082.0, 0.007041196566111624
1083.0, 0.007921185867821397
1084.0, 0.0060924130891839325
1085.0, 0.004668074276808912
1086.0, 0.005070349065829473
1087.0, 0.004646189299473735
1088.0, 0.004007181416812157
1089.0, 0.005183772185797285
1090.0, 0.004674407505246142
1091.0, 0.00515212587142327
1092.0, 0.005864350645179046
1093.0, 0.006354938708133387
1094.0, 0.003912523492052108
1095.0, 0.002453144834294313
1096.0, 0.001982137794559053
1097.0, 0.0010913831816636958
1098.0, 0.0009427038835690063
1099.0, 0.0018379775862195733
1100.0, 0.0021780650610935134
1101.0, 0.0012886872226371554
1102.0, 4.646780273507146e-05
1103.0, 0.0010646544485741415
1104.0, 0.0017189917929029612
1105.0, 0.000592013660028784
1106.0, 0.00023948907073260262
1107.0, 0.0006291133990386216
1108.0, 0.00034893028657788426
1109.0, 0.0005379614349883906
1110.0, 0.001509453305115358
1111.0, 0.0009833215639086241
1112.0, 0.000602544177981746
1113.0, 0.001697489906078577
1114.0, 0.0013935767133292673
1115.0, 0.0008835227076832051
1116.0, 0.0016225704385698988
1117.0, 0.0019065622602146308
1118.0, 0.0017082857992388198
1119.0, 0.0024110361898533558
1120.0, 0.0021704225900435977
1121.0, 0.00046884620367671235
1122.0, 0.001105075223774337
1123.0, 0.0008578205733250111
1124.0, 0.0008882344504779852
1125.0, 0.00027130286363089153
1126.0, 0.0009300632567361448
1127.0, 0.0005576416599607179
1128.0, 0.0004208982917008249
1129.0, 0.0006248522058622656
1130.0, 0.00030320633682924265
1131.0, 6.315451430140078e-05
1132.0, 0.0004838463107481348
1133.0, 0.0007710752558641776
1134.0, 0.0002328672788536547
1135.0, 0.00022771169598665114
1136.0, 0.00014987576347470113
1137.0, 0.001530667038647533
1138.0, 0.0022313543646287066
1139.0, 0.002183243233801921
1140.0, 0.003003296317181824
1141.0, 0.0019949503059492053
1142.0, 0.001954122050081978
1143.0, 0.001242842233004049
1144.0, 0.0023680979030328815
1145.0, 0.0011335490522858698
1146.0, 0.0003248241291672838
1147.0, 0.0001566582397206614
1148.0, 0.0004296412413963417
1149.0, 0.0001687452736215636
1150.0, 0.00026799647163616583
1151.0, 0.0013592105753382567
1152.0, 0.0024963938562656256
1153.0, 0.0029821661643578434
1154.0, 0.0025724954330441727
1155.0, 0.0008262225377017862
1156.0, 0.0018746724851989261
1157.0, 0.0011545941291932192
1158.0, 0.003034178699979687
1159.0, 0.002743878874332004
1160.0, 0.001962625045584228
1161.0, 0.002048434202009268
1162.0, 0.0029120441921004084
1163.0, 0.005538850017185194
1164.0, 0.0035074073278613727
1165.0, 0.0028606717080163846
1166.0, 0.003729652248084322
1167.0, 0.004805709650197598
1168.0, 0.0025863435390532145
1169.0, 0.0036216960340083337
1170.0, 0.0037938106575715995
1171.0, 0.0025171494110097273
1172.0, 0.003175514007805419
1173.0, 0.003382821572952159
1174.0, 0.0016651119899873815
1175.0, 0.0033234800926586344
1176.0, 0.0010619796271352667
1177.0, 0.002002797895194074
1178.0, 0.0015977345460841655
1179.0, 0.0035667021737125653
1180.0, 0.003832706326943332
1181.0, 0.003538569161799451
1182.0, 0.00374725152927247
1183.0, 0.004780914151716921
1184.0, 0.004120413683224531
1185.0, 0.002624139118958918
1186.0, 0.0037429779741937888
1187.0, 0.002715304753140092
1188.0, 0.0018784462957011825
1189.0, 0.005297404818159851
1190.0, 0.007715094993123131
1191.0, 0.006591066131743803
1192.0, 0.006487654598852973
1193.0, 0.0054455639775882626
1194.0, 0.004619174495925713
1195.0, 0.004986168297067312
1196.0, 0.0053455438772344755
1197.0, 0.0050398726463809435
1198.0, 0.004367901984254918
1199.0, 0.003996885569544022
1200.0, 0.0036555427231380767
1201.0, 0.0035143821317328433
1202.0, 0.003997583003982657
1203.0, 0.0030680481381367337
1204.0, 0.0029372193548089245
1205.0, 0.003155553733482817
1206.0, 0.004244137992898889
1207.0, 0.0043697435979394095
1208.0, 0.004268834780207117
1209.0, 0.004357344989601443
1210.0, 0.0029934282454948647
1211.0, 0.0032940187802494194
1212.0, 0.005087511047456543
1213.0, 0.002377463766143119
1214.0, 0.004895809518383103
1215.0, 0.005672743370468089
1216.0, 0.0030184087051335004
1217.0, 0.0017803949713235327
1218.0, 0.0030741066583399885
1219.0, 0.003267066736775763
1220.0, 0.0026386297155370363
1221.0, 0.002845296879132619
1222.0, 0.003581483095330638
1223.0, 0.004555196425131924
1224.0, 0.0037435454080702356
1225.0, 0.0022960555171522147
1226.0, 0.0037140484229023704
1227.0, 0.0015213475721377765
1228.0, 0.0026255541984061205
1229.0, 0.0010913862251428587
1230.0, 0.001853786683698749
1231.0, 0.0024269958134160528
1232.0, 0.0013095480825166385
1233.0, 0.00043137929424763984
1234.0, 0.000801321886954601
1235.0, 0.0019019003278014797
1236.0, 0.0017603203669205468
1237.0, 0.00044531168150827667
1238.0, 0.0010831967774748011
1239.0, 0.0004358912902115133
1240.0, 0.000687759484546561
1241.0, 0.0003409718123173147
1242.0, 0.00013076059185239948
1243.0, 0.00016682644784610394
1244.0, 0.0005500833198205397
1245.0, 0.0004724079447059721
1246.0, 0.0016090153189078236
1247.0, 0.0024844843775968153
1248.0, 0.0004366668509092549
1249.0, 0.000565065886774537
1250.0, 0.001679360650821913
1251.0, 0.00034411385896661144
1252.0, 0.0017294877005984116
1253.0, 0.0020562985046587313
1254.0, 0.002215267588330845
1255.0, 0.0011689145872033784
1256.0, 0.003313124578097261
1257.0, 0.005848811504982737
1258.0, 0.0068032766861730294
1259.0, 0.005171797106193392
1260.0, 0.002305556576248286
1261.0, 0.00047344502947993365
1262.0, 0.00041855701567741744
1263.0, 0.0013662294414344023
1264.0, 3.6506926718548585e-05
1265.0, 0.00022493408985298083
1266.0, 0.0016554527996374177
1267.0, 0.002912536570547344
1268.0, 0.0023484416153764227
1269.0, 0.00113465827029439
1270.0, 0.0011654996994106181
1271.0, 0.0008986755319629364
1272.0, 0.0011334139990059123
1273.0, 0.0015190578657100575
1274.0, 0.00216819248862025
1275.0, 0.0014767260338810313
1276.0, 0.0005760994220864847
1277.0, 0.0003988237035350515
1278.0, 0.0014682020694521093
1279.0, 0.0006364756196037045
1280.0, 0.0026893754443539407
1281.0, 0.0020295733980974892
1282.0, 0.0006412040895313144
1283.0, 0.0011288405753249798
1284.0, 0.0022087491787248976
1285.0, 0.0014487617974709526
1286.0, 0.005299236584514662
1287.0, 0.00738912068026384
1288.0, 0.007735227815908284
1289.0, 0.006115830817086569
1290.0, 0.0018165275469920654
1291.0, 0.0012890874016072583
1292.0, 0.003222201542117816
1293.0, 0.002327539117834653
1294.0, 0.0035802029327187557
1295.0, 0.00256455495371707
1296.0, 0.0024296238372256912
1297.0, 0.0004258319275039661
1298.0, 0.0009233239820152844
1299.0, 0.0005423359112784038
1300.0, 0.00010110761793939684
1301, 0.0
1302, 0.0
1303, 0.0
1304, 0.0
1305, 0.0
1306, 0.0
1307, 0.0
1308, 0.0
1309, 0.0
1310, 0.0
1311, 0.0
1312, 0.0
1313, 0.0
1314, 0.0
1315, 0.0
1316, 0.0
1317, 0.0
1318, 0.0
1319, 0.0
1320, 0.0
1321, 0.0
1322, 0.0
1323, 0.0
1324, 0.0
1325, 0.0
1326, 0.0
1327, 0.0
1328, 0.0
1329, 0.0
1330, 0.0
1331, 0.0
1332, 0.0
1333, 0.0
1334, 0.0
1335, 0.0
1336, 0.0
1337, 0.0
1338, 0.0
1339, 0.0
1340, 0.0
1341, 0.0
1342, 0.0
1343, 0.0
1344, 0.0
1345, 0.0
1346, 0.0
1347, 0.0
1348, 0.0
1349, 0.0
1350, 0.0
1351, 0.0
1352, 0.0
1353, 0.0
1354, 0.0
1355, 0.0
1356, 0.0
1357, 0.0
1358, 0.0
1359, 0.0
1360, 0.0
1361, 0.0
1362, 0.0
1363, 0.0
1364, 0.0
1365, 0.0
1366, 0.0
1367, 0.0
1368, 0.0
1369, 0.0
1370, 0.0
1371, 0.0
1372, 0.0
1373, 0.0
1374, 0.0
1375, 0.0
1376, 0.0
1377, 0.0
1378, 0.0
1379, 0.0
1380, 0.0
1381, 0.0
1382, 0.0
1383, 0.0
1384, 0.0
1385, 0.0
1386, 0.0
1387, 0.0
1388, 0.0
1389, 0.0
1390, 0.0
1391, 0.0
1392, 0.0
1393, 0.0
1394, 0.0
1395, 0.0
1396, 0.0
1397, 0.0
1398, 0.0
1399, 0.0
1400, 0.0
1401, 0.0
1402, 0.0
1403, 0.0
1404, 0.0
1405, 0.0
1406, 0.0
1407, 0.0
1408, 0.0
1409, 0.0
1410, 0.0
1411, 0.0
1412, 0.0
1413, 0.0
1414, 0.0
1415, 0.0
1416, 0.0
1417, 0.0
1418, 0.0
1419, 0.0
1420, 0.0
1421, 0.0
1422, 0.0
1423, 0.0
1424, 0.0
1425, 0.0
1426, 0.0
1427, 0.0
1428, 0.0
1429, 0.0
1430, 0.0
1431, 0.0
1432, 0.0
1433, 0.0
1434, 0.0
1435, 0.0
1436, 0.0
1437, 0.0
1438, 0.0
1439, 0.0
1440, 0.0
1441, 0.0
1442, 0.0
1443, 0.0
1444, 0.0
1445, 0.0
1446, 0.0
1447, 0.0
1448, 0.0
1449, 0.0
1450, 0.0
1451, 0.0
1452, 0.0
1453, 0.0
1454, 0.0
1455, 0.0
1456, 0.0
1457, 0.0
1458, 0.0
1459, 0.0
1460, 0.0
1461, 0.0
1462, 0.0
1463, 0.0
1464, 0.0
1465, 0.0
1466, 0.0
1467, 0.0
1468, 0.0
1469, 0.0
1470, 0.0
1471, 0.0
1472, 0.0
1473, 0.0
1474, 0.0
1475, 0.0
1476, 0.0
1477, 0.0
1478, 0.0
1479, 0.0
1480, 0.0
1481, 0.0
1482, 0.0
1483, 0.0
1484, 0.0
1485, 0.0
1486, 0.0
1487, 0.0
1488, 0.0
1489, 0.0
1490, 0.0
1491, 0.0
1492, 0.0
1493, 0.0
1494, 0.0
1495, 0.0
1496, 0.0
1497, 0.0
1498, 0.0
1499, 0.0
1500, 0.0
1501, 0.0
1502, 0.0
1503, 0.0
1504, 0.0
1505, 0.0
1506, 0.0
1507, 0.0
1508, 0.0
1509, 0.0
1510, 0.0
1511, 0.0
1512, 0.0
1513, 0.0
1514, 0.0
1515, 0.0
1516, 0.0
1517, 0.0
1518, 0.0
1519, 0.0
1520, 0.0
1521, 0.0
1522, 0.0
1523, 0.0
1524, 0.0
1525, 0.0
1526, 0.0
1527, 0.0
1528, 0.0
1529, 0.0
1530, 0.0
1531, 0.0
1532, 0.0
1533, 0.0
1534, 0.0
1535, 0.0
1536, 0.0
1537, 0.0
1538, 0.0
1539, 0.0
1540, 0.0
1541, 0.0
1542, 0.0
1543, 0.0
1544, 0.0
1545, 0.0
1546, 0.0
1547, 0.0
1548, 0.0
1549, 0.0
1550, 0.0
1551, 0.0
1552, 0.0
1553, 0.0
1554, 0.0
1555, 0.0
1556, 0.0
1557, 0.0
1558, 0.0
1559, 0.0
1560, 0.0
1561, 0.0
1562, 0.0
1563, 0.0
1564, 0.0
1565, 0.0
1566, 0.0
1567, 0.0
1568, 0.0
1569, 0.0
1570, 0.0
1571, 0.0
1572, 0.0
1573, 0.0
1574, 0.0
1575, 0.0
1576, 0.0
1577, 0.0
1578, 0.0
1579, 0.0
1580, 0.0
1581, 0.0
1582, 0.0
1583, 0.0
1584, 0.0
1585, 0.0
1586, 0.0
1587, 0.0
1588, 0.0
1589, 0.0
1590, 0.0
1591, 0.0
1592, 0.0
1593, 0.0
1594, 0.0
1595, 0.0
1596, 0.0
1597, 0.0
1598, 0.0
1599, 0.0
