30, 0.0
31, 0.0
32, 0.0
33, 0.0
34, 0.0
35, 0.0
36, 0.0
37, 0.0
38, 0.0
39, 0.0
40, 0.0
41, 0.0
42, 0.0
43, 0.0
44, 0.0
45, 0.0
46, 0.0
47, 0.0
48, 0.0
49, 0.0
50, 0.0
51, 0.0
52, 0.0
53, 0.0
54, 0.0
55, 0.0
56, 0.0
57, 0.0
58, 0.0
59, 0.0
60, 0.0
61, 0.0
62, 0.0
63, 0.0
64, 0.0
65, 0.0
66, 0.0
67, 0.0
68, 0.0
69, 0.0
70, 0.0
71, 0.0
72, 0.0
73, 0.0
74, 0.0
75, 0.0
76, 0.0
77, 0.0
78, 0.0
79, 0.0
80, 0.0
81, 0.0
82, 0.0
83, 0.0
84, 0.0
85, 0.0
86, 0.0
87, 0.0
88, 0.0
89, 0.0
90, 0.0
91, 0.0
92, 0.0
93, 0.0
94, 0.0
95, 0.0
96, 0.0
97, 0.0
98, 0.0
99, 0.0
100, 0.0
101, 0.0
102, 0.0
103, 0.0
104, 0.0
105, 0.0
106, 0.0
107, 0.0
108, 0.0
109, 0.0
110, 0.0
111, 0.0
112, 0.0
113, 0.0
114, 0.0
115, 0.0
116, 0.0
117, 0.0
118, 0.0
119, 0.0
120, 0.0
121, 0.0
122, 0.0
123, 0.0
124, 0.0
125, 0.0
126, 0.0
127, 0.0
128, 0.0
129, 0.0
130, 0.0
131, 0.0
132, 0.0
133, 0.0
134, 0.0
135, 0.0
136, 0.0
137, 0.0
138, 0.0
139, 0.0
140, 0.0
141, 0.0
142, 0.0
143, 0.0
144, 0.0
145, 0.0
146, 0.0
147, 0.0
148, 0.0
149, 0.0
150, 0.0
151, 0.0
152, 0.0
153, 0.0
154, 0.0
155, 0.0
156, 0.0
157, 0.0
158, 0.0
159, 0.0
160, 0.0
161, 0.0
162, 0.0
163, 0.0
164, 0.0
165, 0.0
166, 0.0
167, 0.0
168, 0.0
169, 0.0
170, 0.0
171, 0.0
172, 0.0
173, 0.0
174, 0.0
175, 0.0
176, 0.0
177, 0.0
178, 0.0
179, 0.0
180, 0.0
181, 0.0
182, 0.0
183, 0.0
184, 0.0
185, 0.0
186, 0.0
187, 0.0
188, 0.0
189, 0.0
190, 0.0
191, 0.0
192, 0.0
193, 0.0
194, 0.0
195, 0.0
196, 0.0
197, 0.0
198, 0.0
199, 0.0
200, 0.0
201, 0.0
202, 0.0
203, 0.0
204, 0.0
205, 0.0
206, 0.0
207, 0.0
208, 0.0
209, 0.0
210, 0.0
211, 0.0
212, 0.0
213, 0.0
214, 0.0
215, 0.0
216, 0.0
217, 0.0
218, 0.0
219, 0.0
220, 0.0
221, 0.0
222, 0.0
223, 0.0
224, 0.0
225, 0.0
226, 0.0
227, 0.0
228, 0.0
229, 0.0
230, 0.0
231, 0.0
232, 0.0
233, 0.0
234, 0.0
235, 0.0
236, 0.0
237, 0.0
238, 0.0
239, 0.0
240, 0.0
241, 0.0
242, 0.0
243, 0.0
244, 0.0
245, 0.0
246, 0.0
247, 0.0
248, 0.0
249, 0.0
250, 0.0
251, 0.0
252, 0.0
253, 0.0
254, 0.0
255, 0.0
256, 0.0
257, 0.0
258, 0.0
259, 0.0
260, 0.0
261, 0.0
262, 0.0
263.0, 0.00015940310136600992
264.0, 0.003379936025092177
265.0, 0.012409803754585058
266.0, 0.008146501764465606
267.0, 0.021683717643629412
268.0, 0.018626618715182185
269.0, 0.015138241501903696
270.0, 0.019063792534729316
271.0, 0.0022284894340614094
272.0, 0.012763544835722087
273.0, 0.007812864311428035
274.0, 0.010270121281925814
275.0, 0.016908385520530745
276.0, 0.017402179589691976
277.0, 0.027245783860487104
278.0, 0.018279424675413696
279.0, 0.01585293652253857
280.0, 0.01435810668205134
281.0, 0.016290860866933328
282.0, 0.0301646715016742
283.0, 0.025480876645794164
284.0, 0.0227997581761685
285.0, 0.023879023358583343
286.0, 0.027587923122754442
287.0, 0.030163141772986832
288.0, 0.025625907359088016
289.0, 0.03398834715711909
290.0, 0.039964948726732154
291.0, 0.04730320154926413
292.0, 0.057413977234406194
293.0, 0.06823452536072308
294.0, 0.070906715575302
295.0, 0.06879819715191281
296.0, 0.0784443365830131
297.0, 0.08732222418917104
298.0, 0.09583576115289744
299.0, 0.112288111012947
300.0, 0.12457408946304764
301.0, 0.13076300454078962
302.0, 0.14561050306418105
303.0, 0.1565400958129021
304.0, 0.15885888697097703
305.0, 0.16225914037952277
306.0, 0.16840939984299794
307.0, 0.17713575325089143
308.0, 0.16995666406056148
309.0, 0.1584908950722999
310.0, 0.15709190125860303
311.0, 0.1672913026906358
312.0, 0.1402557669985834
313.0, 0.13120708080553045
314.0, 0.11338718972032132
315.0, 0.09446929859620176
316.0, 0.08890851255288892
317.0, 0.08397172586132359
318.0, 0.07037406996990528
319.0, 0.071244671807989
320.0, 0.06827451476759917
321.0, 0.06643283372690745
322.0, 0.07686064449464583
323.0, 0.0614931888836684
324.0, 0.06422674055826189
325.0, 0.05560485380115404
326.0, 0.04904384085379726
327.0, 0.05256770619565559
328.0, 0.061950386501012075
329.0, 0.05791837133424577
330.0, 0.04783561112019411
331.0, 0.05429790147698135
332.0, 0.058240319292562785
333.0, 0.052764403170217335
334.0, 0.05287849711064179
335.0, 0.03473773245177949
336.0, 0.04096146700771204
337.0, 0.041232335581549574
338.0, 0.04110233282051512
339.0, 0.04737523772557268
340.0, 0.053339402875998435
341.0, 0.04517699166915185
342.0, 0.03524982283609251
343.0, 0.03853528786252179
344.0, 0.043336307340425075
345.0, 0.03966862077463324
346.0, 0.03988940873623653
347.0, 0.038743150457850366
348.0, 0.03262406691364818
349.0, 0.03215691415112951
350.0, 0.03532114385336697
351.0, 0.03526654001313777
352.0, 0.028003234444205487
353.0, 0.030353334644849458
354.0, 0.02757913984774779
355.0, 0.02423670142738236
356.0, 0.02226094474949806
357.0, 0.02316493252512141
358.0, 0.03220729191311004
359.0, 0.025484390011566358
360.0, 0.027839200092082732
361.0, 0.031019655162342247
362.0, 0.034273077356920284
363.0, 0.03876989930015485
364.0, 0.03395017928366983
365.0, 0.03804778723794923
366.0, 0.03748864487478272
367.0, 0.035863949248063944
368.0, 0.03312737494102838
369.0, 0.03218275075979928
370.0, 0.05812798679203835
371.0, 0.03832692110255433
372.0, 0.04271556341149959
373.0, 0.03733126374404758
374.0, 0.029781512194780976
375.0, 0.04397634017347149
376.0, 0.035300647345039
377.0, 0.046645462313468194
378.0, 0.04313364387689032
379.0, 0.037796516837509835
380.0, 0.03335078735311648
381.0, 0.025525190190459766
382.0, 0.023193010769852144
383.0, 0.0209189068150993
384.0, 0.01998462942092813
385.0, 0.016298466497465677
386.0, 0.017135954603655783
387.0, 0.026215153081183256
388.0, 0.003369593071570441
389.0, 0.010941517755811953
390.0, 0.01589599929283141
391.0, 0.012347682199335937
392.0, 0.005702980202113231
393.0, 0.004020750729711713
394.0, 0.002244350569473936
395.0, 0.01091453367975545
396.0, 0.007282047678813229
397.0, 0.005428597745285382
398.0, 0.007260132150481208
399.0, 0.007092666789592315
400.0, 0.0053859354747029554
401.0, 0.0022242379165599443
402.0, 0.007751222339171999
403.0, 0.010077696346757616
404.0, 0.007473237187661293
405.0, 0.004261641883490866
406.0, 0.002635638429689581
407.0, 0.0006383280687083509
408.0, 0.0024643257255065
409.0, 0.003200857582277555
410.0, 0.006205169938090689
411.0, 0.011154830732002137
412.0, 0.0006558711701021534
413.0, 0.005706251305486562
414.0, 0.005717455133602706
415.0, 0.004318699570292245
416.0, 0.005712944086008176
417.0, 0.011069522314732858
418.0, 0.015479414874115308
419.0, 0.0031304296585336925
420.0, 0.0093151681589612
421.0, 0.015649936768353016
422.0, 0.013515837235036994
423.0, 0.005296876381445619
424.0, 0.003244677535029809
425.0, 0.004054185002748993
426.0, 0.004697707699216882
427.0, 0.004153890389694888
428.0, 0.007219711518272012
429.0, 0.010125409517710324
430.0, 0.0024466863287504626
431.0, 0.013960955617063581
432.0, 0.013838015724067877
433.0, 0.006422792590990463
434.0, 0.0032233630334635257
435.0, 0.005366315218295294
436.0, 0.00651210229604096
437.0, 0.018806936548868843
438.0, 0.007146179909321348
439.0, 0.01575201073616416
440.0, 0.015675543824611157
441.0, 0.005465944488465659
442.0, 0.005129835017585312
443.0, 0.02266977182085716
444.0, 0.01597969156232564
445.0, 0.007325665874897937
446.0, 0.008227395725068136
447.0, 0.0093871898654877
448.0, 0.0031819447191766565
449.0, 0.006917063236887917
450.0, 0.00868094398263982
451.0, 0.007023268945541947
452.0, 0.012075059687832686
453.0, 0.011321454006315443
454.0, 0.001712626375503568
455.0, 0.002504675532832147
456.0, 0.004747552828758887
457.0, 0.0047726346365360136
458.0, 0.005492996113041597
459.0, 0.008753128088353
460.0, 0.012512787260014181
461.0, 0.012713474262209768
462.0, 0.012926326479985348
463.0, 0.015777248033960942
464.0, 0.017425531727884972
465.0, 0.014800339439422583
466.0, 0.010276309025598436
467.0, 0.00796864025113078
468.0, 0.00667230218863312
469.0, 0.008005069651454276
470.0, 0.01647651516284697
471.0, 0.01560596530429734
472.0, 0.010885005072630793
473.0, 0.009146968813080256
474.0, 0.004067856199143448
475.0, 0.00807572010950866
476.0, 0.018665106746169915
477.0, 0.019610283348762313
478.0, 0.017198594008704302
479.0, 0.01611333017299186
480.0, 0.01481234608780949
481.0, 0.018941407756012364
482.0, 0.018645858930569376
483.0, 0.02044953195347466
484.0, 0.026232590666065383
485.0, 0.03220309058726124
486.0, 0.03229271472108862
487.0, 0.023615205557542433
488.0, 0.030253297060549453
489.0, 0.03194617744012983
490.0, 0.03328659795935974
491.0, 0.03592845083483805
492.0, 0.037876762016935475
493.0, 0.034709457028882555
494.0, 0.029333963522238354
495.0, 0.035816533178369483
496.0, 0.04392097716526264
497.0, 0.04068245102108281
498.0, 0.03328626132618265
499.0, 0.037296288507289194
500.0, 0.03977425761049623
501.0, 0.0329244002063907
502.0, 0.03161839701380901
503.0, 0.033283071519943135
504.0, 0.03369876786083523
505.0, 0.02838417492419548
506.0, 0.01545915064018239
507.0, 0.01904046489471095
508.0, 0.015710063187044886
509.0, 0.01802022318286153
510.0, 0.017417746279583323
511.0, 0.011795382110259003
512.0, 0.009336164337477873
513.0, 0.019227305070020975
514.0, 0.016591302041671703
515.0, 0.017979910438019244
516.0, 0.021014544475527277
517.0, 0.019539109559453777
518.0, 0.013273254170838411
519.0, 0.012106163453023833
520.0, 0.005066596248135664
521.0, 0.01631189546807814
522.0, 0.012468437704522238
523.0, 0.006433351340673798
524.0, 0.006929959387190098
525.0, 0.011533393875722369
526.0, 0.021957495918114737
527.0, 0.016564332205307945
528.0, 0.019255445851993475
529.0, 0.018139898925068388
530.0, 0.02028140402110663
531.0, 0.025545677586312144
532.0, 0.014571152939386926
533.0, 0.0035361951745661972
534.0, 0.01872887458258911
535.0, 0.018978640351192885
536.0, 0.020676111645855883
537.0, 0.0217360368674791
538.0, 0.013218081587306243
539.0, 0.019906975363245025
540.0, 0.023782835642894837
541.0, 0.02541083008367142
542.0, 0.019510270375073573
543.0, 0.016437464888352415
544.0, 0.018981001795917614
545.0, 0.017691200301095764
546.0, 0.016191009183279356
547.0, 0.021738347220836046
548.0, 0.02489068024625768
549.0, 0.022984620016555653
550.0, 0.022375623639459028
551.0, 0.029073112384154685
552.0, 0.038973592825018076
553.0, 0.03293680420338217
554.0, 0.026497034509709538
555.0, 0.022694004638415137
556.0, 0.01882253994507
557.0, 0.014765687683291038
558.0, 0.013889447350377183
559.0, 0.02035223168930782
560.0, 0.008923076733968303
561.0, 0.007123506477255847
562.0, 0.011375086991516273
563.0, 0.017519169903009897
564.0, 0.022770518034407463
565.0, 0.024678744971784634
566.0, 0.013714269525369336
567.0, 0.02189355326127974
568.0, 0.014362450316964237
569.0, 0.006052351126665622
570.0, 0.006136568041420374
571.0, 0.01339670920420497
572.0, 0.017788289607456476
573.0, 0.008129221018156541
574.0, 0.0043441874764858
575.0, 0.011022728931456402
576.0, 0.015727599374093345
577.0, 0.015512792280084484
578.0, 0.012080266514818406
579.0, 0.0018626134983765466
580.0, 0.0008322792463545469
581.0, 0.002383098542374475
582.0, 0.006718435266799258
583.0, 0.006761692610777479
584.0, 0.0046676526128823555
585.0, 0.00688794999921561
586.0, 0.008019135921532937
587.0, 0.006538053493634814
588.0, 0.011874198017763297
589.0, 0.01266611104986076
590.0, 0.014000958539173332
591.0, 0.01581302534911073
592.0, 0.011325070232078687
593.0, 0.004100287655365552
594.0, 0.009276045214311194
595.0, 0.007787258418754962
596.0, 0.0075186090624981055
597.0, 0.008587131164207507
598.0, 0.009085703769874335
599.0, 0.0077349906571531945
600.0, 0.0007977211992996141
601.0, 0.017777125006324168
602.0, 0.010623578522897414
603.0, 0.009216566994480018
604.0, 0.015082399190201478
605.0, 0.015535879163127549
606.0, 0.005426294083262788
607.0, 0.018003644691417683
608.0, 0.012100591380272308
609.0, 0.009923930170808573
610.0, 0.016253018818788094
611.0, 0.01822570288565162
612.0, 0.011493158364510522
613.0, 0.011007951558585988
614.0, 0.01612799799962142
615.0, 0.013722097473193086
616.0, 0.007642578404813023
617.0, 0.009296490452393925
618.0, 0.012544892915267605
619.0, 0.011845075835648564
620.0, 0.013964359930527394
621.0, 0.0175599137508741
622.0, 0.02960006932712889
623.0, 0.02984518193892898
624.0, 0.021437018793569955
625.0, 0.01726160920815761
626.0, 0.025776710511502196
627.0, 0.04033583514895356
628.0, 0.03530429404308861
629.0, 0.017850012409927146
630.0, 0.03534670661663423
631.0, 0.03804558404945955
632.0, 0.03219368462409634
633.0, 0.035610883579367945
634.0, 0.04109633184020789
635.0, 0.05100064705284619
636.0, 0.052954021177668995
637.0, 0.047787298260274426
638.0, 0.04892139444074461
639.0, 0.05814089826223807
640.0, 0.06651375981445393
641.0, 0.0669087917509391
642.0, 0.08664139990365656
643.0, 0.10113144890000547
644.0, 0.10770960306245604
645.0, 0.127775799156084
646.0, 0.1511138515326725
647.0, 0.16785824838661068
648.0, 0.18485513777655163
649.0, 0.21337558366352222
650.0, 0.24493196388024965
651.0, 0.28294270644569386
652.0, 0.3308964200940799
653.0, 0.379481672069191
654.0, 0.42062751071598037
655.0, 0.4584826586546412
656.0, 0.5144980226696629
657.0, 0.544343115601134
658.0, 0.5797418425801539
659.0, 0.5965608647964635
660.0, 0.5940752012801478
661.0, 0.575294518631293
662.0, 0.5415452626908869
663.0, 0.4951746076518671
664.0, 0.4378094747631436
665.0, 0.364712366878253
666.0, 0.31619893276336253
667.0, 0.27636238456727846
668.0, 0.2362002388731972
669.0, 0.19906876490885195
670.0, 0.1678078869934807
671.0, 0.13228654060280598
672.0, 0.11887845311577394
673.0, 0.10117719099178848
674.0, 0.08599309985412208
675.0, 0.07550849276281538
676.0, 0.06868493489610807
677.0, 0.06385956094267968
678.0, 0.050723334841628394
679.0, 0.0417126802353387
680.0, 0.047069629566303624
681.0, 0.035618851652230096
682.0, 0.027922055281321363
683.0, 0.03212786837742029
684.0, 0.02916634955324697
685.0, 0.017226666460995018
686.0, 0.030063674593020825
687.0, 0.01476654443628608
688.0, 0.022448305665663575
689.0, 0.02085090598854228
690.0, 0.014896810352182804
691.0, 0.022910479892888063
692.0, 0.016955309173081252
693.0, 0.03879964900823026
694.0, 0.026701475374326683
695.0, 0.02522620002098873
696.0, 0.025405844501409525
697.0, 0.024108266846377128
698.0, 0.02116920775905829
699.0, 0.014415767219202642
700.0, 0.00893727042277477
701.0, 0.009721795138530711
702.0, 0.022776100958871708
703.0, 0.01346253622057871
704.0, 0.003284401730469464
705.0, 0.0027749508052704354
706.0, 0.002667526833507771
707.0, 0.007086958473041046
708.0, 0.020625384516751315
709.0, 0.007787664561066688
710.0, 0.0052918908766534595
711.0, 0.00853790875616796
712.0, 0.007009888885403858
713.0, 0.0028043671630196007
714.0, 0.00901148795779414
715.0, 0.009340243092947417
716.0, 0.017637088422991325
717.0, 0.014813494060243381
718.0, 0.011207201075931072
719.0, 0.010173497833894964
720.0, 0.00822860668140827
721.0, 0.0029464021428586102
722.0, 0.0017683640117939292
723.0, 0.0018012019860842927
724.0, 0.0017834433777429476
725.0, 0.0008990892330460372
726.0, 0.0017755548504534344
727.0, 0.0026532784583726036
728.0, 0.0038529020704720683
729.0, 0.007681344243829453
730.0, 0.001173642728535929
731.0, 0.007812130483489338
732.0, 0.004920900946183307
733.0, 0.007521608078471731
734.0, 0.006942563492375573
735.0, 0.004302652129549606
736.0, 0.005379981140717895
737.0, 0.0027891754825319563
738.0, 0.0013469150176724756
739.0, 0.019565960342527708
740.0, 0.014980183130966601
741.0, 0.004982841034674904
742.0, 0.009846659851246343
743.0, 0.019761552997140573
744.0, 0.012051224726712544
745.0, 0.008116486934633061
746.0, 0.005540155666408494
747.0, 0.00504559643253167
748.0, 0.0019898142773281577
749.0, 0.008345935339076627
750.0, 0.016718015492585125
751.0, 0.018939153726303858
752.0, 0.018264348965838
753.0, 0.0035930305482213534
754.0, 0.010649627720625159
755.0, 0.010094141386741732
756.0, 0.00852965391530559
757.0, 0.005220179796101565
758.0, 0.006790450271219705
759.0, 0.011691830326405462
760.0, 0.0037223503622761103
761.0, 0.013648219769368274
762.0, 0.010583902655680828
763.0, 0.021415161893435137
764.0, 0.019767400811920726
765.0, 0.015096644802403539
766.0, 0.014073907143454861
767.0, 0.014419781299639322
768.0, 0.017729797215109557
769.0, 0.0044979135526048205
770.0, 0.007958711048915778
771.0, 0.00702341151981482
772.0, 0.006747051753489661
773.0, 0.003978742777988364
774.0, 0.006964362020214356
775.0, 0.01981085345451181
776.0, 0.013165826177576775
777.0, 0.012342668173751717
778.0, 0.005557538341036705
779.0, 0.017272474411649377
780.0, 0.016043063619458384
781.0, 0.0073137763865075206
782.0, 0.004341496261685867
783.0, 0.006362973641163556
784.0, 0.005096704784990642
785.0, 0.008772742289745306
786.0, 0.007778413254240645
787.0, 0.0023769080872199705
788.0, 0.011186319384702676
789.0, 0.014549838959516077
790.0, 0.013222808233547798
791.0, 0.021925125217954332
792.0, 0.0027920350820455496
793.0, 0.010099772457571422
794.0, 0.01226145588959784
795.0, 0.006123991885966112
796.0, 0.011445896793116174
797.0, 0.02027473419169037
798.0, 0.017906111691005363
799.0, 0.006251914141814
800.0, 0.006702465489438744
801.0, 0.0030112904929441016
802.0, 0.001033386699768603
803.0, 0.0019224397322726585
804.0, 0.008247334703476654
805.0, 0.010006371789432903
806.0, 0.00611888200230169
807.0, 0.005984512161801765
808.0, 0.012145606605509776
809.0, 0.02229414081581589
810.0, 0.021541193024293952
811.0, 0.013268735517467649
812.0, 0.017431079768771982
813.0, 0.02046029278078669
814.0, 0.01849350368579207
815.0, 0.01995907912091163
816.0, 0.019320672729431193
817.0, 0.0026430312844928413
818.0, 0.005087445215105876
819.0, 0.005968116039246754
820.0, 0.009168861341297603
821.0, 0.008671407806450863
822.0, 0.010943709750998476
823.0, 0.017292390040212255
824.0, 0.011888049647137515
825.0, 0.016326160340533368
826.0, 0.016586787787168867
827.0, 0.0172500009649739
828.0, 0.01610694637700581
829.0, 0.01270666772281305
830.0, 0.01644837685903323
831.0, 0.024010123660980445
832.0, 0.01731581896655287
833.0, 0.005071808211037119
834.0, 0.003497631531829958
835.0, 0.008501572533843604
836.0, 0.004608652218941803
837.0, 0.011727959529490871
838.0, 0.0115606405059454
839.0, 0.0015361526301490274
840.0, 0.00490203279333219
841.0, 0.019253501819276528
842.0, 0.012415384506679904
843.0, 0.020648431757203222
844.0, 0.018913536384130562
845.0, 0.024008605830275524
846.0, 0.026288619606061565
847.0, 0.019674531955597898
848.0, 0.012219108371128527
849.0, 0.01597393550618321
850.0, 0.030412939872836903
851.0, 0.028940924410270723
852.0, 0.020603886108067907
853.0, 0.01416908859956786
854.0, 0.02117838277808733
855.0, 0.028488318538168064
856.0, 0.02631395485134996
857.0, 0.022203422483417473
858.0, 0.0192586672790091
859.0, 0.011980672542364752
860.0, 0.01790101296276182
861.0, 0.018522073286154843
862.0, 0.032423690670928276
863.0, 0.028452930930684576
864.0, 0.015868622319947772
865.0, 0.02295461307872417
866.0, 0.03639168862476213
867.0, 0.03920068839252931
868.0, 0.012361589018012662
869.0, 0.020787629239373485
870.0, 0.03043959773161686
871.0, 0.02914481267682473
872.0, 0.03218995523563436
873.0, 0.035977717529993195
874.0, 0.024421240482706774
875.0, 0.019722851282635897
876.0, 0.02708173329118289
877.0, 0.026367068202198883
878.0, 0.02904786316297005
879.0, 0.03244656696157247
880.0, 0.021596074572716246
881.0, 0.017392460970656446
882.0, 0.028894332365328738
883.0, 0.02997925576990007
884.0, 0.02825268628208209
885.0, 0.010560959057852157
886.0, 0.01948208905490979
887.0, 0.03546976119236195
888.0, 0.024804534982625415
889.0, 0.016563987420441652
890.0, 0.020343380285975127
891.0, 0.021263444576794202
892.0, 0.017987763512543047
893.0, 0.013169347842898724
894.0, 0.03208834030523101
895.0, 0.026371976767003213
896.0, 0.023036689841762513
897.0, 0.02155483972618104
898.0, 0.02397240156115074
899.0, 0.022767842230471992
900.0, 0.01745420255031741
901.0, 0.02850061512148881
902.0, 0.03451172478969573
903.0, 0.009568378386088094
904.0, 0.021562042712210943
905.0, 0.018120022418289968
906.0, 0.01667614217803447
907.0, 0.01058891559360765
908.0, 0.003889265192270294
909.0, 0.00905528125767938
910.0, 0.011521557320614583
911.0, 0.01885510740116141
912.0, 0.015629958908341134
913.0, 0.013244884066388412
914.0, 0.016291666119199254
915.0, 0.02087847493528405
916.0, 0.019337793693225958
917.0, 0.015037329781618243
918.0, 0.01388897673327327
919.0, 0.009115728069994625
920.0, 0.012197400520711015
921.0, 0.024069615705313706
922.0, 0.02499642332608716
923.0, 0.018901240517777165
924.0, 0.022576169585508152
925.0, 0.021473145268372445
926.0, 0.014278963480854293
927.0, 0.0148401091843249
928.0, 0.015928494366379168
929.0, 0.004273868591397426
930.0, 0.01969306078364602
931.0, 0.022057673257373206
932.0, 0.020836661824674425
933.0, 0.017212059944360685
934.0, 0.012021445608561809
935.0, 0.012239652534458257
936.0, 0.022156134884403395
937.0, 0.02855008533091949
938.0, 0.005138749144537005
939.0, 0.023130438330887647
940.0, 0.006174043457560777
941.0, 0.01936052912954607
942.0, 0.013255366659542049
943.0, 0.0062923895358884575
944.0, 0.01068484584000694
945.0, 0.016114553806675605
946.0, 0.014018634804310827
947.0, 0.0011031410402795082
948.0, 0.010608807301245075
949.0, 0.015355134047999751
950.0, 0.00664061939012912
951.0, 0.011234926726542378
952.0, 0.014301812545279294
953.0, 0.015334414532714419
954.0, 0.01872899674919372
955.0, 0.02095452369450813
956.0, 0.022886473195341178
957.0, 0.021009618299500717
958.0, 0.01738616720112838
959.0, 0.009286102020424609
960.0, 0.006651255881247852
961.0, 0.00968679643723752
962.0, 0.017672750282173365
963.0, 0.019983342878967986
964.0, 0.01382706428329447
965.0, 0.014664999325334672
966.0, 0.01679783032727493
967.0, 0.023567913078932433
968.0, 0.020825520524216264
969.0, 0.01956578855562591
970.0, 0.01653218214555426
971.0, 0.011935859070720901
972.0, 0.009734466725161909
973.0, 0.010114366089358747
974.0, 0.007861504075607137
975.0, 0.0034533510618174794
976.0, 0.019351177221901203
977.0, 0.029992472146345515
978.0, 0.01280353316496204
979.0, 0.02090349020653166
980.0, 0.01989438252344888
981.0, 0.02332546115328664
982.0, 0.03809906766784058
983.0, 0.041876937915786026
984.0, 0.02994410405360662
985.0, 0.0524427882578087
986.0, 0.04154743519417937
987.0, 0.04471714652733928
988.0, 0.04774835037610396
989.0, 0.045309619098657404
990.0, 0.06203607740794919
991.0, 0.06898681633649055
992.0, 0.06582230737238745
993.0, 0.07943228040811205
994.0, 0.09855446004115807
995.0, 0.10762149761871137
996.0, 0.10049080770625031
997.0, 0.12646649277108635
998.0, 0.14748451238816562
999.0, 0.16878250011693746
1000.0, 0.20147405377427097
1001.0, 0.2406125115408568
1002.0, 0.2915702499715306
1003.0, 0.35519450278191206
1004.0, 0.410441182619419
1005.0, 0.496559113195387
1006.0, 0.6194919134277356
1007.0, 0.7124120365687934
1008.0, 0.8012900546242478
1009.0, 0.891755095543403
1010.0, 0.9637924163976305
1011.0, 0.9964839052564884
1012.0, 0.9883705594245403
1013.0, 0.937197213214136
1014.0, 0.8329123419629026
1015.0, 0.734139062076868
1016.0, 0.592350909711184
1017.0, 0.5002023917180286
1018.0, 0.3906959640603022
1019.0, 0.3169619620813182
1020.0, 0.2724483582521997
1021.0, 0.2395863960591611
1022.0, 0.1996395225201398
1023.0, 0.15822741039388144
1024.0, 0.14591255911569975
1025.0, 0.12899816158513494
1026.0, 0.10842039845536718
1027.0, 0.1154454944017465
1028.0, 0.11029953088795968
1029.0, 0.10562920132368106
1030.0, 0.09902054110453043
1031.0, 0.08495055613802652
1032.0, 0.07607290280922507
1033.0, 0.07822590292455812
1034.0, 0.07542633488392311
1035.0, 0.07447950756105588
1036.0, 0.06754836625189915
1037.0, 0.048882471084122754
1038.0, 0.04356872320425527
1039.0, 0.052034599974056135
1040.0, 0.050268939079493376
1041.0, 0.03221643519494779
1042.0, 0.027456313062436538
1043.0, 0.036226473491427706
1044.0, 0.032146904253518356
1045.0, 0.04052758248224186
1046.0, 0.037842489638934225
1047.0, 0.0365534768808885
1048.0, 0.03957104175679109
1049.0, 0.03882042344071872
1050.0, 0.01990356956374854
1051.0, 0.019324868003812504
1052.0, 0.017222418244282268
1053.0, 0.008471296657647426
1054.0, 0.011117330514887563
1055.0, 0.011428239589073214
1056.0, 0.012332277949146039
1057.0, 0.010408985551841858
1058.0, 0.018548163815471426
1059.0, 0.03369095742145689
1060.0, 0.018304442502969025
1061.0, 0.028500595077571307
1062.0, 0.019158108101551403
1063.0, 0.009790380095679185
1064.0, 0.014816657589789842
1065.0, 0.00544354444293433
1066.0, 0.013531417083811823
1067.0, 0.008628046473573256
1068.0, 0.010951180640150526
1069.0, 0.01490052052074638
1070.0, 0.026916300573950985
1071.0, 0.01979582301743067
1072.0, 0.013628359481998472
1073.0, 0.018560035213534803
1074.0, 0.01967553712532558
1075.0, 0.015696731948327183
1076.0, 0.018437130710591207
1077.0, 0.008938404994615116
1078.0, 0.013600771601840575
1079.0, 0.020251577994867122
1080.0, 0.034233887969060114
1081.0, 0.0405553468719122
1082.0, 0.03201017772004419
1083.0, 0.029277721022366508
1084.0, 0.02837903691646537
1085.0, 0.02066863561009622
1086.0, 0.014330541999666838
1087.0, 0.02359111382300075
1088.0, 0.038618765116337855
1089.0, 0.01222319710017463
1090.0, 0.028016709930227403
1091.0, 0.019652310465240654
1092.0, 0.027612609833670202
1093.0, 0.031111379782654523
1094.0, 0.017390797227232524
1095.0, 0.011144808263248426
1096.0, 0.014750468832218325
1097.0, 0.014403449694607112
1098.0, 0.011673883462451623
1099.0, 0.009863988937570968
1100.0, 0.01470345843001358
1101.0, 0.017649130090581527
1102.0, 0.005300754145371071
1103.0, 0.01558277376601451
1104.0, 0.021588930298885707
1105.0, 0.019988462113961523
1106.0, 0.019192731409686727
1107.0, 0.017835746284290112
1108.0, 0.011480904824801845
1109.0, 0.004477693014013155
1110.0, 0.008362356264515475
1111.0, 0.031033429722013242
1112.0, 0.021078128651160457
1113.0, 0.03377239694766095
1114.0, 0.02115213043112764
1115.0, 0.02178437499692964
1116.0, 0.015781394132063187
1117.0, 0.00690289968853971
1118.0, 0.006330402815828255
1119.0, 0.007863327224018252
1120.0, 0.006249140922162253
1121.0, 0.00891656112560865
1122.0, 0.007060999453867154
1123.0, 0.009767892712416452
1124.0, 0.023252259462726514
1125.0, 0.02019725885606046
1126.0, 0.007187298742216839
1127.0, 0.013025977563253875
1128.0, 0.013358306543161787
1129.0, 0.013877972948727571
1130.0, 0.01649029618694479
1131.0, 0.017370504067542283
1132.0, 0.015715987816244135
1133.0, 0.00863463644895703
1134.0, 0.0049392554603561786
1135.0, 0.00042822093138912424
1136.0, 0.006034448724001382
1137.0, 0.004358446174092392
1138.0, 0.005808939064602224
1139.0, 0.015114876379299272
1140.0, 0.01700440560074578
1141.0, 0.01716299859152493
1142.0, 0.01597186473353163
1143.0, 0.01249006830701489
1144.0, 0.010080030644791026
1145.0, 0.005585865913049497
1146.0, 0.010121004321173625
1147.0, 0.0064141607238953294
1148.0, 0.010367595462524696
1149.0, 0.0367796559328694
1150.0, 0.027332853507956674
1151.0, 0.010690174804368412
1152.0, 0.0025405600781839665
1153.0, 0.01143562539617104
1154.0, 0.014468666897202014
1155.0, 0.013663381274752381
1156.0, 0.023455448706486186
1157.0, 0.01625326951033884
1158.0, 0.020489564289866143
1159.0, 0.014955928686497729
1160.0, 0.0026189507796873348
1161.0, 0.0034669251855014515
1162.0, 0.00474588668364911
1163.0, 0.021999489127766038
1164.0, 0.018368656675893973
1165.0, 0.008052372552743116
1166.0, 0.0028909290567100047
1167.0, 0.002895492818663048
1168.0, 0.006896618269266763
1169.0, 0.00979701275314134
1170.0, 0.014300315634585193
1171.0, 0.011655940082454186
1172.0, 0.002824418612078416
1173.0, 0.0028282336900651945
1174.0, 0.01285851142887506
1175.0, 0.009425329489366432
1176.0, 0.010207011635852593
1177.0, 0.010383123555329186
1178.0, 0.01261353996517182
1179.0, 0.012647750557037632
1180.0, 0.006136456916287589
1181.0, 0.002651398632799934
1182.0, 0.005192985930941807
1183.0, 0.0014999443181633251
1184.0, 0.008840848967092956
1185.0, 0.0025909052668672823
1186.0, 0.003877766329408457
1187.0, 0.006441864403910759
1188.0, 0.015095471588022288
1189.0, 0.009452375106007702
1190.0, 0.005395230020721432
1191.0, 0.004081510136087472
1192.0, 0.006056985537130037
1193.0, 0.010286164998758344
1194.0, 0.006022114179593479
1195.0, 0.0030566393895402996
1196.0, 0.009843971188692381
1197.0, 0.012411903115868345
1198.0, 0.001463147300334624
1199.0, 0.0008870674409069449
1200.0, 0.002115581848238906
1201.0, 0.000705589231740399
1202.0, 0.004714238670459339
1203.0, 0.021662931367753085
1204.0, 0.017971508618600383
1205.0, 0.006170568028292145
1206.0, 0.0098131376340956
1207.0, 0.008829443945896196
1208.0, 0.011139308499136556
1209.0, 0.01750095312016964
1210.0, 0.007784374840382881
1211.0, 0.006494957961799511
1212.0, 0.006137823272626354
1213.0, 0.005674978793073149
1214.0, 0.005055475026693161
1215.0, 0.0024497915718006648
1216.0, 0.022329902342656017
1217.0, 0.02801203990401219
1218.0, 0.012837134163010435
1219.0, 0.004551216123308463
1220.0, 0.009044687246200524
1221.0, 0.013856927541072107
1222.0, 0.0015348927466613703
1223.0, 0.0042015647648312405
1224.0, 0.006155882601267315
1225.0, 0.02009855053482646
1226.0, 0.012545254462554306
1227.0, 0.002531466320033995
1228.0, 0.011453035081980414
1229.0, 0.010819908962095852
1230.0, 0.013509520968153372
1231.0, 0.026460370458790954
1232.0, 0.02538224866876539
1233.0, 0.011712838278132446
1234.0, 0.01681352087861429
1235.0, 0.025958589176492082
1236.0, 0.010734638254699433
1237.0, 0.023135672533354065
1238.0, 0.016763688605776206
1239.0, 0.019764878678719535
1240.0, 0.0032009026525914126
1241.0, 0.006609775517618087
1242.0, 0.013861729712315774
1243.0, 0.009683014822917578
1244.0, 0.01819670056529392
1245.0, 0.0211277562839091
1246.0, 0.016223787753554618
1247.0, 0.022392611738334463
1248.0, 0.02926136111430397
1249.0, 0.026014683172687667
1250.0, 0.015768357326519
1251.0, 0.005980802543975141
1252.0, 0.0047418444638362665
1253.0, 0.015532103472517437
1254.0, 0.007467976454097748
1255.0, 0.0012485165303015298
1256.0, 0.017572661133831546
1257.0, 0.02487958392098904
1258.0, 0.023985447735149077
1259.0, 0.021201984472030574
1260.0, 0.020048411732693592
1261.0, 0.018795805437708143
1262.0, 0.01820708505639813
1263.0, 0.023809298116901557
1264.0, 0.023435263289707787
1265.0, 0.018843994759744943
1266.0, 0.0057926872259692445
1267.0, 0.009028994804901084
1268.0, 0.018673206089099958
1269.0, 0.02232978110913651
1270.0, 0.02276670089175638
1271.0, 0.03524489498389473
1272.0, 0.032824139150310704
1273.0, 0.023960343205793877
1274.0, 0.034217281550770924
1275.0, 0.0461860414449857
1276.0, 0.0364923331872888
1277.0, 0.02426362878401348
1278.0, 0.02338727971904847
1279.0, 0.014414943568443191
1280.0, 0.026791132067573657
1281.0, 0.03862272174940273
1282.0, 0.0222194605260278
1283.0, 0.0058838945266258755
1284.0, 0.019119033169239324
1285.0, 0.014388650890893764
1286.0, 0.011093391877882951
1287.0, 0.01781682425603562
1288.0, 0.013859991181401297
1289.0, 0.013152446511764585
1290.0, 0.02524538682369555
1291.0, 0.023978958288103695
1292.0, 0.008770470333495834
1293.0, 0.010901696921581163
1294.0, 0.012272444342825851
1295.0, 0.013478006092111769
1296.0, 0.013277340049652824
1297.0, 0.011509318212610972
1298.0, 0.02328867108366054
1299.0, 0.03472144804547634
1300.0, 0.02349741334111775
1301.0, 0.025840088056410512
1302.0, 0.011104897826723185
1303.0, 0.00583232039033907
1304.0, 0.028650324766952763
1305.0, 0.02755919699714467
1306.0, 0.016110309024208545
1307.0, 0.025372878396325366
1308.0, 0.03081422652432543
1309.0, 0.030638187677231078
1310.0, 0.01811786132415324
1311.0, 0.033150662069153965
1312.0, 0.04067592674586373
1313.0, 0.03521922962000861
1314.0, 0.025998788593699126
1315.0, 0.03534061048845203
1316.0, 0.04549401975068876
1317.0, 0.044095128218393724
1318.0, 0.045396038980580436
1319.0, 0.03660182491008456
1320.0, 0.04066417011237851
1321.0, 0.038950063313368574
1322.0, 0.029112538273969358
1323.0, 0.03542068802118554
1324.0, 0.037869339888173044
1325.0, 0.024396087483936228
1326.0, 0.0427607960810965
1327.0, 0.04480863128889865
1328.0, 0.035006455577758354
1329.0, 0.030698792163836457
1330.0, 0.03334645196894364
1331.0, 0.03049051056726519
1332.0, 0.034314450176959554
1333.0, 0.027956224448266294
1334.0, 0.020081484178541078
1335.0, 0.027892371713318976
1336.0, 0.022402839755313743
1337.0, 0.022484410925199615
1338.0, 0.02927570766652472
1339.0, 0.03408859413046666
1340.0, 0.035203075164725484
1341.0, 0.032664244253987354
1342.0, 0.03350424076702605
1343.0, 0.0331403668644163
1344.0, 0.03336291768590978
1345.0, 0.03582649236796246
1346.0, 0.026552345712253327
1347.0, 0.04279597515241417
1348.0, 0.045370233826987676
1349.0, 0.03827931646274246
1350.0, 0.026653516309540097
1351.0, 0.035147166501987105
1352.0, 0.03798751132594372
1353.0, 0.02046088522976079
1354.0, 0.014510758579937501
1355.0, 0.020232628718337968
1356.0, 0.018011130016707556
1357.0, 0.01768814065560568
1358.0, 0.02362559949928754
1359.0, 0.02659594975180539
1360.0, 0.0316222598126466
1361.0, 0.02545309076832498
1362.0, 0.03790996339653801
1363.0, 0.020150577539863438
1364.0, 0.018121916310933347
1365.0, 0.03029350698689689
1366.0, 0.03741342000499958
1367.0, 0.009726559089562851
1368.0, 0.02579396082506121
1369.0, 0.030466764122755362
1370.0, 0.023444209395021436
1371.0, 0.02268752976779167
1372.0, 0.025539110444017514
1373.0, 0.014403581504929746
1374.0, 0.006441417485624075
1375.0, 0.016921584352767284
1376.0, 0.028165571870113697
1377.0, 0.03037943809919064
1378.0, 0.03293350991694743
1379.0, 0.029025045940036843
1380.0, 0.01989602626545929
1381.0, 0.03312223153231524
1382.0, 0.03377960285167694
1383.0, 0.010581255108866695
1384.0, 0.007196022256843991
1385.0, 0.01623706979813959
1386.0, 0.017059772000420838
1387.0, 0.03381006351300408
1388.0, 0.01924772912931523
1389.0, 0.016961147875302417
1390.0, 0.018448326113107046
1391.0, 0.025059843415248653
1392.0, 0.019684355319140937
1393.0, 0.019089982731672905
1394.0, 0.014576519768171634
1395.0, 0.013334671670460447
1396.0, 0.022170024090622496
1397.0, 0.017916166894974384
1398.0, 0.023036776601235952
1399.0, 0.019705534254645826
1400.0, 0.025526771879424894
1401.0, 0.01614006289189951
1402.0, 0.011062601491120608
1403.0, 0.022851087965314085
1404.0, 0.015231706718349676
1405.0, 0.02190913680966214
1406.0, 0.011868711564948302
1407.0, 0.0213656104107751
1408.0, 0.01676888997859395
1409.0, 0.017930778250454155
1410.0, 0.01333127785843273
1411.0, 0.01724977986825205
1412.0, 0.012375288788801925
1413.0, 0.009331860785374901
1414.0, 0.014080956252970761
1415.0, 0.009709475622932793
1416.0, 0.009141391695674751
1417.0, 0.018017984041204527
1418.0, 0.009214581335475177
1419.0, 0.00231872161210127
1420.0, 0.00654072800746211
1421.0, 0.0046989960603616085
1422.0, 0.014530557880502655
1423.0, 0.018987767446065937
1424.0, 0.0027904426017979008
1425.0, 0.004460513286560804
1426.0, 0.011986325649733365
1427.0, 0.01035598490928778
1428.0, 0.007315900967275227
1429.0, 0.009475233286359781
1430.0, 0.005568504327971525
1431.0, 0.01908250670583379
1432.0, 0.02853866986191389
1433.0, 0.015049188541275828
1434.0, 0.014422950938374653
1435.0, 0.02478034956061179
1436.0, 0.027289585040407696
1437.0, 0.02355666493800121
1438.0, 0.021030023595640032
1439.0, 0.02299382099224655
1440.0, 0.02032997667794587
1441.0, 0.021053456393332344
1442.0, 0.04089718545226987
1443.0, 0.031237725893216512
1444.0, 0.023750555759887482
1445.0, 0.04147685454433325
1446.0, 0.02300444650238874
1447.0, 0.028088758966863473
1448.0, 0.013628042471718872
1449.0, 0.03972701509371408
1450.0, 0.041561414027938684
1451.0, 0.041535601162371795
1452.0, 0.03487354383069387
1453.0, 0.027457641190174967
1454.0, 0.029539882895006735
1455.0, 0.03378506288713824
1456.0, 0.030630801202279526
1457.0, 0.038506985160347104
1458.0, 0.03554311037673023
1459.0, 0.03275944899173809
1460.0, 0.04103990928306195
1461.0, 0.04446413404888712
1462.0, 0.04517743444301037
1463.0, 0.03482997410924485
1464.0, 0.017072330682595102
1465.0, 0.01742254902717166
1466.0, 0.028123291994144997
1467.0, 0.019871311592352992
1468.0, 0.013105810966371666
1469.0, 0.001651783547034341
1470.0, 0.015288746224359091
1471.0, 0.020227440824238864
1472.0, 0.011784339372124376
1473.0, 0.02876419372232871
1474.0, 0.024402901824218035
1475.0, 0.008421167796258306
1476.0, 0.01309878838092306
1477.0, 0.009519384387560377
1478.0, 0.026855238408727305
1479.0, 0.017594602351319537
1480.0, 0.0071167332597593495
1481.0, 0.002937487359667334
1482.0, 0.013499297094062963
1483.0, 0.021758925960098787
1484.0, 0.018195346888580786
1485.0, 0.025014405114029456
1486.0, 0.036935707377654184
1487.0, 0.025137717527678776
1488.0, 0.012520475327557342
1489.0, 0.024468745584588527
1490.0, 0.02147523623142269
1491.0, 0.013229716772973557
1492.0, 0.013496055163698928
1493.0, 0.01987152836445183
1494.0, 0.0033418306814277862
1495.0, 0.02098362861190954
1496.0, 0.024230173957257944
1497.0, 0.02574404549598586
1498.0, 0.024919919617794228
1499.0, 0.008851921703292652
1500.0, 0.004911981207134594
1501.0, 0.014304707648339946
1502.0, 0.025451196778301946
1503.0, 0.034490712896043184
1504.0, 0.020286123991560247
1505.0, 0.024820567536455264
1506.0, 0.014424167328335465
1507.0, 0.024013432458339652
1508.0, 0.02883066759197478
1509.0, 0.035314121165853064
1510.0, 0.034534512204763564
1511.0, 0.02895151681270337
1512.0, 0.028548478354241697
1513.0, 0.02527224379743084
1514.0, 0.02535145154695403
1515.0, 0.022090651353973888
1516.0, 0.01566477780354114
1517.0, 0.028637874711488997
1518.0, 0.02549185281445327
1519.0, 0.014011348251790255
1520.0, 0.02454548126529324
1521.0, 0.01417024887129889
1522.0, 0.01586767082269417
1523.0, 0.021021952547303137
1524.0, 0.011793093581002664
1525.0, 0.03672067690249973
1526.0, 0.004194480598246874
1527.0, 0.03466349033553295
1528.0, 0.042952519532656275
1529.0, 0.026350389825709024
1530.0, 0.036190091162086116
1531.0, 0.03646256391804359
1532.0, 0.01792694748489419
1533.0, 0.0215533980799131
1534.0, 0.02574176733213434
1535.0, 0.031935831946732246
1536.0, 0.02659778416299327
1537.0, 0.023773171842507382
1538.0, 0.032181279681751225
1539.0, 0.01611227583966441
1540.0, 0.012519314266190773
1541.0, 0.02052290119052814
1542.0, 0.019834090913758547
1543.0, 0.02543514668788886
1544.0, 0.022868628380539706
1545.0, 0.015457119722818347
1546.0, 0.014813666703325998
1547.0, 0.012516172322343425
1548.0, 0.02409857609898176
1549.0, 0.034803975582579735
1550.0, 0.029344701724867042
1551.0, 0.03567826506602584
1552.0, 0.03320453373692988
1553.0, 0.03219657401665464
1554.0, 0.030254677862662848
1555.0, 0.03475915046430666
1556.0, 0.029073590162977503
1557.0, 0.03703113388986883
1558.0, 0.014821607268594097
1559.0, 0.01802373354523823
1560.0, 0.03125312004461947
1561.0, 0.03091855631922679
1562.0, 0.04026663253492092
1563.0, 0.026092314673459856
1564.0, 0.03533422776190318
1565.0, 0.005299445711038183
1566.0, 0.02438958754442852
1567.0, 0.0334014061068879
1568.0, 0.04698221963697826
1569.0, 0.03989841252567635
1570.0, 0.026290305637290234
1571.0, 0.021863258417855122
1572.0, 0.015498226533707525
1573.0, 0.00421537946738917
1574.0, 0.019659414892697867
1575.0, 0.008590718582730677
1576, 0.0
1577, 0.0
1578, 0.0
1579, 0.0
1580, 0.0
1581, 0.0
1582, 0.0
1583, 0.0
1584, 0.0
1585, 0.0
1586, 0.0
1587, 0.0
1588, 0.0
1589, 0.0
1590, 0.0
1591, 0.0
1592, 0.0
1593, 0.0
1594, 0.0
1595, 0.0
1596, 0.0
1597, 0.0
1598, 0.0
1599, 0.0
