30, 0.0
31, 0.0
32, 0.0
33, 0.0
34, 0.0
35, 0.0
36, 0.0
37, 0.0
38, 0.0
39, 0.0
40, 0.0
41, 0.0
42, 0.0
43, 0.0
44, 0.0
45, 0.0
46, 0.0
47, 0.0
48, 0.0
49, 0.0
50, 0.0
51, 0.0
52, 0.0
53, 0.0
54, 0.0
55, 0.0
56, 0.0
57, 0.0
58, 0.0
59, 0.0
60, 0.0
61, 0.0
62, 0.0
63, 0.0
64, 0.0
65, 0.0
66, 0.0
67, 0.0
68, 0.0
69, 0.0
70, 0.0
71, 0.0
72, 0.0
73, 0.0
74, 0.0
75, 0.0
76, 0.0
77, 0.0
78, 0.0
79, 0.0
80, 0.0
81, 0.0
82, 0.0
83, 0.0
84, 0.0
85, 0.0
86, 0.0
87, 0.0
88, 0.0
89, 0.0
90, 0.0
91, 0.0
92, 0.0
93, 0.0
94, 0.0
95, 0.0
96, 0.0
97, 0.0
98, 0.0
99, 0.0
100, 0.0
101, 0.0
102, 0.0
103, 0.0
104, 0.0
105, 0.0
106, 0.0
107, 0.0
108, 0.0
109, 0.0
110, 0.0
111, 0.0
112, 0.0
113, 0.0
114, 0.0
115, 0.0
116, 0.0
117, 0.0
118, 0.0
119, 0.0
120, 0.0
121, 0.0
122, 0.0
123, 0.0
124, 0.0
125, 0.0
126, 0.0
127, 0.0
128, 0.0
129, 0.0
130, 0.0
131, 0.0
132, 0.0
133, 0.0
134, 0.0
135, 0.0
136, 0.0
137, 0.0
138, 0.0
139, 0.0
140, 0.0
141, 0.0
142, 0.0
143, 0.0
144, 0.0
145, 0.0
146, 0.0
147, 0.0
148, 0.0
149, 0.0
150, 0.0
151, 0.0
152, 0.0
153, 0.0
154, 0.0
155, 0.0
156, 0.0
157, 0.0
158, 0.0
159, 0.0
160, 0.0
161, 0.0
162, 0.0
163, 0.0
164, 0.0
165, 0.0
166, 0.0
167, 0.0
168, 0.0
169, 0.0
170, 0.0
171, 0.0
172, 0.0
173, 0.0
174, 0.0
175, 0.0
176, 0.0
177, 0.0
178, 0.0
179, 0.0
180, 0.0
181, 0.0
182, 0.0
183, 0.0
184, 0.0
185, 0.0
186, 0.0
187, 0.0
188, 0.0
189, 0.0
190, 0.0
191, 0.0
192, 0.0
193, 0.0
194, 0.0
195, 0.0
196, 0.0
197, 0.0
198, 0.0
199, 0.0
200, 0.0
201, 0.0
202, 0.0
203, 0.0
204, 0.0
205, 0.0
206, 0.0
207, 0.0
208, 0.0
209, 0.0
210, 0.0
211, 0.0
212, 0.0
213, 0.0
214, 0.0
215, 0.0
216, 0.0
217, 0.0
218, 0.0
219, 0.0
220, 0.0
221, 0.0
222, 0.0
223, 0.0
224, 0.0
225, 0.0
226, 0.0
227, 0.0
228, 0.0
229, 0.0
230, 0.0
231, 0.0
232, 0.0
233, 0.0
234, 0.0
235, 0.0
236, 0.0
237, 0.0
238, 0.0
239, 0.0
240, 0.0
241, 0.0
242, 0.0
243, 0.0
244, 0.0
245, 0.0
246, 0.0
247, 0.0
248, 0.0
249, 0.0
250, 0.0
251, 0.0
252, 0.0
253, 0.0
254, 0.0
255, 0.0
256, 0.0
257, 0.0
258, 0.0
259, 0.0
260, 0.0
261, 0.0
262, 0.0
263.0, 0.004347681097327657
264.0, 0.007912729064768025
265.0, 0.0006644421371450751
266.0, 0.005538228024458379
267.0, 0.006601054947022615
268.0, 0.007431335391665463
269.0, 0.006952440140023647
270.0, 0.006273711778456565
271.0, 0.011939879059338023
272.0, 0.011357655671850308
273.0, 0.0070197176301874265
274.0, 0.007262971974683898
275.0, 0.011368584795882866
276.0, 0.012782559442458636
277.0, 0.0012194939784594908
278.0, 0.00947722104877827
279.0, 0.012913594103428518
280.0, 0.009887268262974043
281.0, 0.008887660318107617
282.0, 0.021285644810992606
283.0, 0.02038947578820483
284.0, 0.017349472043202033
285.0, 0.019876960555922436
286.0, 0.025185980892499574
287.0, 0.03086603169770382
288.0, 0.039195173687916
289.0, 0.03212611795970826
290.0, 0.02774744226587206
291.0, 0.033788457916769064
292.0, 0.04229000314323203
293.0, 0.04365300177182455
294.0, 0.044854689999278684
295.0, 0.056939894962737096
296.0, 0.06649922460746259
297.0, 0.07863894010478727
298.0, 0.09065782885830165
299.0, 0.09682283779457754
300.0, 0.11301331705860888
301.0, 0.12484631181708189
302.0, 0.14551445389816506
303.0, 0.165358188963011
304.0, 0.18274414589223298
305.0, 0.2079370668223648
306.0, 0.22195316561540104
307.0, 0.2393094609107391
308.0, 0.24544605594697605
309.0, 0.24633636693819852
310.0, 0.24553781315651046
311.0, 0.2313791102596532
312.0, 0.21313539701549855
313.0, 0.19386369014780055
314.0, 0.17856323536085392
315.0, 0.1649509323030429
316.0, 0.14966891602696825
317.0, 0.13613505768605183
318.0, 0.12357617285720895
319.0, 0.1114784552810144
320.0, 0.10264008740795268
321.0, 0.09542568653793305
322.0, 0.08859466438830599
323.0, 0.09674217527884947
324.0, 0.09044408991549883
325.0, 0.08510617012896388
326.0, 0.08557472325222089
327.0, 0.08532566261095452
328.0, 0.07383121425582007
329.0, 0.07717365569098335
330.0, 0.074390369644971
331.0, 0.07891555805523054
332.0, 0.08284245600520426
333.0, 0.08232375477857037
334.0, 0.08272755310354535
335.0, 0.07780384341474796
336.0, 0.08207967605293759
337.0, 0.0837643884238997
338.0, 0.08114790575214195
339.0, 0.07764984557349533
340.0, 0.0797940672084165
341.0, 0.08671142874925951
342.0, 0.07489171544444766
343.0, 0.0655329203849297
344.0, 0.06341023557580736
345.0, 0.06445975505155663
346.0, 0.05992778525005805
347.0, 0.057178702828092315
348.0, 0.060492730156175394
349.0, 0.05262393817276852
350.0, 0.040452288359754306
351.0, 0.037592412783556045
352.0, 0.04675315265665692
353.0, 0.049977801523311355
354.0, 0.046829188354396395
355.0, 0.044095872179021986
356.0, 0.044352242426942655
357.0, 0.046068017148260317
358.0, 0.04347289191038544
359.0, 0.047537385498553374
360.0, 0.060727929943618184
361.0, 0.06340092881605665
362.0, 0.05935059814550079
363.0, 0.06194920027041269
364.0, 0.06683404817637416
365.0, 0.08505832964577952
366.0, 0.0929186194587541
367.0, 0.10326388699850544
368.0, 0.11529673875891186
369.0, 0.12262621138597857
370.0, 0.13685206899551317
371.0, 0.1491851310648587
372.0, 0.1713479966764991
373.0, 0.18719581533552065
374.0, 0.19892044867272898
375.0, 0.2160223573166744
376.0, 0.22078898572638286
377.0, 0.21890550757496854
378.0, 0.20115097722073763
379.0, 0.18532944821073066
380.0, 0.17286783614623516
381.0, 0.156103453104969
382.0, 0.14537725687039862
383.0, 0.12623184793403983
384.0, 0.10531735949893747
385.0, 0.08720332565471839
386.0, 0.0724261829638275
387.0, 0.05944308094058046
388.0, 0.05000218952783365
389.0, 0.0498908317289405
390.0, 0.04394021981702087
391.0, 0.03683959695508369
392.0, 0.031246905538783232
393.0, 0.02736255265166841
394.0, 0.02585135550446673
395.0, 0.025033581623709833
396.0, 0.01796232698040514
397.0, 0.017692091767194218
398.0, 0.020705899401391045
399.0, 0.016520229559021053
400.0, 0.008779043794869105
401.0, 0.002606866483739164
402.0, 0.0010015504312317217
403.0, 0.004638876209961355
404.0, 0.00819954985149263
405.0, 0.0066079856122457
406.0, 0.004206552949580753
407.0, 0.007809930246595942
408.0, 0.0035243645583304395
409.0, 0.005521185346002793
410.0, 0.009780640231902405
411.0, 0.007324576150353075
412.0, 0.0002150506994227677
413.0, 0.0016095777784311477
414.0, 0.0009437141064981761
415.0, 0.003370170779875392
416.0, 0.004576597079382816
417.0, 0.00251689543173399
418.0, 0.0061183610630098344
419.0, 0.003803898088846902
420.0, 0.003914853298169334
421.0, 0.0040460337284876375
422.0, 0.0026175154678951514
423.0, 0.0003808164035352927
424.0, 0.0007247266076202423
425.0, 0.0030975154729772545
426.0, 0.0015911022897820066
427.0, 0.002017491531338842
428.0, 0.004133351129884447
429.0, 0.006164119822894963
430.0, 0.006544968093831489
431.0, 0.004290246381055966
432.0, 0.003955016529750744
433.0, 0.003700819890504209
434.0, 0.005822321640788704
435.0, 0.008027915592827234
436.0, 0.005689580558527163
437.0, 0.00609966557670067
438.0, 0.006336092910656293
439.0, 0.0086676564330145
440.0, 0.007313038259959697
441.0, 0.0036976573148312978
442.0, 0.002846779379971558
443.0, 0.003042678793293743
444.0, 0.0008627066670758872
445.0, 0.002569090105295741
446.0, 0.0027242109593319393
447.0, 0.0020474191255376575
448.0, 0.003578260766027349
449.0, 0.007517318460545385
450.0, 0.0023735741552953406
451.0, 0.006029770359296463
452.0, 0.005247985168071557
453.0, 0.00724608189127676
454.0, 0.012112392072697873
455.0, 0.003458945768329634
456.0, 0.007728676853682059
457.0, 0.005442796880882949
458.0, 0.005649253011178154
459.0, 0.0059209500539852385
460.0, 0.004926302631211243
461.0, 0.004041054932452816
462.0, 0.00032483315610747727
463.0, 0.007256049017191809
464.0, 0.008269532528640199
465.0, 0.0065260555301275775
466.0, 0.005434877290922526
467.0, 0.005269425828105395
468.0, 0.0013187235468343555
469.0, 0.008088364454933807
470.0, 0.00619245966351021
471.0, 0.003530481730078893
472.0, 0.0018272191693894334
473.0, 0.0009405184985311502
474.0, 0.0025269449131323177
475.0, 0.008145923197317776
476.0, 0.003074347826900297
477.0, 0.0038201176748811753
478.0, 0.007905973307057263
479.0, 0.009788558605961614
480.0, 0.0077359352826291425
481.0, 0.010254707030388175
482.0, 0.010668542563214417
483.0, 0.005526111155633932
484.0, 0.004522574531236961
485.0, 0.0064787750771182
486.0, 0.007663841763205617
487.0, 0.017667751945590844
488.0, 0.013935976303256875
489.0, 0.011662577326949669
490.0, 0.01663046624091942
491.0, 0.018194524778005594
492.0, 0.015044866326428357
493.0, 0.02387851023017245
494.0, 0.030576077639678456
495.0, 0.028959802414575738
496.0, 0.031034617030803423
497.0, 0.03270895303205018
498.0, 0.031239275542946546
499.0, 0.029184137738223793
500.0, 0.034937599785144456
501.0, 0.03536090730607803
502.0, 0.03228071323922592
503.0, 0.02633350502328881
504.0, 0.021617971583606812
505.0, 0.021889598821792644
506.0, 0.026192088027356647
507.0, 0.015121616566685573
508.0, 0.015130039626906254
509.0, 0.017226699488696623
510.0, 0.019347302956398277
511.0, 0.02037333538989389
512.0, 0.021562385290114425
513.0, 0.03394091435596722
514.0, 0.023370169073345135
515.0, 0.02661823364069417
516.0, 0.03165119096312761
517.0, 0.03086118146179605
518.0, 0.02543775162737777
519.0, 0.024504006483375355
520.0, 0.02757649265970911
521.0, 0.031250773880813695
522.0, 0.037807950065975704
523.0, 0.03807836032216757
524.0, 0.03278042981211068
525.0, 0.030564453919241914
526.0, 0.030475641743316
527.0, 0.03337755945981571
528.0, 0.034367393131227546
529.0, 0.035413450226792445
530.0, 0.03492575948052344
531.0, 0.03227513990239813
532.0, 0.03042840467003262
533.0, 0.030180446711999685
534.0, 0.038826737091092856
535.0, 0.04245316452482529
536.0, 0.038618389230006475
537.0, 0.03253786639067576
538.0, 0.03191511858420459
539.0, 0.03916737208622524
540.0, 0.0364354291336245
541.0, 0.034974110014604334
542.0, 0.033667944586310304
543.0, 0.03391000959320074
544.0, 0.03596846045447308
545.0, 0.03726010983052455
546.0, 0.03209324890829789
547.0, 0.03979111537244837
548.0, 0.04420017758330041
549.0, 0.04370045492917701
550.0, 0.041213142557470266
551.0, 0.03974553463112537
552.0, 0.03910022769433103
553.0, 0.04064052027686884
554.0, 0.04632017615659912
555.0, 0.03691470247972015
556.0, 0.03007238668293108
557.0, 0.03173205172655416
558.0, 0.032896328039590944
559.0, 0.027108862745002602
560.0, 0.02388473798701648
561.0, 0.02755347116085785
562.0, 0.03092512317543847
563.0, 0.027812250474014304
564.0, 0.022969218190441492
565.0, 0.02691333688044245
566.0, 0.02385260207857481
567.0, 0.008728217746731173
568.0, 0.01565215609749823
569.0, 0.014887976800108614
570.0, 0.011020600884919853
571.0, 0.014340108870644828
572.0, 0.015958677293063037
573.0, 0.015521307437312448
574.0, 0.006669361437204559
575.0, 0.005768799701691297
576.0, 0.011113176530464924
577.0, 0.01821688221509794
578.0, 0.02041749606451069
579.0, 0.009735576076444683
580.0, 0.015239608704222283
581.0, 0.010868953711284726
582.0, 0.008367037370849987
583.0, 0.007882833823903116
584.0, 0.007128693636055062
585.0, 0.005274804678613565
586.0, 0.005195877893981173
587.0, 0.008479698697584814
588.0, 0.006813035744967583
589.0, 0.004444804269978275
590.0, 0.004965579205514127
591.0, 0.005191250592057268
592.0, 0.001586213268243836
593.0, 0.01032064644768825
594.0, 0.006119107922276806
595.0, 0.0070941657724154245
596.0, 0.006793048442987559
597.0, 0.006198849383480764
598.0, 0.007146395697074668
599.0, 0.008406244222252857
600.0, 0.005844361278044785
601.0, 0.01118877761509771
602.0, 0.005841823568896745
603.0, 0.0068824343451975335
604.0, 0.006887329508031635
605.0, 0.002252556834182287
606.0, 0.004556633424362649
607.0, 0.007099207499263021
608.0, 0.004552765594145068
609.0, 0.005915529054384697
610.0, 0.007089917071446666
611.0, 0.011804688344627888
612.0, 0.01707942625225664
613.0, 0.010922745786421537
614.0, 0.011237761424227895
615.0, 0.01921228948282881
616.0, 0.021004514307164972
617.0, 0.015159013719895247
618.0, 0.012689305489992087
619.0, 0.0155605160201743
620.0, 0.010483698064561358
621.0, 0.015979315282353083
622.0, 0.020118831298493407
623.0, 0.0197478796371205
624.0, 0.020289704026263677
625.0, 0.01967560527074921
626.0, 0.01669252078573806
627.0, 0.017534585809152844
628.0, 0.0311845465060652
629.0, 0.030421352011781484
630.0, 0.03216792750811436
631.0, 0.035892135481088855
632.0, 0.03825398500168344
633.0, 0.03699405423692455
634.0, 0.034272046742500104
635.0, 0.04224407539299952
636.0, 0.05045941000224982
637.0, 0.05745372369686907
638.0, 0.06125576168759563
639.0, 0.05860777586596237
640.0, 0.058299120289724976
641.0, 0.07508284405204402
642.0, 0.08183675834188647
643.0, 0.09210565950488392
644.0, 0.1015664174421581
645.0, 0.11140838917103711
646.0, 0.12670137263219658
647.0, 0.14515082509163013
648.0, 0.16115568042742678
649.0, 0.19271219744436863
650.0, 0.21212725827623471
651.0, 0.24674607358451447
652.0, 0.2956170498488686
653.0, 0.3518143785665408
654.0, 0.4073876465157571
655.0, 0.46229072423558837
656.0, 0.5356885432782914
657.0, 0.6292483396486441
658.0, 0.7104579009116831
659.0, 0.7870781077267338
660.0, 0.8466598775035269
661.0, 0.8730002648815696
662.0, 0.8562557662534894
663.0, 0.7993586988616164
664.0, 0.7234586912561893
665.0, 0.6309575382142979
666.0, 0.5337748910165501
667.0, 0.45703037993674456
668.0, 0.3912437600545638
669.0, 0.32251889954768026
670.0, 0.2698876725138058
671.0, 0.2288041414675906
672.0, 0.20454491272727912
673.0, 0.17783822001765862
674.0, 0.15356460260174468
675.0, 0.1361462965149812
676.0, 0.1219490986288146
677.0, 0.10315661892435896
678.0, 0.09228813764249061
679.0, 0.0755807859900769
680.0, 0.07477429635751355
681.0, 0.06751092340649638
682.0, 0.05862123101639463
683.0, 0.055031804142112735
684.0, 0.05371988796305038
685.0, 0.049042411009265915
686.0, 0.043373143927609624
687.0, 0.04234765764015365
688.0, 0.040489600732553664
689.0, 0.03961832038844084
690.0, 0.03922511507966967
691.0, 0.03571053645865972
692.0, 0.02760561892941589
693.0, 0.03402413665741682
694.0, 0.031046080529180505
695.0, 0.03284232936247747
696.0, 0.03184482769651689
697.0, 0.02637907964546761
698.0, 0.023604981937442635
699.0, 0.029337529117224946
700.0, 0.02102254387683984
701.0, 0.021416166223224318
702.0, 0.020881038284298117
703.0, 0.02228886997473982
704.0, 0.020450614716396903
705.0, 0.017247728163735248
706.0, 0.018516469308056335
707.0, 0.01991972396653267
708.0, 0.01890207907834838
709.0, 0.01472154887890665
710.0, 0.02382274652965366
711.0, 0.020807386051049107
712.0, 0.012323340091815266
713.0, 0.011713950536747706
714.0, 0.012261844955599491
715.0, 0.0154325199166597
716.0, 0.014498771866258515
717.0, 0.01298643126738593
718.0, 0.011479838109479947
719.0, 0.007671618857738178
720.0, 0.005904577045154411
721.0, 0.010240307185914727
722.0, 0.010427945898260278
723.0, 0.012688903628495138
724.0, 0.008858850475808155
725.0, 0.006379018186834167
726.0, 0.006560651146291721
727.0, 0.006806568852503254
728.0, 0.009238784242024276
729.0, 0.018408464056791113
730.0, 0.017155221541879106
731.0, 0.012278202642092756
732.0, 0.012488943475172671
733.0, 0.01372203402848247
734.0, 0.01102741031136504
735.0, 0.005824266771861293
736.0, 0.004115437057320142
737.0, 0.008443609837846259
738.0, 0.0035658795558359694
739.0, 0.007301921469560164
740.0, 0.010443009013479207
741.0, 0.008368152885250177
742.0, 0.008257092576775265
743.0, 0.009069867572900497
744.0, 0.00358076331227164
745.0, 0.002892487809698396
746.0, 0.008063827332295893
747.0, 0.0047329526888867995
748.0, 0.002983118030764045
749.0, 0.005109607940238702
750.0, 0.00887063817785589
751.0, 0.011179974037964287
752.0, 0.011026252951150234
753.0, 0.009845726860165677
754.0, 0.013894874146316755
755.0, 0.01589599284224114
756.0, 0.011059809493978006
757.0, 0.005910996712501862
758.0, 0.004947912627108525
759.0, 0.010178610135147523
760.0, 0.021000630902062247
761.0, 0.015127155516232765
762.0, 0.017113255534209712
763.0, 0.008197656317704565
764.0, 0.007864998431095019
765.0, 0.011626538667038966
766.0, 0.012734434662737801
767.0, 0.009481946503785338
768.0, 0.0026532228297871025
769.0, 0.009750692277164526
770.0, 0.008230305882433234
771.0, 0.012397888845573425
772.0, 0.007349211526690735
773.0, 0.0041957326598103415
774.0, 0.007129458730819648
775.0, 0.0065669319779042
776.0, 0.001360400020103466
777.0, 0.014576245539017686
778.0, 0.003057955331961579
779.0, 0.0036165161643499457
780.0, 0.0031087794706279085
781.0, 0.005646838034095215
782.0, 0.007908858124359156
783.0, 0.00102679724321384
784.0, 0.0004460148511165425
785.0, 0.0028817552927952904
786.0, 0.006817602747736172
787.0, 0.00656137880325091
788.0, 0.005379088719826237
789.0, 0.0033032717292227312
790.0, 0.0020326347675601064
791.0, 0.0035411931515041185
792.0, 0.00315726588587017
793.0, 0.011823216817650858
794.0, 0.004904388237012839
795.0, 0.006341134102521881
796.0, 0.009685885224408332
797.0, 0.013382980375359189
798.0, 0.015598368034000104
799.0, 0.012611782507542713
800.0, 0.006058253786765742
801.0, 0.006431489103634771
802.0, 0.007719323540206942
803.0, 0.006483066959403788
804.0, 0.007273754912151658
805.0, 0.005159937004292992
806.0, 0.005667397671363025
807.0, 0.01402941439694159
808.0, 0.01006950105526772
809.0, 0.010399065651728333
810.0, 0.010089168381161742
811.0, 0.01378230152983975
812.0, 0.01311906061377323
813.0, 0.011790654894644231
814.0, 0.013805372357556609
815.0, 0.014001057239499373
816.0, 0.0031028526419999403
817.0, 0.006358036539139744
818.0, 0.011471714713607497
819.0, 0.012084007494968897
820.0, 0.014371647986592573
821.0, 0.012378377331902968
822.0, 0.0069674515586245715
823.0, 0.004965163138566252
824.0, 0.007430403714864331
825.0, 0.003166409486057219
826.0, 0.0037435811963581426
827.0, 0.003941445665947052
828.0, 0.0018485882846436053
829.0, 0.0027775558021460645
830.0, 0.009421110622802856
831.0, 0.012025736367268041
832.0, 0.0009764376783255672
833.0, 0.0028601831046687026
834.0, 0.003690746306838657
835.0, 0.007120462162888841
836.0, 0.0027865632713359404
837.0, 0.0012294089574032983
838.0, 0.008476571713265808
839.0, 0.013122462001554742
840.0, 0.006412098658993376
841.0, 0.010504792822989509
842.0, 0.0061454693879322096
843.0, 0.010697524914245861
844.0, 0.016505243958238228
845.0, 0.021707667816394972
846.0, 0.030087522453465597
847.0, 0.03247174255625682
848.0, 0.027732746995294422
849.0, 0.03551900638481572
850.0, 0.038648973042223214
851.0, 0.052266069200468224
852.0, 0.06072047933615346
853.0, 0.06434106846740376
854.0, 0.056740511333204624
855.0, 0.04945612641783379
856.0, 0.050460584910550985
857.0, 0.05146868723046808
858.0, 0.04437404478350968
859.0, 0.04137298920674782
860.0, 0.03525230764882918
861.0, 0.022562380171855564
862.0, 0.025565748696658418
863.0, 0.02789602879432085
864.0, 0.027273701613204332
865.0, 0.029543345148072216
866.0, 0.02401660185381317
867.0, 0.017524094094541802
868.0, 0.022705406429934495
869.0, 0.023053840494093022
870.0, 0.01647077517932301
871.0, 0.015634475536908044
872.0, 0.023752553299954845
873.0, 0.02531197612109024
874.0, 0.012145521382512481
875.0, 0.013093745557652135
876.0, 0.010853223675883192
877.0, 0.018402346991157906
878.0, 0.012325799332612623
879.0, 0.019591941645041907
880.0, 0.024235228640464998
881.0, 0.024274953322288576
882.0, 0.02539874012502974
883.0, 0.022958451355574477
884.0, 0.016767983683987988
885.0, 0.015108494726869134
886.0, 0.004662125750857667
887.0, 0.01367191350316346
888.0, 0.014761196390233369
889.0, 0.009734333662707841
890.0, 0.00826799633495616
891.0, 0.012205813947366681
892.0, 0.017257330151508994
893.0, 0.022217480220757493
894.0, 0.022164082216488277
895.0, 0.01996818091936276
896.0, 0.02216051846190368
897.0, 0.018784469825262474
898.0, 0.014233248990285772
899.0, 0.013622291426591129
900.0, 0.014473912913174859
901.0, 0.013579987302572625
902.0, 0.019641605841170133
903.0, 0.021041624371075505
904.0, 0.013764858265238914
905.0, 0.012191529048120396
906.0, 0.019575118011200675
907.0, 0.02166878123916473
908.0, 0.021369294628949025
909.0, 0.024918586319041057
910.0, 0.01230341440243918
911.0, 0.010501888766928492
912.0, 0.009242824558694521
913.0, 0.018150876794495348
914.0, 0.024022764274549902
915.0, 0.019376432979286054
916.0, 0.017639335696726304
917.0, 0.021070632225415303
918.0, 0.0208583029578058
919.0, 0.021567368779491055
920.0, 0.016393029717405163
921.0, 0.014891021544597259
922.0, 0.016261044335049674
923.0, 0.009481998862141816
924.0, 0.0065042089377019465
925.0, 0.016278656438365062
926.0, 0.01879506105813022
927.0, 0.0031668317143409975
928.0, 0.004093422794561937
929.0, 0.005480316914942142
930.0, 0.008296916351324235
931.0, 0.0054341854586983235
932.0, 0.007735049634711449
933.0, 0.008759735605255089
934.0, 0.005241430015004725
935.0, 0.0015811633778739936
936.0, 0.004920360988983813
937.0, 0.014710288604720546
938.0, 0.014310353798254453
939.0, 0.0025650084224205436
940.0, 0.006490544578623757
941.0, 0.002956530610615509
942.0, 0.00139912654856666
943.0, 0.002170045943745686
944.0, 0.004779077801099277
945.0, 0.005974321762039609
946.0, 0.002019077549993033
947.0, 0.005024765554930501
948.0, 0.013871020833173897
949.0, 0.004800852171886553
950.0, 0.002218044242831024
951.0, 0.0025579414681861624
952.0, 0.004522268541338256
953.0, 0.0064534218174410645
954.0, 0.006300031393399167
955.0, 0.004755180385621383
956.0, 0.006112671549239107
957.0, 0.007809219697233661
958.0, 0.004150752223733782
959.0, 0.013475423808304712
960.0, 0.010518497113680034
961.0, 0.011286475864101296
962.0, 0.011155358875515189
963.0, 0.005911734093772993
964.0, 0.0027412049009718654
965.0, 0.005411896141421496
966.0, 0.0022160861602920938
967.0, 0.004778533062505292
968.0, 0.003585009811581024
969.0, 0.005500930431741072
970.0, 0.006573589984608394
971.0, 0.0033438215963819363
972.0, 0.002520461375456005
973.0, 0.0052172371920136875
974.0, 0.004629211683238876
975.0, 0.004237233916780795
976.0, 0.009546338186386005
977.0, 0.01452675335043854
978.0, 0.008014081096800822
979.0, 0.012577185461105037
980.0, 0.017419112389313065
981.0, 0.011697394627147915
982.0, 0.009046333678365614
983.0, 0.016943082190804364
984.0, 0.018845262414762486
985.0, 0.017753725426752444
986.0, 0.010802830033617046
987.0, 0.02497289847961874
988.0, 0.03477871439935115
989.0, 0.031297333325085254
990.0, 0.028805232449383687
991.0, 0.030570345833590497
992.0, 0.040328892159796174
993.0, 0.05114163895870319
994.0, 0.04678901226458944
995.0, 0.06417328904922802
996.0, 0.06308333894256563
997.0, 0.061672532784620517
998.0, 0.07607357480805854
999.0, 0.09643738825462739
1000.0, 0.12437542184091156
1001.0, 0.14542290831384505
1002.0, 0.16613195077683118
1003.0, 0.20858742272879122
1004.0, 0.26347408969919534
1005.0, 0.3037898373597062
1006.0, 0.3638679531131033
1007.0, 0.4641649929750605
1008.0, 0.5674501898798513
1009.0, 0.6856849677066802
1010.0, 0.7943631735455213
1011.0, 0.8923919959556142
1012.0, 0.9684404045612652
1013.0, 0.9990893458208006
1014.0, 0.9789918227838128
1015.0, 0.8755891161009364
1016.0, 0.7333003632982779
1017.0, 0.6121464666263899
1018.0, 0.4985509366289466
1019.0, 0.41204434426306447
1020.0, 0.3421032263021536
1021.0, 0.28268104755477974
1022.0, 0.2404719932170294
1023.0, 0.21251068895972453
1024.0, 0.1832706024793642
1025.0, 0.17181156426578081
1026.0, 0.13914377430906286
1027.0, 0.14809545432416868
1028.0, 0.13399141405482903
1029.0, 0.12174616252913564
1030.0, 0.12048411458032553
1031.0, 0.11524267695260153
1032.0, 0.10861499142290852
1033.0, 0.10544184263979527
1034.0, 0.09149099742625498
1035.0, 0.07955055129825031
1036.0, 0.09172686023941479
1037.0, 0.08232799341625387
1038.0, 0.07172909664953395
1039.0, 0.0702983043600455
1040.0, 0.0672812769757866
1041.0, 0.061897052028010886
1042.0, 0.057883419805193695
1043.0, 0.057838012687839536
1044.0, 0.06002692173443635
1045.0, 0.0572070985131409
1046.0, 0.0499347614311894
1047.0, 0.06387054721029051
1048.0, 0.060341604883622446
1049.0, 0.04732369095116618
1050.0, 0.045180620930783934
1051.0, 0.04145383423466648
1052.0, 0.03949477042029976
1053.0, 0.04113991532500664
1054.0, 0.03743697975271814
1055.0, 0.029904027187759745
1056.0, 0.03409980623911163
1057.0, 0.036133778360387586
1058.0, 0.03012750750087021
1059.0, 0.036909056818115835
1060.0, 0.030850155946983475
1061.0, 0.02914257994359805
1062.0, 0.025938657004247644
1063.0, 0.02651253354547599
1064.0, 0.027470095879595556
1065.0, 0.02015183030640055
1066.0, 0.02541075210352461
1067.0, 0.0284055324994494
1068.0, 0.029132242668994036
1069.0, 0.020668962200759866
1070.0, 0.02252894517274167
1071.0, 0.02252674737772816
1072.0, 0.021091150710213096
1073.0, 0.026089326515809825
1074.0, 0.026763622838368376
1075.0, 0.02053102733551664
1076.0, 0.023666280741675788
1077.0, 0.02967575301415453
1078.0, 0.03369188468937834
1079.0, 0.024236246947861688
1080.0, 0.02971916687174205
1081.0, 0.023263764128598086
1082.0, 0.020148986691755903
1083.0, 0.01916998953011093
1084.0, 0.022575839380009097
1085.0, 0.028527587394805206
1086.0, 0.027760837964460806
1087.0, 0.020986678812582222
1088.0, 0.02598608694729686
1089.0, 0.02351564018704544
1090.0, 0.024642222649980214
1091.0, 0.032662347255937765
1092.0, 0.018639357198425008
1093.0, 0.021104070744026513
1094.0, 0.015562684028049377
1095.0, 0.012242724452741298
1096.0, 0.01503098592447942
1097.0, 0.015644282049478656
1098.0, 0.01782007685868598
1099.0, 0.02311641436527829
1100.0, 0.020610624844668038
1101.0, 0.019546751245061764
1102.0, 0.01951043555142357
1103.0, 0.016441613478927836
1104.0, 0.012165653367972647
1105.0, 0.017427653611275223
1106.0, 0.017584032831853544
1107.0, 0.015419488045597358
1108.0, 0.015746056907370184
1109.0, 0.01347887393498885
1110.0, 0.012698543010016418
1111.0, 0.005901313714043052
1112.0, 0.011283112440249848
1113.0, 0.016043411256770432
1114.0, 0.002969290068351474
1115.0, 0.013372229434160622
1116.0, 0.013520686070885659
1117.0, 0.007220377606097015
1118.0, 0.00866535410193524
1119.0, 0.012230644152964161
1120.0, 0.01503526687539954
1121.0, 0.02217650622954913
1122.0, 0.01063462496089842
1123.0, 0.012717270936770355
1124.0, 0.014586578989905941
1125.0, 0.00652622086815941
1126.0, 0.00981864441831099
1127.0, 0.013961589453850641
1128.0, 0.012916792957055691
1129.0, 0.00835699799190247
1130.0, 0.009329807019813095
1131.0, 0.013529029240604059
1132.0, 0.011568154581035897
1133.0, 0.00762924730544297
1134.0, 0.006123224269164584
1135.0, 0.008825601587539275
1136.0, 0.01177305581828714
1137.0, 0.0032653866424888663
1138.0, 0.007477142024255736
1139.0, 0.012089340313522415
1140.0, 0.008255508783019765
1141.0, 0.0026492318040747436
1142.0, 0.00439545828966969
1143.0, 0.011142884291755218
1144.0, 0.01313355735297347
1145.0, 0.010950177547389323
1146.0, 0.016382748134620453
1147.0, 0.0020011804488771845
1148.0, 0.009624738357485526
1149.0, 0.0065695493032035535
1150.0, 0.0017263734963481189
1151.0, 0.004200081170331457
1152.0, 0.010772912734264341
1153.0, 0.012954397380239424
1154.0, 0.009728970810337871
1155.0, 0.008995424011104257
1156.0, 0.011932769902855307
1157.0, 0.008090006585960319
1158.0, 0.00308845726530111
1159.0, 0.006797929059544534
1160.0, 0.00512008267834624
1161.0, 0.00652617973258952
1162.0, 0.009722643791737396
1163.0, 0.008691036409352154
1164.0, 0.005895102959471671
1165.0, 0.0023897608183671413
1166.0, 0.002305513320367732
1167.0, 0.005666650742362192
1168.0, 0.006030688961895693
1169.0, 0.0043938174161600365
1170.0, 0.012442194496236304
1171.0, 0.014741111202220852
1172.0, 0.005390576171146963
1173.0, 0.0021092850512261776
1174.0, 0.011351275957379291
1175.0, 0.008625610993998124
1176.0, 0.0058677516157628895
1177.0, 0.008451625150494064
1178.0, 0.00886151407957329
1179.0, 0.00951180456017495
1180.0, 0.00988787513052218
1181.0, 0.0039916465270446976
1182.0, 0.0028441210814376546
1183.0, 0.004878835751240616
1184.0, 0.003720604440840004
1185.0, 0.00758603141710508
1186.0, 0.01243850825397664
1187.0, 0.00535068586873251
1188.0, 0.0034784304945103556
1189.0, 0.0018287529340016606
1190.0, 0.0019833502490976705
1191.0, 0.0035136025709385163
1192.0, 0.006573028896727657
1193.0, 0.009841809200367271
1194.0, 0.007741845654218364
1195.0, 0.0028751430267192095
1196.0, 0.007574576592773857
1197.0, 0.010057853696290461
1198.0, 0.006749500496586013
1199.0, 0.017848051528141038
1200.0, 0.015418090756773653
1201.0, 0.006882679498193994
1202.0, 0.014793480332686251
1203.0, 0.017498544112135687
1204.0, 0.0111500542060084
1205.0, 0.010814814353893141
1206.0, 0.01079532037739503
1207.0, 0.0015200128045703655
1208.0, 0.002493061632046721
1209.0, 0.0007595805564122771
1210.0, 0.00500931167714936
1211.0, 0.013766619652611604
1212.0, 0.0017041011704424479
1213.0, 0.0035919121411531413
1214.0, 0.013271820696862014
1215.0, 0.009312363317246134
1216.0, 0.00865457113486932
1217.0, 0.005911579850382335
1218.0, 0.009147363054412579
1219.0, 0.015445757069533854
1220.0, 0.012180593014629785
1221.0, 0.015246410020192462
1222.0, 0.010165737569931216
1223.0, 0.015477995489702637
1224.0, 0.015750321556077508
1225.0, 0.00982428004899711
1226.0, 0.0055999948556962375
1227.0, 0.013083525161392051
1228.0, 0.014690859750900816
1229.0, 0.019060768013509415
1230.0, 0.014022152409632413
1231.0, 0.006771627463517985
1232.0, 0.008801037757558808
1233.0, 0.008796119031535148
1234.0, 3.732099018697506e-05
1235.0, 0.0006229120142319406
1236.0, 0.0025954207530362637
1237.0, 0.0032689116403087385
1238.0, 0.0043740814198732015
1239.0, 0.007132475363861932
1240.0, 0.0024500735080535655
1241.0, 0.006864825320403823
1242.0, 0.005736183590438267
1243.0, 0.006823243635514088
1244.0, 0.00745292758689413
1245.0, 0.01228035660678653
1246.0, 0.016516676751901205
1247.0, 0.014922402841577526
1248.0, 0.010653840965663127
1249.0, 0.003632442739298223
1250.0, 0.017976311047375113
1251.0, 0.02409764994857233
1252.0, 0.015032084597258731
1253.0, 0.008151176072529322
1254.0, 0.030130592795660237
1255.0, 0.012693166547103143
1256.0, 0.015788606861693654
1257.0, 0.015121774651137967
1258.0, 0.018547019425382102
1259.0, 0.021772981968027964
1260.0, 0.018706389038500686
1261.0, 0.01849409787480672
1262.0, 0.018271246452951355
1263.0, 0.009448572659540681
1264.0, 0.01723767295758976
1265.0, 0.02753629611980745
1266.0, 0.02116153230307224
1267.0, 0.014899625057597107
1268.0, 0.011349260145342753
1269.0, 0.01394055078461438
1270.0, 0.02252997504302784
1271.0, 0.013524518686963652
1272.0, 0.012804638107403853
1273.0, 0.015216488641217015
1274.0, 0.010902857823727512
1275.0, 0.008358669868643219
1276.0, 0.01129052013737207
1277.0, 0.011651708068387105
1278.0, 0.01096110322421218
1279.0, 0.013207891370063717
1280.0, 0.009279012430252833
1281.0, 0.015391919425478804
1282.0, 0.006266878346439358
1283.0, 0.02096016756866084
1284.0, 0.013048788074948033
1285.0, 0.005039462529111914
1286.0, 0.020990698685587533
1287.0, 0.016454408760095813
1288.0, 0.004839704830638999
1289.0, 0.007614957604142415
1290.0, 0.01690608640038571
1291.0, 0.021459260532759056
1292.0, 0.016229475012501642
1293.0, 0.005385476251347736
1294.0, 0.010637174714022033
1295.0, 0.007757494184858105
1296.0, 0.005438112270780925
1297.0, 0.016229656358421784
1298.0, 0.0010530380694569429
1299.0, 0.01033056823387719
1300.0, 0.012070942941134817
1301.0, 0.016331437667704073
1302.0, 0.01390894140200993
1303.0, 0.01093907245642027
1304.0, 0.015237049524380592
1305.0, 0.020534036254621642
1306.0, 0.018982714279650505
1307.0, 0.018052990655334684
1308.0, 0.01848923597317116
1309.0, 0.01332350219813654
1310.0, 0.023099742769802617
1311.0, 0.015324149200544944
1312.0, 0.003947232959084944
1313.0, 0.012407624031294287
1314.0, 0.017943447318016482
1315.0, 0.013299816231980616
1316.0, 0.008945568263877005
1317.0, 0.020633388956626964
1318.0, 0.03300386571405432
1319.0, 0.03484637134492914
1320.0, 0.01587701875275104
1321.0, 0.009843718321997085
1322.0, 0.019779343389130007
1323.0, 0.02492779316612779
1324.0, 0.020058191661217514
1325.0, 0.010177162596659866
1326.0, 0.015852560897954497
1327.0, 0.013601365466804363
1328.0, 0.012542636638124952
1329.0, 0.023047682432338578
1330.0, 0.008121130948241243
1331.0, 0.019087228278000155
1332.0, 0.02097279655174624
1333.0, 0.026098654914235193
1334.0, 0.023711230058639517
1335.0, 0.02144520995477279
1336.0, 0.026994354862895677
1337.0, 0.03248644269582867
1338.0, 0.03083444401717081
1339.0, 0.03084509005177838
1340.0, 0.028011141181242573
1341.0, 0.017631391392325002
1342.0, 0.014766240588941616
1343.0, 0.01232967990682477
1344.0, 0.017643269554210653
1345.0, 0.022643985601328322
1346.0, 0.01998223814021583
1347.0, 0.019392723274561582
1348.0, 0.02265874564084035
1349.0, 0.023398994345401172
1350.0, 0.020435580561873966
1351.0, 0.010224155948183492
1352.0, 0.012769364057113907
1353.0, 0.01351245710772372
1354.0, 0.015345076239505059
1355.0, 0.017358198869698676
1356.0, 0.012613799456594571
1357.0, 0.012463365265851074
1358.0, 0.017506594876248234
1359.0, 0.013948973505723154
1360.0, 0.011712284857556444
1361.0, 0.01359615589508835
1362.0, 0.02129545056640982
1363.0, 0.02163660830633659
1364.0, 0.013588225838716278
1365.0, 0.030277198728367927
1366.0, 0.01305748962409229
1367.0, 0.020723577750586822
1368.0, 0.02135619067552833
1369.0, 0.025904069436040334
1370.0, 0.02200155644303413
1371.0, 0.022019447433712848
1372.0, 0.011948408378842515
1373.0, 0.009377249544808756
1374.0, 0.01700376738297924
1375.0, 0.020321410183538568
1376.0, 0.019930905752138826
1377.0, 0.01922156848782923
1378.0, 0.0194271910699753
1379.0, 0.025843041321575392
1380.0, 0.022957290405047546
1381.0, 0.02330021106731276
1382.0, 0.029663186892883046
1383.0, 0.006549925813779248
1384.0, 0.018399875286789734
1385.0, 0.019104701932077098
1386.0, 0.008778872562490518
1387.0, 0.019441849964147426
1388.0, 0.019809159057511978
1389.0, 0.012023766929557317
1390.0, 0.008589816803413895
1391.0, 0.00921101172648343
1392.0, 0.012270539635324942
1393.0, 0.011584943784679272
1394.0, 0.01295251375675712
1395.0, 0.012333479637654804
1396.0, 0.0074836056688796756
1397.0, 0.01032132184910338
1398.0, 0.010651883787974072
1399.0, 0.012536411369597301
1400.0, 0.023605532641815245
1401.0, 0.02043538632458739
1402.0, 0.016582716906393704
1403.0, 0.013188555471630914
1404.0, 0.010596679902897338
1405.0, 0.015167339946202115
1406.0, 0.006176717657449473
1407.0, 0.019546046605294073
1408.0, 0.01278480589282502
1409.0, 0.014210423681111554
1410.0, 0.015325352062950172
1411.0, 0.01151443233536638
1412.0, 0.010486678363320618
1413.0, 0.010038564417262951
1414.0, 0.01241021956391349
1415.0, 0.014216046352503694
1416.0, 0.0082505155985183
1417.0, 0.003539135411690693
1418.0, 0.0069826814228148735
1419.0, 0.008253483026740125
1420.0, 0.008188936186030372
1421.0, 0.020400427677790895
1422.0, 0.0029168068817990215
1423.0, 0.010026802237351765
1424.0, 0.006181422722038677
1425.0, 0.01704169440737466
1426.0, 0.002038591455114548
1427.0, 0.016908950451233237
1428.0, 0.013874489482322953
1429.0, 0.007890811556034164
1430.0, 0.01058175581648878
1431.0, 0.004552467350152306
1432.0, 0.008549253202267598
1433.0, 0.01392525884616015
1434.0, 0.008012247416615353
1435.0, 0.0016054093106476
1436.0, 0.0007274290119104537
1437.0, 0.0032686857875644363
1438.0, 0.0041385464265338
1439.0, 0.003880661977656738
1440.0, 0.010843578102854688
1441.0, 0.015398430224663851
1442.0, 0.021580674378350963
1443.0, 0.019677867042269936
1444.0, 0.013240658610035533
1445.0, 0.021470915007016377
1446.0, 0.029167613977903534
1447.0, 0.012895378202984044
1448.0, 0.005651692559986444
1449.0, 0.015736433074091213
1450.0, 0.017128224557506497
1451.0, 0.018328731800342144
1452.0, 0.016589363652147755
1453.0, 0.006075206384548866
1454.0, 0.013891657140160281
1455.0, 0.023800418964217265
1456.0, 0.01876566173558673
1457.0, 0.017926071757237635
1458.0, 0.017059631553050993
1459.0, 0.015239939654270004
1460.0, 0.01755733203620775
1461.0, 0.01672020884131549
1462.0, 0.014289780440757727
1463.0, 0.013517721858585135
1464.0, 0.010178573612800312
1465.0, 0.009230726232165922
1466.0, 0.010609190180608769
1467.0, 0.008005954159034295
1468.0, 0.022795694537517737
1469.0, 0.015802789428815623
1470.0, 0.016715314738055865
1471.0, 0.009764965871269708
1472.0, 0.013925934609537867
1473.0, 0.008887873140035224
1474.0, 0.005547181274566193
1475.0, 0.0070880901053333506
1476.0, 0.018228279173598323
1477.0, 0.01558685205126472
1478.0, 0.015189325409529584
1479.0, 0.009578152781948039
1480.0, 0.008285290394034452
1481.0, 0.01045612068401795
1482.0, 0.007368421445773515
1483.0, 0.014178341941967983
1484.0, 0.014254394579473187
1485.0, 0.008322868227344397
1486.0, 0.011424400752550438
1487.0, 0.009416730922500284
1488.0, 0.007845141890156705
1489.0, 0.01733936718919536
1490.0, 0.01846195804351599
1491.0, 0.008605815771745552
1492.0, 0.013134325692413292
1493.0, 0.003394181815440488
1494.0, 0.013575957724492993
1495.0, 0.009103837156674649
1496.0, 0.019842822023730652
1497.0, 0.021381817759805327
1498.0, 0.009689769685283244
1499.0, 0.017445251642971563
1500.0, 0.009811629924978107
1501.0, 0.0177765050736867
1502.0, 0.020604000076228382
1503.0, 0.008513510536904988
1504.0, 0.014418065354436857
1505.0, 0.009868235659489235
1506.0, 0.01323137655593914
1507.0, 0.011169861225101666
1508.0, 0.010845545633448151
1509.0, 0.011791823524430527
1510.0, 0.018482495127384795
1511.0, 0.01600245790759875
1512.0, 0.015446573317093225
1513.0, 0.01512849639667618
1514.0, 0.015702132195136467
1515.0, 0.017746669491192572
1516.0, 0.009158604067087643
1517.0, 0.008777694171011607
1518.0, 0.007894979097296358
1519.0, 0.014887141784703394
1520.0, 0.014366886641198761
1521.0, 0.0015151802252872902
1522.0, 0.007047826464964576
1523.0, 0.009662916572407924
1524.0, 0.00659183746662403
1525.0, 0.006303416631018321
1526.0, 0.014005815086626683
1527.0, 0.012358388250417164
1528.0, 0.006354489817305645
1529.0, 0.01109836050465167
1530.0, 0.03269545040697851
1531.0, 0.008377716146200117
1532.0, 0.005191719255886967
1533.0, 0.01048503070599439
1534.0, 0.020818256227426116
1535.0, 0.020481826347185775
1536.0, 0.023515007915880282
1537.0, 0.02259526525158118
1538.0, 0.02459590764853495
1539.0, 0.01879404196355662
1540.0, 0.009929832740101566
1541.0, 0.011878123734928343
1542.0, 0.010347721954049371
1543.0, 0.017564699667708183
1544.0, 0.013677505576140376
1545.0, 0.004606509838066479
1546.0, 0.013161001062211264
1547.0, 0.020014305578505566
1548.0, 0.015309334617097017
1549.0, 0.013833027003598047
1550.0, 0.023692142737069998
1551.0, 0.014445866576616704
1552.0, 0.014571162371810643
1553.0, 0.018304172744615453
1554.0, 0.02509102027795569
1555.0, 0.021845529858984778
1556.0, 0.018287049507647167
1557.0, 0.006047529006932559
1558.0, 0.0013457766822296234
1559.0, 0.005449283587891663
1560.0, 0.003976619347296025
1561.0, 0.015239383118967796
1562.0, 0.007633144364007734
1563.0, 0.0035034234434567772
1564.0, 0.020481880840733626
1565.0, 0.01886983367443734
1566.0, 0.00203567562022858
1567.0, 0.012048995554313447
1568.0, 0.007959800776295177
1569.0, 0.00999255640682314
1570.0, 0.0040037871693318116
1571.0, 0.004583467024717741
1572.0, 0.008351272375399644
1573.0, 0.002489492214744614
1574.0, 0.0027445368270813324
1575.0, 0.0012129648562377213
1576, 0.0
1577, 0.0
1578, 0.0
1579, 0.0
1580, 0.0
1581, 0.0
1582, 0.0
1583, 0.0
1584, 0.0
1585, 0.0
1586, 0.0
1587, 0.0
1588, 0.0
1589, 0.0
1590, 0.0
1591, 0.0
1592, 0.0
1593, 0.0
1594, 0.0
1595, 0.0
1596, 0.0
1597, 0.0
1598, 0.0
1599, 0.0
