30, 0.0
31, 0.0
32, 0.0
33, 0.0
34, 0.0
35, 0.0
36, 0.0
37, 0.0
38, 0.0
39, 0.0
40, 0.0
41, 0.0
42, 0.0
43, 0.0
44, 0.0
45, 0.0
46, 0.0
47, 0.0
48, 0.0
49, 0.0
50, 0.0
51, 0.0
52, 0.0
53, 0.0
54, 0.0
55, 0.0
56, 0.0
57, 0.0
58, 0.0
59, 0.0
60, 0.0
61, 0.0
62, 0.0
63, 0.0
64, 0.0
65, 0.0
66, 0.0
67, 0.0
68, 0.0
69, 0.0
70, 0.0
71, 0.0
72, 0.0
73, 0.0
74, 0.0
75, 0.0
76, 0.0
77, 0.0
78, 0.0
79, 0.0
80, 0.0
81, 0.0
82, 0.0
83, 0.0
84, 0.0
85, 0.0
86, 0.0
87, 0.0
88, 0.0
89, 0.0
90, 0.0
91, 0.0
92, 0.0
93, 0.0
94, 0.0
95, 0.0
96, 0.0
97, 0.0
98, 0.0
99, 0.0
100, 0.0
101, 0.0
102, 0.0
103, 0.0
104, 0.0
105, 0.0
106, 0.0
107, 0.0
108, 0.0
109, 0.0
110, 0.0
111, 0.0
112, 0.0
113, 0.0
114, 0.0
115, 0.0
116, 0.0
117, 0.0
118, 0.0
119, 0.0
120, 0.0
121, 0.0
122, 0.0
123, 0.0
124, 0.0
125, 0.0
126, 0.0
127, 0.0
128, 0.0
129, 0.0
130, 0.0
131, 0.0
132, 0.0
133, 0.0
134, 0.0
135, 0.0
136, 0.0
137, 0.0
138, 0.0
139, 0.0
140, 0.0
141, 0.0
142, 0.0
143, 0.0
144, 0.0
145, 0.0
146, 0.0
147, 0.0
148, 0.0
149, 0.0
150, 0.0
151, 0.0
152, 0.0
153, 0.0
154, 0.0
155, 0.0
156, 0.0
157, 0.0
158, 0.0
159.0, 0.0004950601773520906
160.0, 0.00019665414121679254
161.0, 0.0011959457172490014
162.0, 0.0052002071212304555
163.0, 0.00516199781844023
164.0, 0.006917415953731246
165.0, 0.009160211473372636
166.0, 0.008018704353797871
167.0, 0.011662813676247193
168.0, 0.014777527067584619
169.0, 0.015430173370403644
170.0, 0.014226259837968038
171.0, 0.012827282752497152
172.0, 0.01068274876605149
173.0, 0.008085167121805327
174.0, 0.007480304413118183
175.0, 0.00945126724989532
176.0, 0.008019159876494672
177.0, 0.009500827504683184
178.0, 0.012407301646631366
179.0, 0.01487902421563945
180.0, 0.017608990122879108
181.0, 0.019737361307028457
182.0, 0.019460998023629834
183.0, 0.018892841044154157
184.0, 0.020010477461846445
185.0, 0.01997855796287293
186.0, 0.018767862988317806
187.0, 0.019498179538012902
188.0, 0.02279830464918658
189.0, 0.02598458460638585
190.0, 0.025269435833088622
191.0, 0.02420173891799139
192.0, 0.02296657467751355
193.0, 0.02051958460856822
194.0, 0.018671386121569343
195.0, 0.017147443140806032
196.0, 0.015201073288855617
197.0, 0.013322127964653574
198.0, 0.012915212787910595
199.0, 0.013221554992239325
200.0, 0.013569191692165505
201.0, 0.012212358786504025
202.0, 0.010517827862462345
203.0, 0.013159814413983815
204.0, 0.01227130721697034
205.0, 0.012521655579507955
206.0, 0.012223646681152684
207.0, 0.009054073340392337
208.0, 0.005931832738072874
209.0, 0.008177819221110248
210.0, 0.008381898496509244
211.0, 0.005412549615845229
212.0, 0.006653385014230769
213.0, 0.008179264300643137
214.0, 0.008851874074264124
215.0, 0.009029750025776648
216.0, 0.0093629350711864
217.0, 0.010643441654709035
218.0, 0.010135920396051943
219.0, 0.009884915813481212
220.0, 0.009745862057504818
221.0, 0.007968115676753694
222.0, 0.011184484022125747
223.0, 0.01390259086219306
224.0, 0.015089132317373171
225.0, 0.016359973090197356
226.0, 0.01762822971413349
227.0, 0.014086256136219562
228.0, 0.011906504522036308
229.0, 0.013305434256677559
230.0, 0.01647043025381812
231.0, 0.019678333087773482
232.0, 0.01908280840985048
233.0, 0.018735545024882047
234.0, 0.017815151645494152
235.0, 0.013833973435639139
236.0, 0.010864041582591324
237.0, 0.00481806234202553
238.0, 0.00373273753943256
239.0, 0.006388930327620997
240.0, 0.001336480149388662
241.0, 0.002290590464569056
242.0, 0.0022512491400235326
243.0, 0.0003945943760615673
244.0, 0.0009316657118119153
245.0, 0.00045242268048565655
246.0, 0.0027995679875997556
247.0, 0.003288687366332401
248.0, 0.0021180123236193963
249.0, 0.0018870311714142345
250.0, 0.003422610979362129
251.0, 0.00534029286453696
252.0, 0.003599428713199398
253.0, 0.000500443413381737
254.0, 0.00018321031102786707
255.0, 0.0036793058610891634
256.0, 0.0039911290990131704
257.0, 0.003011668200605178
258.0, 0.002462131112707071
259.0, 0.0017060473125911834
260.0, 0.008914330867186387
261.0, 0.010530467029241356
262.0, 0.009650248133788581
263.0, 0.011836734754797577
264.0, 0.01563973413714524
265.0, 0.016096976461426448
266.0, 0.018555770038330935
267.0, 0.020969911304259015
268.0, 0.020963914693940964
269.0, 0.02335581527331936
270.0, 0.0268499987891428
271.0, 0.027792969981930076
272.0, 0.02875718769325821
273.0, 0.0330312902136058
274.0, 0.03500706051247458
275.0, 0.034683908061588144
276.0, 0.033094792206416895
277.0, 0.02983852503534981
278.0, 0.026225254763057423
279.0, 0.0300517460544378
280.0, 0.03237432192889373
281.0, 0.029807076505451776
282.0, 0.02636263013539163
283.0, 0.028236230127930993
284.0, 0.030397174160908355
285.0, 0.030915242094738296
286.0, 0.03349139047495342
287.0, 0.03909560268725493
288.0, 0.04369506757155354
289.0, 0.04625300780116339
290.0, 0.05040045037292029
291.0, 0.05374719198496912
292.0, 0.05578333294336415
293.0, 0.06047824612951058
294.0, 0.06472844199238142
295.0, 0.06958779936181182
296.0, 0.07651557417545383
297.0, 0.08393543208602572
298.0, 0.08897945450206421
299.0, 0.0938643764899161
300.0, 0.10032719833824026
301.0, 0.1041239198274038
302.0, 0.10614392059800233
303.0, 0.11269199213444482
304.0, 0.11879417322421244
305.0, 0.12355754645722135
306.0, 0.12490244751768018
307.0, 0.12199268616151504
308.0, 0.11654665187492026
309.0, 0.11014842886727937
310.0, 0.09833932634071375
311.0, 0.08695147365530385
312.0, 0.07872558962692278
313.0, 0.06522101364061943
314.0, 0.0579364442438939
315.0, 0.05016965729446434
316.0, 0.040316870563850915
317.0, 0.030743846115272137
318.0, 0.02456709421668501
319.0, 0.025641319590546843
320.0, 0.02313960950573057
321.0, 0.01801400364861075
322.0, 0.016367936231859333
323.0, 0.020747839692456443
324.0, 0.020336257088527553
325.0, 0.019636754509945238
326.0, 0.02198497410942235
327.0, 0.02781841348288916
328.0, 0.034369835785576376
329.0, 0.04044146657215976
330.0, 0.040432955037213524
331.0, 0.04311230551298674
332.0, 0.051388026323685394
333.0, 0.053993205338101556
334.0, 0.058792282565873384
335.0, 0.06421703983740405
336.0, 0.06965434827004072
337.0, 0.07491218847597816
338.0, 0.07910969379121613
339.0, 0.08212964301179691
340.0, 0.08268631665694606
341.0, 0.0819498874128247
342.0, 0.07657193454379661
343.0, 0.06438643917268434
344.0, 0.05944685322114992
345.0, 0.04982110557013151
346.0, 0.03975882288645518
347.0, 0.033583101442428494
348.0, 0.030325611151962875
349.0, 0.0249526662793901
350.0, 0.02285643435380258
351.0, 0.017795539062637502
352.0, 0.010726716337779885
353.0, 0.008478371185376664
354.0, 0.015134137033901464
355.0, 0.013175789145625446
356.0, 0.009098267115943859
357.0, 0.00938618122739282
358.0, 0.013663152142775045
359.0, 0.01616442517157372
360.0, 0.016348304416110855
361.0, 0.020031535043986543
362.0, 0.024977351694659457
363.0, 0.028299981590817348
364.0, 0.03125897434711883
365.0, 0.03628224684049073
366.0, 0.04357417382751302
367.0, 0.04820040725414439
368.0, 0.05132538314202965
369.0, 0.06182086516539159
370.0, 0.06981099304779047
371.0, 0.07776376691008904
372.0, 0.08284674086557146
373.0, 0.08544744338746674
374.0, 0.08849746073352198
375.0, 0.08819087018476737
376.0, 0.08170956399638876
377.0, 0.07494411381144336
378.0, 0.06888846134924712
379.0, 0.061349184924761685
380.0, 0.053649516251542455
381.0, 0.04459581367385009
382.0, 0.03578189590251786
383.0, 0.027166863828473782
384.0, 0.02047680895044715
385.0, 0.01934516371563582
386.0, 0.012984051671561638
387.0, 0.010134432722845881
388.0, 0.009140046526059252
389.0, 0.006465873474511567
390.0, 0.003930336562016914
391.0, 0.002892204517222413
392.0, 0.002431223629464409
393.0, 0.0012612453555817624
394.0, 0.00010417260765321646
395.0, 0.0005340673077072819
396.0, 0.0001718936049166166
397.0, 0.0004181159189540235
398.0, 0.00041322349974095765
399.0, 0.001447272415550897
400.0, 0.0008638077251510828
401.0, 0.0012899934941923601
402.0, 0.0007788308469440955
403.0, 0.0008478476932881362
404.0, 0.0011513618168235722
405.0, 0.001842846763293895
406.0, 0.0034162897796953615
407.0, 0.0032545582149923415
408.0, 0.0007832125388046301
409.0, 0.002524402378655394
410.0, 0.001006722433038212
411.0, 0.0030763561370602942
412.0, 0.002486246806932614
413.0, 0.0007481736933221362
414.0, 5.964990497240502e-05
415.0, 0.001542966523881833
416.0, 0.0030995879262124444
417.0, 0.002193940460794465
418.0, 0.0038616753793532677
419.0, 0.006536839599535707
420.0, 0.004016833813248928
421.0, 0.0016779432592212476
422.0, 0.0028402785065268677
423.0, 0.0009254909507688411
424.0, 0.003085745997817764
425.0, 0.004469988331514099
426.0, 0.004758797425972235
427.0, 0.006244596266969391
428.0, 0.006968104409554353
429.0, 0.009076993937449408
430.0, 0.009242072099305927
431.0, 0.010936758049330532
432.0, 0.013488326137402888
433.0, 0.01427698847979854
434.0, 0.014580978126470018
435.0, 0.016011090716767117
436.0, 0.015302022699643657
437.0, 0.01584403683283261
438.0, 0.016545161217489262
439.0, 0.01349153216436374
440.0, 0.01414958358924733
441.0, 0.01571810569121194
442.0, 0.013892447032563721
443.0, 0.011042056412984674
444.0, 0.010270068601949268
445.0, 0.009793989503282191
446.0, 0.009403235188792915
447.0, 0.007606303609926535
448.0, 0.0049810531589169075
449.0, 0.004276800929495715
450.0, 0.006186174490891819
451.0, 0.003980131743912351
452.0, 0.0012644472094058385
453.0, 0.0027017547642117492
454.0, 0.005029726236929686
455.0, 0.005386318840962154
456.0, 0.005372732789830444
457.0, 0.002189806363272169
458.0, 0.0026366958477658194
459.0, 0.003413004686343982
460.0, 0.002603921122596435
461.0, 0.0018416819920908118
462.0, 0.005173351042679782
463.0, 0.003027103471318304
464.0, 0.003330104148474784
465.0, 0.0036397933656003413
466.0, 0.002377873416675327
467.0, 0.0026007779484064574
468.0, 0.006963835371553896
469.0, 0.005050774760255405
470.0, 0.0015979042935381224
471.0, 0.002338371068824439
472.0, 0.00565423039550068
473.0, 0.003097068006982673
474.0, 0.0034513556550269026
475.0, 0.0013543608913686293
476.0, 0.0013678745324059167
477.0, 0.003938592332342532
478.0, 0.004851555720276083
479.0, 0.002299642449373546
480.0, 0.004343767232952842
481.0, 0.006940409756119319
482.0, 0.007989367705087073
483.0, 0.008591927529185727
484.0, 0.009507788522202198
485.0, 0.006831889778215344
486.0, 0.011275563174853467
487.0, 0.01611422721675044
488.0, 0.01939103270548959
489.0, 0.022647631458204084
490.0, 0.026969872907033232
491.0, 0.028138621544790497
492.0, 0.028587719173605593
493.0, 0.030266597177359158
494.0, 0.0341434036716199
495.0, 0.036020029137303046
496.0, 0.03168137223702006
497.0, 0.027053380477876546
498.0, 0.02147865546921234
499.0, 0.021143031127884418
500.0, 0.02058786708569012
501.0, 0.01605945019055706
502.0, 0.011990422132539138
503.0, 0.009930837739800623
504.0, 0.006403916250467062
505.0, 0.005447362260207079
506.0, 0.005085348573906142
507.0, 0.00268125336119264
508.0, 0.00020168380798368495
509.0, 0.0034563829961516187
510.0, 0.002851986657530057
511.0, 0.0014129878694037995
512.0, 0.00040097202544468296
513.0, 0.0012744313707857594
514.0, 0.0053780720415745435
515.0, 0.0002959819883186747
516.0, 0.0019129293705098553
517.0, 0.0043092503651060345
518.0, 0.0019167763802389172
519.0, 0.0011271073745590084
520.0, 0.0004203013484820265
521.0, 0.0011757494342403707
522.0, 0.0028500521000335206
523.0, 0.002867163551333284
524.0, 0.00201998496630032
525.0, 0.0015130176735668806
526.0, 0.0013178075936888449
527.0, 0.0027983270532071485
528.0, 0.006333473821902029
529.0, 0.005218418234471054
530.0, 0.002940032931772795
531.0, 0.0038015567870159426
532.0, 0.005803238569592359
533.0, 0.004048984319412273
534.0, 0.006760383800067232
535.0, 0.006340671911545666
536.0, 0.007206549206939806
537.0, 0.011000483142466889
538.0, 0.013373219345916601
539.0, 0.015651153901750432
540.0, 0.023538161135755544
541.0, 0.022868513005212653
542.0, 0.023958336571258232
543.0, 0.03086226259791356
544.0, 0.03692361438940526
545.0, 0.039589596145599044
546.0, 0.04381024153217573
547.0, 0.053766596902883775
548.0, 0.06163027639263084
549.0, 0.0656521639475729
550.0, 0.06958809606727184
551.0, 0.07446673167933716
552.0, 0.07729669970227376
553.0, 0.07409738761837836
554.0, 0.06852220544146748
555.0, 0.061286756308192684
556.0, 0.05083300529531378
557.0, 0.03874027181382572
558.0, 0.03343298746076283
559.0, 0.02509305416794255
560.0, 0.01810292657891007
561.0, 0.014618811682798986
562.0, 0.012075909218916814
563.0, 0.009271852895938652
564.0, 0.008706392713716472
565.0, 0.007624849958463918
566.0, 0.005166763444412577
567.0, 0.006463915982354666
568.0, 0.0070422752985022895
569.0, 0.002260453999173043
570.0, 0.0016691407496826943
571.0, 0.0029889639481334913
572.0, 0.0010052310991528353
573.0, 0.0013251139967201282
574.0, 0.0020372288831604145
575.0, 0.0012001448509596083
576.0, 0.0028399821527990707
577.0, 0.003184595107712692
578.0, 0.0007011935013959271
579.0, 0.0037652382779659096
580.0, 0.0022042169333863944
581.0, 0.0019374103489385522
582.0, 0.0008188640427535061
583.0, 0.0022908516993692136
584.0, 0.0010184721292629943
585.0, 0.0019893394957266313
586.0, 0.0005567634767652259
587.0, 0.0004926897751798447
588.0, 0.001973070294859779
589.0, 0.0031776573823823913
590.0, 0.004435401828468124
591.0, 0.0005914307093779332
592.0, 0.0004205085027298367
593.0, 0.0014701490457132032
594.0, 0.003344732798124156
595.0, 0.005259940425551552
596.0, 0.0024898981702244378
597.0, 0.000932855892584648
598.0, 0.0017893592141197071
599.0, 0.0030297508491288648
600.0, 0.004523650639969167
601.0, 0.0061306220971124765
602.0, 0.005458086624045947
603.0, 0.006106504123351125
604.0, 0.00606336576381609
605.0, 0.005221091696975907
606.0, 0.004785592164847549
607.0, 0.004776175167874842
608.0, 0.004711493958484681
609.0, 0.006564489399438319
610.0, 0.005869082476661
611.0, 0.0072271382128775595
612.0, 0.006559148589569213
613.0, 0.007527764120189779
614.0, 0.010581622445153756
615.0, 0.00971161240999383
616.0, 0.011989486887123306
617.0, 0.013881801199146442
618.0, 0.014543554140181538
619.0, 0.01360504661590152
620.0, 0.014641928752688936
621.0, 0.01873484597868174
622.0, 0.020156064998785264
623.0, 0.01947117059836708
624.0, 0.019952069931864092
625.0, 0.02275266139321662
626.0, 0.025140420702823883
627.0, 0.02675592116931469
628.0, 0.029087193177431026
629.0, 0.02996461038228202
630.0, 0.03195500032665432
631.0, 0.034800437566308295
632.0, 0.039557350736020215
633.0, 0.04285745816979841
634.0, 0.04457756135141727
635.0, 0.04919622959490646
636.0, 0.05613263563621809
637.0, 0.060512952657925785
638.0, 0.06597079774433791
639.0, 0.07471131103859702
640.0, 0.08396671019611349
641.0, 0.09371331783764943
642.0, 0.10813100679985921
643.0, 0.121810784668245
644.0, 0.13945553821489495
645.0, 0.16109890088698428
646.0, 0.18527807266113971
647.0, 0.21413456836328276
648.0, 0.24783352764780797
649.0, 0.28226736060019536
650.0, 0.32730349112080737
651.0, 0.367461007190543
652.0, 0.41101632849533176
653.0, 0.4565650619379732
654.0, 0.5046480692927783
655.0, 0.5537224642412163
656.0, 0.5970530619815044
657.0, 0.6325572411669059
658.0, 0.6467688862299823
659.0, 0.6426665670948013
660.0, 0.616722328646889
661.0, 0.5718187318323791
662.0, 0.5136023441301665
663.0, 0.44555952642587915
664.0, 0.3763710390696524
665.0, 0.3128493880622552
666.0, 0.2587916309882254
667.0, 0.21209216039374973
668.0, 0.17395277614845692
669.0, 0.1433282998182203
670.0, 0.11595088442453344
671.0, 0.09581796139334933
672.0, 0.08159432482393932
673.0, 0.07264234515984164
674.0, 0.06435959703883257
675.0, 0.05325609611162329
676.0, 0.042386543623007665
677.0, 0.03841246808404152
678.0, 0.03428563227021603
679.0, 0.03013386658821496
680.0, 0.0263885714214113
681.0, 0.021298907839456958
682.0, 0.019380035343787256
683.0, 0.0190359026238228
684.0, 0.014477260436522258
685.0, 0.010909555844528717
686.0, 0.012137190432442397
687.0, 0.005387011161724048
688.0, 0.005446174121380758
689.0, 0.00924472472092224
690.0, 0.009523446566000696
691.0, 0.006893356404494391
692.0, 0.006583024799603736
693.0, 0.0072246972822500866
694.0, 0.006008157949696277
695.0, 0.00605647476207185
696.0, 0.0033305508312361275
697.0, 0.0022786979606869338
698.0, 0.003972231050759984
699.0, 0.002988042280624216
700.0, 0.003924855806733814
701.0, 0.003803775954933214
702.0, 0.0022601199991325116
703.0, 0.00276612148697997
704.0, 0.005786014114143393
705.0, 0.004830834001183155
706.0, 0.0012945613970225494
707.0, 0.0012441453452651918
708.0, 0.0001597942733466708
709.0, 0.001749051788083521
710.0, 0.0010251663860360413
711.0, 0.0007117385616729893
712.0, 0.0009605865430015131
713.0, 0.00038872862766616245
714.0, 0.002287697925227605
715.0, 0.0016384685842820608
716.0, 0.0033114101158085527
717.0, 0.001766527301641108
718.0, 0.001482839840554319
719.0, 0.0008774176770183808
720.0, 0.0005999205689987264
721.0, 0.002038516733513449
722.0, 0.0038495390260577934
723.0, 0.005011430246853001
724.0, 0.0029889313335553407
725.0, 0.0029045521724237
726.0, 0.0021461134049011337
727.0, 0.0015845611988001315
728.0, 0.0027422317478072566
729.0, 0.0033727966739449528
730.0, 0.001720807885024242
731.0, 0.0021078889177873527
732.0, 0.0014065685083698583
733.0, 0.00115643927699864
734.0, 0.0007995971791706375
735.0, 0.0007212599227995402
736.0, 0.0007281776749315401
737.0, 0.0012367345664092886
738.0, 0.0021880808219261966
739.0, 0.0004986082625430221
740.0, 0.003649445110711557
741.0, 0.005137062969529409
742.0, 0.0033545949411687365
743.0, 0.0023405665175924633
744.0, 0.0030345195445208788
745.0, 0.0013959004737199136
746.0, 0.004891117393499577
747.0, 0.007761091683521422
748.0, 0.00504473019734607
749.0, 0.004069420581636621
750.0, 0.005382382940695872
751.0, 0.00438534255754726
752.0, 0.002461670820682357
753.0, 0.00540829854033957
754.0, 0.0072125810334188415
755.0, 0.005496743430444127
756.0, 0.001722232039264968
757.0, 0.00033806948375115456
758.0, 0.0012425899921203196
759.0, 0.002781070544703615
760.0, 0.0037665020619757814
761.0, 0.004496222183896389
762.0, 0.005490467729767849
763.0, 0.005564732251967238
764.0, 0.0024969792228464274
765.0, 0.003649604571927292
766.0, 0.003237131530902577
767.0, 0.00231662651202642
768.0, 0.004074999200784027
769.0, 0.003455274074914768
770.0, 0.004627870582237286
771.0, 0.0018624526685955796
772.0, 0.0015217912440806374
773.0, 0.005480773917027784
774.0, 0.004285208748451282
775.0, 0.00249406563550695
776.0, 0.0035581387800368946
777.0, 0.005756268153339408
778.0, 0.006407941140287647
779.0, 0.0010234591859777887
780.0, 0.005371530868865833
781.0, 0.006103773148520307
782.0, 0.0024596461315530235
783.0, 0.0029832987517452634
784.0, 0.005596422617526112
785.0, 0.004697000158995065
786.0, 0.005813621263089901
787.0, 0.004357004334489357
788.0, 0.0030510201620920726
789.0, 0.002516874756048616
790.0, 0.0029239104895965656
791.0, 0.00341533212549469
792.0, 0.0032868434274891567
793.0, 0.0030004152824339185
794.0, 0.003921024562762015
795.0, 0.005962938119232276
796.0, 0.006049100373195208
797.0, 0.0025186265855321197
798.0, 0.0008424386242070453
799.0, 0.0028198554360253166
800.0, 0.006051417917499821
801.0, 0.005592708421789177
802.0, 0.0019315567745164422
803.0, 0.0026489554957473288
804.0, 0.004430005373876671
805.0, 0.0015891432211844513
806.0, 0.002077641613167295
807.0, 0.002093296056972917
808.0, 0.001584211347278708
809.0, 0.001732857193499841
810.0, 0.001932270011525145
811.0, 0.0018476704093751965
812.0, 0.0014479142844846986
813.0, 0.00248383824392743
814.0, 0.0007662551857365641
815.0, 0.0005529818841706563
816.0, 0.00029788335986268233
817.0, 0.0030040443427036675
818.0, 0.004084914846454176
819.0, 0.0010491506343070843
820.0, 0.0010538230925460346
821.0, 0.00047013564817013274
822.0, 0.002931397563669309
823.0, 0.0014628681317024458
824.0, 0.0012821925789937235
825.0, 0.0022671379292800845
826.0, 0.0031280141593474898
827.0, 0.0038268689347558025
828.0, 0.004180582214946316
829.0, 0.002349270516033095
830.0, 0.0010572003004353599
831.0, 0.000638509951161609
832.0, 0.0005624757890157222
833.0, 0.001496672190065762
834.0, 0.0008716671505072491
835.0, 0.0037703662046882237
836.0, 0.00482764227181479
837.0, 0.0033352024652231857
838.0, 0.0014105019611612174
839.0, 0.0011123559597400392
840.0, 0.002686818971042492
841.0, 0.005471891643012448
842.0, 0.0037188964432596544
843.0, 0.003413747635319843
844.0, 0.00631192452678048
845.0, 0.006602958647513722
846.0, 0.005789199679831195
847.0, 0.00938149626139194
848.0, 0.010848127495411876
849.0, 0.010184468216513339
850.0, 0.011673572847989836
851.0, 0.010787756334589456
852.0, 0.008368312689212364
853.0, 0.0056913412681725145
854.0, 0.005706385545387212
855.0, 0.0065758647625053426
856.0, 0.00570346385974166
857.0, 0.005116317428181063
858.0, 0.0017956606224276402
859.0, 0.00547429249098629
860.0, 0.0029066965395218155
861.0, 0.004065485889220452
862.0, 0.004046460990543135
863.0, 0.0030562620613639206
864.0, 0.003856831317676965
865.0, 0.004288379120951208
866.0, 0.00270906473765357
867.0, 0.0029959960005995316
868.0, 0.0030926375817257956
869.0, 0.0033579196142705043
870.0, 0.0015440733238743056
871.0, 0.0035508374613729605
872.0, 0.0033509753656536406
873.0, 0.004565160708588973
874.0, 0.00638782131747114
875.0, 0.003630395645610767
876.0, 0.0018871993701100429
877.0, 0.0007705705490679752
878.0, 0.002358970336481083
879.0, 0.005915050444870014
880.0, 0.002998971888535276
881.0, 0.003331686030708369
882.0, 0.004163731309353596
883.0, 0.006143534581924227
884.0, 0.008514249959465574
885.0, 0.0062629608124985464
886.0, 0.006379092604715264
887.0, 0.004592110259076136
888.0, 0.004871376259113368
889.0, 0.00302274209583921
890.0, 0.0025331312056318905
891.0, 0.006096152322020625
892.0, 0.007163091310481518
893.0, 0.007622855979399662
894.0, 0.010422873884049428
895.0, 0.011285840860882093
896.0, 0.008484953666130127
897.0, 0.008491990015509132
898.0, 0.007035136117388538
899.0, 0.008569105532758397
900.0, 0.010254289158596086
901.0, 0.009562572137154515
902.0, 0.012195590127350777
903.0, 0.012677265915020344
904.0, 0.011075837759040738
905.0, 0.012552766733206556
906.0, 0.01039791366100605
907.0, 0.009516895331266187
908.0, 0.015611571789216364
909.0, 0.011662832816245956
910.0, 0.009256835658695702
911.0, 0.008609144951200836
912.0, 0.009735574579751318
913.0, 0.011450911206437533
914.0, 0.010369663304118528
915.0, 0.0067558640334234935
916.0, 0.005013918553271853
917.0, 0.008287748250208357
918.0, 0.01060059298599445
919.0, 0.008155947886710431
920.0, 0.003741101945830239
921.0, 0.004273544131185646
922.0, 0.003044654882852882
923.0, 0.001417539136131679
924.0, 0.0007292298775100632
925.0, 0.001634581456086514
926.0, 0.0019270031979063372
927.0, 0.0006027566786592068
928.0, 0.00024105687777553627
929.0, 0.0014675724626019462
930.0, 0.0003661395577796078
931.0, 0.0011823430982929883
932.0, 0.0005719046082111272
933.0, 0.0010398332322221935
934.0, 0.0008485347281015348
935.0, 0.002311849937658684
936.0, 0.001958139901620113
937.0, 0.0012143429700651057
938.0, 0.0009061848919701837
939.0, 0.0015653941341718573
940.0, 0.0008475005748830931
941.0, 0.003011406619677642
942.0, 0.0018227368252956772
943.0, 0.003021745556914772
944.0, 0.00032144681544932815
945.0, 0.0006895931510453445
946.0, 0.0010746224903736563
947.0, 0.001405547583470948
948.0, 0.003194392411910667
949.0, 0.00035754452499978096
950.0, 0.002808475691566599
951.0, 0.0039021994325874557
952.0, 0.002986916273232544
953.0, 0.0023308601782310303
954.0, 0.005674688014799773
955.0, 0.005460069084850104
956.0, 0.004954191574359897
957.0, 0.005789453241607896
958.0, 0.0068614600092116685
959.0, 0.006735063002389379
960.0, 0.004889305405996772
961.0, 0.005019760951408537
962.0, 0.0058799195496262524
963.0, 0.008667418458716485
964.0, 0.011385070690584755
965.0, 0.010901892083969517
966.0, 0.00974907034511974
967.0, 0.008454077126719323
968.0, 0.007674853681433949
969.0, 0.007792542928731397
970.0, 0.009136622059274792
971.0, 0.010197346496556162
972.0, 0.009690254277303457
973.0, 0.010252275528721069
974.0, 0.012357994344554953
975.0, 0.012753972909907804
976.0, 0.01638283640312713
977.0, 0.012209947729034935
978.0, 0.01317082633596827
979.0, 0.017895812460445287
980.0, 0.016947833673477592
981.0, 0.01851753167810261
982.0, 0.01951328563680728
983.0, 0.019639817277635297
984.0, 0.024884445740198192
985.0, 0.02556432739731956
986.0, 0.03065979255654135
987.0, 0.03406304764778132
988.0, 0.040104550217244773
989.0, 0.04062604679426343
990.0, 0.047916848402993754
991.0, 0.053395535644582305
992.0, 0.05928263705543294
993.0, 0.06625927765147903
994.0, 0.07408918254250718
995.0, 0.08668967476961664
996.0, 0.10137972404811699
997.0, 0.11502216130536862
998.0, 0.13573133105664123
999.0, 0.16013729094253665
1000.0, 0.18847452714133078
1001.0, 0.22986175802225925
1002.0, 0.2834384424969692
1003.0, 0.3427662363773935
1004.0, 0.40553633308239223
1005.0, 0.4859219311304484
1006.0, 0.5714584683731884
1007.0, 0.6633518752778117
1008.0, 0.7666739598730355
1009.0, 0.8679683341879649
1010.0, 0.9516356799107347
1011.0, 0.9956836674885065
1012.0, 0.9900417999808298
1013.0, 0.9273059132131181
1014.0, 0.821048337308153
1015.0, 0.6904450903992198
1016.0, 0.5620054292108855
1017.0, 0.44660495589818144
1018.0, 0.35197563951471084
1019.0, 0.27967555428853225
1020.0, 0.2276287487077648
1021.0, 0.1892465635815084
1022.0, 0.16169750119018653
1023.0, 0.14576048530058994
1024.0, 0.1318887704690271
1025.0, 0.11640657758984695
1026.0, 0.11221958696121341
1027.0, 0.1110955370293888
1028.0, 0.10878275391134148
1029.0, 0.11029912017305382
1030.0, 0.10155316251922329
1031.0, 0.09641277588674241
1032.0, 0.0911136889133977
1033.0, 0.08333074990491023
1034.0, 0.07754356242316707
1035.0, 0.07266902369340003
1036.0, 0.06468843862298042
1037.0, 0.05464395289094573
1038.0, 0.04802841718030228
1039.0, 0.04465016670442448
1040.0, 0.040002750438020325
1041.0, 0.03405965534955218
1042.0, 0.02939817284732407
1043.0, 0.025456518122315478
1044.0, 0.019598024653232553
1045.0, 0.01633026881245003
1046.0, 0.014673460395902439
1047.0, 0.014116030335690137
1048.0, 0.013780524289882941
1049.0, 0.01104811067803225
1050.0, 0.008652964356598743
1051.0, 0.008714030827891775
1052.0, 0.006486839402295774
1053.0, 0.006028911583596332
1054.0, 0.0032058795648356162
1055.0, 0.0033534155895424307
1056.0, 0.002297764469447225
1057.0, 0.0028182760026360526
1058.0, 0.00174789613610804
1059.0, 0.0022786506439960172
1060.0, 0.0025775933461395506
1061.0, 0.002041375350571045
1062.0, 0.0003738658553410114
1063.0, 0.00018905326740788794
1064.0, 0.0020459976437804915
1065.0, 0.0029881685853395934
1066.0, 0.0023369861514050336
1067.0, 0.0009573253684075017
1068.0, 0.002445101094549668
1069.0, 0.004210099447963505
1070.0, 0.0012880787938489627
1071.0, 0.0009678306185359962
1072.0, 0.000289160673023583
1073.0, 0.00021679586841939666
1074.0, 0.0010923038919513077
1075.0, 0.0008734809339147973
1076.0, 0.0014343185784393326
1077.0, 0.0007994506432434646
1078.0, 0.001455169326706262
1079.0, 0.0003542843291480432
1080.0, 0.001812901193192631
1081.0, 0.00047452886528558265
1082.0, 0.0005813459325343893
1083.0, 0.0024815518173608277
1084.0, 0.00028511379698473453
1085.0, 0.0006030751272516495
1086.0, 0.001915257151263688
1087.0, 0.0005104294945419873
1088.0, 0.0009141727883194857
1089.0, 0.00034988139945689857
1090.0, 0.001716575089324561
1091.0, 0.001385209521092105
1092.0, 0.00036392864562593554
1093.0, 0.001891497555830985
1094.0, 0.0006282146775535905
1095.0, 0.0008185101264044382
1096.0, 0.004469251191154628
1097.0, 0.0025110774795711905
1098.0, 0.0003929054739749934
1099.0, 0.0015527671486781284
1100.0, 0.0002486667122837814
1101.0, 0.00031024633199108737
1102.0, 0.0013986453024952203
1103.0, 0.001110340263876841
1104.0, 0.0061410464679420825
1105.0, 0.0037578698295382467
1106.0, 0.0031207258898217657
1107.0, 0.004887119826555408
1108.0, 0.002011973581219395
1109.0, 0.0029099947122434066
1110.0, 0.004687608217586973
1111.0, 0.005542663276425449
1112.0, 0.0038227193472463988
1113.0, 0.0011990334235972696
1114.0, 0.0015907111762635412
1115.0, 0.0016970201224858659
1116.0, 0.0006931266983462249
1117.0, 0.00031666530710842267
1118.0, 0.0035070779756915717
1119.0, 0.0015434467235235843
1120.0, 0.00019087306807154258
1121.0, 0.0005208852009659753
1122.0, 0.0017745572973593268
1123.0, 0.0025343687532216
1124.0, 0.0038816647368123637
1125.0, 0.0021405719163817213
1126.0, 0.0030850637775026277
1127.0, 0.002009851170678207
1128.0, 0.002135015017637429
1129.0, 0.003207910718476646
1130.0, 0.0039042106848646324
1131.0, 0.004402054109929344
1132.0, 0.004501166064971982
1133.0, 0.0034682994469126113
1134.0, 0.0033538192538447083
1135.0, 0.004886043780458099
1136.0, 0.0034329450750167634
1137.0, 0.003708500212422253
1138.0, 0.0029278474282853806
1139.0, 0.0054948770167033405
1140.0, 0.0009666213314223178
1141.0, 0.0043956284538347965
1142.0, 0.005107578900077627
1143.0, 0.004323307376195723
1144.0, 0.004619634502528912
1145.0, 0.004686796318606668
1146.0, 0.0048967127381354435
1147.0, 0.0066310026068972785
1148.0, 0.005718796205550409
1149.0, 0.004826456336586989
1150.0, 0.0043602669729574306
1151.0, 0.0016873359741978254
1152.0, 0.0009288784521851156
1153.0, 0.0016048274819538046
1154.0, 0.0019784826683264187
1155.0, 0.0030457143585242183
1156.0, 0.000491026360969121
1157.0, 0.0013753252782215315
1158.0, 0.007849129492701303
1159.0, 0.0021795450719689635
1160.0, 0.0032045355192995444
1161.0, 0.0026750023954755955
1162.0, 0.00324133965995567
1163.0, 0.002659150285622961
1164.0, 0.0012762999973221947
1165.0, 0.0035553059339129256
1166.0, 0.0034839457577753637
1167.0, 0.0014817397884418222
1168.0, 0.004239777940704978
1169.0, 0.0041834741605554305
1170.0, 0.003995278363834805
1171.0, 0.006183030642159271
1172.0, 0.005477291067021718
1173.0, 0.004459917178673666
1174.0, 0.002252972348876622
1175.0, 0.0016060448572899105
1176.0, 0.004801612509646909
1177.0, 0.004162607646341524
1178.0, 0.002725298369537775
1179.0, 0.004067000577860619
1180.0, 0.004233376372453679
1181.0, 0.0016323351016583744
1182.0, 0.004321102007650811
1183.0, 0.0063449977177623415
1184.0, 0.006575205780247275
1185.0, 0.0029449873686970187
1186.0, 0.000866063440339308
1187.0, 0.0021686112431429914
1188.0, 0.0033510159356414317
1189.0, 0.0016181365622086029
1190.0, 0.0018517853497240842
1191.0, 0.0025931532139569224
1192.0, 0.0006326524712718948
1193.0, 0.0005585591403579369
1194.0, 0.001890256400504536
1195.0, 0.0039897355496906605
1196.0, 0.002444498337355585
1197.0, 0.0016582474021082964
1198.0, 0.0021791155938462427
1199.0, 0.0017796118777010962
1200.0, 0.00017335610318597766
1201.0, 0.0019286846630711585
1202.0, 0.004342456070625944
1203.0, 0.0013793221971399648
1204.0, 0.0030532281500529924
1205.0, 0.005575981028799109
1206.0, 0.0036266778506560586
1207.0, 0.004493106698461875
1208.0, 0.004894772160929
1209.0, 0.003712913945533651
1210.0, 0.002982943582577404
1211.0, 0.0032933262605779608
1212.0, 0.003858164435437851
1213.0, 0.005057875826264954
1214.0, 0.002488836006780597
1215.0, 0.003942602243021832
1216.0, 0.006583896367585772
1217.0, 0.0031872076958057508
1218.0, 0.003337959775678596
1219.0, 0.0009040014921834779
1220.0, 0.005534800667195552
1221.0, 0.007611524331592035
1222.0, 0.006069432046825826
1223.0, 0.005352590852240938
1224.0, 0.002249906233004302
1225.0, 0.002977569296038382
1226.0, 0.0013388458963318724
1227.0, 0.0019046410543443117
1228.0, 0.003426213397666849
1229.0, 0.0027691479501948876
1230.0, 0.0034636656465710097
1231.0, 0.002278108331190406
1232.0, 0.002039415321476936
1233.0, 0.002917031539258564
1234.0, 0.002794287824423015
1235.0, 0.0030880799889560096
1236.0, 8.101146042803264e-05
1237.0, 0.0022403032434037324
1238.0, 0.004398508678162431
1239.0, 0.0025878086716095874
1240.0, 0.002006786247436761
1241.0, 0.00022915862739449934
1242.0, 0.0054484970380434174
1243, 0.0
1244, 0.0
1245, 0.0
1246, 0.0
1247, 0.0
1248, 0.0
1249, 0.0
1250, 0.0
1251, 0.0
1252, 0.0
1253, 0.0
1254, 0.0
1255, 0.0
1256, 0.0
1257, 0.0
1258, 0.0
1259, 0.0
1260, 0.0
1261, 0.0
1262, 0.0
1263, 0.0
1264, 0.0
1265, 0.0
1266, 0.0
1267, 0.0
1268, 0.0
1269, 0.0
1270, 0.0
1271, 0.0
1272, 0.0
1273, 0.0
1274, 0.0
1275, 0.0
1276, 0.0
1277, 0.0
1278, 0.0
1279, 0.0
1280, 0.0
1281, 0.0
1282, 0.0
1283, 0.0
1284, 0.0
1285, 0.0
1286, 0.0
1287, 0.0
1288, 0.0
1289, 0.0
1290, 0.0
1291, 0.0
1292, 0.0
1293, 0.0
1294, 0.0
1295, 0.0
1296, 0.0
1297, 0.0
1298, 0.0
1299, 0.0
1300, 0.0
1301, 0.0
1302, 0.0
1303, 0.0
1304, 0.0
1305, 0.0
1306, 0.0
1307, 0.0
1308, 0.0
1309, 0.0
1310, 0.0
1311, 0.0
1312, 0.0
1313, 0.0
1314, 0.0
1315, 0.0
1316, 0.0
1317, 0.0
1318, 0.0
1319, 0.0
1320, 0.0
1321, 0.0
1322, 0.0
1323, 0.0
1324, 0.0
1325, 0.0
1326, 0.0
1327, 0.0
1328, 0.0
1329, 0.0
1330, 0.0
1331, 0.0
1332, 0.0
1333, 0.0
1334, 0.0
1335, 0.0
1336, 0.0
1337, 0.0
1338, 0.0
1339, 0.0
1340, 0.0
1341, 0.0
1342, 0.0
1343, 0.0
1344, 0.0
1345, 0.0
1346, 0.0
1347, 0.0
1348, 0.0
1349, 0.0
1350, 0.0
1351, 0.0
1352, 0.0
1353, 0.0
1354, 0.0
1355, 0.0
1356, 0.0
1357, 0.0
1358, 0.0
1359, 0.0
1360, 0.0
1361, 0.0
1362, 0.0
1363, 0.0
1364, 0.0
1365, 0.0
1366, 0.0
1367, 0.0
1368, 0.0
1369, 0.0
1370, 0.0
1371, 0.0
1372, 0.0
1373, 0.0
1374, 0.0
1375, 0.0
1376, 0.0
1377, 0.0
1378, 0.0
1379, 0.0
1380, 0.0
1381, 0.0
1382, 0.0
1383, 0.0
1384, 0.0
1385, 0.0
1386, 0.0
1387, 0.0
1388, 0.0
1389, 0.0
1390, 0.0
1391, 0.0
1392, 0.0
1393, 0.0
1394, 0.0
1395, 0.0
1396, 0.0
1397, 0.0
1398, 0.0
1399, 0.0
1400, 0.0
1401, 0.0
1402, 0.0
1403, 0.0
1404, 0.0
1405, 0.0
1406, 0.0
1407, 0.0
1408, 0.0
1409, 0.0
1410, 0.0
1411, 0.0
1412, 0.0
1413, 0.0
1414, 0.0
1415, 0.0
1416, 0.0
1417, 0.0
1418, 0.0
1419, 0.0
1420, 0.0
1421, 0.0
1422, 0.0
1423, 0.0
1424, 0.0
1425, 0.0
1426, 0.0
1427, 0.0
1428, 0.0
1429, 0.0
1430, 0.0
1431, 0.0
1432, 0.0
1433, 0.0
1434, 0.0
1435, 0.0
1436, 0.0
1437, 0.0
1438, 0.0
1439, 0.0
1440, 0.0
1441, 0.0
1442, 0.0
1443, 0.0
1444, 0.0
1445, 0.0
1446, 0.0
1447, 0.0
1448, 0.0
1449, 0.0
1450, 0.0
1451, 0.0
1452, 0.0
1453, 0.0
1454, 0.0
1455, 0.0
1456, 0.0
1457, 0.0
1458, 0.0
1459, 0.0
1460, 0.0
1461, 0.0
1462, 0.0
1463, 0.0
1464, 0.0
1465, 0.0
1466, 0.0
1467, 0.0
1468, 0.0
1469, 0.0
1470, 0.0
1471, 0.0
1472, 0.0
1473, 0.0
1474, 0.0
1475, 0.0
1476, 0.0
1477, 0.0
1478, 0.0
1479, 0.0
1480, 0.0
1481, 0.0
1482, 0.0
1483, 0.0
1484, 0.0
1485, 0.0
1486, 0.0
1487, 0.0
1488, 0.0
1489, 0.0
1490, 0.0
1491, 0.0
1492, 0.0
1493, 0.0
1494, 0.0
1495, 0.0
1496, 0.0
1497, 0.0
1498, 0.0
1499, 0.0
1500, 0.0
1501, 0.0
1502, 0.0
1503, 0.0
1504, 0.0
1505, 0.0
1506, 0.0
1507, 0.0
1508, 0.0
1509, 0.0
1510, 0.0
1511, 0.0
1512, 0.0
1513, 0.0
1514, 0.0
1515, 0.0
1516, 0.0
1517, 0.0
1518, 0.0
1519, 0.0
1520, 0.0
1521, 0.0
1522, 0.0
1523, 0.0
1524, 0.0
1525, 0.0
1526, 0.0
1527, 0.0
1528, 0.0
1529, 0.0
1530, 0.0
1531, 0.0
1532, 0.0
1533, 0.0
1534, 0.0
1535, 0.0
1536, 0.0
1537, 0.0
1538, 0.0
1539, 0.0
1540, 0.0
1541, 0.0
1542, 0.0
1543, 0.0
1544, 0.0
1545, 0.0
1546, 0.0
1547, 0.0
1548, 0.0
1549, 0.0
1550, 0.0
1551, 0.0
1552, 0.0
1553, 0.0
1554, 0.0
1555, 0.0
1556, 0.0
1557, 0.0
1558, 0.0
1559, 0.0
1560, 0.0
1561, 0.0
1562, 0.0
1563, 0.0
1564, 0.0
1565, 0.0
1566, 0.0
1567, 0.0
1568, 0.0
1569, 0.0
1570, 0.0
1571, 0.0
1572, 0.0
1573, 0.0
1574, 0.0
1575, 0.0
1576, 0.0
1577, 0.0
1578, 0.0
1579, 0.0
1580, 0.0
1581, 0.0
1582, 0.0
1583, 0.0
1584, 0.0
1585, 0.0
1586, 0.0
1587, 0.0
1588, 0.0
1589, 0.0
1590, 0.0
1591, 0.0
1592, 0.0
1593, 0.0
1594, 0.0
1595, 0.0
1596, 0.0
1597, 0.0
1598, 0.0
1599, 0.0
