30, 0.0
31, 0.0
32, 0.0
33, 0.0
34, 0.0
35, 0.0
36, 0.0
37, 0.0
38, 0.0
39, 0.0
40, 0.0
41, 0.0
42, 0.0
43, 0.0
44, 0.0
45, 0.0
46, 0.0
47, 0.0
48, 0.0
49, 0.0
50, 0.0
51, 0.0
52, 0.0
53, 0.0
54, 0.0
55, 0.0
56, 0.0
57, 0.0
58, 0.0
59, 0.0
60, 0.0
61, 0.0
62, 0.0
63, 0.0
64, 0.0
65, 0.0
66, 0.0
67, 0.0
68, 0.0
69, 0.0
70, 0.0
71, 0.0
72, 0.0
73, 0.0
74, 0.0
75, 0.0
76, 0.0
77, 0.0
78, 0.0
79, 0.0
80, 0.0
81, 0.0
82, 0.0
83, 0.0
84, 0.0
85, 0.0
86, 0.0
87, 0.0
88, 0.0
89, 0.0
90, 0.0
91, 0.0
92, 0.0
93, 0.0
94, 0.0
95, 0.0
96, 0.0
97, 0.0
98, 0.0
99, 0.0
100, 0.0
101, 0.0
102, 0.0
103, 0.0
104, 0.0
105, 0.0
106, 0.0
107, 0.0
108, 0.0
109, 0.0
110, 0.0
111, 0.0
112, 0.0
113, 0.0
114, 0.0
115, 0.0
116, 0.0
117, 0.0
118, 0.0
119, 0.0
120, 0.0
121, 0.0
122, 0.0
123, 0.0
124, 0.0
125, 0.0
126, 0.0
127, 0.0
128, 0.0
129, 0.0
130, 0.0
131, 0.0
132, 0.0
133, 0.0
134, 0.0
135, 0.0
136, 0.0
137, 0.0
138, 0.0
139, 0.0
140, 0.0
141, 0.0
142, 0.0
143, 0.0
144, 0.0
145, 0.0
146, 0.0
147, 0.0
148, 0.0
149, 0.0
150, 0.0
151, 0.0
152, 0.0
153, 0.0
154, 0.0
155, 0.0
156, 0.0
157, 0.0
158.0, 8.19446778836901e-05
159.0, 0.00035522294916477405
160.0, 0.0011079544385853954
161.0, 0.00492348154378273
162.0, 0.0024000710235772345
163.0, 0.0046171460483449365
164.0, 0.006535228203882392
165.0, 0.003662124017614895
166.0, 0.0015781609370270524
167.0, 0.0013163054620888672
168.0, 0.001514490215870911
169.0, 0.002119859824903401
170.0, 0.004863606328559373
171.0, 0.008047422173482562
172.0, 0.0074651046569522055
173.0, 0.003950357128482537
174.0, 0.0015435251372527736
175.0, 0.003793840354375392
176.0, 0.0032293213744311244
177.0, 0.0031707401275068003
178.0, 0.006682596437966563
179.0, 0.007768697230633438
180.0, 0.005300359990850214
181.0, 0.0035345698751439347
182.0, 0.0036165288633470396
183.0, 0.0036779173611343127
184.0, 0.003323592322006454
185.0, 0.0037044339485131856
186.0, 0.004290460346772772
187.0, 0.004052207415282044
188.0, 0.003082350103314216
189.0, 0.0014868248569760627
190.0, 0.00025947317417272624
191.0, 0.0008271054750728805
192.0, 0.0012303310969961792
193.0, 0.0010015606258734998
194.0, 0.00011731549105064616
195.0, 0.0006020161299021454
196.0, 0.0003245273741241519
197.0, 1.3723649925060576e-05
198.0, 8.735043360159184e-05
199.0, 0.0018931730474055085
200.0, 0.004537551974232425
201.0, 0.0036006991462383345
202.0, 0.005131662684413113
203.0, 0.006210495482421807
204.0, 0.005380323561229603
205.0, 0.004293134735312954
206.0, 0.0053046033460588445
207.0, 0.007513263569970225
208.0, 0.0078351876608147
209.0, 0.00545989681995232
210.0, 0.006298737769281015
211.0, 0.004945178236932095
212.0, 0.005173201697677283
213.0, 0.008316165341727334
214.0, 0.011621385025968135
215.0, 0.012669407599621487
216.0, 0.013223272307807005
217.0, 0.016231328436734253
218.0, 0.0223686750477517
219.0, 0.026994515097246277
220.0, 0.023288613223939117
221.0, 0.016277359991004967
222.0, 0.010367504309592991
223.0, 0.006673231440658367
224.0, 0.005012586492614752
225.0, 0.0036643297301619544
226.0, 0.0030230549156343963
227.0, 0.004094359836482095
228.0, 0.006812442068133205
229.0, 0.005761817377011172
230.0, 0.005522484983018863
231.0, 0.008323268956240847
232.0, 0.010969634407997256
233.0, 0.006377053370539365
234.0, 0.006978948612192815
235.0, 0.010528805187761036
236.0, 0.011614457417520796
237.0, 0.014565898664640342
238.0, 0.01966605688943079
239.0, 0.022898814567358507
240.0, 0.02448284797471991
241.0, 0.02851386988308034
242.0, 0.02945196500304482
243.0, 0.030364584515772397
244.0, 0.03454056204315654
245.0, 0.04093294627907594
246.0, 0.04165829974986034
247.0, 0.045870617262440884
248.0, 0.04918560265256651
249.0, 0.050527490465958544
250.0, 0.05301054515896142
251.0, 0.05607053921454195
252.0, 0.058350918263701326
253.0, 0.062367631231508965
254.0, 0.06797026172194447
255.0, 0.06763312395456045
256.0, 0.07179404761848923
257.0, 0.07220603590661206
258.0, 0.06917473421543487
259.0, 0.0686150024033233
260.0, 0.0648021307224913
261.0, 0.05722813464341967
262.0, 0.05064123145481385
263.0, 0.04692464892624191
264.0, 0.04305392278073708
265.0, 0.03692109435367783
266.0, 0.03207359367804978
267.0, 0.029864387937987357
268.0, 0.02879553626376882
269.0, 0.023810636006778792
270.0, 0.023897124438256603
271.0, 0.025041583780978587
272.0, 0.02243316159937398
273.0, 0.015749507688295125
274.0, 0.013866363493070794
275.0, 0.016357661416365465
276.0, 0.017893967048135395
277.0, 0.016349469780036784
278.0, 0.01750144307904862
279.0, 0.016873726147852458
280.0, 0.018314031302185223
281.0, 0.020848185720718216
282.0, 0.02098677339580146
283.0, 0.021009746042151934
284.0, 0.022393426542938168
285.0, 0.02352190807162938
286.0, 0.021177070444962393
287.0, 0.0136911751616255
288.0, 0.00971325473688835
289.0, 0.00490894037456852
290.0, 0.0020572796821897938
291.0, 0.0032339704965843705
292.0, 0.0017130808219615599
293.0, 0.0002679401776739379
294.0, 0.00044702724020976827
295.0, 0.00026802326969265156
296.0, 0.0011298397958301096
297.0, 0.000688136787751464
298.0, 0.0008674332469734481
299.0, 0.000327598377595011
300.0, 0.0013409977610287112
301.0, 0.0020334901353449143
302.0, 0.000754788350360394
303.0, 0.0008834049305491874
304.0, 0.0019389815636897264
305.0, 0.0022817464442258972
306.0, 0.0011627106849678786
307.0, 0.000660098481140328
308.0, 0.002060677255871023
309.0, 0.0022897677399579346
310.0, 0.0017306407875466944
311.0, 0.002227457986818462
312.0, 0.0012425574453389526
313.0, 0.0009635132811110242
314.0, 0.0021551275140607464
315.0, 0.0031911633171464357
316.0, 0.0012160165777358321
317.0, 0.00019185289162370348
318.0, 0.00025311934694696324
319.0, 0.002157476312721642
320.0, 0.00446411702439365
321.0, 0.005250495943480969
322.0, 0.003951053263927359
323.0, 0.004317871945067039
324.0, 0.007562455629129099
325.0, 0.007858500594418252
326.0, 0.00899165261963329
327.0, 0.010278075351466406
328.0, 0.010643684578729237
329.0, 0.010343888385722705
330.0, 0.012474629236931122
331.0, 0.01759997289544496
332.0, 0.020296860390501985
333.0, 0.021297732653050853
334.0, 0.024769320543563414
335.0, 0.027515658914175938
336.0, 0.03152364538187007
337.0, 0.03636645498873859
338.0, 0.042115177240931286
339.0, 0.049584712231661277
340.0, 0.0562496883462135
341.0, 0.06556829565303118
342.0, 0.07269421807144442
343.0, 0.07663632239851678
344.0, 0.08498997661571225
345.0, 0.09402215361363428
346.0, 0.10205007053533455
347.0, 0.11046976754685638
348.0, 0.11949611430453265
349.0, 0.1260329251037618
350.0, 0.13713641865381276
351.0, 0.14796658048870984
352.0, 0.1601072656673502
353.0, 0.1754541769979936
354.0, 0.18664960805966385
355.0, 0.19813250646985994
356.0, 0.20904288929321493
357.0, 0.2139578083350081
358.0, 0.20949514832215457
359.0, 0.20340808453942644
360.0, 0.18617196170836833
361.0, 0.16296295638324795
362.0, 0.14024353822471045
363.0, 0.12107335768479446
364.0, 0.1041950797977257
365.0, 0.09137294481548104
366.0, 0.0855709289077252
367.0, 0.08541780713469616
368.0, 0.0871132594259068
369.0, 0.0946847415050114
370.0, 0.10492628880934399
371.0, 0.1175103203121498
372.0, 0.12960009839343942
373.0, 0.13550150738787653
374.0, 0.1417832116765342
375.0, 0.14803477317461897
376.0, 0.15694151523364042
377.0, 0.16923773875987408
378.0, 0.18114116523236537
379.0, 0.1907202279075805
380.0, 0.20610554151226995
381.0, 0.22824639679608513
382.0, 0.2550612351971749
383.0, 0.2857106435653456
384.0, 0.3164374057159129
385.0, 0.3478498640861065
386.0, 0.3760948691480337
387.0, 0.39362242666386466
388.0, 0.3895010367783031
389.0, 0.3483909779407403
390.0, 0.28709936675620573
391.0, 0.22109965791260433
392.0, 0.16262675030942098
393.0, 0.12183410429305691
394.0, 0.09222190858629259
395.0, 0.07225812318917724
396.0, 0.05731396206207922
397.0, 0.045336801775538615
398.0, 0.04178711739388768
399.0, 0.035887556714536153
400.0, 0.029305799243490454
401.0, 0.025560222607618796
402.0, 0.024731029916411924
403.0, 0.020239257660460155
404.0, 0.016208111703992792
405.0, 0.01398912805527102
406.0, 0.01376150670740552
407.0, 0.014189333286684553
408.0, 0.013020979078504014
409.0, 0.01383275418761683
410.0, 0.012535476039199566
411.0, 0.011523553605945248
412.0, 0.01234212120060714
413.0, 0.009839106045210459
414.0, 0.008924935080435183
415.0, 0.009240705569135858
416.0, 0.01018216862316337
417.0, 0.00990268356078869
418.0, 0.006758128962747662
419.0, 0.007168196733428322
420.0, 0.007022052489540605
421.0, 0.00628721365805219
422.0, 0.005584054492844002
423.0, 0.003984587700760285
424.0, 0.003253918119341579
425.0, 0.004808567504907776
426.0, 0.005853918475675309
427.0, 0.005349687843191651
428.0, 0.004822775139188033
429.0, 0.00323971159219333
430.0, 0.005846537111190196
431.0, 0.006455145189557667
432.0, 0.0037768763883205395
433.0, 0.004010333332269896
434.0, 0.003903729501029777
435.0, 0.0032706465094433845
436.0, 0.0028158401208959087
437.0, 0.002277719596138562
438.0, 0.0012786267471997094
439.0, 0.0021190600868624524
440.0, 0.002756231926255707
441.0, 0.0029703643699252155
442.0, 0.0023456111273602535
443.0, 0.0008601860974440093
444.0, 0.0007149017934103962
445.0, 0.0011669651525844783
446.0, 0.000790609741096344
447.0, 0.00035982086039398203
448.0, 0.0007103382123341169
449.0, 0.0020886158550657576
450.0, 0.0028600443625631947
451.0, 0.002343736068917173
452.0, 0.0005096362568527166
453.0, 0.0007206634386726234
454.0, 0.0009311668715195747
455.0, 0.0027304415996106416
456.0, 0.0023684166563455794
457.0, 0.0005485211993366701
458.0, 0.0002854332680003017
459.0, 0.00039955387656367215
460.0, 0.0016300438511278213
461.0, 0.0020653826645577683
462.0, 0.002141694715743096
463.0, 0.0031603366842616236
464.0, 0.005164915818591182
465.0, 0.00187271832570517
466.0, 0.005844059655688822
467.0, 0.004549490597204824
468.0, 0.0008155044619150919
469.0, 0.0008973059467886431
470.0, 0.0019158851402988363
471.0, 0.001963984671763411
472.0, 0.0005874025323310653
473.0, 0.001096091769971618
474.0, 0.0016191338029664173
475.0, 0.002042029130286723
476.0, 0.00031412286242887323
477.0, 0.0023940518061316314
478.0, 0.005729174561991807
479.0, 0.00607359377206911
480.0, 0.006554651643045905
481.0, 0.009066355576028041
482.0, 0.009046494534776503
483.0, 0.009163859151815473
484.0, 0.011923512978090427
485.0, 0.01559151002794641
486.0, 0.015289222746756578
487.0, 0.019179358974207708
488.0, 0.02366060087136441
489.0, 0.02733164378762811
490.0, 0.031490989277339294
491.0, 0.033823384398043506
492.0, 0.036702618601779015
493.0, 0.03608103884498887
494.0, 0.03492911229748285
495.0, 0.03579652308602248
496.0, 0.03473835067138272
497.0, 0.03727096941853387
498.0, 0.03994671675130887
499.0, 0.04606605165462015
500.0, 0.05332468652452368
501.0, 0.055518955571474245
502.0, 0.06403161450779825
503.0, 0.0756240942520361
504.0, 0.08692674865848239
505.0, 0.0981856906235155
506.0, 0.1116904574341483
507.0, 0.1307423058291057
508.0, 0.14917944160145796
509.0, 0.1641723689612864
510.0, 0.18268174078485247
511.0, 0.2063402504259813
512.0, 0.22651472125618086
513.0, 0.25199778212776736
514.0, 0.2775807595725856
515.0, 0.3052319164615044
516.0, 0.33379330663707046
517.0, 0.36001427673686864
518.0, 0.39019125710475416
519.0, 0.41873446454865004
520.0, 0.4485327659040218
521.0, 0.47820128573458903
522.0, 0.5058311903714077
523.0, 0.5353646123923259
524.0, 0.5678612529284776
525.0, 0.5924562489941918
526.0, 0.6105185382696663
527.0, 0.6257846857338033
528.0, 0.6380331493063214
529.0, 0.6432566619736851
530.0, 0.6488987681483293
531.0, 0.6415753666883379
532.0, 0.6235048791882254
533.0, 0.6060558322832593
534.0, 0.5929074354974637
535.0, 0.5740388880003573
536.0, 0.5590085246052869
537.0, 0.5430338399688285
538.0, 0.5301245939753827
539.0, 0.5358406276075207
540.0, 0.5423532950740745
541.0, 0.5525102912445269
542.0, 0.5676316778189432
543.0, 0.5901420631093479
544.0, 0.6184678306233654
545.0, 0.6438827665135037
546.0, 0.6817346937093907
547.0, 0.7199313344079916
548.0, 0.7570489183696494
549.0, 0.7963428641445267
550.0, 0.8390804317195559
551.0, 0.8774444002446002
552.0, 0.9165038719519643
553.0, 0.9511812917981687
554.0, 0.9786739096519411
555.0, 0.9964257291974781
556.0, 0.9992835470360332
557.0, 0.9905112342598973
558.0, 0.9670305155830532
559.0, 0.9289812771608301
560.0, 0.8772529410782862
561.0, 0.8128315443729158
562.0, 0.7373582175201026
563.0, 0.6678597607856795
564.0, 0.5984572723807564
565.0, 0.5286887257292157
566.0, 0.46401390564641953
567.0, 0.4101612590278497
568.0, 0.3606252160913174
569.0, 0.3151777100432274
570.0, 0.275960563946675
571.0, 0.24183033895411427
572.0, 0.21160506826160494
573.0, 0.18859170838680991
574.0, 0.16332908893752246
575.0, 0.14434776283180528
576.0, 0.12760520721688984
577.0, 0.1112755595178413
578.0, 0.09962631922899029
579.0, 0.09117719836477703
580.0, 0.0802867463883725
581.0, 0.06820983640633521
582.0, 0.05739223448485524
583.0, 0.049573390986891896
584.0, 0.04474160800456373
585.0, 0.039186476059611126
586.0, 0.03584568771507922
587.0, 0.030074941854752287
588.0, 0.02344086874369726
589.0, 0.020213436172019206
590.0, 0.01851138528695489
591.0, 0.016339190828026384
592.0, 0.011329618926228132
593.0, 0.008976189283830368
594.0, 0.00785781256168623
595.0, 0.002965685137953173
596.0, 0.0017301008343852842
597.0, 0.00048164638154707965
598.0, 0.0005693463742191692
599.0, 9.870434178263714e-05
600.0, 0.0006148987542491471
601.0, 0.0017900175551827302
602.0, 0.0010255796197611846
603.0, 0.002177655609565313
604.0, 0.0007272667275086392
605.0, 0.0007309981799971255
606.0, 0.0013212130857633687
607.0, 0.0006471704245753467
608.0, 0.0005745794381864943
609.0, 0.0038549455097886655
610.0, 0.005299062910439287
611.0, 0.006347954705950345
612.0, 0.009101709966602723
613.0, 0.009083489978514441
614.0, 0.011527197814158627
615.0, 0.012868875761474928
616.0, 0.015423963668452728
617.0, 0.017884867028876313
618.0, 0.018403041758045358
619.0, 0.019653606612216913
620.0, 0.02015929338065599
621.0, 0.01961848145546459
622.0, 0.02051186675677924
623.0, 0.021117570994761633
624.0, 0.019364556303783653
625.0, 0.019816713131529915
626.0, 0.01838011141419975
627.0, 0.01752689364225247
628.0, 0.014782683542208236
629.0, 0.010596879299646396
630.0, 0.008330303705852376
631.0, 0.007468855412154309
632.0, 0.006716781606736273
633.0, 0.005843258254603182
634.0, 0.00496693932769596
635.0, 0.003937078386651213
636.0, 0.0028848483130049507
637.0, 0.0033197547262262383
638.0, 0.000715699179300536
639.0, 0.0002778187402443919
640.0, 0.0010218635737509723
641.0, 0.002038078222981955
642.0, 0.0014344958228848371
643.0, 0.002135224327656045
644.0, 0.003099943274786372
645.0, 0.002158923260862824
646.0, 0.0019828314212980134
647.0, 0.002861783506162185
648.0, 0.0022637058824763008
649.0, 0.0031800284182886135
650.0, 0.0018048782780255863
651.0, 0.0005306902511619082
652.0, 0.00023562840916500677
653.0, 0.001413194251070095
654.0, 0.0014545600630922466
655.0, 0.00011747581743281615
656.0, 0.0010926694459182805
657.0, 0.001271593401261385
658.0, 0.0029356353619340958
659.0, 0.0009976583930709764
660.0, 0.0016995812022618708
661.0, 0.0016676442740983237
662.0, 0.0012130269569964414
663.0, 0.0019808985249636112
664.0, 0.0017677279095732145
665.0, 0.0019409715915831743
666.0, 0.0022733423972954303
667.0, 0.00528840491154766
668.0, 0.0037681515512591668
669.0, 0.004593858541445771
670.0, 0.0020099692462417916
671.0, 0.0017939477317803255
672.0, 0.004267220500693299
673.0, 0.003461850657394093
674.0, 0.005910021859496049
675.0, 0.005241999651479354
676.0, 0.004245777368337561
677.0, 0.006252515050451623
678.0, 0.008921316037277228
679.0, 0.006946859322225539
680.0, 0.006117676602605131
681.0, 0.00620267971534479
682.0, 0.0055981073414599234
683.0, 0.006815189931626219
684.0, 0.009918564082205017
685.0, 0.008984259720229785
686.0, 0.00616329389110425
687.0, 0.007560969158193398
688.0, 0.00893687964346758
689.0, 0.009105709686588337
690.0, 0.008945030114515492
691.0, 0.009037273480392396
692.0, 0.012202270982004498
693.0, 0.013325918114985973
694.0, 0.011628196562810528
695.0, 0.011661336779941191
696.0, 0.013796681999208915
697.0, 0.014539232066263435
698.0, 0.014623452699373356
699.0, 0.011029051932959671
700.0, 0.011612743770978859
701.0, 0.01423301564770944
702.0, 0.015066309836344653
703.0, 0.013856875990073207
704.0, 0.011878865118472592
705.0, 0.011995391113214505
706.0, 0.012732120623728473
707.0, 0.01240976418709617
708.0, 0.012561516269996754
709.0, 0.013152932888677481
710.0, 0.011285146294455503
711.0, 0.01236728081348529
712.0, 0.012692184125105513
713.0, 0.012470501390841934
714.0, 0.01287464139323989
715.0, 0.013528411097864543
716.0, 0.013123825246294546
717.0, 0.013360041844995008
718.0, 0.013819123997981209
719.0, 0.01448868342180748
720.0, 0.013705206154886546
721.0, 0.012335493175944203
722.0, 0.012229058253055414
723.0, 0.012306367412182023
724.0, 0.01223829960138393
725.0, 0.013561822239479458
726.0, 0.012590728595080855
727.0, 0.01134853657087113
728.0, 0.011398088048052903
729.0, 0.010982103290378846
730.0, 0.01302596961782462
731.0, 0.013703537683498445
732.0, 0.010714501180472645
733.0, 0.010045020005612693
734.0, 0.011596147287980932
735.0, 0.011888702837707855
736.0, 0.013304027274882158
737.0, 0.010842323149327336
738.0, 0.01069439712689902
739.0, 0.010352129332470757
740.0, 0.009451909552280636
741.0, 0.010079002244694643
742.0, 0.011992348928513039
743.0, 0.011101431414222372
744.0, 0.00960043312664546
745.0, 0.010320692307004001
746.0, 0.010165473388502147
747.0, 0.010326766149573011
748.0, 0.012246487853517268
749.0, 0.010176254543904731
750.0, 0.01030699791712201
751.0, 0.010074782674267122
752.0, 0.009811702013214666
753.0, 0.009612909638972099
754.0, 0.009563589833951393
755.0, 0.009723899924614393
756.0, 0.008610484699108259
757.0, 0.010221876807771297
758.0, 0.008860511688470771
759.0, 0.009260121824296455
760.0, 0.010404997684136746
761.0, 0.009235971901382797
762.0, 0.009065600178756099
763.0, 0.010720865091948445
764.0, 0.009394873092316881
765.0, 0.008407529757187568
766.0, 0.006833311921041629
767.0, 0.005391840173085589
768.0, 0.006743995815040453
769.0, 0.008525981666808152
770.0, 0.006972072812946876
771.0, 0.005180225263389495
772.0, 0.004652651775650955
773.0, 0.0053689832002732744
774.0, 0.006285061906416741
775.0, 0.006307999447292687
776.0, 0.006014343631273676
777.0, 0.004482671761150652
778.0, 0.0036934541829884214
779.0, 0.003553605984290036
780.0, 0.004454104447926582
781.0, 0.004594356698022022
782.0, 0.002030287640926665
783.0, 0.003664890146767373
784.0, 0.0024552073790963403
785.0, 0.00311038278073832
786.0, 0.0036484685125933447
787.0, 0.00271720558762425
788.0, 0.0018886351124195997
789.0, 0.0022863848142118674
790.0, 0.0034066825320309235
791.0, 0.0022353905376189813
792.0, 0.00026950230688031567
793.0, 0.0005382109540953268
794.0, 0.0019435524141029142
795.0, 0.0014551760357267873
796.0, 0.0007094477392472403
797.0, 0.0007397864585441706
798.0, 0.001052132877354549
799.0, 0.0031647998889618965
800.0, 0.001305522390729078
801.0, 0.0013311555476852215
802.0, 0.00043718690453318576
803.0, 0.0031636653003428547
804.0, 0.00272499890363921
805.0, 0.0029371384307135743
806.0, 0.0025601632059876218
807.0, 0.0011219363245582915
808.0, 0.0007871346153066241
809.0, 0.00134149286458425
810.0, 0.0018025306814075084
811.0, 0.0005865869751814159
812.0, 0.0014363978584205734
813.0, 0.001800646433971086
814.0, 0.000579911392374154
815.0, 0.00015914521687427981
816.0, 0.0016531937844388932
817.0, 0.0009719474852739976
818.0, 0.000804760888441818
819.0, 0.00353791406674213
820.0, 0.0014471935679671723
821.0, 0.001044300963733505
822.0, 0.0024361231605207444
823.0, 0.00041941451365073133
824.0, 0.00023235975018840607
825.0, 0.0012004712089038426
826.0, 0.002285635081742586
827.0, 0.0012546087107861473
828.0, 0.0015816929516097068
829.0, 0.002211889363670371
830.0, 0.0009714868982048494
831.0, 0.001700544403041017
832.0, 0.00034643605272029524
833.0, 0.001828279658086778
834.0, 0.0006303298676641971
835.0, 0.0018316379222333501
836.0, 0.005069859903029879
837.0, 0.0038193415051365836
838.0, 0.0025775374851646393
839.0, 0.0007954117890449136
840.0, 0.0018502110935170748
841.0, 0.003360386955376935
842.0, 0.0025588474825776926
843.0, 0.0024548755960002106
844.0, 0.0034998305979322547
845.0, 0.001900373680913982
846.0, 0.0038497712482492225
847.0, 0.0038424499841054594
848.0, 0.0025895428251508155
849.0, 0.001538854408589981
850.0, 0.0011974881400710498
851.0, 0.00159529611975973
852.0, 0.0022196481114071815
853.0, 0.0021070985286983416
854.0, 0.0035534105024943685
855.0, 0.0016579953316222082
856.0, 0.0014023254570261472
857.0, 0.002381539266127031
858.0, 0.002099335435838595
859.0, 0.0013641379830572362
860.0, 0.0031666944760862983
861.0, 0.0009084197028565605
862.0, 0.0006679164224333954
863.0, 0.0016176407896370724
864.0, 0.0013842146596657263
865.0, 0.0023801584284974956
866.0, 0.004091360839331848
867.0, 0.0021925706645029154
868.0, 0.0009383267432681616
869.0, 0.0023592741678188957
870.0, 0.0018512381793149447
871.0, 0.0014448963902456008
872.0, 0.0028103752896819394
873.0, 0.004284062356685898
874.0, 0.0036723435312353806
875.0, 0.004478165075289232
876.0, 0.0065176247117343065
877.0, 0.004369630216692563
878.0, 0.002633941232335941
879.0, 0.0014350925730586181
880.0, 0.0018690584157473652
881.0, 0.0037899063725351525
882.0, 0.003934089057747273
883.0, 0.0036475331794749996
884.0, 0.0037853356495834442
885.0, 0.004130955673751095
886.0, 0.0031122908070237167
887.0, 0.0023986312805377857
888.0, 0.0034333608844362698
889.0, 0.004167596673388351
890.0, 0.002051650768440717
891.0, 0.00032971922427770607
892.0, 0.0002680175879958878
893.0, 0.0010676462442887657
894.0, 0.0006320391289328785
895.0, 0.0011962044067506156
896.0, 0.0025328059617512355
897.0, 0.0015738159011742048
898.0, 0.001556263429580943
899.0, 0.001743166950382451
900.0, 0.0018659826750602798
901.0, 0.0005106424834098431
902.0, 0.00044591014412289097
903.0, 0.0010507246156053727
904.0, 0.0005252987859389707
905.0, 0.0009786254620354322
906.0, 0.0013878774264642004
907.0, 0.0019014862129893833
908.0, 0.00043931688918768836
909.0, 0.0008357139741575979
910.0, 0.0003236678347615984
911.0, 0.0006504509360314839
912.0, 0.0007593718353140358
913.0, 0.000837218412109359
914.0, 0.00016608047934314556
915.0, 0.0015304865706797536
916.0, 0.0013331926405389224
917.0, 0.00046624688306651685
918.0, 0.0012084091530648504
919.0, 0.0011372428633034772
920.0, 0.000886456851420125
921.0, 0.00042267595447517583
922.0, 0.002796444519439585
923.0, 0.0020700051768685985
924.0, 0.0003887363755831668
925.0, 0.0018202729565138327
926.0, 0.0014808907269933914
927.0, 0.0005363789140510499
928.0, 0.001395357253628648
929.0, 0.0013692192882243303
930.0, 0.0016984541668252032
931.0, 0.0012091372196593854
932.0, 0.0020567381103691984
933.0, 0.0017113544013636001
934.0, 0.0013200520473854052
935.0, 0.0012971473781045412
936.0, 0.002083874241656694
937.0, 0.0012927916741676754
938.0, 0.0003136160744944339
939.0, 0.002284008949743814
940.0, 0.004518391885298365
941.0, 0.0033228240146411453
942.0, 0.0016794295107377065
943.0, 0.0017279321172643553
944.0, 0.0017569608375106584
945.0, 0.001213614542309789
946.0, 0.00230501400761013
947.0, 0.005266876195484927
948.0, 0.004687582700026143
949.0, 0.002294028228865708
950.0, 0.0027289153878116124
951.0, 0.004953435423072729
952.0, 0.005521197438000311
953.0, 0.005339576753338886
954.0, 0.0038058342261965018
955.0, 0.0033157576822579206
956.0, 0.00456902468129222
957.0, 0.00458378834098046
958.0, 0.003055462603527279
959.0, 0.003570481503523415
960.0, 0.00462910342497311
961.0, 0.002354529676191158
962.0, 0.0038357116239235716
963.0, 0.002505391807584467
964.0, 0.001966167641022144
965.0, 0.0034085739485838614
966.0, 0.004462170299335569
967.0, 0.003707553796906561
968.0, 0.002397863394400472
969.0, 0.0021754466795421393
970.0, 0.0025397653070842632
971.0, 0.00419896837370378
972.0, 0.0039350798002636585
973.0, 0.003071007900725243
974.0, 0.002025110451713083
975.0, 0.0036341948495958445
976.0, 0.005501998570395956
977.0, 0.0038178405250019073
978.0, 0.002243771037810871
979.0, 0.00462972389863788
980.0, 0.004359993899666153
981.0, 0.004354667727608214
982.0, 0.0029965328308956493
983.0, 0.0037198821315155197
984.0, 0.0050284180560644
985.0, 0.004549290933423883
986.0, 0.004667974074938299
987.0, 0.004927354889633809
988.0, 0.0038387724378352787
989.0, 0.004646750631926909
990.0, 0.004539385729922464
991.0, 0.005340412881448378
992.0, 0.006028549643976563
993.0, 0.005146462195401519
994.0, 0.003036523642882813
995.0, 0.00131537410348005
996.0, 0.0022094340571040512
997.0, 0.004067435267617049
998.0, 0.0036902488046163086
999.0, 0.004553637779968845
1000.0, 0.0035391387417399904
1001.0, 0.0016467369378138366
1002.0, 0.002098391943308729
1003.0, 0.003326218310517961
1004.0, 0.0027161273561718347
1005.0, 0.0046068213688512894
1006.0, 0.003041668994049163
1007.0, 0.00207460614148513
1008.0, 0.002522145811257038
1009.0, 0.0031537095712565427
1010.0, 0.002066905985233954
1011.0, 0.0008929616457874002
1012.0, 0.0019086956461805034
1013.0, 0.0017305448690690805
1014.0, 0.0009623814509400438
1015.0, 0.0026479995211514803
1016.0, 0.0028270155305068667
1017.0, 0.002143139387927217
1018.0, 0.001653972550473342
1019.0, 0.002181594657023404
1020.0, 0.0025348163902664295
1021.0, 0.0010539828972407188
1022.0, 8.449149788551048e-05
1023.0, 0.0010978927869288804
1024.0, 0.0017162993679169635
1025.0, 0.00119168761995935
1026.0, 0.0011907804815448667
1027.0, 0.0015706361460503097
1028.0, 0.001641287968399145
1029.0, 0.002333670289741561
1030.0, 0.002339481348444544
1031.0, 0.0015209535955858174
1032.0, 0.0020077407256493944
1033.0, 0.0027737328320398755
1034.0, 0.0018539638831820214
1035.0, 0.0017922576793732161
1036.0, 0.0008550639696079087
1037.0, 0.0009351390734987032
1038.0, 0.002198248922035748
1039.0, 0.0019075662012157735
1040.0, 0.0017776415585413416
1041.0, 0.0025217239884387046
1042.0, 0.0007952693404274318
1043.0, 0.002577573184139919
1044.0, 0.0018702517702614764
1045.0, 0.0011810966607980267
1046.0, 0.0016092382313868437
1047.0, 0.0016937774956223134
1048.0, 0.001435578004205483
1049.0, 0.002244474280702114
1050.0, 0.0032984080665212122
1051.0, 0.001892966973367545
1052.0, 0.003027158345040927
1053.0, 0.0007665912875188572
1054.0, 0.001613582493192364
1055.0, 0.003545596420645494
1056.0, 0.0012969507839794962
1057.0, 0.0005469128307740783
1058.0, 0.0012122689713044994
1059.0, 0.0011982119983197843
1060.0, 0.0010593757349914906
1061.0, 0.0007362209895728965
1062.0, 0.00203311869345771
1063.0, 0.0029593406049188893
1064.0, 0.0022386097647483427
1065.0, 0.0008438681700064192
1066.0, 0.0007286562852802435
1067.0, 0.0019847868847633326
1068.0, 0.002601978859563382
1069.0, 0.0018933686375205501
1070.0, 0.002620117171060437
1071.0, 0.0009876801233795302
1072.0, 0.0025852553272637364
1073.0, 0.002081535985087973
1074.0, 0.001412954551595217
1075.0, 0.002602944036914036
1076.0, 0.002892601529897003
1077.0, 0.0016456208740297633
1078.0, 0.002719373799422944
1079.0, 0.0019442304877703067
1080.0, 0.0010604268001455507
1081.0, 0.001973682990796145
1082.0, 0.0026649437083775076
1083.0, 0.002009678059092178
1084.0, 0.0017116372744821276
1085.0, 0.0022174939827289838
1086.0, 0.001982480642677664
1087.0, 0.0007126316939842117
1088.0, 0.00033001737028588523
1089.0, 0.0012943566177753291
1090.0, 0.00167577904763604
1091.0, 0.0009717487765086625
1092.0, 0.0013809116636752615
1093.0, 0.0016382020757673998
1094.0, 0.0006640363795723202
1095.0, 0.0004898308709675638
1096.0, 0.00037132411243429345
1097.0, 0.0009225950503984252
1098.0, 0.0022794979093946144
1099.0, 0.0011879276788741527
1100.0, 0.00011800307028932941
1101.0, 0.00031955855147826145
1102.0, 0.0019291651050718866
1103.0, 0.003706608766584702
1104.0, 0.002254297426160094
1105.0, 0.00021940201998950094
1106.0, 0.0005872263179663634
1107.0, 0.0007676918946605784
1108.0, 0.0003077413780740932
1109.0, 0.00029192303986471806
1110.0, 0.002049681536616399
1111.0, 0.0023327247336080398
1112.0, 0.0016546062638371957
1113.0, 0.0005123703122678197
1114.0, 0.00015322690684867833
1115.0, 0.0009636591013929167
1116.0, 0.002789572050882586
1117.0, 0.002416888312286983
1118.0, 0.00037464513033964175
1119.0, 0.0003150167440245251
1120.0, 0.001773358835008579
1121.0, 0.0014672710308345598
1122.0, 0.0026981734582997713
1123.0, 0.002235597175959049
1124.0, 0.0019016573100651382
1125.0, 0.0037851643236651846
1126.0, 0.003697584921151176
1127.0, 0.0020703327918628464
1128.0, 0.0027384174695938377
1129.0, 0.002519219208239072
1130.0, 0.003053061612718492
1131.0, 0.0037108945671620536
1132.0, 0.0017515361464889576
1133.0, 0.0041373026320360535
1134.0, 0.005791619578035727
1135.0, 0.005351862507373311
1136.0, 0.005383892979925958
1137.0, 0.005142455364719507
1138.0, 0.005487775087040798
1139.0, 0.007409267558440511
1140.0, 0.0053313889076489806
1141.0, 0.005988173393789012
1142.0, 0.009152581232307985
1143.0, 0.007816354655200983
1144.0, 0.006176742990810012
1145.0, 0.007393924349739019
1146.0, 0.007067221354564323
1147.0, 0.00601290164042986
1148.0, 0.0060640831488499225
1149.0, 0.005284584888778635
1150.0, 0.004781145905377459
1151.0, 0.005886561075302668
1152.0, 0.0045698879483423785
1153.0, 0.002355809161588524
1154.0, 0.0019229089928066447
1155.0, 0.000997271335103373
1156.0, 0.002299438000981568
1157.0, 0.0016310919201631047
1158.0, 0.0005024362928303649
1159.0, 0.0007843794646171814
1160.0, 0.0011555625095385018
1161.0, 0.0008551794986942049
1162.0, 0.0007514913898922562
1163.0, 0.004932238014796909
1164.0, 0.0033865747272688804
1165.0, 0.004627878994201374
1166.0, 0.0017814310832929988
1167.0, 0.002859861589038098
1168.0, 0.002804479997836661
1169.0, 0.0028255399273870163
1170.0, 0.002806263189826694
1171.0, 0.0018347401859571373
1172.0, 0.0018868567018415746
1173.0, 0.0020601748982454196
1174.0, 0.0024753711989422182
1175.0, 0.002594438486986047
1176.0, 0.004843610631729694
1177.0, 0.004172221670219402
1178.0, 0.001749222443580428
1179.0, 0.0036433066012174107
1180.0, 0.003280070554625374
1181.0, 0.00400512576311206
1182.0, 0.0063203175715248056
1183.0, 0.006246476449757024
1184.0, 0.00531769817382492
1185.0, 0.0045419231244641575
1186.0, 0.0036836414622619684
1187.0, 0.0024106913759208526
1188.0, 0.0036636724821022594
1189.0, 0.00383521407619242
1190.0, 0.004675051997145654
1191.0, 0.003876368842037433
1192.0, 0.004420204811971875
1193.0, 0.004813531890802007
1194.0, 0.005301195461765345
1195.0, 0.005878072731191337
1196.0, 0.004762280331330223
1197.0, 0.006539367065358979
1198.0, 0.0059940783963914595
1199.0, 0.005616195140765137
1200.0, 0.004343911664897826
1201.0, 0.006083320277712428
1202.0, 0.005698842569127253
1203.0, 0.0049022786886271635
1204.0, 0.0046632263008002705
1205.0, 0.004232709752673511
1206.0, 0.005518475968766449
1207.0, 0.005418339549413851
1208.0, 0.0018715739035526872
1209.0, 0.0042781567592189195
1210.0, 0.005571719521137742
1211.0, 0.006712495736525763
1212.0, 0.00297666895783129
1213.0, 0.0023780013672498597
1214.0, 0.003008107372013197
1215.0, 0.003101543106191168
1216.0, 0.0025025434552979195
1217.0, 0.0022880579931832197
1218.0, 0.0037433881099639852
1219.0, 0.0032880613766774498
1220.0, 0.0018829803844252501
1221.0, 0.004401832091223379
1222.0, 0.002044045933708323
1223.0, 0.001003558206943177
1224.0, 0.0018656526639067293
1225.0, 0.00314300857595553
1226.0, 0.0028267914007792942
1227.0, 0.002741503217638055
1228.0, 0.00325948322832206
1229.0, 0.0019497984043756469
1230.0, 0.0021542470728924366
1231.0, 0.0026357356995002443
1232.0, 0.0015612204975673843
1233.0, 0.001959052335001773
1234.0, 0.003839933666992349
1235.0, 0.004151104788238774
1236.0, 0.0012843553458632556
1237.0, 0.004563635159507466
1238.0, 0.004288988104978865
1239.0, 0.0044585900939285
1240.0, 0.00471226507049834
1241.0, 0.004027311905019437
1242.0, 0.003917738800003932
1243.0, 0.0041836216320556684
1244.0, 0.004121330677608223
1245.0, 0.0045215912818309
1246.0, 0.005426304049574166
1247.0, 0.005446043510912596
1248.0, 0.004385676428237386
1249.0, 0.003912867370816118
1250.0, 0.0024898647901408135
1251.0, 0.004097758115337627
1252.0, 0.006384790584913646
1253.0, 0.0047425573929580425
1254.0, 0.005390210013900757
1255.0, 0.0042414679472277585
1256.0, 0.003684554584577187
1257.0, 0.0034448104119196247
1258.0, 0.0030703803989949297
1259.0, 0.00322038242995401
1260.0, 0.0029472479634823708
1261.0, 0.0037263464130192514
1262.0, 0.004318701948043795
1263.0, 0.0044247264231941945
1264.0, 0.0020766123565140264
1265.0, 0.0028762344691511993
1266.0, 0.0028626106782314474
1267.0, 0.0043874543020659225
1268.0, 0.003256343740328662
1269.0, 0.002122797091375074
1270.0, 0.0018648078599959102
1271.0, 0.0006081456576629582
1272.0, 0.0013744866787593606
1273.0, 0.003541246014333636
1274.0, 0.0019346762508620026
1275.0, 0.00024979985694995206
1276.0, 0.0035990807972637938
1277.0, 0.0021441114038752507
1278.0, 0.0023400699387412837
1279.0, 0.003011152764540982
1280.0, 0.0006566224041056011
1281.0, 0.0005569734482234763
1282.0, 0.0014452136954039858
1283.0, 0.001229199673928926
1284.0, 0.0019360808476420247
1285.0, 0.0013282382713629133
1286.0, 0.0002127085637868361
1287.0, 0.0013517450025788739
1288.0, 0.002219621748526574
1289.0, 0.0009055690559322913
1290.0, 0.0015195034631293406
1291.0, 0.0019782080297269296
1292.0, 5.587788847254007e-05
1293.0, 0.001260756524004571
1294.0, 0.004208878872619685
1295.0, 0.001453242938545851
1296.0, 0.0019160694133056452
1297.0, 0.0026814134859981403
1298.0, 0.0015478043892026049
1299.0, 0.0010904839253200842
1300.0, 0.0012555607845163548
1301.0, 0.0011115662846627112
1302.0, 0.0037319199471637456
1303.0, 0.003000366032807447
1304.0, 0.002197089091901663
1305.0, 0.0007210763356582284
1306, 0.0
1307, 0.0
1308, 0.0
1309, 0.0
1310, 0.0
1311, 0.0
1312, 0.0
1313, 0.0
1314, 0.0
1315, 0.0
1316, 0.0
1317, 0.0
1318, 0.0
1319, 0.0
1320, 0.0
1321, 0.0
1322, 0.0
1323, 0.0
1324, 0.0
1325, 0.0
1326, 0.0
1327, 0.0
1328, 0.0
1329, 0.0
1330, 0.0
1331, 0.0
1332, 0.0
1333, 0.0
1334, 0.0
1335, 0.0
1336, 0.0
1337, 0.0
1338, 0.0
1339, 0.0
1340, 0.0
1341, 0.0
1342, 0.0
1343, 0.0
1344, 0.0
1345, 0.0
1346, 0.0
1347, 0.0
1348, 0.0
1349, 0.0
1350, 0.0
1351, 0.0
1352, 0.0
1353, 0.0
1354, 0.0
1355, 0.0
1356, 0.0
1357, 0.0
1358, 0.0
1359, 0.0
1360, 0.0
1361, 0.0
1362, 0.0
1363, 0.0
1364, 0.0
1365, 0.0
1366, 0.0
1367, 0.0
1368, 0.0
1369, 0.0
1370, 0.0
1371, 0.0
1372, 0.0
1373, 0.0
1374, 0.0
1375, 0.0
1376, 0.0
1377, 0.0
1378, 0.0
1379, 0.0
1380, 0.0
1381, 0.0
1382, 0.0
1383, 0.0
1384, 0.0
1385, 0.0
1386, 0.0
1387, 0.0
1388, 0.0
1389, 0.0
1390, 0.0
1391, 0.0
1392, 0.0
1393, 0.0
1394, 0.0
1395, 0.0
1396, 0.0
1397, 0.0
1398, 0.0
1399, 0.0
1400, 0.0
1401, 0.0
1402, 0.0
1403, 0.0
1404, 0.0
1405, 0.0
1406, 0.0
1407, 0.0
1408, 0.0
1409, 0.0
1410, 0.0
1411, 0.0
1412, 0.0
1413, 0.0
1414, 0.0
1415, 0.0
1416, 0.0
1417, 0.0
1418, 0.0
1419, 0.0
1420, 0.0
1421, 0.0
1422, 0.0
1423, 0.0
1424, 0.0
1425, 0.0
1426, 0.0
1427, 0.0
1428, 0.0
1429, 0.0
1430, 0.0
1431, 0.0
1432, 0.0
1433, 0.0
1434, 0.0
1435, 0.0
1436, 0.0
1437, 0.0
1438, 0.0
1439, 0.0
1440, 0.0
1441, 0.0
1442, 0.0
1443, 0.0
1444, 0.0
1445, 0.0
1446, 0.0
1447, 0.0
1448, 0.0
1449, 0.0
1450, 0.0
1451, 0.0
1452, 0.0
1453, 0.0
1454, 0.0
1455, 0.0
1456, 0.0
1457, 0.0
1458, 0.0
1459, 0.0
1460, 0.0
1461, 0.0
1462, 0.0
1463, 0.0
1464, 0.0
1465, 0.0
1466, 0.0
1467, 0.0
1468, 0.0
1469, 0.0
1470, 0.0
1471, 0.0
1472, 0.0
1473, 0.0
1474, 0.0
1475, 0.0
1476, 0.0
1477, 0.0
1478, 0.0
1479, 0.0
1480, 0.0
1481, 0.0
1482, 0.0
1483, 0.0
1484, 0.0
1485, 0.0
1486, 0.0
1487, 0.0
1488, 0.0
1489, 0.0
1490, 0.0
1491, 0.0
1492, 0.0
1493, 0.0
1494, 0.0
1495, 0.0
1496, 0.0
1497, 0.0
1498, 0.0
1499, 0.0
1500, 0.0
1501, 0.0
1502, 0.0
1503, 0.0
1504, 0.0
1505, 0.0
1506, 0.0
1507, 0.0
1508, 0.0
1509, 0.0
1510, 0.0
1511, 0.0
1512, 0.0
1513, 0.0
1514, 0.0
1515, 0.0
1516, 0.0
1517, 0.0
1518, 0.0
1519, 0.0
1520, 0.0
1521, 0.0
1522, 0.0
1523, 0.0
1524, 0.0
1525, 0.0
1526, 0.0
1527, 0.0
1528, 0.0
1529, 0.0
1530, 0.0
1531, 0.0
1532, 0.0
1533, 0.0
1534, 0.0
1535, 0.0
1536, 0.0
1537, 0.0
1538, 0.0
1539, 0.0
1540, 0.0
1541, 0.0
1542, 0.0
1543, 0.0
1544, 0.0
1545, 0.0
1546, 0.0
1547, 0.0
1548, 0.0
1549, 0.0
1550, 0.0
1551, 0.0
1552, 0.0
1553, 0.0
1554, 0.0
1555, 0.0
1556, 0.0
1557, 0.0
1558, 0.0
1559, 0.0
1560, 0.0
1561, 0.0
1562, 0.0
1563, 0.0
1564, 0.0
1565, 0.0
1566, 0.0
1567, 0.0
1568, 0.0
1569, 0.0
1570, 0.0
1571, 0.0
1572, 0.0
1573, 0.0
1574, 0.0
1575, 0.0
1576, 0.0
1577, 0.0
1578, 0.0
1579, 0.0
1580, 0.0
1581, 0.0
1582, 0.0
1583, 0.0
1584, 0.0
1585, 0.0
1586, 0.0
1587, 0.0
1588, 0.0
1589, 0.0
1590, 0.0
1591, 0.0
1592, 0.0
1593, 0.0
1594, 0.0
1595, 0.0
1596, 0.0
1597, 0.0
1598, 0.0
1599, 0.0
