30, 0.0
31, 0.0
32, 0.0
33, 0.0
34, 0.0
35, 0.0
36, 0.0
37, 0.0
38, 0.0
39, 0.0
40, 0.0
41, 0.0
42, 0.0
43, 0.0
44, 0.0
45, 0.0
46, 0.0
47, 0.0
48, 0.0
49, 0.0
50, 0.0
51, 0.0
52, 0.0
53, 0.0
54, 0.0
55, 0.0
56, 0.0
57, 0.0
58, 0.0
59, 0.0
60, 0.0
61, 0.0
62, 0.0
63, 0.0
64, 0.0
65, 0.0
66, 0.0
67, 0.0
68, 0.0
69, 0.0
70, 0.0
71, 0.0
72, 0.0
73, 0.0
74, 0.0
75, 0.0
76, 0.0
77, 0.0
78, 0.0
79, 0.0
80, 0.0
81, 0.0
82, 0.0
83, 0.0
84, 0.0
85, 0.0
86, 0.0
87, 0.0
88, 0.0
89, 0.0
90, 0.0
91, 0.0
92, 0.0
93, 0.0
94, 0.0
95, 0.0
96, 0.0
97, 0.0
98, 0.0
99, 0.0
100, 0.0
101, 0.0
102, 0.0
103, 0.0
104, 0.0
105, 0.0
106.0, 0.0001392759338176582
107.0, 3.7299634998154505e-05
108.0, 0.002152386911012282
109.0, 0.004797945155146967
110.0, 0.007434075260243535
111.0, 0.010189056073669885
112.0, 0.013480644549722991
113.0, 0.01974129723629922
114.0, 0.02585416137480036
115.0, 0.03164637628272096
116.0, 0.03807249487391114
117.0, 0.04091293023805259
118.0, 0.04308344086792758
119.0, 0.046394250839841646
120.0, 0.05102552256818018
121.0, 0.05277117472674315
122.0, 0.05646732571920584
123.0, 0.059484648462878834
124.0, 0.05938539107819376
125.0, 0.05915611536623198
126.0, 0.05862549222775586
127.0, 0.0583756076721442
128.0, 0.05876358123591252
129.0, 0.059703330074251375
130.0, 0.05900422241933519
131.0, 0.05908026229530588
132.0, 0.05930563737741451
133.0, 0.05634672671622168
134.0, 0.05395856495424764
135.0, 0.05458203379417827
136.0, 0.05591110179346859
137.0, 0.053192987183582036
138.0, 0.05227066245548063
139.0, 0.04918586503307079
140.0, 0.04668106523075727
141.0, 0.04722612379119466
142.0, 0.04436944279271055
143.0, 0.04049482504207787
144.0, 0.03701085143427494
145.0, 0.03428302281178651
146.0, 0.031885822044372084
147.0, 0.029480861087328607
148.0, 0.026942263433235428
149.0, 0.02436317980690042
150.0, 0.021798230891965413
151.0, 0.021022265062209514
152.0, 0.01949038877353864
153.0, 0.017512413860817894
154.0, 0.016735064342508387
155.0, 0.015204408525747753
156.0, 0.014215844120050738
157.0, 0.012161587744879403
158.0, 0.009255127286457094
159.0, 0.009667184491423862
160.0, 0.00963996343039067
161.0, 0.010213129316439726
162.0, 0.010826853588186965
163.0, 0.008744847834512301
164.0, 0.00774841416022145
165.0, 0.007527769413149037
166.0, 0.0070718559238353755
167.0, 0.005678986054500509
168.0, 0.004140058359626091
169.0, 0.004394107247170006
170.0, 0.00446441508437022
171.0, 0.0030823753617205884
172.0, 0.002842246367730399
173.0, 0.002052344057999297
174.0, 0.002216654173205975
175.0, 0.0025550681233284652
176.0, 0.0007351245981734321
177.0, 0.000335228834513453
178.0, 0.001229214934736968
179.0, 0.001552236588236464
180.0, 0.0007261112914192705
181.0, 0.0009159367712673908
182.0, 0.0005753652777387599
183.0, 0.002047449847407094
184.0, 0.002385732136311072
185.0, 0.0016382320370987768
186.0, 0.00017892087311468602
187.0, 0.00030808588381093615
188.0, 0.001186882646119405
189.0, 8.923577362216466e-05
190.0, 0.0015588327983633125
191.0, 0.0012302953212063642
192.0, 0.001047755685789843
193.0, 0.0028157736819022904
194.0, 0.002985744178909603
195.0, 0.004319717960951429
196.0, 0.004648551906797114
197.0, 0.0044729604996247415
198.0, 0.007512479525703837
199.0, 0.01002892707611457
200.0, 0.011754618688707221
201.0, 0.013677495580607699
202.0, 0.016662183348776113
203.0, 0.01823978906636458
204.0, 0.01973524542208204
205.0, 0.021322668179629398
206.0, 0.02327359944124963
207.0, 0.02708936557451834
208.0, 0.028698580065467424
209.0, 0.028781897379666875
210.0, 0.02996944272448712
211.0, 0.03337545661918105
212.0, 0.0344105191093074
213.0, 0.035172903717996716
214.0, 0.03708244059609642
215.0, 0.038863215123776655
216.0, 0.03812799348612158
217.0, 0.038445963863176856
218.0, 0.039254882886070146
219.0, 0.04013341233068032
220.0, 0.04091043695264289
221.0, 0.03979838166201795
222.0, 0.038971544731958206
223.0, 0.03774762088138587
224.0, 0.03593027697823895
225.0, 0.03579642808573083
226.0, 0.03608992579640315
227.0, 0.03459988479469318
228.0, 0.03257416070025357
229.0, 0.03249136634596137
230.0, 0.030115234089275418
231.0, 0.029383934026095744
232.0, 0.027822076652777576
233.0, 0.024491940272374103
234.0, 0.02379560028373463
235.0, 0.022721508339135884
236.0, 0.02107520163948653
237.0, 0.01908934684592424
238.0, 0.016992189408779942
239.0, 0.016545639665112976
240.0, 0.014666678618036897
241.0, 0.012630756299965332
242.0, 0.011531594543072215
243.0, 0.009649271038362528
244.0, 0.00893653431927489
245.0, 0.006922794461969963
246.0, 0.005037358823707881
247.0, 0.006473815536959353
248.0, 0.005309473452133569
249.0, 0.006528289719466715
250.0, 0.005595874315412474
251.0, 0.0012926931008032786
252.0, 0.0009489692759775745
253.0, 0.00016220715522963366
254.0, 0.000635187154762936
255.0, 6.363889045248955e-05
256.0, 0.0011443111342110631
257.0, 0.0003267992729925985
258.0, 0.0014665817719491938
259.0, 0.0017531800892062622
260.0, 0.0010234272571979378
261.0, 0.0006012170284379903
262.0, 0.0003617388533644202
263.0, 0.0003832227164029803
264.0, 0.0004717078507134469
265.0, 0.0005070161767877742
266.0, 0.0018954144230872566
267.0, 0.002204688305131431
268.0, 0.0004262145461514428
269.0, 0.0002453318811230585
270.0, 0.003961217733206398
271.0, 0.005516284537869795
272.0, 0.007004999610604597
273.0, 0.007817798987486406
274.0, 0.00813184162363423
275.0, 0.009804401051906827
276.0, 0.011141554748116256
277.0, 0.014404384427429497
278.0, 0.01814176646589914
279.0, 0.02037466725005452
280.0, 0.022305134944732713
281.0, 0.025522626524260187
282.0, 0.028539320172369195
283.0, 0.03184427518465095
284.0, 0.03612279378467922
285.0, 0.0372469562641726
286.0, 0.04022887660685942
287.0, 0.04434193206883672
288.0, 0.0489645852414088
289.0, 0.054717335345783755
290.0, 0.058545858446241224
291.0, 0.06142742585279865
292.0, 0.06403149911843072
293.0, 0.06668428875200998
294.0, 0.06962477934600333
295.0, 0.07232812184756736
296.0, 0.07394754347154346
297.0, 0.07545230053226736
298.0, 0.0773784245871309
299.0, 0.07679823646135589
300.0, 0.07923734264024532
301.0, 0.07962842027501749
302.0, 0.07774655341490865
303.0, 0.07733088905155772
304.0, 0.07599460483281999
305.0, 0.07431502303651746
306.0, 0.07170140364185862
307.0, 0.06903768612712462
308.0, 0.06831520798885979
309.0, 0.06552987210264101
310.0, 0.06110249987793528
311.0, 0.0565773802711139
312.0, 0.0532059968400179
313.0, 0.051392111780846544
314.0, 0.047490450167996766
315.0, 0.042377128378614765
316.0, 0.03778030758689765
317.0, 0.034703759919154524
318.0, 0.03189135923565
319.0, 0.02671090657374945
320.0, 0.02446710609683155
321.0, 0.023022778826099127
322.0, 0.018158693071223954
323.0, 0.01651467487535483
324.0, 0.011317538483480369
325.0, 0.009853518856378446
326.0, 0.010416139616512504
327.0, 0.0058940590232603625
328.0, 0.004926779974460153
329.0, 0.004063010656132476
330.0, 0.0023621740261311306
331.0, 0.0007693628155749358
332.0, 0.00016053509253497573
333.0, 0.0005190650572926693
334.0, 0.0019378892014864483
335.0, 0.0029781548986718798
336.0, 0.002950723020985786
337.0, 0.0023658893207459974
338.0, 0.002821609667176256
339.0, 0.0029619295158219154
340.0, 0.002903917330356361
341.0, 0.0027311166686619422
342.0, 0.0018485005286678143
343.0, 0.002172713306236558
344.0, 0.002334471967432631
345.0, 0.000697316144036988
346.0, 0.0025238498614539137
347.0, 0.003199435853397378
348.0, 0.00433852154524409
349.0, 0.0026235856130175025
350.0, 0.0021894871620155142
351.0, 0.006184753617193504
352.0, 0.005860957048385975
353.0, 0.007342823815123812
354.0, 0.009168922344848039
355.0, 0.01023626514128527
356.0, 0.01112877361718278
357.0, 0.013611301268195134
358.0, 0.01657023445825602
359.0, 0.01841408515766621
360.0, 0.020605351972284112
361.0, 0.024042358841954277
362.0, 0.025510522474561263
363.0, 0.028450777395615013
364.0, 0.030142584715502633
365.0, 0.03053272132432905
366.0, 0.03233622918588789
367.0, 0.03818865032484396
368.0, 0.04114159885002693
369.0, 0.04311489020176275
370.0, 0.04477705673866079
371.0, 0.0462427348037875
372.0, 0.04996739386080412
373.0, 0.048785890726651696
374.0, 0.04946838821343529
375.0, 0.05204851057771407
376.0, 0.053506692707990654
377.0, 0.057293361639262796
378.0, 0.05711740430059241
379.0, 0.057618577510445926
380.0, 0.058727025508215555
381.0, 0.057853806570893174
382.0, 0.058446713859963875
383.0, 0.06052299742975823
384.0, 0.06058288616485949
385.0, 0.05924787573403128
386.0, 0.05874887170329197
387.0, 0.056947829669609824
388.0, 0.055365133733500015
389.0, 0.05609380080439445
390.0, 0.05678439979184123
391.0, 0.05555543022114649
392.0, 0.05409343107668371
393.0, 0.051977664559191686
394.0, 0.05042359554149217
395.0, 0.049438594346747126
396.0, 0.048647863740615936
397.0, 0.048124995548414845
398.0, 0.045431595417194014
399.0, 0.044119868814872905
400.0, 0.043482162506703
401.0, 0.042565764023898646
402.0, 0.04267931175942136
403.0, 0.04212976537762539
404.0, 0.04091132531837806
405.0, 0.04174935190381047
406.0, 0.043365404816357624
407.0, 0.04089873688591593
408.0, 0.04095729278744282
409.0, 0.03920998265552928
410.0, 0.0387435759542335
411.0, 0.0396815814774102
412.0, 0.03879979695989962
413.0, 0.039508387799260206
414.0, 0.03947767146354709
415.0, 0.03842256118316035
416.0, 0.03763154923302899
417.0, 0.03830992563299781
418.0, 0.0392546714839577
419.0, 0.0399482458041895
420.0, 0.038692363862614536
421.0, 0.036071413698757576
422.0, 0.03637566835979091
423.0, 0.04691518645833943
424.0, 0.046341872076740655
425.0, 0.041409712786709116
426.0, 0.037719548641767506
427.0, 0.03575474914138824
428.0, 0.0355221682516963
429.0, 0.035530656664507464
430.0, 0.03639886611918194
431.0, 0.03617392567092067
432.0, 0.034129219950595244
433.0, 0.03216634203565553
434.0, 0.03311307468700754
435.0, 0.03089731538518767
436.0, 0.028509242640802818
437.0, 0.02800061359533699
438.0, 0.028344328673897454
439.0, 0.028882016679767582
440.0, 0.025644434883931113
441.0, 0.024332546849602323
442.0, 0.025206176865783084
443.0, 0.025741961615359032
444.0, 0.02641781848407296
445.0, 0.023407189399315124
446.0, 0.02267627180474292
447.0, 0.021659651487292243
448.0, 0.020361149558321717
449.0, 0.022992905261239018
450.0, 0.022149766080588072
451.0, 0.02405160381556143
452.0, 0.023540014372983788
453.0, 0.021284511484719708
454.0, 0.02184757673222946
455.0, 0.02082701265127629
456.0, 0.021554268026079765
457.0, 0.023312156032417694
458.0, 0.025877328332694054
459.0, 0.02908266939375544
460.0, 0.030378011243139873
461.0, 0.026898253646953404
462.0, 0.026756303347194865
463.0, 0.02846876591271211
464.0, 0.029406464747173712
465.0, 0.030693362296022497
466.0, 0.029236899221855336
467.0, 0.02984216225984111
468.0, 0.030881453647587036
469.0, 0.030629455672055203
470.0, 0.029228098489473806
471.0, 0.02644917929744474
472.0, 0.029581594148993074
473.0, 0.02991026796725454
474.0, 0.028405512112587534
475.0, 0.028155403757425496
476.0, 0.026721968532495175
477.0, 0.02599608550724334
478.0, 0.02502377405895607
479.0, 0.02508147332738262
480.0, 0.024893836261630897
481.0, 0.022486023300628672
482.0, 0.021693261074435328
483.0, 0.022717046597689937
484.0, 0.022690064248654686
485.0, 0.02094466676912049
486.0, 0.01919304517174172
487.0, 0.019204791324036734
488.0, 0.017857482392254462
489.0, 0.01928774806406239
490.0, 0.016700072629054152
491.0, 0.012449032858873431
492.0, 0.014546269854852875
493.0, 0.014272982692929006
494.0, 0.01291358952430764
495.0, 0.01108919609879506
496.0, 0.010516015896593242
497.0, 0.010639614765486156
498.0, 0.009009038900276623
499.0, 0.0069561711950108214
500.0, 0.005030941461964814
501.0, 0.004954214230687333
502.0, 0.004921725886262465
503.0, 0.002805824940891615
504.0, 0.0001925347863117919
505.0, 0.0010609752590592567
506.0, 0.0024523180483630004
507.0, 0.001959647725844411
508.0, 0.0006420114630063232
509.0, 0.00022119129744619813
510.0, 0.0014043640816761836
511.0, 0.001942879699047686
512.0, 0.0020896644848308814
513.0, 0.002900946228700213
514.0, 0.004156956193017655
515.0, 0.004275187956325521
516.0, 0.002987782359151836
517.0, 0.003301270043419868
518.0, 0.0036327361480222435
519.0, 0.0030970521670017903
520.0, 0.0021528218269578456
521.0, 0.0010786194888059248
522.0, 0.0009238244541617669
523.0, 0.0013470312683966266
524.0, 0.001490288631720741
525.0, 0.0007996033065405721
526.0, 0.0005649824705028796
527.0, 0.001201255242472645
528.0, 0.0011461099502095258
529.0, 0.0032415199591165253
530.0, 0.0046868054785054155
531.0, 0.0051571008558199925
532.0, 0.008524237267821255
533.0, 0.00988844634409186
534.0, 0.0113577057590188
535.0, 0.012642983408104099
536.0, 0.013456484254231984
537.0, 0.014459045244899684
538.0, 0.016828939082129415
539.0, 0.0165508623900117
540.0, 0.019783697288686168
541.0, 0.022419788300900766
542.0, 0.02294319495904482
543.0, 0.02277451452512988
544.0, 0.020512937870288957
545.0, 0.022013758515048908
546.0, 0.02363214137253168
547.0, 0.023567813034404087
548.0, 0.022873449347751297
549.0, 0.023224064543785197
550.0, 0.02497605832478679
551.0, 0.024389272184262907
552.0, 0.024728062563534957
553.0, 0.024183708510199717
554.0, 0.021887836763384926
555.0, 0.020568256899762136
556.0, 0.019037152500378296
557.0, 0.01917528137256674
558.0, 0.019165682230475385
559.0, 0.018574093898298016
560.0, 0.017282808823879375
561.0, 0.015254279182196503
562.0, 0.016043638512252274
563.0, 0.013882674013560603
564.0, 0.015010907643115676
565.0, 0.01577236344253204
566.0, 0.012940236656133529
567.0, 0.01178176941099276
568.0, 0.012007816854889723
569.0, 0.01468643030076467
570.0, 0.013055914837822202
571.0, 0.011212893902802343
572.0, 0.01224756640271351
573.0, 0.009597245564843529
574.0, 0.008655971980108309
575.0, 0.007344639141993172
576.0, 0.006789237694848653
577.0, 0.007428895313800376
578.0, 0.007760544420062677
579.0, 0.00551207487002743
580.0, 0.004830211228191743
581.0, 0.004816393278313571
582.0, 0.00532628901682021
583.0, 0.005207921635604724
584.0, 0.004421771977461449
585.0, 0.005130759381505011
586.0, 0.006945091836541236
587.0, 0.006820512283004888
588.0, 0.00735852965707459
589.0, 0.008011490087754805
590.0, 0.007538660534781228
591.0, 0.006708640995102091
592.0, 0.007424768645985612
593.0, 0.010037744356495702
594.0, 0.011951055280783465
595.0, 0.012207233559734137
596.0, 0.010599527255171671
597.0, 0.008434344563696676
598.0, 0.010551852160080697
599.0, 0.009010130857836118
600.0, 0.007957731215707945
601.0, 0.0074160704647988195
602.0, 0.007993054765471451
603.0, 0.010400017766168564
604.0, 0.007984167948208207
605.0, 0.008088543486232249
606.0, 0.007796765843095444
607.0, 0.006304104457672774
608.0, 0.005439303317838587
609.0, 0.007101559492556109
610.0, 0.009375789246430073
611.0, 0.009845325556938747
612.0, 0.009742671521532492
613.0, 0.009922391841407816
614.0, 0.010630434356915788
615.0, 0.011591533358785338
616.0, 0.01230733362592372
617.0, 0.012917846131624451
618.0, 0.014560586632529704
619.0, 0.013190712882191927
620.0, 0.011819779200739068
621.0, 0.013068035757349798
622.0, 0.013771375236407623
623.0, 0.016161615990220257
624.0, 0.013514295371611524
625.0, 0.015422303666091323
626.0, 0.017313262529892057
627.0, 0.015730185250481723
628.0, 0.014991536144347645
629.0, 0.018102727646539984
630.0, 0.01790381263306454
631.0, 0.01661807847217302
632.0, 0.016947940061949197
633.0, 0.017475849084702528
634.0, 0.0163307344212409
635.0, 0.015587775041592714
636.0, 0.01585065878736276
637.0, 0.014248486234720257
638.0, 0.013858399351749302
639.0, 0.014074608940283949
640.0, 0.013443737211514864
641.0, 0.012305562674065748
642.0, 0.011005197992733376
643.0, 0.013073048363175447
644.0, 0.011651390286311937
645.0, 0.010027128521856122
646.0, 0.010581188662292157
647.0, 0.010710159565115429
648.0, 0.009102203781071233
649.0, 0.009743764016682583
650.0, 0.009783951354465269
651.0, 0.009864446897680932
652.0, 0.009782148112622667
653.0, 0.009295000232560935
654.0, 0.009322374325149676
655.0, 0.010313910498280201
656.0, 0.012436386990029214
657.0, 0.01143495785174576
658.0, 0.012085445053486925
659.0, 0.01419392408725074
660.0, 0.013493342417819678
661.0, 0.012033523928445885
662.0, 0.011521080882627559
663.0, 0.012766548299929561
664.0, 0.012940581339562777
665.0, 0.01396661896758002
666.0, 0.01571116234280567
667.0, 0.013296770101823351
668.0, 0.01089629336481848
669.0, 0.010796602460397601
670.0, 0.01058332068291579
671.0, 0.008524593306528943
672.0, 0.005728622244921933
673.0, 0.005171836851410131
674.0, 0.0069831241072748585
675.0, 0.0036953082943738495
676.0, 0.00357797205914463
677.0, 0.002098575711917355
678.0, 0.0007175291622083587
679.0, 0.0008329538957306782
680.0, 0.0018624625022760559
681.0, 0.0006281702672355235
682.0, 0.0006740628889183692
683.0, 0.0005502680699853149
684.0, 0.0008546375124038114
685.0, 0.0003909353906176361
686.0, 0.0010361405767161042
687.0, 0.0025438817792664053
688.0, 0.0006330509161020806
689.0, 0.001781339704230197
690.0, 0.002272325983648437
691.0, 0.002425682409056505
692.0, 0.0018747824992542059
693.0, 0.0013609639017332607
694.0, 0.002929176834503644
695.0, 0.001129477574669801
696.0, 0.001544999444356926
697.0, 0.0019344885243653626
698.0, 0.0009435826453714519
699.0, 0.0013043973991749439
700.0, 0.003531136959115512
701.0, 0.002901659037661561
702.0, 0.004787792552018205
703.0, 0.0036295548383355196
704.0, 0.005616778600529032
705.0, 0.00570474575110013
706.0, 0.004551336005972435
707.0, 0.005643936606414978
708.0, 0.005827751751638037
709.0, 0.005318340586932212
710.0, 0.00613014648166087
711.0, 0.004977731982437748
712.0, 0.0038201666425184025
713.0, 0.0029339866078503902
714.0, 0.0022905628185669385
715.0, 0.0036614246949378585
716.0, 0.0015891390189139698
717.0, 0.0014928230340500892
718.0, 0.0011728033709780753
719.0, 0.0018012113946424106
720.0, 0.0011394323316380203
721.0, 0.0015416221058930418
722.0, 0.0002913857931781258
723.0, 0.0006866725134195803
724.0, 0.0015857048419418618
725.0, 0.0012581606376715396
726.0, 0.0014439739717876095
727.0, 0.0008220283108068748
728.0, 0.001256295808361836
729.0, 0.0010909912790878294
730.0, 0.0011136072981854854
731.0, 0.0008408847890372206
732.0, 0.00018801835646194295
733.0, 9.15683143441252e-05
734.0, 0.0001755133342295813
735.0, 0.0002679999065623995
736.0, 0.0008291151650346901
737.0, 0.0006989784194183099
738.0, 0.0012716165473428895
739.0, 0.0010737150051316996
740.0, 0.002129414842087182
741.0, 0.0015378198892130415
742.0, 0.0008865539347124675
743.0, 0.0005749014249003526
744.0, 0.0002896528288718609
745.0, 0.003184976063541578
746.0, 0.0024686217449395266
747.0, 0.0005045041502365672
748.0, 0.0017745632396837848
749.0, 0.003418515298709002
750.0, 0.0025720684172368885
751.0, 0.004922764033218033
752.0, 0.00467833072728308
753.0, 0.004871774701775207
754.0, 0.004592722133953651
755.0, 0.0064723720103736756
756.0, 0.008029136219393452
757.0, 0.007610679783064345
758.0, 0.009237093000995065
759.0, 0.009946466875300548
760.0, 0.009266588849938277
761.0, 0.010075735773332728
762.0, 0.01877352064986855
763.0, 0.02130865466874301
764.0, 0.0155480928070877
765.0, 0.017638308862397544
766.0, 0.018608934760542446
767.0, 0.019748716385522735
768.0, 0.02186126453359252
769.0, 0.02220388534640571
770.0, 0.02370691926393515
771.0, 0.026520915006648747
772.0, 0.02763493412170253
773.0, 0.02826004453132598
774.0, 0.02993913392246013
775.0, 0.02952553098665023
776.0, 0.03036841211815577
777.0, 0.03278176482192495
778.0, 0.03460119038343207
779.0, 0.033870033281771045
780.0, 0.032193109136832
781.0, 0.035924526173600556
782.0, 0.033712022641799046
783.0, 0.03526215920171089
784.0, 0.035274753460105425
785.0, 0.03416459998231595
786.0, 0.033360012797413977
787.0, 0.032827203543834046
788.0, 0.03207445579645376
789.0, 0.032301260701860554
790.0, 0.031720691382964336
791.0, 0.03035521801107856
792.0, 0.0289692150712703
793.0, 0.029072437804450388
794.0, 0.02923670091743604
795.0, 0.027811887887827062
796.0, 0.026099798453395884
797.0, 0.024289539680573624
798.0, 0.02253699596810542
799.0, 0.02144471649401515
800.0, 0.02113424506014524
801.0, 0.02040695046322165
802.0, 0.019307579679977246
803.0, 0.018685229797072347
804.0, 0.017656880927162756
805.0, 0.01512279328673167
806.0, 0.015998446212945546
807.0, 0.015048617687077024
808.0, 0.014262133596822157
809.0, 0.013592295403558068
810.0, 0.012101171535905189
811.0, 0.011729765053734933
812.0, 0.01307234352124664
813.0, 0.013247732563180209
814.0, 0.012246779030466526
815.0, 0.013261739296042897
816.0, 0.014180799890847837
817.0, 0.014783050790875276
818.0, 0.014875273046415647
819.0, 0.014842040142510527
820.0, 0.01851858785301301
821.0, 0.02025602783071591
822.0, 0.022793872779098324
823.0, 0.02397918612304604
824.0, 0.02642222951338967
825.0, 0.03080310846668588
826.0, 0.034023094078997444
827.0, 0.03583439518234374
828.0, 0.040970749859844446
829.0, 0.043427434056906196
830.0, 0.047474404031299815
831.0, 0.05028227610334375
832.0, 0.05477188255416618
833.0, 0.05950903552273966
834.0, 0.06353020373126875
835.0, 0.06884150081241217
836.0, 0.07399716002419265
837.0, 0.07679031534010439
838.0, 0.08050511625215849
839.0, 0.08354871338729074
840.0, 0.0845665696329987
841.0, 0.08449871141104026
842.0, 0.08417182607261255
843.0, 0.08251526010072505
844.0, 0.07887371173562237
845.0, 0.07517751708774675
846.0, 0.07346396705418087
847.0, 0.06743734594922975
848.0, 0.06138547494688728
849.0, 0.055696812701628386
850.0, 0.05173311544662052
851.0, 0.04882888976235458
852.0, 0.044480082667157715
853.0, 0.04002834940690512
854.0, 0.03639446092341741
855.0, 0.031355708191247986
856.0, 0.028575458155293026
857.0, 0.026750407007134644
858.0, 0.02451873713027595
859.0, 0.02217590259236485
860.0, 0.02037338523716315
861.0, 0.01930784779242766
862.0, 0.016132881165573064
863.0, 0.015396844622080495
864.0, 0.013761069490346963
865.0, 0.012779907100072556
866.0, 0.01102266434683968
867.0, 0.00906127298465605
868.0, 0.008943870327764072
869.0, 0.009102293813405049
870.0, 0.006619808077822852
871.0, 0.004376267822235902
872.0, 0.005119957789351032
873.0, 0.004206353181062439
874.0, 0.002397367124582223
875.0, 0.0015623984450605136
876.0, 0.0007482491403654136
877.0, 0.0008103821720687135
878.0, 0.0019494737740104989
879.0, 0.0019078911602602542
880.0, 0.001684861366258454
881.0, 0.00111521300158326
882.0, 0.0009593713387311471
883.0, 0.0011529813699460965
884.0, 0.0009323573381850674
885.0, 0.0003685599706889926
886.0, 0.0006646999606356942
887.0, 0.001982895767760321
888.0, 0.0002599835057417109
889.0, 0.002857361773161259
890.0, 0.002549415632861197
891.0, 0.0035949039411825538
892.0, 0.004642754247980839
893.0, 0.0033430310656630633
894.0, 0.0027001882686611303
895.0, 0.004087722966386721
896.0, 0.004823036115399707
897.0, 0.006633288748097526
898.0, 0.008505298894718627
899.0, 0.007976432705140288
900.0, 0.00876545759217863
901.0, 0.008973235860276572
902.0, 0.011002628879699721
903.0, 0.013808713549662816
904.0, 0.014301381198755155
905.0, 0.013971471240534994
906.0, 0.014531177337132843
907.0, 0.015143117598300048
908.0, 0.01632542943855283
909.0, 0.01702898880061307
910.0, 0.017817869807194086
911.0, 0.018874532336352744
912.0, 0.02116751987706018
913.0, 0.022419391563758134
914.0, 0.02131431881262873
915.0, 0.02320493028070232
916.0, 0.02436577214294581
917.0, 0.021770111041254484
918.0, 0.023109551459806508
919.0, 0.023191287747105035
920.0, 0.02301236858926978
921.0, 0.02430119345313443
922.0, 0.026059687981857482
923.0, 0.027245578952252453
924.0, 0.028134995445804792
925.0, 0.027651054805122324
926.0, 0.025996753104679023
927.0, 0.025550725837711192
928.0, 0.025682558958266693
929.0, 0.02574528748423089
930.0, 0.027830383897728125
931.0, 0.028261336894067887
932.0, 0.026199451381991246
933.0, 0.026251839042969967
934.0, 0.025629031599118255
935.0, 0.02339753599321406
936.0, 0.023705291713585274
937.0, 0.020618384888992796
938.0, 0.018876775781930276
939.0, 0.01716213964060887
940.0, 0.01699980904572797
941.0, 0.015382229324940488
942.0, 0.011728275329607627
943.0, 0.011509841787472956
944.0, 0.009528395606052361
945.0, 0.007073484099880711
946.0, 0.0053638179627748875
947.0, 0.003224309494466943
948.0, 0.0027821844037748413
949.0, 0.0032268328324256083
950.0, 0.001355322550643689
951.0, 0.0007822315180052703
952.0, 0.0017538433826864619
953.0, 0.0008881177026857834
954.0, 0.0020613339003265558
955.0, 0.0003398558228705393
956.0, 0.001088346288866881
957.0, 0.002203384018683641
958.0, 0.0029027113236453042
959.0, 0.0021809662920239856
960.0, 0.0011597096335010603
961.0, 0.0008146232288265232
962.0, 0.0012726138726264183
963.0, 0.00036572298919613594
964.0, 0.0005895186231683689
965.0, 0.002300586136238363
966.0, 0.001610132522400051
967.0, 0.002319956684701961
968.0, 0.0012077178071878102
969.0, 0.0007918640770948552
970.0, 0.00038533505676795313
971.0, 0.0007057962523759492
972.0, 0.0018357177175943244
973.0, 0.0021268847713601094
974.0, 0.004679349748547748
975.0, 0.004549785161486995
976.0, 0.004930160630087481
977.0, 0.004713309621036257
978.0, 0.004999987714470798
979.0, 0.006815787163447876
980.0, 0.007879404067326191
981.0, 0.010445265311391165
982.0, 0.012593569333973344
983.0, 0.012681489840988323
984.0, 0.014381048277278725
985.0, 0.013958572367221301
986.0, 0.01623368348570034
987.0, 0.016642990198889148
988.0, 0.020026791356229187
989.0, 0.0209199797090051
990.0, 0.022899414665729746
991.0, 0.023484975734647345
992.0, 0.025721594762483393
993.0, 0.027378415781204413
994.0, 0.025270839776176782
995.0, 0.027108849730554135
996.0, 0.02539419028068496
997.0, 0.027118466262105154
998.0, 0.028390970052951412
999.0, 0.029650767072653773
1000.0, 0.029548540926470458
1001.0, 0.03082413725228983
1002.0, 0.03169321407559226
1003.0, 0.03184719567976877
1004.0, 0.031170146619203476
1005.0, 0.030791647571330173
1006.0, 0.03276438741252609
1007.0, 0.03187834550421852
1008.0, 0.028786989120128094
1009.0, 0.027751838013395865
1010.0, 0.028010393623107095
1011.0, 0.02871895352335152
1012.0, 0.0313019343956135
1013.0, 0.02978059476636841
1014.0, 0.029328543341034675
1015.0, 0.02870254466573284
1016.0, 0.025688775221918626
1017.0, 0.028489441450211976
1018.0, 0.029059683799150877
1019.0, 0.02693306831203714
1020.0, 0.02464148920548377
1021.0, 0.024772455525989827
1022.0, 0.024593774751514492
1023.0, 0.024960914363973335
1024.0, 0.023844516592146685
1025.0, 0.023248574508693453
1026.0, 0.024744532093365128
1027.0, 0.026261152944071327
1028.0, 0.025032949532102042
1029.0, 0.022334102149782906
1030.0, 0.023286023315948395
1031.0, 0.022605956156087882
1032.0, 0.022641509301192627
1033.0, 0.025086911331195776
1034.0, 0.0249042325346785
1035.0, 0.026274083829863983
1036.0, 0.027505409780808985
1037.0, 0.027333358208357094
1038.0, 0.027312069731242027
1039.0, 0.027838596123758434
1040.0, 0.02841332481883513
1041.0, 0.029449037558379916
1042.0, 0.03112016725871328
1043.0, 0.029156674062131092
1044.0, 0.03138567555581038
1045.0, 0.03120212163048686
1046.0, 0.03233488607318984
1047.0, 0.03187067163668538
1048.0, 0.03466106770366782
1049.0, 0.03552401456152392
1050.0, 0.03561308299493505
1051.0, 0.03642985635532766
1052.0, 0.036154780930692944
1053.0, 0.037750759298292594
1054.0, 0.039047241631949045
1055.0, 0.04084060364904996
1056.0, 0.04086661176024065
1057.0, 0.04171032580391853
1058.0, 0.044690488075534975
1059.0, 0.04762225796463826
1060.0, 0.046372170386522756
1061.0, 0.047730687185197664
1062.0, 0.05043099914059846
1063.0, 0.05012097383139256
1064.0, 0.0508531587658778
1065.0, 0.053029861389136485
1066.0, 0.050625197186843406
1067.0, 0.0501691691399378
1068.0, 0.04967326310140457
1069.0, 0.051915884487607186
1070.0, 0.05021641570071695
1071.0, 0.051494177483695724
1072.0, 0.051743962037078414
1073.0, 0.04886465435059599
1074.0, 0.049177630642218945
1075.0, 0.05018932485155691
1076.0, 0.04765828826412145
1077.0, 0.044790656369250906
1078.0, 0.044801326412943585
1079.0, 0.04483073479181149
1080.0, 0.04217076403716337
1081.0, 0.041890927463519564
1082.0, 0.03995539148331078
1083.0, 0.037961564680896946
1084.0, 0.03418498995445968
1085.0, 0.0356743938629586
1086.0, 0.03683498303012829
1087.0, 0.03381076919329734
1088.0, 0.03175618115030091
1089.0, 0.029908473808068815
1090.0, 0.028476414278112917
1091.0, 0.02891093656289153
1092.0, 0.02652164270323086
1093.0, 0.02413026862672013
1094.0, 0.028201525510265165
1095.0, 0.024764270187700214
1096.0, 0.02015512262105262
1097.0, 0.017191805520743866
1098.0, 0.01639212130424487
1099.0, 0.014218090908057021
1100.0, 0.012957875356490792
1101.0, 0.012495011716609262
1102.0, 0.01240984805502738
1103.0, 0.010100623604604994
1104.0, 0.0059357935951486985
1105.0, 0.0035717682196210227
1106.0, 0.0025691997666229937
1107.0, 0.0030788192100124684
1108.0, 0.009765250500504473
1109.0, 0.0039078240294210705
1110.0, 0.0018582344385238577
1111.0, 0.00038594081429023375
1112.0, 0.0010422846353615638
1113.0, 0.0032688213990494453
1114.0, 0.0046666438971195235
1115.0, 0.0031312708365662883
1116.0, 0.0032352722882387857
1117.0, 0.003767691798459597
1118.0, 0.001569707940206476
1119.0, 0.0015370449402823901
1120.0, 0.004836621797022722
1121.0, 0.002952246040753742
1122.0, 0.0017767000290992451
1123.0, 0.001582843333565594
1124.0, 0.0028474458670229375
1125.0, 0.0018008194268452004
1126.0, 0.004745788102970217
1127.0, 0.006480163065045855
1128.0, 0.008354310209610685
1129.0, 0.011376806723469761
1130.0, 0.017481934332936194
1131.0, 0.01975316258816022
1132.0, 0.018557492361207326
1133.0, 0.02021608542920956
1134.0, 0.025085717899844498
1135.0, 0.02908983155449037
1136.0, 0.029353349529670038
1137.0, 0.03247924700135986
1138.0, 0.03560559371553378
1139.0, 0.03827805490413395
1140.0, 0.043002783937960226
1141.0, 0.045243094569936
1142.0, 0.04675550593482733
1143.0, 0.04829528317798907
1144.0, 0.05107121412466049
1145.0, 0.04905413792020976
1146.0, 0.05104487900583715
1147.0, 0.05702987359935992
1148.0, 0.06188757194898332
1149.0, 0.06372586467780782
1150.0, 0.062421898807121866
1151.0, 0.06030812959319067
1152.0, 0.059799932396663286
1153.0, 0.06296319300894326
1154.0, 0.06637203958346935
1155.0, 0.06852255145977465
1156.0, 0.07051512063832834
1157.0, 0.07271643171423099
1158.0, 0.06636695895860881
1159.0, 0.06813900053002832
1160.0, 0.07230088551836253
1161.0, 0.0707963579399403
1162.0, 0.06899216081448398
1163.0, 0.06930039725996921
1164.0, 0.06494718245598965
1165.0, 0.06320308045305642
1166.0, 0.06714831083196426
1167.0, 0.0664164456758248
1168.0, 0.06322509115312687
1169.0, 0.06012388952718558
1170.0, 0.059803380911446526
1171.0, 0.0521166149011314
1172.0, 0.048171851495711626
1173.0, 0.04348333881927909
1174.0, 0.04778395895091671
1175.0, 0.04375086966941145
1176.0, 0.03738629574143274
1177.0, 0.031530616443751075
1178.0, 0.026085739645884926
1179.0, 0.02350338425672986
1180.0, 0.020394332629573863
1181.0, 0.011707702457953518
1182.0, 0.007600910628715793
1183.0, 0.006496246574773073
1184.0, 0.003093174083685708
1185.0, 0.000361579105278737
1186.0, 0.002081330736861781
1187.0, 0.002936254727972756
1188.0, 0.008870962612093783
1189.0, 0.0043979355350417795
1190.0, 0.0037988299662175713
1191.0, 0.004308901481779374
1192.0, 0.0009189924584987184
1193.0, 0.002214173681286601
1194.0, 0.0007244176551433843
1195.0, 0.001556235691982977
1196.0, 0.0068307886722485615
1197.0, 0.011757124769122808
1198.0, 0.023204903114768145
1199.0, 0.030487973258346776
1200.0, 0.03699289326025021
1201.0, 0.0471994230426102
1202.0, 0.05962965328301091
1203.0, 0.07075795010310854
1204.0, 0.08276163031618441
1205.0, 0.10004661363450112
1206.0, 0.11605094525088554
1207.0, 0.13510038790415885
1208.0, 0.15038106726303294
1209.0, 0.16312319592536545
1210.0, 0.1903005819515867
1211.0, 0.2036785581243296
1212.0, 0.23193815569014384
1213.0, 0.2609770157184897
1214.0, 0.2857763598436296
1215.0, 0.3112883964549824
1216.0, 0.3394165965831399
1217.0, 0.3700366913387078
1218.0, 0.3986068381445912
1219.0, 0.4293972018756993
1220.0, 0.46262433071264764
1221.0, 0.494567137230302
1222.0, 0.5290159348447748
1223.0, 0.5626185796217661
1224.0, 0.5943210311443299
1225.0, 0.6286147449235204
1226.0, 0.6635765963186828
1227.0, 0.7009671175146203
1228.0, 0.7369835504538975
1229.0, 0.767314614650131
1230.0, 0.7974179819490856
1231.0, 0.8307109710944177
1232.0, 0.8727107167484013
1233.0, 0.9007322936518507
1234.0, 0.9216632636669738
1235.0, 0.9446079984050604
1236.0, 0.9662706715803931
1237.0, 0.9837841446862895
1238.0, 0.9947716219113285
1239.0, 0.9998423375761729
1240.0, 0.9984950520106917
1241.0, 0.9914652243964452
1242.0, 0.9911744709994585
1243.0, 0.9852252214907669
1244.0, 0.9633656584503253
1245.0, 0.9400455606994365
1246.0, 0.922242324908406
1247.0, 0.8981050517863128
1248.0, 0.8598144006396858
1249.0, 0.8167317354892372
1250.0, 0.7722945293917102
1251.0, 0.7225483688050369
1252.0, 0.6761223223442258
1253.0, 0.6312409323396915
1254.0, 0.5789806951898198
1255.0, 0.5321610567891556
1256.0, 0.48145528568289686
1257.0, 0.43796212275353824
1258.0, 0.3879833848587216
1259.0, 0.3503915793318154
1260.0, 0.31146803463018774
1261.0, 0.27343134579478606
1262.0, 0.23859980273866083
1263.0, 0.19910210543919016
1264.0, 0.18043475994440505
1265.0, 0.14791250933250893
1266.0, 0.11807873564757344
1267.0, 0.09560547208383513
1268.0, 0.07567116422786155
1269.0, 0.05659441958642272
1270.0, 0.041917576307764125
1271.0, 0.028151589932503062
1272.0, 0.020148231163502346
1273.0, 0.01821259632599176
1274.0, 0.007847743735065756
1275.0, 0.0015176265216271727
1276.0, 0.0023971087325263866
1277.0, 0.0006338032777192923
1278.0, 0.001535143586277622
1279.0, 0.0034212163007618364
1280.0, 0.0074548053891273875
1281.0, 0.005137120258613929
1282.0, 0.009870165846627778
1283.0, 0.006305366959812642
1284.0, 0.001027779776906998
1285.0, 0.004483084748743615
1286, 0.0
1287, 0.0
1288, 0.0
1289, 0.0
1290, 0.0
1291, 0.0
1292, 0.0
1293, 0.0
1294, 0.0
1295, 0.0
1296, 0.0
1297, 0.0
1298, 0.0
1299, 0.0
1300, 0.0
1301, 0.0
1302, 0.0
1303, 0.0
1304, 0.0
1305, 0.0
1306, 0.0
1307, 0.0
1308, 0.0
1309, 0.0
1310, 0.0
1311, 0.0
1312, 0.0
1313, 0.0
1314, 0.0
1315, 0.0
1316, 0.0
1317, 0.0
1318, 0.0
1319, 0.0
1320, 0.0
1321, 0.0
1322, 0.0
1323, 0.0
1324, 0.0
1325, 0.0
1326, 0.0
1327, 0.0
1328, 0.0
1329, 0.0
1330, 0.0
1331, 0.0
1332, 0.0
1333, 0.0
1334, 0.0
1335, 0.0
1336, 0.0
1337, 0.0
1338, 0.0
1339, 0.0
1340, 0.0
1341, 0.0
1342, 0.0
1343, 0.0
1344, 0.0
1345, 0.0
1346, 0.0
1347, 0.0
1348, 0.0
1349, 0.0
1350, 0.0
1351, 0.0
1352, 0.0
1353, 0.0
1354, 0.0
1355, 0.0
1356, 0.0
1357, 0.0
1358, 0.0
1359, 0.0
1360, 0.0
1361, 0.0
1362, 0.0
1363, 0.0
1364, 0.0
1365, 0.0
1366, 0.0
1367, 0.0
1368, 0.0
1369, 0.0
1370, 0.0
1371, 0.0
1372, 0.0
1373, 0.0
1374, 0.0
1375, 0.0
1376, 0.0
1377, 0.0
1378, 0.0
1379, 0.0
1380, 0.0
1381, 0.0
1382, 0.0
1383, 0.0
1384, 0.0
1385, 0.0
1386, 0.0
1387, 0.0
1388, 0.0
1389, 0.0
1390, 0.0
1391, 0.0
1392, 0.0
1393, 0.0
1394, 0.0
1395, 0.0
1396, 0.0
1397, 0.0
1398, 0.0
1399, 0.0
1400, 0.0
1401, 0.0
1402, 0.0
1403, 0.0
1404, 0.0
1405, 0.0
1406, 0.0
1407, 0.0
1408, 0.0
1409, 0.0
1410, 0.0
1411, 0.0
1412, 0.0
1413, 0.0
1414, 0.0
1415, 0.0
1416, 0.0
1417, 0.0
1418, 0.0
1419, 0.0
1420, 0.0
1421, 0.0
1422, 0.0
1423, 0.0
1424, 0.0
1425, 0.0
1426, 0.0
1427, 0.0
1428, 0.0
1429, 0.0
1430, 0.0
1431, 0.0
1432, 0.0
1433, 0.0
1434, 0.0
1435, 0.0
1436, 0.0
1437, 0.0
1438, 0.0
1439, 0.0
1440, 0.0
1441, 0.0
1442, 0.0
1443, 0.0
1444, 0.0
1445, 0.0
1446, 0.0
1447, 0.0
1448, 0.0
1449, 0.0
1450, 0.0
1451, 0.0
1452, 0.0
1453, 0.0
1454, 0.0
1455, 0.0
1456, 0.0
1457, 0.0
1458, 0.0
1459, 0.0
1460, 0.0
1461, 0.0
1462, 0.0
1463, 0.0
1464, 0.0
1465, 0.0
1466, 0.0
1467, 0.0
1468, 0.0
1469, 0.0
1470, 0.0
1471, 0.0
1472, 0.0
1473, 0.0
1474, 0.0
1475, 0.0
1476, 0.0
1477, 0.0
1478, 0.0
1479, 0.0
1480, 0.0
1481, 0.0
1482, 0.0
1483, 0.0
1484, 0.0
1485, 0.0
1486, 0.0
1487, 0.0
1488, 0.0
1489, 0.0
1490, 0.0
1491, 0.0
1492, 0.0
1493, 0.0
1494, 0.0
1495, 0.0
1496, 0.0
1497, 0.0
1498, 0.0
1499, 0.0
1500, 0.0
1501, 0.0
1502, 0.0
1503, 0.0
1504, 0.0
1505, 0.0
1506, 0.0
1507, 0.0
1508, 0.0
1509, 0.0
1510, 0.0
1511, 0.0
1512, 0.0
1513, 0.0
1514, 0.0
1515, 0.0
1516, 0.0
1517, 0.0
1518, 0.0
1519, 0.0
1520, 0.0
1521, 0.0
1522, 0.0
1523, 0.0
1524, 0.0
1525, 0.0
1526, 0.0
1527, 0.0
1528, 0.0
1529, 0.0
1530, 0.0
1531, 0.0
1532, 0.0
1533, 0.0
1534, 0.0
1535, 0.0
1536, 0.0
1537, 0.0
1538, 0.0
1539, 0.0
1540, 0.0
1541, 0.0
1542, 0.0
1543, 0.0
1544, 0.0
1545, 0.0
1546, 0.0
1547, 0.0
1548, 0.0
1549, 0.0
1550, 0.0
1551, 0.0
1552, 0.0
1553, 0.0
1554, 0.0
1555, 0.0
1556, 0.0
1557, 0.0
1558, 0.0
1559, 0.0
1560, 0.0
1561, 0.0
1562, 0.0
1563, 0.0
1564, 0.0
1565, 0.0
1566, 0.0
1567, 0.0
1568, 0.0
1569, 0.0
1570, 0.0
1571, 0.0
1572, 0.0
1573, 0.0
1574, 0.0
1575, 0.0
1576, 0.0
1577, 0.0
1578, 0.0
1579, 0.0
1580, 0.0
1581, 0.0
1582, 0.0
1583, 0.0
1584, 0.0
1585, 0.0
1586, 0.0
1587, 0.0
1588, 0.0
1589, 0.0
1590, 0.0
1591, 0.0
1592, 0.0
1593, 0.0
1594, 0.0
1595, 0.0
1596, 0.0
1597, 0.0
1598, 0.0
1599, 0.0
