30, 0.0
31, 0.0
32, 0.0
33, 0.0
34, 0.0
35, 0.0
36, 0.0
37, 0.0
38, 0.0
39, 0.0
40, 0.0
41, 0.0
42, 0.0
43, 0.0
44, 0.0
45, 0.0
46, 0.0
47, 0.0
48, 0.0
49, 0.0
50, 0.0
51, 0.0
52, 0.0
53, 0.0
54, 0.0
55, 0.0
56, 0.0
57, 0.0
58, 0.0
59, 0.0
60, 0.0
61, 0.0
62, 0.0
63, 0.0
64, 0.0
65, 0.0
66, 0.0
67, 0.0
68, 0.0
69, 0.0
70, 0.0
71, 0.0
72, 0.0
73, 0.0
74, 0.0
75, 0.0
76, 0.0
77, 0.0
78, 0.0
79, 0.0
80, 0.0
81, 0.0
82, 0.0
83, 0.0
84, 0.0
85, 0.0
86, 0.0
87, 0.0
88, 0.0
89, 0.0
90, 0.0
91, 0.0
92, 0.0
93, 0.0
94, 0.0
95, 0.0
96, 0.0
97, 0.0
98, 0.0
99, 0.0
100, 0.0
101, 0.0
102, 0.0
103, 0.0
104, 0.0
105, 0.0
106, 0.0
107, 0.0
108, 0.0
109, 0.0
110, 0.0
111, 0.0
112, 0.0
113, 0.0
114, 0.0
115, 0.0
116, 0.0
117, 0.0
118, 0.0
119, 0.0
120, 0.0
121, 0.0
122, 0.0
123, 0.0
124, 0.0
125, 0.0
126, 0.0
127, 0.0
128, 0.0
129, 0.0
130, 0.0
131, 0.0
132, 0.0
133, 0.0
134, 0.0
135, 0.0
136, 0.0
137, 0.0
138, 0.0
139, 0.0
140, 0.0
141, 0.0
142, 0.0
143, 0.0
144, 0.0
145, 0.0
146, 0.0
147, 0.0
148, 0.0
149, 0.0
150, 0.0
151, 0.0
152, 0.0
153, 0.0
154, 0.0
155, 0.0
156, 0.0
157, 0.0
158, 0.0
159, 0.0
160, 0.0
161, 0.0
162, 0.0
163, 0.0
164, 0.0
165, 0.0
166, 0.0
167, 0.0
168, 0.0
169.0, 0.0005242945902263678
170.0, 0.006076483451205013
171.0, 0.005218557473181182
172.0, 0.007583610242818926
173.0, 0.0018718353927134035
174.0, 0.0035071795293867896
175.0, 0.015125498358045712
176.0, 0.01664226453872746
177.0, 0.005383288812987196
178.0, 0.0028389233950841053
179.0, 0.007577559043059471
180.0, 0.008290578471298096
181.0, 7.238293644630631e-05
182.0, 0.008134823235880485
183.0, 0.013273225735088342
184.0, 0.008546543250960152
185.0, 0.02137017026423336
186.0, 0.02596713090111047
187.0, 0.027111968166065276
188.0, 0.034715948192127206
189.0, 0.05211541374334292
190.0, 0.06045585409853417
191.0, 0.05918127626925632
192.0, 0.06576997821147432
193.0, 0.09018861881244751
194.0, 0.09900702075299425
195.0, 0.10425506010445793
196.0, 0.12159820005628838
197.0, 0.14915856478560985
198.0, 0.15912866751801436
199.0, 0.17620646780562282
200.0, 0.20243280522703586
201.0, 0.2324156759701543
202.0, 0.25930875509714063
203.0, 0.28039057461057826
204.0, 0.31421593609194554
205.0, 0.34813987197289825
206.0, 0.3723570491743207
207.0, 0.4101790602962942
208.0, 0.4494570270111496
209.0, 0.4819028150517393
210.0, 0.5059563995388271
211.0, 0.5221160390984197
212.0, 0.5173104725280183
213.0, 0.51121860550074
214.0, 0.5037325345754857
215.0, 0.4857004489572215
216.0, 0.46214881456145634
217.0, 0.43082372608564623
218.0, 0.40838675483318715
219.0, 0.397077443085392
220.0, 0.37454529750021776
221.0, 0.34161523546300654
222.0, 0.3366426609296356
223.0, 0.34420005869699316
224.0, 0.3273328659660118
225.0, 0.3304280988208678
226.0, 0.3251586825207583
227.0, 0.3271574089774908
228.0, 0.34754527441422234
229.0, 0.35769319765984703
230.0, 0.3659101760689187
231.0, 0.3823181037681626
232.0, 0.4078608501544354
233.0, 0.4340065625845943
234.0, 0.44657181588655853
235.0, 0.4730578108482049
236.0, 0.5115685626453363
237.0, 0.5441226677534496
238.0, 0.5473130438230402
239.0, 0.5677346241971193
240.0, 0.5730033845480486
241.0, 0.5588728897110649
242.0, 0.5546610133538663
243.0, 0.5263424386132379
244.0, 0.4970397553601633
245.0, 0.47007072663633
246.0, 0.43567734203088015
247.0, 0.38348151494888477
248.0, 0.3382595882071492
249.0, 0.3073790558441995
250.0, 0.2794965706203434
251.0, 0.23540762276078406
252.0, 0.21566442815878736
253.0, 0.19144065076395508
254.0, 0.16544577652674491
255.0, 0.14776318737820987
256.0, 0.12979097699158407
257.0, 0.11959509892590256
258.0, 0.11313405990484214
259.0, 0.10946387196379756
260.0, 0.11122460284377196
261.0, 0.10171799809620015
262.0, 0.09195425807803834
263.0, 0.08778217878454232
264.0, 0.08970003230524903
265.0, 0.09030841700629527
266.0, 0.08093145894425603
267.0, 0.06921906186393853
268.0, 0.06608897862189683
269.0, 0.07324032375505249
270.0, 0.05636442889536084
271.0, 0.0540857900615202
272.0, 0.060976590329065404
273.0, 0.05676556567998634
274.0, 0.03442672553658073
275.0, 0.02833175289229857
276.0, 0.028434150191960647
277.0, 0.024744834675339104
278.0, 0.016037126035777758
279.0, 0.017348557850087643
280.0, 0.016088269223927823
281.0, 0.011956080307800687
282.0, 0.008166482350624876
283.0, 0.005889172561049173
284.0, 0.002558830391247847
285.0, 0.004580556661973422
286.0, 0.01127244827747735
287.0, 0.010101359331731128
288.0, 0.00528191813191352
289.0, 0.00158232261510281
290.0, 0.01421493839123814
291.0, 0.01609839288964991
292.0, 0.006369024537438791
293.0, 0.013932305831616545
294.0, 0.006266170889913006
295.0, 0.0015338615171253418
296.0, 0.005110077027649505
297.0, 0.005579678319970355
298.0, 0.002481662746907945
299.0, 0.0071961395433964995
300.0, 0.005398012659183886
301.0, 0.014570715546218152
302.0, 0.018729087992431868
303.0, 0.01952285103282663
304.0, 0.028071264763988097
305.0, 0.03760084859490832
306.0, 0.03208430538782534
307.0, 0.03639386251051141
308.0, 0.045202860553952916
309.0, 0.052132802169810546
310.0, 0.05472771089090766
311.0, 0.05482814223897802
312.0, 0.06038002002756367
313.0, 0.06670644022190098
314.0, 0.06855264592864552
315.0, 0.06642510900106915
316.0, 0.07650780555816179
317.0, 0.061917846136745246
318.0, 0.04876395288225886
319.0, 0.04795695321061626
320.0, 0.04689550594237841
321.0, 0.047984077124314406
322.0, 0.053382094756555254
323.0, 0.05576607094149381
324.0, 0.05287259720945061
325.0, 0.055233974723695706
326.0, 0.06514151422278175
327.0, 0.06533421067385471
328.0, 0.06085947129954253
329.0, 0.0641894859909253
330.0, 0.07693381283352993
331.0, 0.08896283016859309
332.0, 0.09873214697622211
333.0, 0.10587988039799197
334.0, 0.11190358378906247
335.0, 0.12892197193771326
336.0, 0.13773634099809864
337.0, 0.13514463898375123
338.0, 0.13307789378298174
339.0, 0.14840667773462118
340.0, 0.16298131737654356
341.0, 0.16920180220829176
342.0, 0.16742942476400358
343.0, 0.16390415060243996
344.0, 0.17509992905058422
345.0, 0.1797323009331438
346.0, 0.1928782553894817
347.0, 0.21252999577996895
348.0, 0.228104989748226
349.0, 0.24433479816852588
350.0, 0.25292517211502646
351.0, 0.26868043606043035
352.0, 0.2916748577175451
353.0, 0.31326087790257406
354.0, 0.3606699668466145
355.0, 0.3941331770106997
356.0, 0.43124927445224015
357.0, 0.48050244203882286
358.0, 0.5269638864553211
359.0, 0.5754946377384067
360.0, 0.6400052680887518
361.0, 0.7093969780877751
362.0, 0.7673662742268821
363.0, 0.8087540179355209
364.0, 0.8640401318431112
365.0, 0.9099472055924298
366.0, 0.9430403257269654
367.0, 0.9664128308391788
368.0, 0.9690480670344085
369.0, 0.9973379555447892
370.0, 0.9801772402510717
371.0, 0.9172203367037484
372.0, 0.8395405116720035
373.0, 0.7598669567802216
374.0, 0.6930242302332055
375.0, 0.6325445472968475
376.0, 0.5762574046737083
377.0, 0.5257442440216346
378.0, 0.4753954746926602
379.0, 0.4311377812700072
380.0, 0.39365587354764664
381.0, 0.3599432417136716
382.0, 0.32697949262096676
383.0, 0.29944663554611073
384.0, 0.2836919579221056
385.0, 0.27124377881954653
386.0, 0.25443229162321657
387.0, 0.2351106837134022
388.0, 0.22916374595012184
389.0, 0.22437087199158604
390.0, 0.22310668459192332
391.0, 0.21894900170829482
392.0, 0.19966251741031593
393.0, 0.20358460962247174
394.0, 0.2126381871875158
395.0, 0.20204292050437594
396.0, 0.1801218750331071
397.0, 0.18607958984493606
398.0, 0.1689244232524345
399.0, 0.15387429156769258
400.0, 0.15451235320745185
401.0, 0.16587590498167246
402.0, 0.1585113449654676
403.0, 0.15596320620467674
404.0, 0.15353326102675927
405.0, 0.15410822841399704
406.0, 0.15355967932750816
407.0, 0.1337071453401013
408.0, 0.11774156621302385
409.0, 0.11949384066930827
410.0, 0.12696615932309754
411.0, 0.12091197648352761
412.0, 0.09308589678475733
413.0, 0.09565022072626017
414.0, 0.08532208027933302
415.0, 0.07188435146406612
416.0, 0.06961923455068161
417.0, 0.05333221953563298
418.0, 0.05053314369916967
419.0, 0.051542865123764325
420.0, 0.041490815773500014
421.0, 0.024514263582294343
422.0, 0.026941858705706128
423.0, 0.02101357458554093
424.0, 0.027137876565090768
425.0, 0.02810428247107005
426.0, 0.013149583038570287
427.0, 0.012618932983074364
428.0, 0.02318314080604157
429.0, 0.013421142819142112
430.0, 0.002822899019517163
431.0, 0.0033585791268308024
432.0, 0.003686512929511786
433.0, 0.0067786456329914984
434.0, 0.0059327944368434
435.0, 0.0008409713978680948
436.0, 0.005620230673751005
437.0, 0.0005179743935326915
438.0, 0.00042177740245018274
439.0, 0.002903822087555366
440.0, 0.006238871778143359
441.0, 0.009068101546870207
442.0, 0.008792524588589761
443.0, 0.0018050392918458752
444.0, 0.0018282769975557214
445.0, 0.006860461119794038
446.0, 0.006827489948761387
447.0, 0.002313246484145149
448.0, 0.006624854828434022
449.0, 0.010665070132547642
450.0, 0.00040090889424430204
451.0, 0.013029234695561127
452.0, 0.003514838530857535
453.0, 0.0009007278391968464
454.0, 0.0015622843246144804
455.0, 0.0021830938696524244
456.0, 0.001583411087811555
457.0, 0.004988854303619923
458.0, 0.010281316250255787
459.0, 0.00977835685990542
460.0, 0.013072692729106009
461.0, 0.016762856338865876
462.0, 0.010766974245254626
463.0, 0.002624026891268162
464.0, 0.0031743736368307213
465.0, 0.01706708339486437
466.0, 0.027266804220965564
467.0, 0.029670755756283605
468.0, 0.040330739823353126
469.0, 0.03071016955009225
470.0, 0.03339747297540501
471.0, 0.043692091661396024
472.0, 0.04469256383000999
473.0, 0.053058042902144734
474.0, 0.05292838848316867
475.0, 0.06168151233724529
476.0, 0.06733792693292562
477.0, 0.06168995305484418
478.0, 0.06599226259389872
479.0, 0.0790920989896099
480.0, 0.0820639956305166
481.0, 0.08219845003516187
482.0, 0.08560349347055692
483.0, 0.08722026666108501
484.0, 0.09076079493010843
485.0, 0.09626221938172383
486.0, 0.10090351017398695
487.0, 0.1073377920269827
488.0, 0.1164265723145244
489.0, 0.10814650933313898
490.0, 0.12147941752666702
491.0, 0.11856478896598173
492.0, 0.10709229660824775
493.0, 0.11553366394540401
494.0, 0.11951145274257456
495.0, 0.12127684298571784
496.0, 0.12001640129070289
497.0, 0.11946855059828698
498.0, 0.11907930354810559
499.0, 0.11139141667956497
500.0, 0.10815451557267355
501.0, 0.10176773003337772
502.0, 0.10088487390296869
503.0, 0.10206527159099202
504.0, 0.08753186517995293
505.0, 0.08037074219609527
506.0, 0.07571152168569609
507.0, 0.07494962864952028
508.0, 0.07252587108392432
509.0, 0.06324785996415357
510.0, 0.06653011293359946
511.0, 0.06883337104597397
512.0, 0.061008589198098595
513.0, 0.05415830883612916
514.0, 0.052667937458178785
515.0, 0.038566184045072185
516.0, 0.029772233795693534
517.0, 0.029638536915018204
518.0, 0.034104307403211714
519.0, 0.03567160043346575
520.0, 0.029333710226617037
521.0, 0.03777920505132483
522.0, 0.041539604942399506
523.0, 0.0399663054947023
524.0, 0.042554211313639186
525.0, 0.051863383267947566
526.0, 0.052804296586945465
527.0, 0.054021563969749935
528.0, 0.057159703957302285
529.0, 0.06346742235787219
530.0, 0.07048403871457312
531.0, 0.07128014066670428
532.0, 0.07663602028678591
533.0, 0.06565525543854688
534.0, 0.06024634692671598
535.0, 0.06654359004121778
536.0, 0.06941063287168474
537.0, 0.07425480454192412
538.0, 0.07454310523770973
539.0, 0.07980382547334675
540.0, 0.07887413395715141
541.0, 0.06782368106419191
542.0, 0.07416222115121196
543.0, 0.058839987857466775
544.0, 0.07672245360046986
545.0, 0.0866546631535576
546.0, 0.071412659959242
547.0, 0.07143826891147129
548.0, 0.06732702776352412
549.0, 0.06407838970375031
550.0, 0.061755334896800705
551.0, 0.057952931678181975
552.0, 0.05400366838748826
553.0, 0.05749064164512781
554.0, 0.05909816308519278
555.0, 0.05346350088870113
556.0, 0.05481087413255619
557.0, 0.0614277628484498
558.0, 0.05380263344249478
559.0, 0.0496504206730297
560.0, 0.035481435837444654
561.0, 0.03619325070828153
562.0, 0.04685833288533124
563.0, 0.04773098249685749
564.0, 0.03960603436308791
565.0, 0.03609917502841333
566.0, 0.02521022775594381
567.0, 0.028990769837257836
568.0, 0.03771605341986907
569.0, 0.019074975183386203
570.0, 0.02190375767523567
571.0, 0.026785961304229628
572.0, 0.014631786867785445
573.0, 0.007198734551650679
574.0, 0.017929523938451947
575.0, 0.012625769340490273
576.0, 0.019950156409079097
577.0, 0.020839254702953298
578.0, 0.01832758824337582
579.0, 0.017657150401357364
580.0, 0.014478698281443976
581.0, 0.0043220463647374524
582.0, 0.01234981926622469
583.0, 0.0198887731547005
584.0, 0.016918606139848365
585.0, 0.009977411202897482
586.0, 0.009988514850873516
587.0, 0.010118710734669951
588.0, 0.0015924771026116999
589.0, 0.004821549614298916
590.0, 0.012237770209287147
591.0, 0.003978891917422709
592.0, 0.0007621062409391248
593.0, 0.0017064983484691187
594.0, 0.010428198779163933
595.0, 0.014640633071046774
596.0, 0.004248536306863971
597.0, 0.0005443523203421894
598.0, 0.0022539359673991862
599.0, 0.002862258548130466
600.0, 0.0019141549376593824
601.0, 0.008697922343942472
602.0, 0.006304323289106275
603.0, 0.0009748068372352316
604.0, 0.0111391809686067
605.0, 0.005945835239969678
606.0, 0.0009771592350364421
607.0, 0.0027900425858669517
608.0, 0.006008259354616085
609.0, 0.007057809343938034
610.0, 0.010914985511548818
611.0, 0.005647429835049483
612.0, 0.0028207414387874134
613.0, 0.0024440513929021848
614.0, 0.015757525230993767
615.0, 0.011023429746281121
616.0, 0.01537134680966555
617.0, 0.013946616592051882
618.0, 0.017660576786574365
619.0, 0.03134255688114229
620.0, 0.03929171229978144
621.0, 0.04096570830106781
622.0, 0.06322515540070424
623.0, 0.06773482821983447
624.0, 0.06256807810052478
625.0, 0.06718011284366669
626.0, 0.0765746013377847
627.0, 0.0689866636354677
628.0, 0.07509897873061172
629.0, 0.07764138574281282
630.0, 0.07486097371115685
631.0, 0.07395809654625937
632.0, 0.07120509520036766
633.0, 0.08024529145734517
634.0, 0.06808937978759008
635.0, 0.047861407731832235
636.0, 0.03951851765018583
637.0, 0.04724207211611912
638.0, 0.054681584305609335
639.0, 0.037174575840560525
640.0, 0.047709386300490514
641.0, 0.05851026258729415
642.0, 0.05400603893667769
643.0, 0.05107126408114339
644.0, 0.0665608651461191
645.0, 0.07551414368600948
646.0, 0.089242395971608
647.0, 0.09520074177798328
648.0, 0.0953254415198107
649.0, 0.10157068867167263
650.0, 0.10411859589881585
651.0, 0.09580857751521799
652.0, 0.1113947474394944
653.0, 0.10966792825819051
654.0, 0.0948866010406345
655.0, 0.10488649165433984
656.0, 0.11311448388690437
657.0, 0.11174671742640366
658.0, 0.11541486091059014
659.0, 0.11554829233257852
660.0, 0.11710794305615996
661.0, 0.13026956639596013
662.0, 0.13248100186694425
663.0, 0.12909986357571052
664.0, 0.12893356761703728
665.0, 0.13523325215950774
666.0, 0.1462755172388709
667.0, 0.15771869140528366
668.0, 0.15280684162491495
669.0, 0.14392200878246858
670.0, 0.12553238682647308
671.0, 0.12409161626149269
672.0, 0.1367120089122247
673.0, 0.13187002675826934
674.0, 0.11200341851474624
675.0, 0.1048992028186293
676.0, 0.09478867020887768
677.0, 0.08590060754113274
678.0, 0.07168474224416646
679.0, 0.04627671432704024
680.0, 0.042727739929839345
681.0, 0.039887553719028
682.0, 0.04032862891037633
683.0, 0.039251407777227756
684.0, 0.03661082515090575
685.0, 0.035195396014504166
686.0, 0.03474420410959853
687.0, 0.06168022446681676
688.0, 0.06220287596112504
689.0, 0.06578662248773877
690.0, 0.07978588681391924
691.0, 0.08752565183190841
692.0, 0.09975394909683133
693.0, 0.1206460711275484
694.0, 0.14860413460038058
695.0, 0.17170060396381936
696.0, 0.1857554239683139
697.0, 0.19314000021077204
698.0, 0.20001625824618752
699.0, 0.2082701931314484
700.0, 0.2208014885667927
701.0, 0.2277737466480885
702.0, 0.22442338259855518
703.0, 0.21021545767482766
704.0, 0.1879550707156121
705.0, 0.17528541438341314
706.0, 0.14975300800919736
707.0, 0.12881723157766362
708.0, 0.10516975758045885
709.0, 0.08292231006148021
710.0, 0.07271076458340815
711.0, 0.04089356069025475
712.0, 0.03806741602398342
713.0, 0.030848915564752104
714.0, 0.009910671271859788
715.0, 0.002533447343999619
716.0, 0.0013184159110364324
717.0, 0.011237241401856316
718.0, 0.0030468737539697697
719.0, 0.010313074193467836
720.0, 0.013277718777038585
721.0, 0.0033640567243743143
722.0, 0.014011486820776511
723.0, 0.0015505424942907943
724.0, 0.0023732005605136414
725.0, 0.005764276271120967
726.0, 0.009520114393571123
727.0, 0.014450153629267153
728.0, 0.024887882683171995
729.0, 0.03794774801068091
730.0, 0.04045837884978528
731.0, 0.022922814362728763
732.0, 0.020740005508769026
733.0, 0.03248594784427093
734.0, 0.04870419334979192
735.0, 0.06298167760944362
736.0, 0.06948418282435957
737.0, 0.08863246691293498
738.0, 0.08926901904156087
739.0, 0.09127363431594653
740.0, 0.10029365175202905
741.0, 0.1083469044032384
742.0, 0.1185368874271066
743.0, 0.13789196219994626
744.0, 0.13349149214203304
745.0, 0.14307755549012263
746.0, 0.15637724301660694
747.0, 0.16493957344002552
748.0, 0.17587004507388931
749.0, 0.1701318900374547
750.0, 0.17149933067519169
751.0, 0.17510684998849538
752.0, 0.18096149206031995
753.0, 0.1916252522335363
754.0, 0.20296428319308252
755.0, 0.2074600084992291
756.0, 0.2115953397333012
757.0, 0.20727469586587516
758.0, 0.20256087980544732
759.0, 0.20073188406732467
760.0, 0.1929711715885861
761.0, 0.18187059140512607
762.0, 0.19892278779382896
763.0, 0.1802738791902488
764.0, 0.17559469299527372
765.0, 0.18281655991757453
766.0, 0.18255425879431553
767.0, 0.17560134922860576
768.0, 0.17669438221045478
769.0, 0.16736543092090486
770.0, 0.17214526395321667
771.0, 0.16574855979603825
772.0, 0.15785189258342677
773.0, 0.16119869941160056
774.0, 0.16853891897061432
775.0, 0.16141181054894904
776.0, 0.16482702195049184
777.0, 0.16280528621738583
778.0, 0.16016391634394286
779.0, 0.15850246121975461
780.0, 0.14729571422503615
781.0, 0.13231105219996614
782.0, 0.15572103804544057
783.0, 0.14233803239825038
784.0, 0.15076495245128574
785.0, 0.14632246541778543
786.0, 0.1405687189062223
787.0, 0.14171736663108173
788.0, 0.1100460222800231
789.0, 0.10259193863651561
790.0, 0.09965445997067472
791.0, 0.1085013018672713
792.0, 0.10426093978614066
793.0, 0.09337860933041257
794.0, 0.08526700921376831
795.0, 0.059516183413900026
796.0, 0.0689161499478767
797.0, 0.07070386507881207
798.0, 0.06520584497863152
799.0, 0.06468839820346134
800.0, 0.05805014580864288
801.0, 0.04613851355462962
802.0, 0.06736103035023108
803.0, 0.0538561015589136
804.0, 0.04954149936218343
805.0, 0.058837054918214456
806.0, 0.06765794096149579
807.0, 0.07305480937018333
808.0, 0.07829215914516909
809.0, 0.07067538750809685
810.0, 0.059151009577457156
811.0, 0.05589293866979281
812.0, 0.0637878454958252
813.0, 0.06891089687705919
814.0, 0.0650647965575389
815.0, 0.06015676076762744
816.0, 0.05576477722153301
817.0, 0.05188831394580635
818.0, 0.04953271640400676
819.0, 0.054515864415431645
820.0, 0.052986451627425046
821.0, 0.04320263382455584
822.0, 0.04000110669524173
823.0, 0.03007887881549112
824.0, 0.020780440928682226
825.0, 0.01922007150799736
826.0, 0.013734961267780194
827.0, 0.011471897344138723
828.0, 0.010482520933312686
829.0, 0.0027434098621893256
830.0, 0.023629944495860207
831.0, 0.006169258246730943
832.0, 0.0007878793071241553
833.0, 0.0014104706416826736
834.0, 0.002960689583601379
835.0, 0.007155286396832911
836.0, 0.00669761885971224
837.0, 0.010518472013528467
838.0, 0.01447034455430366
839.0, 0.0051158428629307345
840.0, 0.004017992256601951
841.0, 0.0017086141749387434
842.0, 0.00938383662435537
843.0, 0.001883854447631679
844.0, 0.001442089079228377
845.0, 0.0017997668587902372
846.0, 0.001432718935747358
847.0, 0.0017543546658968158
848.0, 0.002183273834043022
849.0, 0.005840625701628666
850.0, 0.004218994308520754
851.0, 0.00032980023412297447
852.0, 0.009587879035268301
853.0, 0.008219157870507966
854.0, 0.012567977449446268
855.0, 0.01043487923293306
856.0, 0.013200242230408065
857.0, 0.023962569269910257
858.0, 0.0030071240533817096
859.0, 0.012261919857235256
860.0, 0.009559240883785666
861.0, 0.010576713601454225
862.0, 0.020645944917926342
863.0, 0.022752757826800602
864.0, 0.015459567797329972
865.0, 0.018781180201825176
866.0, 0.02970246686339875
867.0, 0.033540043719816996
868.0, 0.05309111327166589
869.0, 0.04313414978629201
870.0, 0.0208198598363455
871.0, 0.017454817615237844
872.0, 0.026090163259055058
873.0, 0.02784239596704649
874.0, 0.03391792140715294
875.0, 0.033850877789966725
876.0, 0.043572429497625506
877.0, 0.04200184363172133
878.0, 0.03275089021047036
879.0, 0.03582626049664772
880.0, 0.03254920846752209
881.0, 0.025098677002576654
882.0, 0.0359031501367851
883.0, 0.04648583319202066
884.0, 0.039921535860998815
885.0, 0.032486935823819736
886.0, 0.03374517928035025
887.0, 0.027470574676341116
888.0, 0.03405942578004866
889.0, 0.0431276887250377
890.0, 0.04595949033749895
891.0, 0.03973007880569246
892.0, 0.037126146575346596
893.0, 0.04485819696204988
894.0, 0.05093853368033546
895.0, 0.037887572102208715
896.0, 0.04170667600493254
897.0, 0.04269356591748402
898.0, 0.026951290645630437
899.0, 0.029888533089133328
900.0, 0.034474305569945664
901.0, 0.02908601415442958
902.0, 0.04018879706794129
903.0, 0.03286829929759101
904.0, 0.02955788770089592
905.0, 0.033830183604833246
906.0, 0.028800844919379034
907.0, 0.025516918415930324
908.0, 0.02824627264681708
909.0, 0.029567770814861984
910.0, 0.028474308436312323
911.0, 0.0186419771437372
912.0, 0.028222187708264346
913.0, 0.0202048712762747
914.0, 0.02203026377688443
915.0, 0.03229676657343422
916.0, 0.027373852770183296
917.0, 0.01516394452396023
918.0, 0.015569859561833014
919.0, 0.006574238645447646
920.0, 0.005982418307234268
921.0, 0.00990808131749848
922.0, 0.015650694953780134
923.0, 0.009841059800474936
924.0, 0.0035276389301358425
925.0, 0.0028196434713084837
926.0, 0.0068194282880100895
927.0, 0.0015982234511728464
928.0, 0.003194681498051317
929.0, 0.007821569280942136
930.0, 0.007019582967668573
931.0, 0.009545224046601263
932.0, 0.0032896761442087197
933.0, 0.005802882380552118
934.0, 0.003744900942810077
935.0, 0.005731469060187405
936.0, 0.0043343852397376165
937.0, 0.006882806351568455
938.0, 0.0020823337357031625
939.0, 0.004793223887956978
940.0, 0.016159782753569787
941.0, 0.012457963294725953
942.0, 0.0010044744904399209
943.0, 0.004573879414016054
944.0, 0.004686899774204816
945.0, 0.022002240816392033
946.0, 0.018386058095352608
947.0, 0.008854057004069407
948.0, 0.01789508447804445
949.0, 0.012975249167890985
950.0, 0.010319267795118313
951.0, 0.031900222005618234
952.0, 0.02519276874623403
953.0, 0.024716722112918175
954.0, 0.03344362443191573
955.0, 0.03019005399978292
956.0, 0.027432306595443764
957.0, 0.04629527209218256
958.0, 0.036349162060845236
959.0, 0.03167126075427666
960.0, 0.04733200897995489
961.0, 0.026749086205943996
962.0, 0.02171604746040659
963.0, 0.03195057179505917
964.0, 0.03579626085555766
965.0, 0.04357279732632946
966.0, 0.03436454963979389
967.0, 0.04107538089033917
968.0, 0.038001779295645376
969.0, 0.031344334543740186
970.0, 0.02782089629750412
971.0, 0.033940889843670524
972.0, 0.02963167489772285
973.0, 0.0148483282710457
974.0, 0.041784073413497984
975.0, 0.05218333937044912
976.0, 0.029776294874021093
977.0, 0.019755256489716384
978.0, 0.01833600481233026
979.0, 0.016383378153570844
980.0, 0.012379315135929365
981.0, 0.010763590634371776
982.0, 0.018028593032885593
983.0, 0.02333318023876438
984.0, 0.012933274858927762
985.0, 0.025607793881588896
986.0, 0.028574354145941103
987.0, 0.020588832123224054
988.0, 0.014553838247680185
989.0, 0.00842325088607771
990.0, 6.598493325734038e-05
991.0, 0.005176137090835859
992.0, 0.004821399618738888
993.0, 0.0036068969231867532
994.0, 0.007907044654040553
995.0, 0.010445677027064466
996.0, 0.003151521956690708
997.0, 0.004202491924922925
998.0, 0.00253212047711575
999.0, 0.0033642105574184073
1000.0, 0.004416667642789473
1001.0, 0.006124708899862292
1002.0, 0.007488746243060015
1003.0, 0.014773229485896648
1004.0, 0.025061759060662377
1005.0, 0.023051057781158703
1006.0, 0.017201874587928614
1007.0, 0.022123902913329916
1008.0, 0.011990804400874527
1009.0, 0.03387886594403296
1010.0, 0.03560878336339872
1011.0, 0.037266731168419526
1012.0, 0.03594113937210972
1013.0, 0.0390251661061584
1014.0, 0.052909498507986555
1015.0, 0.06874203951384515
1016.0, 0.07654642757819961
1017.0, 0.07822106298935332
1018.0, 0.06667166385264871
1019.0, 0.06984662778461433
1020.0, 0.0858322719288159
1021.0, 0.09531285539642256
1022.0, 0.10681443737987995
1023.0, 0.1135200548000899
1024.0, 0.10600160242098174
1025.0, 0.11179526494384953
1026.0, 0.12529784223939291
1027.0, 0.11550608501280031
1028.0, 0.10526323022908439
1029.0, 0.1137202001780502
1030.0, 0.1260130869960489
1031.0, 0.13664355028389566
1032.0, 0.13957016017144955
1033.0, 0.1338103182047343
1034.0, 0.1335996649158544
1035.0, 0.13337370342914223
1036.0, 0.14285783695658008
1037.0, 0.1409492875331071
1038.0, 0.13815478218977909
1039.0, 0.14616676932005573
1040.0, 0.1460455749851802
1041.0, 0.14588795293308027
1042.0, 0.15698822161631945
1043.0, 0.1571181060745109
1044.0, 0.1553842172585766
1045.0, 0.15926637663803644
1046.0, 0.1633711505979255
1047.0, 0.16436933493286712
1048.0, 0.16919651056248705
1049.0, 0.16298887531929324
1050.0, 0.15893388209168097
1051.0, 0.16822858607498847
1052.0, 0.16706374500042073
1053.0, 0.1664243671420484
1054.0, 0.16108651656714693
1055.0, 0.1620525663344155
1056.0, 0.1476735369188657
1057.0, 0.16076980309537003
1058.0, 0.16112686752920538
1059.0, 0.1373612665273135
1060.0, 0.12071494518510625
1061.0, 0.12104928729774038
1062.0, 0.12766603179297586
1063.0, 0.12386713019730401
1064.0, 0.1259290829942167
1065.0, 0.13567221174779637
1066.0, 0.11928309625624223
1067.0, 0.10767681107160715
1068.0, 0.10914308863332295
1069.0, 0.10633376844748021
1070.0, 0.10269759585102756
1071.0, 0.10994413266904751
1072.0, 0.09576135896025201
1073.0, 0.06965896334560753
1074.0, 0.07364916476460555
1075.0, 0.07759893647986116
1076.0, 0.06861449662026431
1077.0, 0.0564514979572985
1078.0, 0.048813271552435276
1079.0, 0.04985757752706409
1080.0, 0.05443055723307163
1081.0, 0.04914784382940321
1082.0, 0.038189077104933536
1083.0, 0.03522216073244215
1084.0, 0.02903536483427137
1085.0, 0.022667405658818238
1086.0, 0.022418338324496793
1087.0, 0.022164509389772123
1088.0, 0.026798556117240524
1089.0, 0.029630567461664547
1090.0, 0.01689787199363329
1091.0, 0.02387263116781879
1092.0, 0.02455869966747697
1093.0, 0.027208677313915037
1094.0, 0.02472838895448396
1095.0, 0.01745469828569377
1096.0, 0.019818815381333142
1097.0, 0.01766877868577597
1098.0, 0.021087438407988796
1099.0, 0.02925960722009548
1100.0, 0.004581133211895006
1101.0, 0.018989924453470676
1102.0, 0.016508304356822393
1103.0, 0.02149444248436503
1104.0, 0.016128763824656004
1105.0, 0.020428572980142817
1106.0, 0.025753786855167618
1107.0, 0.014143094035479234
1108.0, 0.015619963966929083
1109.0, 0.032471042010181875
1110.0, 0.022355223045674392
1111.0, 0.0202536269503697
1112.0, 0.006027911841144663
1113.0, 0.0263309665469698
1114.0, 0.018659385263602495
1115.0, 0.0228436038862724
1116.0, 0.022253886471513478
1117.0, 0.010879228444696609
1118.0, 0.016790811524089188
1119.0, 0.022466721296409357
1120.0, 0.002968068878752189
1121.0, 0.007274413412476241
1122.0, 0.01573118482172132
1123.0, 0.004541652073446388
1124.0, 0.006132994806314811
1125.0, 0.009613381253633205
1126.0, 0.0018543234285967147
1127.0, 0.003426340000188588
1128.0, 0.0003648378073128739
1129.0, 0.0008871222278631143
1130.0, 0.0036981841382733825
1131.0, 0.012834506530045827
1132.0, 0.0018242468043277013
1133.0, 0.00309694317656171
1134.0, 0.005410072068165069
1135.0, 0.006603353421702034
1136.0, 0.009805825279552283
1137.0, 0.002615805208574325
1138.0, 0.0008125978342775403
1139.0, 0.004288520651662129
1140.0, 0.001908762520425497
1141.0, 0.017915630328253017
1142.0, 0.01620066924272597
1143.0, 0.008689184863645802
1144.0, 0.01324684840507326
1145.0, 0.002785241969563283
1146.0, 0.009903340648263306
1147.0, 0.0038681320397018597
1148.0, 0.01619956850587126
1149.0, 0.025088726465438117
1150.0, 0.015163026862312709
1151.0, 0.017297914801739128
1152.0, 0.011745091376463047
1153.0, 0.02522877759671827
1154.0, 0.005222967099797036
1155.0, 0.02610238087884828
1156.0, 0.02754849589225955
1157.0, 0.023024031563500996
1158.0, 0.016740557988552864
1159.0, 0.006894841822679873
1160.0, 0.006375496081448012
1161.0, 0.0063186978090209265
1162.0, 0.002250877498776587
1163.0, 0.01684329057674327
1164.0, 0.025625963043027684
1165.0, 0.015780261699681605
1166.0, 0.013093728234665057
1167.0, 0.021840038420334187
1168.0, 0.03428029606827985
1169.0, 0.014233422803548803
1170.0, 0.011819013975500375
1171.0, 0.022933812488472958
1172.0, 0.017162227656155597
1173.0, 0.007508181829031997
1174.0, 0.006271942881112193
1175.0, 0.025540180564558257
1176.0, 0.02235027739970434
1177.0, 0.011852989504833638
1178.0, 0.01274634960560508
1179.0, 0.010347267631757915
1180.0, 0.005964993521525327
1181.0, 0.006159395137332801
1182.0, 0.013341996016365374
1183.0, 0.01858478394941228
1184.0, 0.012680213752772666
1185.0, 0.0064126143346216165
1186.0, 0.012355467302383532
1187.0, 0.01826698982197167
1188.0, 0.008074061596725282
1189.0, 0.014685358656247103
1190.0, 0.02731642352866294
1191.0, 0.007998465894353083
1192.0, 0.0025861948944758666
1193.0, 0.0051721758683126035
1194.0, 0.013477601969514278
1195.0, 0.010925992459204507
1196.0, 0.0032942334163113527
1197.0, 0.006574047956756878
1198.0, 0.014739205637802547
1199.0, 0.010837641214599352
1200.0, 0.014964763557542516
1201.0, 0.005330620203132017
1202.0, 0.014968505888425564
1203.0, 0.007108607536555048
1204.0, 0.013257472257360774
1205.0, 0.022990234658488307
1206.0, 0.017369310424775398
1207.0, 0.004185162375653855
1208.0, 0.0016166622995508859
1209.0, 0.009144963110169
1210.0, 0.015733272226540296
1211.0, 0.01783441092332241
1212.0, 0.006901512799200028
1213.0, 0.008865522129827715
1214.0, 0.0023630564899933893
1215.0, 0.0094593677755033
1216.0, 0.007661003511186853
1217.0, 0.005859059449405881
1218.0, 0.020944804406256158
1219.0, 0.02522386640143231
1220.0, 0.014162727167639371
1221.0, 0.024273053007169053
1222.0, 0.034121761805684506
1223.0, 0.02136660179287108
1224.0, 0.0288604026222161
1225.0, 0.018610503424239443
1226.0, 0.006016324648957878
1227.0, 0.01988153837862228
1228.0, 0.021580893439166506
1229.0, 0.02988726501660248
1230.0, 0.030471777822124027
1231.0, 0.02092602385088875
1232.0, 0.01997797504380318
1233.0, 0.017563788119368547
1234.0, 0.006543164489340843
1235.0, 0.016672556745187556
1236.0, 0.02967910226186162
1237.0, 0.027009611281572896
1238.0, 0.038749875390089616
1239.0, 0.029848543965920207
1240.0, 0.016018113244872522
1241.0, 0.025547281860877305
1242.0, 0.018456357543852595
1243.0, 0.020886039887123353
1244.0, 0.04290749308610276
1245.0, 0.045097239281568155
1246.0, 0.033570935367596144
1247.0, 0.03787212129965622
1248.0, 0.029684935064156037
1249.0, 0.028889258538948713
1250.0, 0.033162290309721815
1251.0, 0.0333275789386687
1252.0, 0.030155239825002574
1253.0, 0.030499757463200456
1254.0, 0.04680482465216329
1255.0, 0.0392142679865656
1256.0, 0.03577101519238764
1257.0, 0.02900469098677012
1258.0, 0.019965183199270126
1259.0, 0.03785499431491867
1260.0, 0.04652852871496496
1261.0, 0.02924643941503168
1262.0, 0.02433705470739343
1263.0, 0.038227455993404186
1264.0, 0.01806513246137267
1265.0, 0.04330749206828338
1266.0, 0.01722876432422388
1267.0, 0.017650628855056638
1268.0, 0.030869346549551573
1269.0, 0.010148783288339226
1270.0, 0.010048253088819471
1271.0, 0.029070176199439184
1272.0, 0.024117699746414943
1273.0, 0.013346486697648655
1274.0, 0.020319525702755404
1275.0, 0.02248899579216463
1276.0, 0.033336011505088414
1277.0, 0.010758362281592564
1278.0, 0.024201921882013037
1279.0, 0.02035783509064018
1280.0, 0.00945944977184614
1281.0, 0.020704478506194002
1282.0, 0.021877880911315203
1283.0, 0.010590679461584512
1284.0, 0.014590851744574567
1285.0, 0.0212134899833981
1286.0, 0.01352460229469123
1287.0, 0.0118277912443859
1288.0, 0.027727251258340486
1289.0, 0.03266875785876591
1290.0, 0.010997194709575588
1291.0, 0.022887848815574513
1292.0, 0.011157371743256619
1293.0, 0.016498584707441546
1294.0, 0.02199221068443043
1295.0, 0.023653674134903487
1296.0, 0.0037036945358377886
1297.0, 0.008135653534125837
1298.0, 0.014763434635819682
1299.0, 0.02160881155712521
1300.0, 0.02887968879464663
1301.0, 0.01587905367184812
1302.0, 0.003507525450272389
1303.0, 0.006327411076939008
1304, 0.0
1305, 0.0
1306, 0.0
1307, 0.0
1308, 0.0
1309, 0.0
1310, 0.0
1311, 0.0
1312, 0.0
1313, 0.0
1314, 0.0
1315, 0.0
1316, 0.0
1317, 0.0
1318, 0.0
1319, 0.0
1320, 0.0
1321, 0.0
1322, 0.0
1323, 0.0
1324, 0.0
1325, 0.0
1326, 0.0
1327, 0.0
1328, 0.0
1329, 0.0
1330, 0.0
1331, 0.0
1332, 0.0
1333, 0.0
1334, 0.0
1335, 0.0
1336, 0.0
1337, 0.0
1338, 0.0
1339, 0.0
1340, 0.0
1341, 0.0
1342, 0.0
1343, 0.0
1344, 0.0
1345, 0.0
1346, 0.0
1347, 0.0
1348, 0.0
1349, 0.0
1350, 0.0
1351, 0.0
1352, 0.0
1353, 0.0
1354, 0.0
1355, 0.0
1356, 0.0
1357, 0.0
1358, 0.0
1359, 0.0
1360, 0.0
1361, 0.0
1362, 0.0
1363, 0.0
1364, 0.0
1365, 0.0
1366, 0.0
1367, 0.0
1368, 0.0
1369, 0.0
1370, 0.0
1371, 0.0
1372, 0.0
1373, 0.0
1374, 0.0
1375, 0.0
1376, 0.0
1377, 0.0
1378, 0.0
1379, 0.0
1380, 0.0
1381, 0.0
1382, 0.0
1383, 0.0
1384, 0.0
1385, 0.0
1386, 0.0
1387, 0.0
1388, 0.0
1389, 0.0
1390, 0.0
1391, 0.0
1392, 0.0
1393, 0.0
1394, 0.0
1395, 0.0
1396, 0.0
1397, 0.0
1398, 0.0
1399, 0.0
1400, 0.0
1401, 0.0
1402, 0.0
1403, 0.0
1404, 0.0
1405, 0.0
1406, 0.0
1407, 0.0
1408, 0.0
1409, 0.0
1410, 0.0
1411, 0.0
1412, 0.0
1413, 0.0
1414, 0.0
1415, 0.0
1416, 0.0
1417, 0.0
1418, 0.0
1419, 0.0
1420, 0.0
1421, 0.0
1422, 0.0
1423, 0.0
1424, 0.0
1425, 0.0
1426, 0.0
1427, 0.0
1428, 0.0
1429, 0.0
1430, 0.0
1431, 0.0
1432, 0.0
1433, 0.0
1434, 0.0
1435, 0.0
1436, 0.0
1437, 0.0
1438, 0.0
1439, 0.0
1440, 0.0
1441, 0.0
1442, 0.0
1443, 0.0
1444, 0.0
1445, 0.0
1446, 0.0
1447, 0.0
1448, 0.0
1449, 0.0
1450, 0.0
1451, 0.0
1452, 0.0
1453, 0.0
1454, 0.0
1455, 0.0
1456, 0.0
1457, 0.0
1458, 0.0
1459, 0.0
1460, 0.0
1461, 0.0
1462, 0.0
1463, 0.0
1464, 0.0
1465, 0.0
1466, 0.0
1467, 0.0
1468, 0.0
1469, 0.0
1470, 0.0
1471, 0.0
1472, 0.0
1473, 0.0
1474, 0.0
1475, 0.0
1476, 0.0
1477, 0.0
1478, 0.0
1479, 0.0
1480, 0.0
1481, 0.0
1482, 0.0
1483, 0.0
1484, 0.0
1485, 0.0
1486, 0.0
1487, 0.0
1488, 0.0
1489, 0.0
1490, 0.0
1491, 0.0
1492, 0.0
1493, 0.0
1494, 0.0
1495, 0.0
1496, 0.0
1497, 0.0
1498, 0.0
1499, 0.0
1500, 0.0
1501, 0.0
1502, 0.0
1503, 0.0
1504, 0.0
1505, 0.0
1506, 0.0
1507, 0.0
1508, 0.0
1509, 0.0
1510, 0.0
1511, 0.0
1512, 0.0
1513, 0.0
1514, 0.0
1515, 0.0
1516, 0.0
1517, 0.0
1518, 0.0
1519, 0.0
1520, 0.0
1521, 0.0
1522, 0.0
1523, 0.0
1524, 0.0
1525, 0.0
1526, 0.0
1527, 0.0
1528, 0.0
1529, 0.0
1530, 0.0
1531, 0.0
1532, 0.0
1533, 0.0
1534, 0.0
1535, 0.0
1536, 0.0
1537, 0.0
1538, 0.0
1539, 0.0
1540, 0.0
1541, 0.0
1542, 0.0
1543, 0.0
1544, 0.0
1545, 0.0
1546, 0.0
1547, 0.0
1548, 0.0
1549, 0.0
1550, 0.0
1551, 0.0
1552, 0.0
1553, 0.0
1554, 0.0
1555, 0.0
1556, 0.0
1557, 0.0
1558, 0.0
1559, 0.0
1560, 0.0
1561, 0.0
1562, 0.0
1563, 0.0
1564, 0.0
1565, 0.0
1566, 0.0
1567, 0.0
1568, 0.0
1569, 0.0
1570, 0.0
1571, 0.0
1572, 0.0
1573, 0.0
1574, 0.0
1575, 0.0
1576, 0.0
1577, 0.0
1578, 0.0
1579, 0.0
1580, 0.0
1581, 0.0
1582, 0.0
1583, 0.0
1584, 0.0
1585, 0.0
1586, 0.0
1587, 0.0
1588, 0.0
1589, 0.0
1590, 0.0
1591, 0.0
1592, 0.0
1593, 0.0
1594, 0.0
1595, 0.0
1596, 0.0
1597, 0.0
1598, 0.0
1599, 0.0
