30, 0.0
31, 0.0
32, 0.0
33, 0.0
34, 0.0
35, 0.0
36, 0.0
37, 0.0
38, 0.0
39, 0.0
40, 0.0
41, 0.0
42, 0.0
43, 0.0
44, 0.0
45, 0.0
46, 0.0
47, 0.0
48, 0.0
49, 0.0
50, 0.0
51, 0.0
52, 0.0
53, 0.0
54, 0.0
55, 0.0
56, 0.0
57, 0.0
58, 0.0
59, 0.0
60, 0.0
61, 0.0
62, 0.0
63, 0.0
64, 0.0
65, 0.0
66, 0.0
67, 0.0
68, 0.0
69, 0.0
70, 0.0
71, 0.0
72, 0.0
73, 0.0
74, 0.0
75, 0.0
76, 0.0
77, 0.0
78, 0.0
79, 0.0
80, 0.0
81, 0.0
82, 0.0
83, 0.0
84, 0.0
85, 0.0
86, 0.0
87, 0.0
88, 0.0
89, 0.0
90, 0.0
91, 0.0
92, 0.0
93, 0.0
94, 0.0
95, 0.0
96, 0.0
97, 0.0
98, 0.0
99, 0.0
100, 0.0
101, 0.0
102, 0.0
103, 0.0
104, 0.0
105, 0.0
106, 0.0
107, 0.0
108, 0.0
109, 0.0
110, 0.0
111, 0.0
112, 0.0
113, 0.0
114, 0.0
115, 0.0
116, 0.0
117, 0.0
118, 0.0
119, 0.0
120, 0.0
121, 0.0
122, 0.0
123, 0.0
124, 0.0
125, 0.0
126, 0.0
127, 0.0
128, 0.0
129, 0.0
130, 0.0
131, 0.0
132, 0.0
133, 0.0
134, 0.0
135, 0.0
136, 0.0
137, 0.0
138, 0.0
139, 0.0
140, 0.0
141, 0.0
142, 0.0
143, 0.0
144, 0.0
145, 0.0
146, 0.0
147, 0.0
148, 0.0
149, 0.0
150, 0.0
151, 0.0
152, 0.0
153, 0.0
154, 0.0
155, 0.0
156, 0.0
157, 0.0
158, 0.0
159, 0.0
160, 0.0
161, 0.0
162, 0.0
163, 0.0
164, 0.0
165, 0.0
166, 0.0
167, 0.0
168, 0.0
169.0, 0.004548949096690355
170.0, 0.01288278038655087
171.0, 0.01900259200598916
172.0, 0.011317829793758769
173.0, 0.012860776118247937
174.0, 0.011041645735513524
175.0, 0.0072800609723790675
176.0, 0.005971918130580836
177.0, 0.007004058303669753
178.0, 0.001826532249612627
179.0, 0.0010542202769473646
180.0, 0.0012373203197797934
181.0, 0.0008349691906654759
182.0, 0.0015142559747816486
183.0, 0.004536832003802348
184.0, 0.008059165209753144
185.0, 0.014096887046651312
186.0, 0.01796018518160405
187.0, 0.017613959446837753
188.0, 0.02816982561397607
189.0, 0.031617302570941294
190.0, 0.037895563600629505
191.0, 0.0439535155036796
192.0, 0.05026947233242315
193.0, 0.06137391756213328
194.0, 0.06134702342568442
195.0, 0.06889498687441084
196.0, 0.0806799503868504
197.0, 0.09168460734194493
198.0, 0.09988378781811623
199.0, 0.11520877307411807
200.0, 0.13269944936550745
201.0, 0.14454153139693596
202.0, 0.16038340610043508
203.0, 0.1798290295648
204.0, 0.19075748014482802
205.0, 0.18708006676875172
206.0, 0.19658675032488696
207.0, 0.21553051633769443
208.0, 0.2364494678831072
209.0, 0.25492074732884934
210.0, 0.2790891983582064
211.0, 0.30449618256760236
212.0, 0.3244560020826725
213.0, 0.3507943977845256
214.0, 0.37382833648413305
215.0, 0.3694786899428239
216.0, 0.3668569901819836
217.0, 0.3494974848576745
218.0, 0.33779432036503565
219.0, 0.3207532428494589
220.0, 0.29000689289053727
221.0, 0.2612537960242868
222.0, 0.24513241967834976
223.0, 0.22068103810325737
224.0, 0.19802207743151456
225.0, 0.18032009724761527
226.0, 0.16555659434252096
227.0, 0.15568238387395647
228.0, 0.15691271843846522
229.0, 0.15313453153694281
230.0, 0.14798525663019174
231.0, 0.14943095112358903
232.0, 0.1650466352454796
233.0, 0.16694880711161078
234.0, 0.17330849058053316
235.0, 0.18136829127599308
236.0, 0.18840665817917507
237.0, 0.1933271387548429
238.0, 0.20033962662497387
239.0, 0.21267000626123703
240.0, 0.21992466768699193
241.0, 0.22388218459692144
242.0, 0.22431767779211959
243.0, 0.21807451729712898
244.0, 0.20188121297914605
245.0, 0.1958911124699279
246.0, 0.18505607509969288
247.0, 0.16695189994757612
248.0, 0.14529161790747785
249.0, 0.12851139133693817
250.0, 0.10577244638594133
251.0, 0.09038797512043792
252.0, 0.07636169395968037
253.0, 0.063637994499078
254.0, 0.0552271964291913
255.0, 0.05194661520098447
256.0, 0.04077102340062531
257.0, 0.0417119676456813
258.0, 0.04116715418963079
259.0, 0.034773039204217725
260.0, 0.03166053521405333
261.0, 0.03135165836069717
262.0, 0.027345238205144107
263.0, 0.02820792656073451
264.0, 0.03176528432232328
265.0, 0.03473953526923821
266.0, 0.037813998102223995
267.0, 0.04264240696121565
268.0, 0.05111735803448684
269.0, 0.05889190444421036
270.0, 0.06553421594782098
271.0, 0.07240150828525724
272.0, 0.07920027561284111
273.0, 0.07850951401698177
274.0, 0.08382110280583144
275.0, 0.0843597271861032
276.0, 0.07721030858148988
277.0, 0.06945416109733235
278.0, 0.07407386955933916
279.0, 0.062008976670040246
280.0, 0.05457007327424206
281.0, 0.04772365972177253
282.0, 0.038085405599768606
283.0, 0.030604620788357514
284.0, 0.024337479180814563
285.0, 0.017507025575674434
286.0, 0.011797024456997948
287.0, 0.0067050659739088326
288.0, 0.0021658767184534393
289.0, 0.001036882878514568
290.0, 0.002596692657435768
291.0, 0.001213523906761722
292.0, 0.000669890167593616
293.0, 0.0024769363488670406
294.0, 0.00632349813211904
295.0, 0.01132637015482025
296.0, 0.01195638933759584
297.0, 0.012084357419214282
298.0, 0.011608274358311363
299.0, 0.01071118597766423
300.0, 0.009963655352973033
301.0, 0.00892318549873219
302.0, 0.006879245369036062
303.0, 0.004549434117979047
304.0, 0.0021695091293158927
305.0, 0.0022098399692146286
306.0, 0.008728834589676888
307.0, 0.012658078803209486
308.0, 0.02045160998848201
309.0, 0.01819980663981865
310.0, 0.016239588971945027
311.0, 0.019170840075462856
312.0, 0.011034695064455622
313.0, 0.010219652432710476
314.0, 0.008727547717494785
315.0, 0.010509276382452488
316.0, 0.0145688883497138
317.0, 0.019206845503142837
318.0, 0.025960123590828728
319.0, 0.033232656274604123
320.0, 0.04290345049774007
321.0, 0.055916544112839535
322.0, 0.06592792374189721
323.0, 0.07003725767126896
324.0, 0.08758328581487772
325.0, 0.09632680651630006
326.0, 0.11361216257554758
327.0, 0.13121470618178194
328.0, 0.14553465242900535
329.0, 0.15828441360048606
330.0, 0.17450938132749802
331.0, 0.199880187896
332.0, 0.2196773444353413
333.0, 0.2353813628215524
334.0, 0.2508155941577295
335.0, 0.26898211011886475
336.0, 0.2861767502593039
337.0, 0.2916926169090478
338.0, 0.30065542215793073
339.0, 0.3037856727032809
340.0, 0.29989281869074236
341.0, 0.29740416631701677
342.0, 0.293459933113563
343.0, 0.28709586410514687
344.0, 0.27813030879293577
345.0, 0.2696758033003629
346.0, 0.26074819468522387
347.0, 0.2474292942628794
348.0, 0.24525186578105768
349.0, 0.243106453984592
350.0, 0.24543598870290623
351.0, 0.25366230891699504
352.0, 0.26533521245091246
353.0, 0.27626423452669535
354.0, 0.3038746964373167
355.0, 0.3260692368770536
356.0, 0.35216179392546715
357.0, 0.3823807557118392
358.0, 0.4160334568073673
359.0, 0.45400501580622266
360.0, 0.4975164947592298
361.0, 0.5404943770508228
362.0, 0.5901785441398293
363.0, 0.639323761745059
364.0, 0.6832745848023246
365.0, 0.7265915622267661
366.0, 0.7805173698943398
367.0, 0.8203180360564112
368.0, 0.8610817855372833
369.0, 0.8995439618425054
370.0, 0.9278170774185965
371.0, 0.9393440017546982
372.0, 0.9339103102304059
373.0, 0.9301798028423306
374.0, 0.917928408638205
375.0, 0.8841952415818359
376.0, 0.834062244647032
377.0, 0.7930321226039444
378.0, 0.7473758172327737
379.0, 0.6901380295630152
380.0, 0.6342596003782137
381.0, 0.5802251074505332
382.0, 0.5288913083481234
383.0, 0.48429214905417994
384.0, 0.4427534900365782
385.0, 0.4102931565713439
386.0, 0.37666251613233365
387.0, 0.3442552690838047
388.0, 0.31620893166619146
389.0, 0.2925658730183512
390.0, 0.26852486482668503
391.0, 0.25727835862865117
392.0, 0.24083543301064725
393.0, 0.22528367977978803
394.0, 0.2129671217259572
395.0, 0.1989277022711291
396.0, 0.18683081065700177
397.0, 0.17828786961252044
398.0, 0.17161334882175114
399.0, 0.16407230207617193
400.0, 0.15600458165857775
401.0, 0.14970527600784544
402.0, 0.14232089591371963
403.0, 0.13464143944036014
404.0, 0.130973455352501
405.0, 0.1259004628958363
406.0, 0.11924366241981463
407.0, 0.11440729431023919
408.0, 0.10936507948185516
409.0, 0.1032979353912798
410.0, 0.09731997333259494
411.0, 0.0908832195168487
412.0, 0.08404019934269469
413.0, 0.07604298873322067
414.0, 0.06256465067448731
415.0, 0.05916425251562324
416.0, 0.04834528953982764
417.0, 0.04343664770743303
418.0, 0.04083697631700378
419.0, 0.03493456147380062
420.0, 0.0356197593690759
421.0, 0.04645541210905228
422.0, 0.03801455702629275
423.0, 0.038668948910028283
424.0, 0.044693668638469894
425.0, 0.046389876030463906
426.0, 0.046118361480310094
427.0, 0.05445572398079556
428.0, 0.06220514113161683
429.0, 0.06851943017821042
430.0, 0.07458018201905157
431.0, 0.07994246492893099
432.0, 0.08245892026701707
433.0, 0.08732738604792371
434.0, 0.09944468640965178
435.0, 0.09757758299174749
436.0, 0.09597696640676649
437.0, 0.09955411268332416
438.0, 0.09993016632687445
439.0, 0.09374442699084143
440.0, 0.10517790158343324
441.0, 0.1000009000705101
442.0, 0.095109842909155
443.0, 0.0977288459144141
444.0, 0.10190733309725647
445.0, 0.0929011190597583
446.0, 0.09364069958348428
447.0, 0.08790878880063005
448.0, 0.0814538277580527
449.0, 0.08009910217010524
450.0, 0.08027675022286848
451.0, 0.06540616041022802
452.0, 0.06688668476733725
453.0, 0.0632300518620614
454.0, 0.05479777236199063
455.0, 0.04953433423366434
456.0, 0.0485017232722281
457.0, 0.043858584641861514
458.0, 0.039983498946779765
459.0, 0.03277065423449571
460.0, 0.024137794955941275
461.0, 0.02147203819567958
462.0, 0.02179895349532142
463.0, 0.017683945830341552
464.0, 0.016279495982643714
465.0, 0.018407733301899452
466.0, 0.016482050612918187
467.0, 0.013232093889598614
468.0, 0.014968953960492982
469.0, 0.021087210685752207
470.0, 0.016963246508084256
471.0, 0.02356483297785282
472.0, 0.03334034563214672
473.0, 0.0417560415334176
474.0, 0.04962014070541254
475.0, 0.055262569378041485
476.0, 0.05617058896474071
477.0, 0.07370537314202529
478.0, 0.07681499552449908
479.0, 0.08298991490252676
480.0, 0.09364821145333374
481.0, 0.09905430331751168
482.0, 0.09413749883301162
483.0, 0.10432693443337861
484.0, 0.10889887511472927
485.0, 0.11580169208457247
486.0, 0.12191839243814526
487.0, 0.12559423344002338
488.0, 0.12665347444805297
489.0, 0.12672842208791488
490.0, 0.1350162213133542
491.0, 0.14395313533989523
492.0, 0.1446653447494674
493.0, 0.15312476655327134
494.0, 0.16638706979772025
495.0, 0.16988522007123627
496.0, 0.18345401129203126
497.0, 0.1893757556606981
498.0, 0.20407624855316892
499.0, 0.21522535417736544
500.0, 0.22118285718887476
501.0, 0.2267952644868048
502.0, 0.23603071045562543
503.0, 0.23657897759910895
504.0, 0.23826064096770067
505.0, 0.24282656228278385
506.0, 0.24270467723101377
507.0, 0.23590311640453102
508.0, 0.22639510101827978
509.0, 0.21189343639582225
510.0, 0.19963014186886138
511.0, 0.1908451832009505
512.0, 0.18349759215904823
513.0, 0.17590094115835356
514.0, 0.16644617575290185
515.0, 0.15387917919712413
516.0, 0.14692154356156267
517.0, 0.14559458325187272
518.0, 0.14202985522246545
519.0, 0.1435323302629465
520.0, 0.1507294483210381
521.0, 0.15714827221310249
522.0, 0.1632876743694033
523.0, 0.1792558963043557
524.0, 0.19109404242621092
525.0, 0.21052289741923336
526.0, 0.2291931103245139
527.0, 0.24254443804310388
528.0, 0.264249249546603
529.0, 0.28975863333799595
530.0, 0.3062620892542248
531.0, 0.32912960025242516
532.0, 0.3451237602866463
533.0, 0.3544322091881193
534.0, 0.36523323751604886
535.0, 0.3702017924627672
536.0, 0.3779358901903902
537.0, 0.37867323558890403
538.0, 0.37966765613755316
539.0, 0.3705540289070962
540.0, 0.35570007497356115
541.0, 0.3545195881009233
542.0, 0.3385775619645028
543.0, 0.31930525723000946
544.0, 0.31212771947029483
545.0, 0.30394771916030777
546.0, 0.2878606207729282
547.0, 0.2694454857010504
548.0, 0.2638390768292838
549.0, 0.2433554590454416
550.0, 0.23507842524591377
551.0, 0.23026401633266524
552.0, 0.2234775394298018
553.0, 0.21406384557003189
554.0, 0.20443541148860883
555.0, 0.19548755556254296
556.0, 0.1948436051841785
557.0, 0.19162195338933655
558.0, 0.18517038913087774
559.0, 0.1766863188124329
560.0, 0.1704239066769228
561.0, 0.17094824052798957
562.0, 0.17243919741962035
563.0, 0.16442588726117466
564.0, 0.1639479132678524
565.0, 0.15911529454176523
566.0, 0.1540543081415309
567.0, 0.15216199937505162
568.0, 0.1438967912717964
569.0, 0.13901265171562174
570.0, 0.13019964736366665
571.0, 0.12620945242350892
572.0, 0.12279949459146525
573.0, 0.11454563560084853
574.0, 0.10062199448395842
575.0, 0.08849114210520823
576.0, 0.08730588262812253
577.0, 0.06836990196876241
578.0, 0.06020066955609454
579.0, 0.05553787883794298
580.0, 0.047846851982674354
581.0, 0.038914635172174986
582.0, 0.03227849069347203
583.0, 0.021545773304817734
584.0, 0.01613547050644185
585.0, 0.01329295933157054
586.0, 0.011109107250584466
587.0, 0.007491979064266062
588.0, 0.002741766920293434
589.0, 0.006987015351986505
590.0, 0.009091332635615226
591.0, 0.005031874620681946
592.0, 0.004983628867496315
593.0, 0.007283832341761065
594.0, 0.00857493067111903
595.0, 0.009372522792199505
596.0, 0.010484172796286186
597.0, 0.008787389757960996
598.0, 0.009328450458963336
599.0, 0.008255812182014531
600.0, 0.00673131399855958
601.0, 0.00539701159672058
602.0, 0.002534030951926121
603.0, 0.0060757286550910585
604.0, 0.008131020088944937
605.0, 0.00440997915007077
606.0, 0.004521212892293469
607.0, 0.0069499573910370045
608.0, 0.006297589371232214
609.0, 0.002083642143953671
610.0, 0.0017870956692388946
611.0, 0.004265070513265206
612.0, 0.0031330399044426386
613.0, 0.003862036375090061
614.0, 0.0036088858677673103
615.0, 0.0017675414332207623
616.0, 0.006567164336932633
617.0, 0.010165482549013071
618.0, 0.02156533236828227
619.0, 0.020387669165554616
620.0, 0.020711022661584352
621.0, 0.022608766000547283
622.0, 0.024629383042315885
623.0, 0.035721912443190056
624.0, 0.047682547572476246
625.0, 0.05996133134304655
626.0, 0.0607845188008075
627.0, 0.05890916657283479
628.0, 0.061597614552396526
629.0, 0.06826576549593452
630.0, 0.07005605893844027
631.0, 0.05954604868708914
632.0, 0.057638447242999664
633.0, 0.05863655423405091
634.0, 0.04661980381358359
635.0, 0.03150729642426042
636.0, 0.024943741361704384
637.0, 0.020827232470843397
638.0, 0.01316811583909534
639.0, 0.00311282994322171
640.0, 0.0038677267529778486
641.0, 0.007241317400533215
642.0, 0.011693292120012714
643.0, 0.014721928774744396
644.0, 0.010778806820512767
645.0, 0.009233904767648281
646.0, 0.008138044661454442
647.0, 0.008596680427396457
648.0, 0.004062463141150789
649.0, 0.001860003777672848
650.0, 0.008460616743488128
651.0, 0.01984672745468702
652.0, 0.022414321294311514
653.0, 0.031040233203161745
654.0, 0.041965416927219
655.0, 0.049827008637625084
656.0, 0.05779514681135921
657.0, 0.06598552904493796
658.0, 0.07182836376213343
659.0, 0.08157918451480395
660.0, 0.08698706354644686
661.0, 0.08953386179770312
662.0, 0.09015877947286213
663.0, 0.09176536121777526
664.0, 0.09383398629259805
665.0, 0.0941309197517632
666.0, 0.09379793048025008
667.0, 0.0941719755525108
668.0, 0.08959875350959798
669.0, 0.0889662493988838
670.0, 0.08559976513924712
671.0, 0.07927697282815331
672.0, 0.07507836593569807
673.0, 0.07513415140310475
674.0, 0.06894980728634971
675.0, 0.0686673029119922
676.0, 0.06441598313247032
677.0, 0.05812012589784141
678.0, 0.05137647109898308
679.0, 0.047257935915862616
680.0, 0.048654018889168496
681.0, 0.04623050934439732
682.0, 0.04511519825904862
683.0, 0.042828675108292094
684.0, 0.04453131440197193
685.0, 0.04489666923591058
686.0, 0.04396625439248516
687.0, 0.048724158203304425
688.0, 0.05999698033260133
689.0, 0.046518600967039386
690.0, 0.05610071316905089
691.0, 0.06979725174900323
692.0, 0.07636930249165355
693.0, 0.07934576780872235
694.0, 0.08729963879023536
695.0, 0.10005369625306872
696.0, 0.10865066587286647
697.0, 0.11786695660643552
698.0, 0.13224014714621243
699.0, 0.1480650506788369
700.0, 0.16222578139800245
701.0, 0.1754152859096377
702.0, 0.19055317940171196
703.0, 0.20515855625432847
704.0, 0.22662002272017723
705.0, 0.24943990908469163
706.0, 0.2686649474117046
707.0, 0.28427141394993705
708.0, 0.30609374667646405
709.0, 0.33772410338844194
710.0, 0.3599203988644386
711.0, 0.3913980121369732
712.0, 0.42487680505856923
713.0, 0.46010699922627607
714.0, 0.49844413768467316
715.0, 0.5384795366697814
716.0, 0.5781479941592866
717.0, 0.6189075185759855
718.0, 0.6710955887982737
719.0, 0.7236265362666892
720.0, 0.7803613108021451
721.0, 0.8408074583805553
722.0, 0.8966168711668762
723.0, 0.9386917165536736
724.0, 0.966120145040271
725.0, 0.9896120951324501
726.0, 0.9992842598135957
727.0, 0.9925676243745242
728.0, 0.9807880264768863
729.0, 0.9530848811793237
730.0, 0.9087869690258424
731.0, 0.8564711360607276
732.0, 0.8072648695033394
733.0, 0.7675508961725355
734.0, 0.7074047289996179
735.0, 0.6617495766871899
736.0, 0.6182931272758149
737.0, 0.5749279147494468
738.0, 0.5385554440630144
739.0, 0.5155258153175438
740.0, 0.5020833441012788
741.0, 0.48666841106202563
742.0, 0.46793957953684756
743.0, 0.4663550302319945
744.0, 0.46658064330544874
745.0, 0.46548722743376253
746.0, 0.4682521285403818
747.0, 0.47941288227832707
748.0, 0.495244884763192
749.0, 0.5101615345713312
750.0, 0.5266278623788181
751.0, 0.5454806632615445
752.0, 0.5650212847177088
753.0, 0.5849740886893106
754.0, 0.6041250091685483
755.0, 0.620818195950953
756.0, 0.6386065531681762
757.0, 0.6551598963054732
758.0, 0.6674958184563877
759.0, 0.6780645980431212
760.0, 0.68702857887554
761.0, 0.69197659977491
762.0, 0.6926242088638609
763.0, 0.691852332684803
764.0, 0.6845186235404132
765.0, 0.6652753569612152
766.0, 0.6603652123516095
767.0, 0.6497561616507265
768.0, 0.633015929718163
769.0, 0.623105994320631
770.0, 0.6214084327907212
771.0, 0.6063854790125053
772.0, 0.5951741958455985
773.0, 0.595523316895913
774.0, 0.5887859670377918
775.0, 0.5847114904980788
776.0, 0.5816386981804201
777.0, 0.5771477478686512
778.0, 0.5708078548056624
779.0, 0.5627594589122547
780.0, 0.5703484125317316
781.0, 0.5667578275353135
782.0, 0.5772643672863195
783.0, 0.5787022057427165
784.0, 0.5791718535482256
785.0, 0.5840869975174506
786.0, 0.5887627751926297
787.0, 0.5966664568340883
788.0, 0.6092809276405367
789.0, 0.6140608398158324
790.0, 0.6157787457777479
791.0, 0.6270942784417857
792.0, 0.6328541471450694
793.0, 0.6360731853389515
794.0, 0.6402271082532001
795.0, 0.6043056461615949
796.0, 0.5982077533671898
797.0, 0.5750679944144343
798.0, 0.5642426292329953
799.0, 0.5504119403256886
800.0, 0.5424319749103999
801.0, 0.5424954445607083
802.0, 0.5416676336985399
803.0, 0.5420934882656401
804.0, 0.5512861200633214
805.0, 0.5627562784350368
806.0, 0.5773258225828223
807.0, 0.6049472586433606
808.0, 0.6380288639960305
809.0, 0.6691416087074066
810.0, 0.698108608558625
811.0, 0.7279786540103299
812.0, 0.7669241104058178
813.0, 0.8082982833688115
814.0, 0.8342159226941126
815.0, 0.8598477107278797
816.0, 0.8820257646751565
817.0, 0.9023638092608464
818.0, 0.9197174907828678
819.0, 0.918538749036185
820.0, 0.9109783229128398
821.0, 0.8961018313160023
822.0, 0.880077576809841
823.0, 0.8564747049408284
824.0, 0.8211480688431397
825.0, 0.7859138837384582
826.0, 0.755442055193734
827.0, 0.7140103296047043
828.0, 0.6660077435872984
829.0, 0.6268026823200507
830.0, 0.590731584346792
831.0, 0.5525193727522608
832.0, 0.5159024331737245
833.0, 0.47852584243195145
834.0, 0.44131888017145304
835.0, 0.41050464940429454
836.0, 0.3813411192643388
837.0, 0.3493766727691143
838.0, 0.322413255102248
839.0, 0.2939337421636372
840.0, 0.2689039449146404
841.0, 0.24488293179823503
842.0, 0.22050173019306724
843.0, 0.1953109521190175
844.0, 0.16536189137861937
845.0, 0.15433444512416516
846.0, 0.13825188934069157
847.0, 0.11377373128945072
848.0, 0.10177748572935569
849.0, 0.08800327230246308
850.0, 0.07373970670629151
851.0, 0.06506835432342978
852.0, 0.05271638795808094
853.0, 0.05125872420490957
854.0, 0.035380038932224626
855.0, 0.031019628999495646
856.0, 0.027804174971916992
857.0, 0.023869938758783113
858.0, 0.01916032637059695
859.0, 0.014910903649352821
860.0, 0.013663197177975709
861.0, 0.016455895056527226
862.0, 0.009849965802752887
863.0, 0.003394191200357354
864.0, 0.006614706571617569
865.0, 0.004246887650975193
866.0, 0.0012737682598311531
867.0, 0.0051501427318626485
868.0, 0.010592765646738021
869.0, 0.006693919313905193
870.0, 0.013730589583189245
871.0, 0.008723282035816408
872.0, 0.009660176633001949
873.0, 0.012180609198457489
874.0, 0.009818029574423206
875.0, 0.008498766550900183
876.0, 0.011825468405667852
877.0, 0.014800669872215958
878.0, 0.014158584905355787
879.0, 0.014867575464262756
880.0, 0.0070594192577015605
881.0, 0.012298012794121582
882.0, 0.01315121602919237
883.0, 0.00836763062902341
884.0, 0.006257460915969891
885.0, 0.008700242803152678
886.0, 0.008091898246404253
887.0, 0.005633733486041011
888.0, 0.006383042164283424
889.0, 0.002385304358474627
890.0, 0.0022367802273009856
891.0, 0.007174295623034095
892.0, 0.00873997948215998
893.0, 0.009262672934189062
894.0, 0.012752429182486464
895.0, 0.012484685477777448
896.0, 0.017695352088490723
897.0, 0.018384760150766153
898.0, 0.018930039441310408
899.0, 0.020910407875149317
900.0, 0.01935413955449864
901.0, 0.020122719506575192
902.0, 0.02541071004494199
903.0, 0.028987935276657637
904.0, 0.027997533584263955
905.0, 0.03709275692184627
906.0, 0.03110601727958332
907.0, 0.033318546470259995
908.0, 0.03861837042752554
909.0, 0.03867835017420223
910.0, 0.040888705944964146
911.0, 0.04735088407730456
912.0, 0.05211426283615266
913.0, 0.05792027545640293
914.0, 0.05724082997116074
915.0, 0.06259514756424744
916.0, 0.05947983474488397
917.0, 0.060215937669859054
918.0, 0.05994330550866172
919.0, 0.0607906713338763
920.0, 0.062270687370667405
921.0, 0.06103503639340799
922.0, 0.06280485250425404
923.0, 0.06201376803675947
924.0, 0.05622387475481879
925.0, 0.060272497968481185
926.0, 0.060500267082579565
927.0, 0.060673254085153644
928.0, 0.06270883687831887
929.0, 0.06547749005439855
930.0, 0.06945237562419243
931.0, 0.07557371049701078
932.0, 0.06916802714260949
933.0, 0.07448577864404606
934.0, 0.0719521515454701
935.0, 0.07667874257614038
936.0, 0.0781575387930818
937.0, 0.07519819318568043
938.0, 0.07450945294090365
939.0, 0.07878481882743102
940.0, 0.08155857258560709
941.0, 0.0782683868321346
942.0, 0.08797534806925927
943.0, 0.08763970849347334
944.0, 0.08805477417331338
945.0, 0.09071523206042599
946.0, 0.09247874242530245
947.0, 0.09420504269138973
948.0, 0.09676933369566756
949.0, 0.09762445071037018
950.0, 0.10396053537430003
951.0, 0.10529463381975349
952.0, 0.10668733128479219
953.0, 0.1137806184823244
954.0, 0.1120368008271124
955.0, 0.11866592011089042
956.0, 0.12320558104135589
957.0, 0.12149454196263763
958.0, 0.13294580495718164
959.0, 0.13750851081512905
960.0, 0.15193250988844884
961.0, 0.14655428400248272
962.0, 0.1436032940655211
963.0, 0.1429109085630529
964.0, 0.14434014547027044
965.0, 0.14802209385512166
966.0, 0.15281395257819227
967.0, 0.15781817174451054
968.0, 0.16327004640138995
969.0, 0.16210557589110822
970.0, 0.15990882612041654
971.0, 0.16251554227880727
972.0, 0.17212749667105898
973.0, 0.17315154001643368
974.0, 0.17093220800823075
975.0, 0.17172473430125762
976.0, 0.17286736476323497
977.0, 0.17191656822893517
978.0, 0.17712804019474515
979.0, 0.18380646013817567
980.0, 0.18451465218831853
981.0, 0.18537212123021818
982.0, 0.1827643219918924
983.0, 0.18242361509966318
984.0, 0.17993456818068498
985.0, 0.17625790868056984
986.0, 0.17595442926849325
987.0, 0.1727051985168041
988.0, 0.16794010288019612
989.0, 0.16770865634004578
990.0, 0.16982494145731963
991.0, 0.16811583171494054
992.0, 0.16093276615870375
993.0, 0.1673496404857252
994.0, 0.16990449715026418
995.0, 0.15907867720855462
996.0, 0.1567702518484004
997.0, 0.16439712645765614
998.0, 0.164269636866663
999.0, 0.17075821673080024
1000.0, 0.17069608571639952
1001.0, 0.1766618944582893
1002.0, 0.17306731400901598
1003.0, 0.1785962651671673
1004.0, 0.1846337521283585
1005.0, 0.17934598436106444
1006.0, 0.17597863144274015
1007.0, 0.17068644199560506
1008.0, 0.16757127488234166
1009.0, 0.16963074689568503
1010.0, 0.17207357320926173
1011.0, 0.1814943375788509
1012.0, 0.1866394679646964
1013.0, 0.1888433508331121
1014.0, 0.19793884855916719
1015.0, 0.21031508147389832
1016.0, 0.21431957705470786
1017.0, 0.2253203532179089
1018.0, 0.23883296819652675
1019.0, 0.24079694158178916
1020.0, 0.25771470705362043
1021.0, 0.2638544872463913
1022.0, 0.2736360998255745
1023.0, 0.28993788187535924
1024.0, 0.301702055947656
1025.0, 0.3050549266515978
1026.0, 0.3103961888504003
1027.0, 0.3229871761389582
1028.0, 0.34070552351905947
1029.0, 0.3457994760854711
1030.0, 0.345446677120731
1031.0, 0.36727270977618176
1032.0, 0.37791799316412716
1033.0, 0.3947824406755933
1034.0, 0.41187617900494317
1035.0, 0.4148196684956608
1036.0, 0.41624942704999807
1037.0, 0.4276232980843138
1038.0, 0.44536098368691185
1039.0, 0.45832301873693637
1040.0, 0.47207381799524506
1041.0, 0.4860124045856894
1042.0, 0.5001038045437842
1043.0, 0.5152562140742625
1044.0, 0.5302987983432481
1045.0, 0.5433034665508045
1046.0, 0.5546361592474784
1047.0, 0.5659045588683922
1048.0, 0.5736529506907836
1049.0, 0.5841973937276461
1050.0, 0.5916922044590537
1051.0, 0.5980923664824144
1052.0, 0.6073469872537799
1053.0, 0.6114490694149621
1054.0, 0.6162202567339496
1055.0, 0.6233161865914111
1056.0, 0.62978760818572
1057.0, 0.6371289965711645
1058.0, 0.6431318450922369
1059.0, 0.6574516371464183
1060.0, 0.666417745368077
1061.0, 0.6739956380338132
1062.0, 0.6919558841550028
1063.0, 0.7105500468495353
1064.0, 0.7331106101112072
1065.0, 0.7495840714600747
1066.0, 0.7608413666226654
1067.0, 0.7747557745984035
1068.0, 0.7784368982017382
1069.0, 0.7814349173285533
1070.0, 0.7821071130791017
1071.0, 0.7786716878320065
1072.0, 0.7733240713756292
1073.0, 0.7646870842474792
1074.0, 0.7533477613207558
1075.0, 0.7392416672202956
1076.0, 0.7211355997495813
1077.0, 0.7012746050022649
1078.0, 0.6824093555548603
1079.0, 0.659357501004536
1080.0, 0.6319512121078908
1081.0, 0.6116301575716486
1082.0, 0.5844530388469819
1083.0, 0.554694431805224
1084.0, 0.5380873644045069
1085.0, 0.5139702573249579
1086.0, 0.4868396106779657
1087.0, 0.4628589566969812
1088.0, 0.4401929108949667
1089.0, 0.4198963101071103
1090.0, 0.40160801976846777
1091.0, 0.38331186665339473
1092.0, 0.3555450748075802
1093.0, 0.34250190918951556
1094.0, 0.32751965436890557
1095.0, 0.30454232547006943
1096.0, 0.2942425528701722
1097.0, 0.28400573018024794
1098.0, 0.2681167436279936
1099.0, 0.25627753047190754
1100.0, 0.2482781661175429
1101.0, 0.2365634873376694
1102.0, 0.2254229623429183
1103.0, 0.2182951721411692
1104.0, 0.20091867246657952
1105.0, 0.19931223472328122
1106.0, 0.1993477181556522
1107.0, 0.19108615951408636
1108.0, 0.18511536920420976
1109.0, 0.18123252551138855
1110.0, 0.17660017645085319
1111.0, 0.17463043788574903
1112.0, 0.16970091180663485
1113.0, 0.16896809579061373
1114.0, 0.1736929086067233
1115.0, 0.164134603582778
1116.0, 0.1634531132283406
1117.0, 0.1541079118934994
1118.0, 0.1527730230423428
1119.0, 0.14974526692949117
1120.0, 0.1419493206434598
1121.0, 0.1346798407021359
1122.0, 0.12863688767840514
1123.0, 0.12169342741538212
1124.0, 0.11388563993391143
1125.0, 0.1096235391604096
1126.0, 0.10195742300420468
1127.0, 0.09043359886541578
1128.0, 0.0859967992913431
1129.0, 0.07922935455991292
1130.0, 0.06937708975625882
1131.0, 0.0622153499894313
1132.0, 0.05624199178100126
1133.0, 0.049400860311310746
1134.0, 0.045115142999373185
1135.0, 0.04134031231065947
1136.0, 0.03500389440042901
1137.0, 0.03550924225122343
1138.0, 0.034387705797030266
1139.0, 0.02867562499219382
1140.0, 0.023639135525443795
1141.0, 0.019735209184022065
1142.0, 0.016619193938283955
1143.0, 0.018734266068630444
1144.0, 0.01844966245036094
1145.0, 0.012455947112702256
1146.0, 0.012632780861677292
1147.0, 0.011128488835283824
1148.0, 0.0009954768512341191
1149.0, 0.008920800272467477
1150.0, 0.006079603608817511
1151.0, 0.0029474496278785673
1152.0, 0.001829418727491103
1153.0, 0.0008427134328638155
1154.0, 0.0008632525458714167
1155.0, 0.0007827576637291033
1156.0, 0.0011690242837440884
1157.0, 0.0019135842020052004
1158.0, 0.000895518282416213
1159.0, 0.0016132753401149884
1160.0, 0.00035845879981461675
1161.0, 0.001611874159813935
1162.0, 0.0013126019161685994
1163.0, 0.003132723649594029
1164.0, 0.0009946305081394925
1165.0, 0.002120783279770972
1166.0, 0.005776058333196501
1167.0, 0.004911606536697764
1168.0, 0.001284075454916115
1169.0, 0.0006232971223905765
1170.0, 0.0018598284509373354
1171.0, 0.0030302191980768924
1172.0, 0.0028833845389110695
1173.0, 0.0031026947049294113
1174.0, 0.0021203368143873475
1175.0, 0.0014775107039288818
1176.0, 0.001385558839186359
1177.0, 0.0007822770620218153
1178.0, 0.001944387615237462
1179.0, 0.003640593198919831
1180.0, 0.004157773464941861
1181.0, 0.003635868442966878
1182.0, 0.004050036313936382
1183.0, 0.0066560885150771755
1184.0, 0.006939369612029084
1185.0, 0.004139164609183749
1186.0, 0.001033143012901536
1187.0, 0.0024740036777317178
1188.0, 0.0032985892569952725
1189.0, 0.006448034102945163
1190.0, 0.006318996579929579
1191.0, 0.0028250709093456633
1192.0, 0.0005280287555363363
1193.0, 0.001799977926690246
1194.0, 0.004425863793803886
1195.0, 0.005151752265822422
1196.0, 0.004041193890400486
1197.0, 0.003940213011378893
1198.0, 0.0016662774428420203
1199.0, 0.0031587600792433767
1200.0, 0.004466735154493493
1201.0, 0.005021769934673359
1202.0, 0.001449473072475043
1203.0, 0.002357343695516621
1204.0, 0.0022928435134799236
1205.0, 0.004001575404946481
1206.0, 0.004433858020154473
1207.0, 0.001909561215745891
1208.0, 0.0034169851390785507
1209.0, 0.0018400136169759984
1210.0, 0.0013908350209911441
1211.0, 0.007045662440833154
1212.0, 0.005027601301083921
1213.0, 0.005666599588048482
1214.0, 0.004610048112467023
1215.0, 0.009292574329491774
1216.0, 0.012858250928388631
1217.0, 0.011190796025333976
1218.0, 0.016161515869624932
1219.0, 0.021737200405775838
1220.0, 0.017950703240812688
1221.0, 0.014915506912486644
1222.0, 0.018283040019992453
1223.0, 0.02209382352817835
1224.0, 0.02832278182193429
1225.0, 0.0202331216169273
1226.0, 0.02553378483252794
1227.0, 0.03341019803439522
1228.0, 0.029328685740220736
1229.0, 0.029718983579411107
1230.0, 0.031898180988811704
1231.0, 0.03769301824991345
1232.0, 0.042813500015655134
1233.0, 0.0422078038373275
1234.0, 0.04059872248690582
1235.0, 0.0440075297548858
1236.0, 0.04819181077298898
1237.0, 0.0440745455353326
1238.0, 0.053266826687016496
1239.0, 0.05266336398588307
1240.0, 0.05652384550408866
1241.0, 0.05238516946741063
1242.0, 0.04836571733598294
1243.0, 0.05134366458084895
1244.0, 0.05511373435116677
1245.0, 0.055513736209442485
1246.0, 0.05366374577700755
1247.0, 0.053109414788319625
1248.0, 0.05466926862636241
1249.0, 0.055338113747130636
1250.0, 0.05560497679745361
1251.0, 0.05717486575249282
1252.0, 0.0605518683772617
1253.0, 0.05603402705948814
1254.0, 0.054587884964412824
1255.0, 0.04958870654692623
1256.0, 0.05135764729286325
1257.0, 0.05718774592815941
1258.0, 0.055430530519845436
1259.0, 0.05269362327664387
1260.0, 0.05165303763398007
1261.0, 0.050592571640944294
1262.0, 0.05082917281680004
1263.0, 0.05261456232194387
1264.0, 0.05651129224900456
1265.0, 0.06023344498295106
1266.0, 0.06722683902120484
1267.0, 0.06419948661913999
1268.0, 0.07054488851689181
1269.0, 0.058050339076453294
1270.0, 0.06464720925216158
1271.0, 0.06116343156748441
1272.0, 0.06488103479382126
1273.0, 0.06833961159608203
1274.0, 0.06710468400203964
1275.0, 0.06448002487843937
1276.0, 0.06245328228683505
1277.0, 0.062240968886870314
1278.0, 0.06235895625562993
1279.0, 0.06102957385106825
1280.0, 0.06471921515601942
1281.0, 0.05526711095748023
1282.0, 0.05627343543276988
1283.0, 0.06213295304799871
1284.0, 0.05391805550773401
1285.0, 0.05796025920152824
1286.0, 0.05718427169245093
1287.0, 0.05491274913933289
1288.0, 0.05654334659253557
1289.0, 0.05698487071811561
1290.0, 0.05277628429377557
1291.0, 0.05206512875513221
1292.0, 0.055370410708969066
1293.0, 0.05265067388157109
1294.0, 0.053744553797760095
1295.0, 0.05251868843398359
1296.0, 0.05379367754015149
1297.0, 0.04984107240089669
1298.0, 0.0513251401278844
1299.0, 0.04485423545070995
1300.0, 0.043829506771699986
1301.0, 0.048171405503970616
1302.0, 0.045805448885010716
1303.0, 0.044367813626097125
1304.0, 0.0417148412440564
1305.0, 0.03966800440589572
1306.0, 0.04114347861098293
1307.0, 0.04257618478756717
1308.0, 0.04203305073123416
1309.0, 0.04153200165070982
1310.0, 0.04334488091682038
1311.0, 0.041963453244120874
1312.0, 0.048095996053075005
1313.0, 0.03636536782508278
1314.0, 0.04709460715171902
1315.0, 0.04181284469469968
1316.0, 0.040054241333670505
1317.0, 0.050310645518553306
1318.0, 0.04266284171273809
1319.0, 0.03875102902025648
1320.0, 0.04229936615318072
1321.0, 0.042595228078061535
1322.0, 0.04190559183702713
1323.0, 0.03960180510882732
1324.0, 0.03567743990164024
1325.0, 0.040000387074331935
1326.0, 0.03268067694543654
1327.0, 0.030535075141130883
1328.0, 0.03751777924912789
1329.0, 0.03360399912984228
1330.0, 0.027228132383632857
1331.0, 0.023469757632578185
1332.0, 0.018316515618889972
1333.0, 0.021253621133282802
1334.0, 0.017895549915955204
1335.0, 0.01806416849175559
1336.0, 0.019769680464134215
1337.0, 0.020819194850815955
1338.0, 0.022122308441321847
1339.0, 0.023375108775423755
1340.0, 0.02353571781211994
1341.0, 0.02305748474138694
1342.0, 0.023550730135443957
1343.0, 0.020064290240607453
1344.0, 0.016137202433288755
1345.0, 0.020241732652628765
1346.0, 0.016950783026666697
1347.0, 0.017170695556884566
1348.0, 0.010898424129218048
1349.0, 0.013907968825327735
1350.0, 0.014831146925727911
1351.0, 0.015598159320995269
1352.0, 0.011786369779108517
1353.0, 0.01868526891018181
1354.0, 0.021364766875450955
1355.0, 0.014699816633221681
1356.0, 0.013575117721726848
1357.0, 0.015351329655074616
1358.0, 0.012774808494159197
1359.0, 0.013771094331888799
1360.0, 0.012440792459584885
1361.0, 0.01901838502827149
1362.0, 0.018457688047545683
1363.0, 0.02108599489134943
1364.0, 0.021766637840287578
1365.0, 0.019614098820534536
1366.0, 0.016218443727686736
1367.0, 0.020457654965306597
1368.0, 0.012720213870737402
1369.0, 0.02090491212763195
1370.0, 0.026857018586766073
1371.0, 0.021691959838245612
1372.0, 0.01822244093869344
1373.0, 0.021088920324726052
1374.0, 0.022172496813401735
1375.0, 0.0211341001130116
1376.0, 0.02495350295892895
1377.0, 0.02657785916744121
1378.0, 0.02111934777478096
1379.0, 0.03190619474175674
1380.0, 0.023788910547492194
1381.0, 0.017277179694160965
1382.0, 0.032180989415422905
1383.0, 0.023325430694568168
1384.0, 0.02611526664270631
1385.0, 0.03046558000220679
1386.0, 0.027665414975231468
1387.0, 0.02566295309109073
1388.0, 0.028165366534770333
1389.0, 0.023297102277811642
1390.0, 0.022202657430743487
1391.0, 0.02203078151852264
1392.0, 0.02035815225683967
1393.0, 0.022493485363193844
1394.0, 0.02270339018966718
1395.0, 0.017109200456103955
1396.0, 0.012997035985590315
1397.0, 0.009366464879137027
1398.0, 0.012396436617669673
1399.0, 0.018737415673933118
1400.0, 0.02058981702486024
1401.0, 0.01729260460337727
1402.0, 0.021500966868881123
1403.0, 0.009941996208565194
1404.0, 0.01173656198066057
1405.0, 0.01059939241810383
1406.0, 0.01420513389366415
1407.0, 0.010051851893703175
1408.0, 0.00890152345482556
1409.0, 0.009124342481207174
1410.0, 0.005727634145092116
1411.0, 0.005033058772744295
1412.0, 0.007310537248189237
1413.0, 0.007566910821582304
1414.0, 0.007615591603273792
1415.0, 0.009377543587425164
1416.0, 0.009772864537142996
1417.0, 0.007415290736184486
1418.0, 0.003208867498453444
1419.0, 0.0003968773009973991
1420.0, 0.0021658010395148993
1421.0, 0.003305736866666669
1422.0, 0.001028725402093914
1423.0, 0.002690105277351455
1424.0, 0.0016834884524411901
1425.0, 0.0014149899196595611
1426.0, 0.0014182336811076356
1427.0, 0.004898314370448351
1428.0, 0.003200713286102526
1429.0, 0.005414731885979088
1430.0, 0.006939845684518473
1431.0, 0.003455622264811469
1432.0, 0.0029998632435778573
1433.0, 0.022217205347465494
1434.0, 0.022114974039404656
1435.0, 0.0008975170613189505
1436.0, 0.003095597179499855
1437.0, 0.01779859466336821
1438.0, 0.04567915929096696
1439.0, 0.04027744103103813
1440.0, 0.023673937060194515
1441.0, 0.019677738530982893
1442.0, 0.02316767596861303
1443.0, 0.022656180697506224
1444.0, 0.028548779785912765
1445.0, 0.028810223798446624
1446.0, 0.019967169844036677
1447.0, 0.03161022277563806
1448.0, 0.03684291347487447
1449.0, 0.02681407177755339
1450.0, 0.046181562767179725
1451.0, 0.037058426996622124
1452.0, 0.030697354926450805
1453.0, 0.03480130819993454
1454.0, 0.033082016253754315
1455.0, 0.03262428761450236
1456.0, 0.03519034711257341
1457.0, 0.03689341177482423
1458.0, 0.036024016143808124
1459.0, 0.03048855642091218
1460.0, 0.030054538083296018
1461.0, 0.03233612217561659
1462.0, 0.024730816875293694
1463.0, 0.024499487978304445
1464.0, 0.025678529659666896
1465.0, 0.019031687604280475
1466.0, 0.01804682747974783
1467.0, 0.015287131051394013
1468.0, 0.014200817650253758
1469.0, 0.012365733895916543
1470.0, 0.0076507567048089385
1471.0, 0.007879889368322757
1472.0, 0.009282577578863922
1473.0, 0.00693799136616061
1474.0, 0.003609131293314747
1475.0, 0.0019236777269185286
1476.0, 0.0024465339987520584
1477.0, 0.006254425339789638
1478.0, 0.005655744237736189
1479.0, 0.005625444309664675
1480.0, 0.00447566799472235
1481.0, 0.0024993779285018346
1482.0, 0.004326693272029571
1483.0, 0.009940495594377527
1484.0, 0.013171739553439178
1485.0, 0.00988892139951476
1486.0, 0.00996329003496658
1487.0, 0.0007039286063268347
1488.0, 0.0014331853169218857
1489.0, 0.0021096221876715183
1490.0, 0.004231127555414075
1491.0, 0.005064811300804663
1492.0, 0.0007283805224574543
1493.0, 0.005156467949857435
1494.0, 0.0017330051054444166
1495.0, 0.005441641892670197
1496.0, 0.0026692640924644985
1497.0, 0.000633525760762995
1498.0, 0.0025212524949478525
1499.0, 0.002340186294798217
1500.0, 0.0024319132143518704
1501.0, 0.002648078661254195
1502.0, 0.0029219652313573563
1503.0, 0.006576327825350311
1504.0, 0.0067944385789992295
1505.0, 0.006398196915410397
1506.0, 0.009507076456607396
1507.0, 0.009648095637300451
1508.0, 0.010046174637578717
1509.0, 0.010874097614572975
1510.0, 0.009783483057507314
1511.0, 0.010028645715987545
1512.0, 0.007568405589871468
1513.0, 0.006447853734709664
1514.0, 0.008313796913187699
1515.0, 0.010532184528502265
1516.0, 0.009981669865400498
1517.0, 0.012209705807034196
1518.0, 0.01565587525799289
1519.0, 0.01321420632463147
1520.0, 0.018264083007485967
1521.0, 0.019706356285049118
1522.0, 0.020182370966704867
1523.0, 0.018336311508766006
1524.0, 0.018185167323021504
1525.0, 0.015893348084934006
1526.0, 0.016165992623019727
1527.0, 0.012776782957176509
1528.0, 0.01325564089014725
1529.0, 0.015771598133244188
1530.0, 0.011711793587696945
1531.0, 0.008018797948932887
1532.0, 0.014799189886167966
1533.0, 0.010577756354137005
1534.0, 0.007162857443999569
1535.0, 0.011123269846215145
1536.0, 0.013519411803343128
1537.0, 0.010870852530048877
1538.0, 0.006266887371772419
1539.0, 0.004949975802398022
1540.0, 0.005874785797494116
1541.0, 0.005421285576377198
1542.0, 0.006758961213345961
1543.0, 0.007998464649518002
1544.0, 0.004519482368911562
1545.0, 0.0025373037786213027
1546.0, 0.00319526556105712
1547.0, 0.007119892800171239
1548.0, 0.009730414724986338
1549.0, 0.005654591034160148
1550.0, 0.006502200493403599
1551.0, 0.005351240080549886
1552.0, 0.005740836028161679
1553.0, 0.00906254351162101
1554.0, 0.007214056054630172
1555.0, 0.0121471103882615
1556.0, 0.012024535342761785
1557.0, 0.004742005432897136
1558.0, 0.0033664333908314395
1559.0, 0.00033704057566487453
1560.0, 0.0077968132540846
1561.0, 0.006299812813715139
1562.0, 0.0014085286663868641
1563.0, 0.0016780122753774797
1564.0, 0.012591778811194472
1565.0, 0.01243401018470599
1566.0, 0.009337332923928446
1567.0, 0.011210207865649944
1568.0, 0.005653246375961098
1569.0, 0.007119721586255892
1570.0, 0.005638011228045718
1571.0, 0.0013016088651551959
1572.0, 7.146045729583219e-07
1573, 0.0
1574, 0.0
1575, 0.0
1576, 0.0
1577, 0.0
1578, 0.0
1579, 0.0
1580, 0.0
1581, 0.0
1582, 0.0
1583, 0.0
1584, 0.0
1585, 0.0
1586, 0.0
1587, 0.0
1588, 0.0
1589, 0.0
1590, 0.0
1591, 0.0
1592, 0.0
1593, 0.0
1594, 0.0
1595, 0.0
1596, 0.0
1597, 0.0
1598, 0.0
1599, 0.0
