30, 0.0
31, 0.0
32, 0.0
33, 0.0
34, 0.0
35, 0.0
36, 0.0
37, 0.0
38, 0.0
39, 0.0
40, 0.0
41, 0.0
42, 0.0
43, 0.0
44, 0.0
45, 0.0
46, 0.0
47, 0.0
48, 0.0
49, 0.0
50, 0.0
51, 0.0
52, 0.0
53, 0.0
54, 0.0
55, 0.0
56, 0.0
57, 0.0
58, 0.0
59, 0.0
60, 0.0
61, 0.0
62, 0.0
63, 0.0
64, 0.0
65, 0.0
66, 0.0
67, 0.0
68, 0.0
69, 0.0
70, 0.0
71, 0.0
72, 0.0
73, 0.0
74, 0.0
75, 0.0
76, 0.0
77, 0.0
78, 0.0
79, 0.0
80, 0.0
81, 0.0
82, 0.0
83, 0.0
84, 0.0
85, 0.0
86, 0.0
87, 0.0
88, 0.0
89, 0.0
90, 0.0
91, 0.0
92, 0.0
93, 0.0
94, 0.0
95, 0.0
96, 0.0
97, 0.0
98, 0.0
99, 0.0
100, 0.0
101, 0.0
102, 0.0
103, 0.0
104.0, 0.00010096695449548785
105.0, 0.0014313719816796322
106.0, 0.004590223834211644
107.0, 0.01165597634816219
108.0, 0.01382947281077847
109.0, 0.013823203261198003
110.0, 0.017057975948020714
111.0, 0.01736520084848447
112.0, 0.02034311490526481
113.0, 0.02748005786733306
114.0, 0.03161813921984542
115.0, 0.03404242241627271
116.0, 0.035664329007976295
117.0, 0.03764806478293187
118.0, 0.032198024781212635
119.0, 0.028856927091549994
120.0, 0.02917062184601084
121.0, 0.029499787847542525
122.0, 0.02990971411260457
123.0, 0.03188899531581053
124.0, 0.03746253407881982
125.0, 0.0332289939822498
126.0, 0.03255525825440836
127.0, 0.035251697464962116
128.0, 0.0319894606033093
129.0, 0.03527933255783747
130.0, 0.04022397944055671
131.0, 0.04388265124999435
132.0, 0.045462614471269286
133.0, 0.04669436878196067
134.0, 0.047720675740947925
135.0, 0.048701460298253604
136.0, 0.05395430968945658
137.0, 0.058028124271390626
138.0, 0.0586665907184919
139.0, 0.060989932079449555
140.0, 0.06412009617846506
141.0, 0.0654332951665527
142.0, 0.05929060672696747
143.0, 0.06358924170876863
144.0, 0.06808338164598568
145.0, 0.06960189429699028
146.0, 0.05821871984411831
147.0, 0.05438765784435085
148.0, 0.05205872396209291
149.0, 0.04514710289814145
150.0, 0.04226860776269059
151.0, 0.03906679023860094
152.0, 0.035951844929851276
153.0, 0.03735200982612467
154.0, 0.03327096490305877
155.0, 0.0280791622957009
156.0, 0.02407263166855484
157.0, 0.02173105091718005
158.0, 0.01716826145647193
159.0, 0.012167206196625395
160.0, 0.011234821007504699
161.0, 0.009817477650071578
162.0, 0.009566768485831817
163.0, 0.01048256299204194
164.0, 0.0040895405927232065
165.0, 0.0024563847320051542
166.0, 0.00243758215424688
167.0, 0.0007005947115860487
168.0, 0.0008259838489544382
169.0, 0.002074947640654327
170.0, 0.003608466364175466
171.0, 0.0015896363909035775
172.0, 0.0020415355105347925
173.0, 0.002611901849221074
174.0, 0.0020214258478599687
175.0, 0.0016860125648202663
176.0, 0.0033724037803621095
177.0, 0.005930832559975434
178.0, 0.0069628120377509045
179.0, 0.007415519855901638
180.0, 0.007595232833071999
181.0, 0.007519430001333623
182.0, 0.006703104122407361
183.0, 0.005414147684217432
184.0, 0.0034622268433135896
185.0, 0.0005200161326399467
186.0, 0.0019921577802645635
187.0, 0.004260376765204941
188.0, 0.007918395812458682
189.0, 0.016304409445937203
190.0, 0.018283072775011
191.0, 0.02286310061655211
192.0, 0.03322966627661274
193.0, 0.035157255362717625
194.0, 0.039123546107485196
195.0, 0.0441838933381059
196.0, 0.049285249820381634
197.0, 0.05140116784393152
198.0, 0.0561014262281095
199.0, 0.06317511055317385
200.0, 0.06788034695180388
201.0, 0.08041456717998466
202.0, 0.0920671249339077
203.0, 0.0983006204121369
204.0, 0.1218467154238434
205.0, 0.14127051327631976
206.0, 0.16040949942382987
207.0, 0.18622051246486418
208.0, 0.2264700597176127
209.0, 0.26587113382434785
210.0, 0.3046697103358299
211.0, 0.362434807767612
212.0, 0.40800293676999266
213.0, 0.4572455695027898
214.0, 0.5205563290784586
215.0, 0.5689368102515954
216.0, 0.5947149945169654
217.0, 0.6082200611513979
218.0, 0.6284096087222352
219.0, 0.600109005939015
220.0, 0.5704866663517135
221.0, 0.5456877411588977
222.0, 0.5020454843190788
223.0, 0.45873302833388474
224.0, 0.4247365774964544
225.0, 0.407231049836792
226.0, 0.3741883724194219
227.0, 0.36368081594253204
228.0, 0.3618763660859645
229.0, 0.34077615223990815
230.0, 0.33993312082210864
231.0, 0.34224870053392303
232.0, 0.34420117684342705
233.0, 0.3442425574065812
234.0, 0.35805005653635075
235.0, 0.3665688034555517
236.0, 0.35774122585307255
237.0, 0.3842533112887226
238.0, 0.39342989991698696
239.0, 0.3968565870942677
240.0, 0.4147497265157659
241.0, 0.4261992962304049
242.0, 0.4297523719120334
243.0, 0.4294174060877184
244.0, 0.44779065410986624
245.0, 0.4275298454685856
246.0, 0.41079241650071785
247.0, 0.4174557978152834
248.0, 0.3925664681452055
249.0, 0.3750947160223518
250.0, 0.3597855718573655
251.0, 0.3397669275955745
252.0, 0.311215741637489
253.0, 0.2895537105958152
254.0, 0.27206396449173664
255.0, 0.2426530661810946
256.0, 0.22887639630183104
257.0, 0.21383266709879034
258.0, 0.19250251410467437
259.0, 0.18001246208556146
260.0, 0.17323947299695883
261.0, 0.1657627300979188
262.0, 0.1514775417446503
263.0, 0.15248959992791536
264.0, 0.1464930920361725
265.0, 0.13769275362436978
266.0, 0.13842297510020377
267.0, 0.13554659749488807
268.0, 0.13032017295444057
269.0, 0.12432581759788189
270.0, 0.1265372031669379
271.0, 0.12159974951683793
272.0, 0.11590593162347945
273.0, 0.11276550735344827
274.0, 0.10042181411752844
275.0, 0.0952735332889207
276.0, 0.0927372391915522
277.0, 0.08683931384017629
278.0, 0.07746604330042423
279.0, 0.0723316452898109
280.0, 0.06885233295985226
281.0, 0.05603182106429701
282.0, 0.051981699442768176
283.0, 0.05004512534560367
284.0, 0.04770881904353674
285.0, 0.03911406789123911
286.0, 0.03792541084813792
287.0, 0.03666984638374617
288.0, 0.030180437199615117
289.0, 0.03153336954738226
290.0, 0.03002385305185011
291.0, 0.0268645444284525
292.0, 0.02390260306769883
293.0, 0.023893680619821958
294.0, 0.020568933484274445
295.0, 0.01614638861095391
296.0, 0.02135223100874825
297.0, 0.019412379455298705
298.0, 0.020368921854426875
299.0, 0.026414660157737715
300.0, 0.02681241969752239
301.0, 0.028207673670184553
302.0, 0.03006453831456631
303.0, 0.032062026777064476
304.0, 0.02807257928353743
305.0, 0.03280829204278323
306.0, 0.038776692609447584
307.0, 0.03492692942477551
308.0, 0.045178776592786844
309.0, 0.053805692821693236
310.0, 0.06142884821720056
311.0, 0.07486882709103881
312.0, 0.08899631420543497
313.0, 0.09657836996537685
314.0, 0.0972606722445686
315.0, 0.10280937552740009
316.0, 0.09210366508966111
317.0, 0.07719199773697477
318.0, 0.06420019433854288
319.0, 0.05360856749020002
320.0, 0.04416259111445457
321.0, 0.037701177962933534
322.0, 0.03656319542459913
323.0, 0.029927106691553566
324.0, 0.027499637528081308
325.0, 0.02842128596796756
326.0, 0.030326990405927314
327.0, 0.03261998781677547
328.0, 0.036500157316586915
329.0, 0.041002546776437936
330.0, 0.04140191027995086
331.0, 0.04897070929356803
332.0, 0.05393302213314939
333.0, 0.05425613413859118
334.0, 0.06213843178199484
335.0, 0.06943861613638401
336.0, 0.07453279376740643
337.0, 0.07650670649796532
338.0, 0.0882324712573802
339.0, 0.09395992075150993
340.0, 0.09732567105579196
341.0, 0.10224269897638544
342.0, 0.10781426842474816
343.0, 0.11299862037491284
344.0, 0.11921640533564115
345.0, 0.12961405393570166
346.0, 0.1265640161431681
347.0, 0.12868072544574255
348.0, 0.13589744855179692
349.0, 0.1380281002325927
350.0, 0.1465351317605467
351.0, 0.15334161893740209
352.0, 0.15720866152138957
353.0, 0.16610131972032668
354.0, 0.1853732555629835
355.0, 0.2026204777236179
356.0, 0.212895128563934
357.0, 0.24145720926968953
358.0, 0.264254356485617
359.0, 0.2900871271853326
360.0, 0.3265576289334997
361.0, 0.37359548381307356
362.0, 0.42077797988292726
363.0, 0.4777066651910187
364.0, 0.5590323665207406
365.0, 0.6272895159062629
366.0, 0.715768982519804
367.0, 0.8111690241361765
368.0, 0.878489990953357
369.0, 0.9208577448412196
370.0, 0.9629215309180226
371.0, 0.98832168901189
372.0, 0.9215884833655512
373.0, 0.8875838042464176
374.0, 0.8271620245726948
375.0, 0.7319989997400644
376.0, 0.654521405334646
377.0, 0.5853035665496512
378.0, 0.5183453064896247
379.0, 0.45281602938555343
380.0, 0.40887940111529414
381.0, 0.3562739078978164
382.0, 0.3099497882379831
383.0, 0.27988869598650234
384.0, 0.25476146084320084
385.0, 0.22957184024478935
386.0, 0.20998185961948526
387.0, 0.20203115070382352
388.0, 0.17646062350710148
389.0, 0.1675904810107524
390.0, 0.1628807160521808
391.0, 0.14298601386691764
392.0, 0.13746763110814897
393.0, 0.13361097647573209
394.0, 0.12779421147921055
395.0, 0.11427238158931857
396.0, 0.11792748489199345
397.0, 0.11418867469068275
398.0, 0.10460820795388681
399.0, 0.10392083123140321
400.0, 0.10247803994790432
401.0, 0.09812876538880876
402.0, 0.09380495273448679
403.0, 0.10433059640033439
404.0, 0.10133659477867049
405.0, 0.10040813436578123
406.0, 0.10406672681779712
407.0, 0.09725384040342948
408.0, 0.09075798962181983
409.0, 0.08707995061371239
410.0, 0.08618588179714444
411.0, 0.07609548419937645
412.0, 0.07379567329966438
413.0, 0.0702457618222683
414.0, 0.06085561052696943
415.0, 0.05695193948907949
416.0, 0.05356150389328749
417.0, 0.04760783277837695
418.0, 0.0369601266684131
419.0, 0.0366474910401635
420.0, 0.03311141207034748
421.0, 0.029480185822961903
422.0, 0.028780274354683624
423.0, 0.027063010496646264
424.0, 0.02092936393660113
425.0, 0.016754578780743615
426.0, 0.02263863944473259
427.0, 0.016732544541181407
428.0, 0.015927227777555758
429.0, 0.016991570925348556
430.0, 0.01397260585924563
431.0, 0.016377038635942035
432.0, 0.017220548168821313
433.0, 0.01602841042748525
434.0, 0.012725682135299241
435.0, 0.01994435388741763
436.0, 0.02090780358416904
437.0, 0.017595651977815034
438.0, 0.018363407554046706
439.0, 0.019278383095092215
440.0, 0.017676934965462354
441.0, 0.014692186862910121
442.0, 0.014353036879822105
443.0, 0.01122989815320823
444.0, 0.009780554115440312
445.0, 0.01053552154031319
446.0, 0.01274152492479903
447.0, 0.009571253656994084
448.0, 0.009708071032595762
449.0, 0.01240971101263445
450.0, 0.008015195369213503
451.0, 0.009795861006111744
452.0, 0.009318812252916378
453.0, 0.005559631136801137
454.0, 0.003190997014795747
455.0, 0.006006818577228681
456.0, 0.006707769145938269
457.0, 0.005151460082218262
458.0, 0.010898734713293192
459.0, 0.00758103883488962
460.0, 0.005579687475381972
461.0, 0.007363144645936914
462.0, 0.00820597424435679
463.0, 0.006602631313969841
464.0, 0.006853612076002063
465.0, 0.009368373668688491
466.0, 0.007330452619731307
467.0, 0.008681456347309843
468.0, 0.011458259003841193
469.0, 0.014360540559621857
470.0, 0.013506228784130984
471.0, 0.018782709031423043
472.0, 0.019852371932343092
473.0, 0.014878667144887262
474.0, 0.020457368910211878
475.0, 0.02247787341180501
476.0, 0.025228639405501095
477.0, 0.029988293110304896
478.0, 0.03301604217012239
479.0, 0.030851828237580058
480.0, 0.03281707394657764
481.0, 0.04106409607927559
482.0, 0.04135224338890429
483.0, 0.044346872035289406
484.0, 0.05103122417353231
485.0, 0.05983811944583511
486.0, 0.05539431944031958
487.0, 0.06292874446941259
488.0, 0.06986326472562654
489.0, 0.07187582992450493
490.0, 0.07634310841944275
491.0, 0.08140007696486869
492.0, 0.08431352719291467
493.0, 0.08495614458118503
494.0, 0.09056641584564504
495.0, 0.0910388780971065
496.0, 0.09259734465158234
497.0, 0.09663459649262814
498.0, 0.09594601846374964
499.0, 0.09447536870600652
500.0, 0.09768497345471006
501.0, 0.10441730434996703
502.0, 0.09510376241603738
503.0, 0.09880558569230104
504.0, 0.1009431537997671
505.0, 0.09713750673422726
506.0, 0.09152440383263019
507.0, 0.09180853410132034
508.0, 0.08890133637409772
509.0, 0.08252463268994432
510.0, 0.08546829473256864
511.0, 0.07897103632898714
512.0, 0.07330044616015541
513.0, 0.07113732439450528
514.0, 0.0713291337952795
515.0, 0.06634048796868297
516.0, 0.06447482889920735
517.0, 0.06444484711710505
518.0, 0.05380030479765927
519.0, 0.051178150212112195
520.0, 0.04870742579064036
521.0, 0.04425045543302082
522.0, 0.03645398552297387
523.0, 0.035908737656054554
524.0, 0.033460147785200095
525.0, 0.030522641767929015
526.0, 0.03538571453770519
527.0, 0.033460015819836604
528.0, 0.03255724666744953
529.0, 0.034852515514302546
530.0, 0.042750271758683345
531.0, 0.03670864010970929
532.0, 0.038745121284158746
533.0, 0.04524560667433488
534.0, 0.04487474549627832
535.0, 0.048052811346415814
536.0, 0.050743568896025396
537.0, 0.05132668859111823
538.0, 0.04776520159444764
539.0, 0.050400810044347315
540.0, 0.04883406500756228
541.0, 0.04563423818623685
542.0, 0.04464645118792626
543.0, 0.04248587092807404
544.0, 0.03879606448281463
545.0, 0.03492118724357811
546.0, 0.03220623927391186
547.0, 0.028694319635568222
548.0, 0.027219661866214554
549.0, 0.02567155997737861
550.0, 0.022438267536666997
551.0, 0.019964571529384398
552.0, 0.01753648797313133
553.0, 0.015029874630202826
554.0, 0.01238213528667731
555.0, 0.009779308611120098
556.0, 0.007898584999223976
557.0, 0.006480250034069643
558.0, 0.005509100874540351
559.0, 0.005727636783290223
560.0, 0.004281389268722077
561.0, 0.0026229622631374055
562.0, 0.0012882357302685349
563.0, 0.00031555261487494185
564.0, 0.003930753878043133
565.0, 0.004958087540240945
566.0, 0.0035642601972062397
567.0, 0.006641862811800182
568.0, 0.005864903303669432
569.0, 0.006119113843964085
570.0, 0.007445969503702249
571.0, 0.007849962214520124
572.0, 0.005041164733171683
573.0, 0.00789997183133651
574.0, 0.010785819811898262
575.0, 0.0023337578428310815
576.0, 0.004265343602092249
577.0, 0.006188824573893906
578.0, 0.006639159973182818
579.0, 0.004562002805845334
580.0, 0.008631583472160016
581.0, 0.00488281675821246
582.0, 0.0016673187221513917
583.0, 0.005799991318370954
584.0, 0.004059719638096568
585.0, 0.0036754937865087225
586.0, 0.004587148206266881
587.0, 0.0060530436261489375
588.0, 0.0016810340421180147
589.0, 0.002948483982472146
590.0, 0.0031678988928764973
591.0, 0.0008560677453028217
592.0, 0.002629369904085052
593.0, 0.0032837640679911867
594.0, 0.004114139391140971
595.0, 0.004366172673085617
596.0, 0.0005328177551377896
597.0, 0.0026825854225136932
598.0, 0.004720845014502021
599.0, 0.005241713317459766
600.0, 0.003376906717821899
601.0, 0.005496017586696159
602.0, 0.007281730654741204
603.0, 0.008914970172737643
604.0, 0.011084826974837493
605.0, 0.010451523579753222
606.0, 0.008911558215243424
607.0, 0.009101770981654754
608.0, 0.01287946170380397
609.0, 0.012269557306534899
610.0, 0.01630881335137788
611.0, 0.019282667608199664
612.0, 0.01852086912929429
613.0, 0.01814522420696583
614.0, 0.023732433745777312
615.0, 0.027729029092289595
616.0, 0.030997669641667905
617.0, 0.04712590400410156
618.0, 0.052644328017088876
619.0, 0.05433142792116699
620.0, 0.05544130809749616
621.0, 0.06031070744746259
622.0, 0.03872302290559225
623.0, 0.030990683059792863
624.0, 0.033258936127379984
625.0, 0.034954204334937865
626.0, 0.036363781327265504
627.0, 0.04665790333396475
628.0, 0.05455935035339146
629.0, 0.052159877394994794
630.0, 0.06725338350886186
631.0, 0.07946711640111362
632.0, 0.089739851471052
633.0, 0.10032819030633702
634.0, 0.1215418692860145
635.0, 0.13156531395250265
636.0, 0.14533397274045337
637.0, 0.1606610051474316
638.0, 0.15816360140274258
639.0, 0.15360365129611714
640.0, 0.15140153683681346
641.0, 0.14742706642290537
642.0, 0.13378936597022703
643.0, 0.13956293584014198
644.0, 0.1368449102117279
645.0, 0.13254373905503938
646.0, 0.13477146353060085
647.0, 0.14901930966588528
648.0, 0.14746337849763114
649.0, 0.15086347740737843
650.0, 0.1667043882454632
651.0, 0.16864639397500863
652.0, 0.17317997348235334
653.0, 0.18168687349208754
654.0, 0.18940155398396497
655.0, 0.18075881910426975
656.0, 0.19342017691159366
657.0, 0.19294680246850812
658.0, 0.18575311317554571
659.0, 0.18938758521767238
660.0, 0.1885865428012821
661.0, 0.18387861863711785
662.0, 0.18361145608213653
663.0, 0.1936899183687671
664.0, 0.19495601664655737
665.0, 0.1976847682720301
666.0, 0.20560262722438816
667.0, 0.21695672395898086
668.0, 0.21493100111065927
669.0, 0.23686101598456497
670.0, 0.2521103475122918
671.0, 0.2588309793388153
672.0, 0.2688104383348528
673.0, 0.29665849771502767
674.0, 0.30413723800888187
675.0, 0.30789798943174695
676.0, 0.330021637977213
677.0, 0.3252792116736854
678.0, 0.32363653437081996
679.0, 0.3256902493105573
680.0, 0.32758708738302184
681.0, 0.30126377840390356
682.0, 0.3113972329495613
683.0, 0.3057380534034922
684.0, 0.2819384449983014
685.0, 0.2777202970958987
686.0, 0.2762744905707972
687.0, 0.26650420519395585
688.0, 0.25971818921037143
689.0, 0.2724961371278242
690.0, 0.2577356610367448
691.0, 0.2593223579705364
692.0, 0.26748589877810336
693.0, 0.27381811961512775
694.0, 0.26834188110589513
695.0, 0.2940572727178425
696.0, 0.3130009064453809
697.0, 0.32050437193464276
698.0, 0.33953122686685044
699.0, 0.37113062613919867
700.0, 0.38582108978997265
701.0, 0.39925634337560506
702.0, 0.43712534628875355
703.0, 0.43209662379307534
704.0, 0.4288312041464376
705.0, 0.4284614261674533
706.0, 0.4255475305658253
707.0, 0.3766342469274855
708.0, 0.36122153021128145
709.0, 0.33777883957648847
710.0, 0.3019441924797546
711.0, 0.27530831280655516
712.0, 0.25077537449419224
713.0, 0.21989055661907045
714.0, 0.194550761067751
715.0, 0.18837510820661185
716.0, 0.1612453964448009
717.0, 0.14652502260532652
718.0, 0.13690679103718717
719.0, 0.12700592897703544
720.0, 0.110993930089317
721.0, 0.10867968791653436
722.0, 0.10464938133042107
723.0, 0.09687224095022096
724.0, 0.08850719902704313
725.0, 0.08757957147900197
726.0, 0.08413364601198967
727.0, 0.08168919913860685
728.0, 0.08312637099599593
729.0, 0.07882783786486815
730.0, 0.07410029790399056
731.0, 0.0717622281508828
732.0, 0.07176446564590072
733.0, 0.07015132657684144
734.0, 0.07086858735440209
735.0, 0.06903891609028359
736.0, 0.06638578325842313
737.0, 0.06622436315457522
738.0, 0.07169119021071846
739.0, 0.06859499393414954
740.0, 0.06766893426856493
741.0, 0.07302929475549569
742.0, 0.07091300599066554
743.0, 0.07325809140193326
744.0, 0.07754105059008239
745.0, 0.08084250918139087
746.0, 0.07868319719710937
747.0, 0.08850313733974054
748.0, 0.09156758396870432
749.0, 0.09162947965901608
750.0, 0.09386110118599253
751.0, 0.1097323306974391
752.0, 0.11200973059436961
753.0, 0.11750163834346355
754.0, 0.1282919256024757
755.0, 0.13482324023241996
756.0, 0.13388212577768793
757.0, 0.14097576844493773
758.0, 0.14675405001237957
759.0, 0.14095007031362636
760.0, 0.1410648268842372
761.0, 0.13908257351172804
762.0, 0.13256995474979966
763.0, 0.1225544402682227
764.0, 0.11600657603172307
765.0, 0.10708581783639957
766.0, 0.10301374495392099
767.0, 0.10062752336358227
768.0, 0.09482024663167561
769.0, 0.08990896890061813
770.0, 0.08864473227201734
771.0, 0.08551406525786097
772.0, 0.07980956011655806
773.0, 0.08011334078501922
774.0, 0.08145023756979865
775.0, 0.08032256018745312
776.0, 0.08004940314445468
777.0, 0.08582561068997308
778.0, 0.08740195546080425
779.0, 0.08854863191970087
780.0, 0.09205248331177274
781.0, 0.09776871285308009
782.0, 0.09826368422820711
783.0, 0.10541299756559251
784.0, 0.11013072097767429
785.0, 0.11211446540017872
786.0, 0.11352412079941165
787.0, 0.12231925067324927
788.0, 0.11974011069962455
789.0, 0.11986908704545582
790.0, 0.12714916211310845
791.0, 0.12483920497418131
792.0, 0.12064793512695529
793.0, 0.11999839290565568
794.0, 0.11873080532429967
795.0, 0.10985718100954417
796.0, 0.10832903284358372
797.0, 0.10906825987324645
798.0, 0.10495016860964769
799.0, 0.09647833610793614
800.0, 0.1014374021688583
801.0, 0.0951719286810594
802.0, 0.09389106624264353
803.0, 0.09597650498728573
804.0, 0.09581401371491871
805.0, 0.09393291697357382
806.0, 0.09872278838486696
807.0, 0.10079386680787437
808.0, 0.09921707076439933
809.0, 0.10664021601097032
810.0, 0.11055371396212488
811.0, 0.110269117384536
812.0, 0.11277123516235524
813.0, 0.12412415591982745
814.0, 0.11543496509249555
815.0, 0.11789738338932841
816.0, 0.12052948629965093
817.0, 0.11807710910619129
818.0, 0.10844907506420175
819.0, 0.1082357966550111
820.0, 0.10209515007233909
821.0, 0.09526265661827503
822.0, 0.09268097612121304
823.0, 0.08422567369034217
824.0, 0.0764496526528364
825.0, 0.07351918749049913
826.0, 0.071408515687084
827.0, 0.05939024049488807
828.0, 0.05514319208809394
829.0, 0.05320588357964551
830.0, 0.04949496078766532
831.0, 0.04311157944059842
832.0, 0.04407089341398388
833.0, 0.04101318957112869
834.0, 0.040476924430385065
835.0, 0.04150411354155371
836.0, 0.04066094909721452
837.0, 0.036628440632189174
838.0, 0.033808082991141485
839.0, 0.03149566447299604
840.0, 0.029315220132073286
841.0, 0.02725432921565216
842.0, 0.02627465753676003
843.0, 0.02247937186165443
844.0, 0.019341470593804415
845.0, 0.020067706049704884
846.0, 0.017111112628434386
847.0, 0.011728166661208496
848.0, 0.00943771632669917
849.0, 0.00922684870327408
850.0, 0.0054234028698771815
851.0, 0.004473614129206838
852.0, 0.004006379110859252
853.0, 0.0031265366492045873
854.0, 0.0018050548487309472
855.0, 0.0025025859599405015
856.0, 0.0012419437954107341
857.0, 0.0007441198028945358
858.0, 0.0010253622668525409
859.0, 0.0015730928265448758
860.0, 0.00384690258602035
861.0, 0.002087271883216948
862.0, 0.0020373799740522223
863.0, 0.0034596038284013097
864.0, 0.00029951963208007257
865.0, 0.002207661607096146
866.0, 0.002935714050857845
867.0, 0.002232691278024693
868.0, 0.0011059939784644139
869.0, 0.0043514258210736
870.0, 0.00439042609791737
871.0, 0.003131384926183505
872.0, 0.0023345698194091632
873.0, 0.0035721193589068646
874.0, 0.001989741805437763
875.0, 0.0012551181129485565
876.0, 0.0008599815911260479
877.0, 0.0006682505870928443
878.0, 0.0008556008337477597
879.0, 0.002328762937492353
880.0, 0.00495119313875088
881.0, 0.005035498837283384
882.0, 0.002002993046202717
883.0, 0.005724039133030756
884.0, 0.002498045794882201
885.0, 0.0013634044383668267
886.0, 0.0015951676587719285
887.0, 0.0007089198657737189
888.0, 0.002897187003198549
889.0, 0.003273824487210757
890.0, 0.0019018915006739846
891.0, 1.5442367941854667e-05
892.0, 2.131245861593545e-05
893.0, 0.0010599135711647986
894.0, 0.002779132395719241
895.0, 0.0030945710206922838
896.0, 0.0021444949744187096
897.0, 0.004876887027998401
898.0, 0.004393241575649735
899.0, 0.0038145737422354514
900.0, 0.004753341614864627
901.0, 0.007713959573666971
902.0, 0.007956167312687527
903.0, 0.009408230606690226
904.0, 0.009221723459947486
905.0, 0.00816251114266164
906.0, 0.008380163685765576
907.0, 0.009318120395572022
908.0, 0.01193926799929538
909.0, 0.012471757753357302
910.0, 0.011623679273097032
911.0, 0.014702120458509308
912.0, 0.014548281537503129
913.0, 0.01698243633886675
914.0, 0.018147318912252807
915.0, 0.01682635638531675
916.0, 0.018609919356025566
917.0, 0.018316216413866895
918.0, 0.019174928700248783
919.0, 0.021349064215012033
920.0, 0.024200476727718075
921.0, 0.025183632130234425
922.0, 0.02443882622390823
923.0, 0.024959962953710425
924.0, 0.025472318838294195
925.0, 0.023723259906562377
926.0, 0.02670277809144853
927.0, 0.027441299604170237
928.0, 0.028174232250395535
929.0, 0.029844407376863554
930.0, 0.03262220451932866
931.0, 0.03196637385801526
932.0, 0.032651715746986915
933.0, 0.03476993673192796
934.0, 0.036457342379464304
935.0, 0.0324364714722433
936.0, 0.039792147707179655
937.0, 0.0392616226073363
938.0, 0.03714776923950897
939.0, 0.038735203154270995
940.0, 0.042264132876482854
941.0, 0.04301094732073378
942.0, 0.04292690238005061
943.0, 0.04331277133202262
944.0, 0.044936853715727525
945.0, 0.04615972140556703
946.0, 0.053041389680752345
947.0, 0.05396239097698747
948.0, 0.05428220687469853
949.0, 0.06251554872237633
950.0, 0.059730291965840086
951.0, 0.06183490106874016
952.0, 0.0667528623134498
953.0, 0.07126336749783413
954.0, 0.07145389470673004
955.0, 0.07432706187863786
956.0, 0.0777002272279967
957.0, 0.07869794449449417
958.0, 0.08052917502285953
959.0, 0.09222491742728854
960.0, 0.08852841128175663
961.0, 0.08922937497499703
962.0, 0.09371029023674896
963.0, 0.09831257020205729
964.0, 0.09476218979087289
965.0, 0.09893213003821127
966.0, 0.101952074674959
967.0, 0.10303596920509497
968.0, 0.10339117595982061
969.0, 0.1077636420546727
970.0, 0.1093513855595239
971.0, 0.10947149736123646
972.0, 0.11217349396164576
973.0, 0.11701491988806766
974.0, 0.10842388554042708
975.0, 0.11675042660430036
976.0, 0.11933552771170267
977.0, 0.11743505407225276
978.0, 0.11646979318318466
979.0, 0.12390923779384312
980.0, 0.11814072305194538
981.0, 0.12096773622707771
982.0, 0.12493294758381551
983.0, 0.11974833619287867
984.0, 0.11748441089072761
985.0, 0.11996987855270826
986.0, 0.11980764917610628
987.0, 0.11694336244132672
988.0, 0.11387312257893872
989.0, 0.11557975266343046
990.0, 0.11074400733305037
991.0, 0.1122912214743806
992.0, 0.11652077674229318
993.0, 0.11441530130198764
994.0, 0.10856792479881508
995.0, 0.1123068408027392
996.0, 0.1120833305789624
997.0, 0.11003522806069858
998.0, 0.11410395004748398
999.0, 0.11322609822325418
1000.0, 0.11206714362411853
1001.0, 0.11667509371623094
1002.0, 0.12187264422854623
1003.0, 0.11785340954287543
1004.0, 0.12290458497988825
1005.0, 0.12726052610505312
1006.0, 0.12768433554664305
1007.0, 0.12851260762407932
1008.0, 0.13760571170888855
1009.0, 0.13861707729710207
1010.0, 0.14323927539301193
1011.0, 0.15215987892038157
1012.0, 0.1597459653691798
1013.0, 0.15740399062064286
1014.0, 0.16626468554759832
1015.0, 0.17402656373991487
1016.0, 0.17767529414022468
1017.0, 0.18277128700520537
1018.0, 0.199032723614497
1019.0, 0.19670823683534067
1020.0, 0.20434733979145006
1021.0, 0.21295394048941577
1022.0, 0.2170618717403677
1023.0, 0.21471399994913493
1024.0, 0.2363113813438205
1025.0, 0.23742211602990224
1026.0, 0.23493183901560666
1027.0, 0.24039144255358444
1028.0, 0.2598333578983528
1029.0, 0.24671945527111724
1030.0, 0.25463283083038846
1031.0, 0.26050913350974825
1032.0, 0.2592163782497553
1033.0, 0.2560197220346263
1034.0, 0.26252300498756176
1035.0, 0.25587766907683046
1036.0, 0.2513833943145885
1037.0, 0.25269859285172813
1038.0, 0.2565106791957348
1039.0, 0.2455608723299857
1040.0, 0.25065312614185503
1041.0, 0.24928674327156747
1042.0, 0.24034775695665256
1043.0, 0.23285161369745105
1044.0, 0.242915569389583
1045.0, 0.23222709416895893
1046.0, 0.2299989701101467
1047.0, 0.23491272007452269
1048.0, 0.2346835466271361
1049.0, 0.21803409133411658
1050.0, 0.22872795362617768
1051.0, 0.22613718417351375
1052.0, 0.21688763535562056
1053.0, 0.2173925228670322
1054.0, 0.22355804127411164
1055.0, 0.21143880027051873
1056.0, 0.2094158113554972
1057.0, 0.20977612360774414
1058.0, 0.20148116017149603
1059.0, 0.19113328721610645
1060.0, 0.19780878769673851
1061.0, 0.19311851725928708
1062.0, 0.1877061374944993
1063.0, 0.19132292642272603
1064.0, 0.19427162464120806
1065.0, 0.18231917910407938
1066.0, 0.18297363325180901
1067.0, 0.1857881340501587
1068.0, 0.18278428104248307
1069.0, 0.17856397576243788
1070.0, 0.18819288044428503
1071.0, 0.17777820401103142
1072.0, 0.17000200230921186
1073.0, 0.17240925363864645
1074.0, 0.16760015541729223
1075.0, 0.1583175976998409
1076.0, 0.15886316890707547
1077.0, 0.15601610859312579
1078.0, 0.14646676979557868
1079.0, 0.13684709532520506
1080.0, 0.13772534748348558
1081.0, 0.12823141876538977
1082.0, 0.12050391922777524
1083.0, 0.11688304987238843
1084.0, 0.11322290368963008
1085.0, 0.10126800462927463
1086.0, 0.10115967508401333
1087.0, 0.09560691183520817
1088.0, 0.08740601351174421
1089.0, 0.08476600321933919
1090.0, 0.08126123350610516
1091.0, 0.07550069746338879
1092.0, 0.07465394475560307
1093.0, 0.07230201370732871
1094.0, 0.06373593959642075
1095.0, 0.060482025102610144
1096.0, 0.061893617287685755
1097.0, 0.05766258702766972
1098.0, 0.052484250176783896
1099.0, 0.050843738980518194
1100.0, 0.053352746338366744
1101.0, 0.04489070085612861
1102.0, 0.045924809795185824
1103.0, 0.04675255002118729
1104.0, 0.042782425333747424
1105.0, 0.03686277085526992
1106.0, 0.0396764988000055
1107.0, 0.03735266536147133
1108.0, 0.0353856113704783
1109.0, 0.03430295305161356
1110.0, 0.03192397369320807
1111.0, 0.03106077659776057
1112.0, 0.03443015442557036
1113.0, 0.033249551536726644
1114.0, 0.030372225533896173
1115.0, 0.030173592059086148
1116.0, 0.026242357250258995
1117.0, 0.022127693442019144
1118.0, 0.02563156769069474
1119.0, 0.028751091192664065
1120.0, 0.026292974135889748
1121.0, 0.024659617656695873
1122.0, 0.030377299060460654
1123.0, 0.02904411318807917
1124.0, 0.027338171009863053
1125.0, 0.0281860417577141
1126.0, 0.029046467130518984
1127.0, 0.027309516725292544
1128.0, 0.028164078366101332
1129.0, 0.02722210144279847
1130.0, 0.02413766170769706
1131.0, 0.021844179641003134
1132.0, 0.030754236532989983
1133.0, 0.029414733025280936
1134.0, 0.028673704498980584
1135.0, 0.02854060309132733
1136.0, 0.027494206999195903
1137.0, 0.02764861760509675
1138.0, 0.02684754891251628
1139.0, 0.02314022452907411
1140.0, 0.019227298954669937
1141.0, 0.017814367141277508
1142.0, 0.020685655640107214
1143.0, 0.015249181796814396
1144.0, 0.01355327518909502
1145.0, 0.011594074896843254
1146.0, 0.008562069356116447
1147.0, 0.006110931354423336
1148.0, 0.008778437663018748
1149.0, 0.006487113693464959
1150.0, 0.004766160507062338
1151.0, 0.005048208233656072
1152.0, 0.006180229571262359
1153.0, 0.0026855181918156662
1154.0, 0.005062664522619739
1155.0, 0.006131913886891093
1156.0, 0.0038620963803904346
1157.0, 0.0013976638869119856
1158.0, 0.006756695814918504
1159.0, 0.003368105808126536
1160.0, 0.00254473624927672
1161.0, 0.003704052375301327
1162.0, 0.004034981302847497
1163.0, 0.001162881742198445
1164.0, 0.0016881281194225163
1165.0, 0.0019375650463539199
1166.0, 0.0024513522524788832
1167.0, 0.003805279836141518
1168.0, 0.005024061337920056
1169.0, 0.0020443621187076384
1170.0, 0.002155610463285851
1171.0, 0.006121995644281135
1172.0, 0.0049756757762777935
1173.0, 0.00045955418893286386
1174.0, 0.002024340546055819
1175.0, 0.003694512728857918
1176.0, 0.0020657679477990194
1177.0, 0.0011431700397277857
1178.0, 0.0008679417624138006
1179.0, 0.0005756477197828936
1180.0, 0.0015688498840556678
1181.0, 0.0031017292869473115
1182.0, 0.0021563280108561574
1183.0, 0.0019099696069728327
1184.0, 0.002572368262764798
1185.0, 0.0009394395596967018
1186.0, 0.00037943334832934273
1187.0, 0.0037189723674398234
1188.0, 0.003143762951894727
1189.0, 0.0012065772730968042
1190.0, 0.0021696230412237704
1191.0, 0.0011061452373889538
1192.0, 0.00307847122015265
1193.0, 0.0028692292019704448
1194.0, 0.0028896450026293964
1195.0, 0.003284547954695717
1196.0, 0.0007030024968404614
1197.0, 0.00037734693869874143
1198.0, 0.002134568956660047
1199.0, 0.002634791787123494
1200.0, 0.0016512992388891224
1201.0, 0.0005182712354920919
1202.0, 0.0010787807084295105
1203.0, 0.0012016609160523204
1204.0, 0.001006455045545605
1205.0, 0.001156027403279484
1206.0, 0.0019517557699598375
1207.0, 0.0030291146367994615
1208.0, 0.0009373930466072674
1209.0, 0.00037178388422495003
1210.0, 0.001902692907168653
1211.0, 0.002877628748237259
1212.0, 0.0014044250513056032
1213.0, 0.0028074267135970916
1214.0, 0.0008234739065452009
1215.0, 0.0015006841912450495
1216.0, 0.002434818642501702
1217.0, 0.002242029565874121
1218.0, 0.001564995662588348
1219.0, 0.0006844095841675695
1220.0, 0.0011882471316891098
1221.0, 0.0022464157388432664
1222.0, 0.002134122219501943
1223.0, 0.00031618684997858945
1224.0, 9.51081644470497e-05
1225.0, 0.0010306283303505128
1226.0, 0.0037913977762882517
1227.0, 0.003966933455897179
1228.0, 0.002166871630833345
1229.0, 0.0026180685488340735
1230.0, 0.004016436671846115
1231.0, 0.0026629431041875306
1232.0, 0.0037380009230835337
1233.0, 0.006396310759257282
1234.0, 0.007796634045534068
1235.0, 0.004376761255990361
1236.0, 0.008111093763552065
1237.0, 0.007893094161296478
1238.0, 0.005943185928773546
1239.0, 0.004760237936192691
1240.0, 0.005608964103812581
1241.0, 0.004618482400095603
1242.0, 0.005156323465614986
1243.0, 0.005863919142643087
1244.0, 0.004198682792882769
1245.0, 0.0026132228850383995
1246.0, 0.007469505569651286
1247.0, 0.0061128180905479
1248.0, 0.004844645718193134
1249.0, 0.007547233736676763
1250.0, 0.013100553380311502
1251.0, 0.017319617439032566
1252.0, 0.013266975097755358
1253.0, 0.010889346958443532
1254.0, 0.007819449506811111
1255.0, 0.008106947027718213
1256.0, 0.009091809006019549
1257.0, 0.006588119586774925
1258.0, 0.00788235472159278
1259.0, 0.008413895638931275
1260.0, 0.005725392423495622
1261.0, 0.006260423492087518
1262.0, 0.009817612031220724
1263.0, 0.00876500343656141
1264.0, 0.004699131887977154
1265.0, 0.009782818935969422
1266.0, 0.00853041277502439
1267.0, 0.005326552337453226
1268.0, 0.005763233929845733
1269.0, 0.007418693450407203
1270.0, 0.00814071090926981
1271.0, 0.008324959563879525
1272.0, 0.009463650460131699
1273.0, 0.008185093209237888
1274.0, 0.0036533721489333355
1275.0, 0.010317974161014272
1276.0, 0.008115382868338641
1277.0, 0.0056790272297359634
1278.0, 0.006248875402392028
1279.0, 0.008041027847957427
1280.0, 0.00689546035931462
1281.0, 0.0058426777687916156
1282.0, 0.005821733483199385
1283.0, 0.006132435894894724
1284.0, 0.006665485731082891
1285.0, 0.007348496078295924
1286.0, 0.0077229780336532895
1287.0, 0.002856717056547187
1288.0, 0.006720011914856014
1289.0, 0.006638392081610924
1290.0, 0.006573357138984217
1291.0, 0.009513744831531631
1292.0, 0.009270530485535442
1293.0, 0.005130972678358948
1294.0, 0.00531422084218583
1295.0, 0.0062846456140716175
1296.0, 0.006281965248050102
1297.0, 0.005379805453649234
1298.0, 0.006048066350541069
1299.0, 0.005963688331124486
1300.0, 0.003162543151636076
1301.0, 0.0038975019463519216
1302.0, 0.005436040464585351
1303.0, 0.003065863263447562
1304.0, 0.0036326062452680147
1305.0, 0.005286785682149571
1306.0, 0.0030425585153867215
1307.0, 0.002668184118048573
1308.0, 0.003669879494092221
1309.0, 0.0021002497781234457
1310.0, 0.0032851887614949705
1311.0, 0.004238405590375706
1312.0, 0.004532895247535138
1313.0, 0.00442251210913301
1314.0, 0.004528679059718066
1315.0, 0.004986762190956208
1316.0, 0.0010631570925928794
1317.0, 0.004786777561723262
1318.0, 0.0047977633549812606
1319.0, 0.0026061964868650867
1320.0, 0.002225620712436006
1321.0, 0.006322051959460926
1322.0, 0.004480004515644104
1323.0, 0.0029897702114655977
1324.0, 0.005736377662136854
1325.0, 0.006228681197417275
1326.0, 0.0034719486266904928
1327.0, 0.00539442316425978
1328.0, 0.007830221543998235
1329.0, 0.004918185914959464
1330.0, 0.006841630616262184
1331.0, 0.008652935437133165
1332.0, 0.006466843181174674
1333.0, 0.003820478673578818
1334.0, 0.007059246531482416
1335.0, 0.005914334005722378
1336.0, 0.006233558789442271
1337.0, 0.007755580412984979
1338.0, 0.008222205931989867
1339.0, 0.005562744663689605
1340.0, 0.003922931946846677
1341.0, 0.0046074416811904195
1342.0, 0.003976496954610804
1343.0, 0.004337458307934803
1344.0, 0.006736211379970537
1345.0, 0.0075754312213281725
1346.0, 0.0071263782391366125
1347.0, 0.008364493485912096
1348.0, 0.006959332213183692
1349.0, 0.005024568811722512
1350.0, 0.00522609996516993
1351.0, 0.007431413897242133
1352.0, 0.00583030208486244
1353.0, 0.007128636124452148
1354.0, 0.007100996547094802
1355.0, 0.005496530557184517
1356.0, 0.005456225485276387
1357.0, 0.011667450568061566
1358.0, 0.00595051788763477
1359.0, 0.003520182965858467
1360.0, 0.005443248452418532
1361.0, 0.00671671110704234
1362.0, 0.005484605483925741
1363.0, 0.006484959880389732
1364.0, 0.010385638372239594
1365.0, 0.007891982674108068
1366.0, 0.00758314508354485
1367.0, 0.008110425005855496
1368.0, 0.007132425076274284
1369.0, 0.005105291500571981
1370.0, 0.01030196226055828
1371.0, 0.00765368671908612
1372.0, 0.005732027291336669
1373.0, 0.0063297775313774785
1374.0, 0.00704670073746398
1375.0, 0.004171610650860897
1376.0, 0.005738682159327596
1377.0, 0.007311485382305009
1378.0, 0.0060619750549014
1379.0, 0.006462720147329747
1380.0, 0.008823023521102688
1381.0, 0.009004652177837209
1382.0, 0.005924411411410257
1383.0, 0.011918338034409634
1384.0, 0.009873632096570351
1385.0, 0.008807375000619752
1386.0, 0.010676109135107071
1387.0, 0.010630426787197384
1388.0, 0.007968673393300353
1389.0, 0.007926677310861776
1390.0, 0.009861886417105972
1391.0, 0.00965535002098534
1392.0, 0.010379313112512466
1393.0, 0.014446596905568394
1394.0, 0.010616404773005036
1395.0, 0.00929165706522615
1396.0, 0.013385085955150602
1397.0, 0.011951311087153799
1398.0, 0.010068058477099103
1399.0, 0.013218343001054275
1400.0, 0.013043722787889806
1401.0, 0.009154709382218223
1402.0, 0.014368958296683382
1403.0, 0.01332043403835499
1404.0, 0.009814336929156675
1405.0, 0.01007158574237262
1406.0, 0.013762357841622932
1407.0, 0.013948986652160317
1408.0, 0.011389504549825798
1409.0, 0.012309555089354999
1410.0, 0.01274742339048178
1411.0, 0.011776067924014453
1412.0, 0.012595399453417587
1413.0, 0.012292436431992248
1414.0, 0.010214301824215642
1415.0, 0.01077332716487685
1416.0, 0.010323685472399168
1417.0, 0.008561282375512392
1418.0, 0.008060934522280783
1419.0, 0.010739668367735822
1420.0, 0.011120939166649562
1421.0, 0.008335654173513146
1422.0, 0.009811488337986516
1423.0, 0.010788662732283674
1424.0, 0.008013829094865225
1425.0, 0.011058677927434184
1426.0, 0.010002022034995417
1427.0, 0.007230475641571036
1428.0, 0.008479884415800531
1429.0, 0.00816853308241978
1430.0, 0.006049776209506483
1431.0, 0.009609739686769163
1432.0, 0.010627079340619579
1433.0, 0.007967940583625417
1434.0, 0.006303960827508602
1435.0, 0.0072134445728323695
1436.0, 0.008675921443310891
1437.0, 0.009100678619393447
1438.0, 0.015613810194254438
1439.0, 0.008943956533924212
1440.0, 0.005492917163721108
1441.0, 0.007064533848623534
1442.0, 0.00862963329338216
1443.0, 0.005635113415729047
1444.0, 0.00036340435008859777
1445.0, 0.006464072544895175
1446.0, 0.004138485133293042
1447.0, 0.003034418029177752
1448.0, 0.005476345886843879
1449.0, 0.007126498851248712
1450.0, 0.0026478403527910926
1451.0, 0.004498326678987496
1452.0, 0.005797604684579351
1453.0, 0.003466055016273194
1454.0, 0.002986118783010967
1455.0, 0.002855760165649749
1456.0, 0.0006520926754510913
1457.0, 0.0017559557158684284
1458.0, 0.004943003439169305
1459.0, 0.0038666197470745016
1460.0, 0.0028971571196627992
1461.0, 0.004100541920676671
1462.0, 0.004772878675306277
1463.0, 0.0003753819688220954
1464.0, 0.0022005543162881037
1465.0, 0.004004185770938872
1466.0, 0.0030646575695413977
1467.0, 0.0025347581095131375
1468.0, 0.0023815400205760865
1469.0, 0.0014654244055430936
1470.0, 0.001863143657293838
1471.0, 0.0030120154471503257
1472.0, 0.002926230810771299
1473.0, 0.00417899871194336
1474.0, 0.006514541793177813
1475.0, 0.00693085330344015
1476.0, 0.0024161716098816226
1477.0, 0.0006524297647482149
1478.0, 0.004882726327850286
1479.0, 0.003619070137066815
1480.0, 0.004492491223255318
1481.0, 0.006723505747794001
1482.0, 0.0053201902124321325
1483.0, 0.00039830641097050347
1484.0, 0.003752408171923389
1485.0, 0.006194204105988703
1486.0, 0.0037922697346665472
1487.0, 0.004074981500974025
1488.0, 0.006590686776037462
1489.0, 0.003739359451364513
1490.0, 0.00426162739581607
1491.0, 0.0069879310161054305
1492.0, 0.005492026837342865
1493.0, 0.0041325227618294125
1494.0, 0.0035523727612948633
1495.0, 0.002403385296483136
1496.0, 0.00035871510149236086
1497.0, 0.004194914415953262
1498.0, 0.00828077646813408
1499.0, 0.007408616665984834
1500.0, 0.0068330277284106315
1501.0, 0.006475713018879158
1502.0, 0.003964738213130848
1503.0, 0.005186554643755439
1504.0, 0.007938220561350738
1505.0, 0.004375000972692144
1506.0, 0.0017496885908654574
1507.0, 0.003450556530240067
1508.0, 0.006219004174376035
1509.0, 0.004069185080507402
1510.0, 0.00476015842840646
1511.0, 0.004508372276481171
1512.0, 0.002151430003217802
1513.0, 0.0031903588538735425
1514.0, 0.003980077799780169
1515.0, 0.001397740065314485
1516.0, 0.0003065676046390401
1517.0, 0.0018092266209879383
1518.0, 0.0009477025853428013
1519.0, 0.0002452610525647223
1520, 0.0
1521, 0.0
1522, 0.0
1523, 0.0
1524, 0.0
1525, 0.0
1526, 0.0
1527, 0.0
1528, 0.0
1529, 0.0
1530, 0.0
1531, 0.0
1532, 0.0
1533, 0.0
1534, 0.0
1535, 0.0
1536, 0.0
1537, 0.0
1538, 0.0
1539, 0.0
1540, 0.0
1541, 0.0
1542, 0.0
1543, 0.0
1544, 0.0
1545, 0.0
1546, 0.0
1547, 0.0
1548, 0.0
1549, 0.0
1550, 0.0
1551, 0.0
1552, 0.0
1553, 0.0
1554, 0.0
1555, 0.0
1556, 0.0
1557, 0.0
1558, 0.0
1559, 0.0
1560, 0.0
1561, 0.0
1562, 0.0
1563, 0.0
1564, 0.0
1565, 0.0
1566, 0.0
1567, 0.0
1568, 0.0
1569, 0.0
1570, 0.0
1571, 0.0
1572, 0.0
1573, 0.0
1574, 0.0
1575, 0.0
1576, 0.0
1577, 0.0
1578, 0.0
1579, 0.0
1580, 0.0
1581, 0.0
1582, 0.0
1583, 0.0
1584, 0.0
1585, 0.0
1586, 0.0
1587, 0.0
1588, 0.0
1589, 0.0
1590, 0.0
1591, 0.0
1592, 0.0
1593, 0.0
1594, 0.0
1595, 0.0
1596, 0.0
1597, 0.0
1598, 0.0
1599, 0.0
