30, 0.0
31, 0.0
32, 0.0
33, 0.0
34, 0.0
35, 0.0
36, 0.0
37, 0.0
38, 0.0
39, 0.0
40, 0.0
41, 0.0
42, 0.0
43, 0.0
44, 0.0
45, 0.0
46, 0.0
47, 0.0
48, 0.0
49, 0.0
50, 0.0
51, 0.0
52, 0.0
53, 0.0
54, 0.0
55, 0.0
56, 0.0
57, 0.0
58, 0.0
59, 0.0
60, 0.0
61, 0.0
62, 0.0
63, 0.0
64, 0.0
65, 0.0
66, 0.0
67, 0.0
68, 0.0
69, 0.0
70, 0.0
71, 0.0
72, 0.0
73, 0.0
74, 0.0
75, 0.0
76, 0.0
77, 0.0
78, 0.0
79, 0.0
80, 0.0
81, 0.0
82, 0.0
83, 0.0
84, 0.0
85, 0.0
86, 0.0
87, 0.0
88, 0.0
89, 0.0
90, 0.0
91, 0.0
92, 0.0
93, 0.0
94, 0.0
95, 0.0
96, 0.0
97, 0.0
98, 0.0
99, 0.0
100, 0.0
101, 0.0
102, 0.0
103, 0.0
104, 0.0
105, 0.0
106, 0.0
107, 0.0
108, 0.0
109, 0.0
110, 0.0
111, 0.0
112, 0.0
113, 0.0
114, 0.0
115, 0.0
116, 0.0
117, 0.0
118, 0.0
119, 0.0
120, 0.0
121, 0.0
122, 0.0
123, 0.0
124, 0.0
125, 0.0
126, 0.0
127, 0.0
128, 0.0
129, 0.0
130, 0.0
131, 0.0
132, 0.0
133, 0.0
134.0, 0.00012889956606331265
135.0, 0.00014308309360440335
136.0, 1.5985148925843314e-05
137.0, 6.65443904620712e-05
138.0, 0.00013188693093016575
139.0, 0.00048598306668117404
140.0, 0.0006097657054023766
141.0, 0.0014771500368098392
142.0, 0.002727815813519032
143.0, 0.004023487643365192
144.0, 0.005411486287455512
145.0, 0.007723657276459479
146.0, 0.010557674447943923
147.0, 0.014018121535910024
148.0, 0.01927276029303508
149.0, 0.029250159423518045
150.0, 0.04538254873827479
151.0, 0.0674884689168557
152.0, 0.09158739074581941
153.0, 0.10979208646779079
154.0, 0.12132068423649706
155.0, 0.1327781074913025
156.0, 0.14669361077456042
157.0, 0.16205637977433066
158.0, 0.17905371716208845
159.0, 0.20017477796955777
160.0, 0.22796867187486106
161.0, 0.2650715374986756
162.0, 0.31559025479083236
163.0, 0.3879557872478489
164.0, 0.5102353585259393
165.0, 0.6949744680837335
166.0, 0.9090722664142918
167.0, 0.9949278308454453
168.0, 0.8280646627155849
169.0, 0.5239349770981063
170.0, 0.2632663193649134
171.0, 0.12379909359260143
172.0, 0.06007624480260965
173.0, 0.03391573223488102
174.0, 0.022968314799618052
175.0, 0.017013288976479114
176.0, 0.013335278224866298
177.0, 0.010788844613620084
178.0, 0.00858487699032379
179.0, 0.006372550522187715
180.0, 0.004760293224419277
181.0, 0.004026988324607849
182.0, 0.0036543265162650496
183.0, 0.0030897210136115235
184.0, 0.0021884978186183265
185.0, 0.0015053669921372818
186.0, 0.0009877765230690736
187.0, 0.0011214677300179173
188.0, 0.0015447631407190993
189.0, 0.0005807351492365922
190.0, 0.0006033896819849818
191.0, 0.0005189291949069162
192.0, 0.00016267982555480235
193.0, 0.0007482481009291185
194.0, 0.0001739944157249146
195.0, 0.0002508547099085728
196.0, 0.00011210165726212277
197.0, 0.00013063055855256313
198.0, 7.944078136491923e-05
199.0, 0.0008467051346060445
200.0, 0.0012778236965983192
201.0, 0.0014662843023397353
202.0, 0.001722733869385402
203.0, 0.0014576319932066719
204.0, 0.001342869869330945
205.0, 0.001255552760587389
206.0, 0.000991702753045419
207.0, 0.0006069916657185752
208.0, 0.0007272742940661708
209.0, 0.0005914020150443267
210.0, 0.00021237278512302823
211.0, 0.0001903812193726356
212.0, 0.0004642485602484481
213.0, 0.00022364977576145038
214.0, 0.0002817332810848843
215.0, 0.0003095999367604851
216.0, 0.0005967878439094187
217.0, 0.0007539196669491549
218.0, 0.0005346598708628628
219.0, 0.00019353689450165478
220.0, 3.238848197852791e-05
221.0, 7.725433700859174e-05
222.0, 0.0003489817396291982
223.0, 0.00025452568518893014
224.0, 4.102431471767041e-05
225.0, 5.2357814201792623e-05
226.0, 7.058610498376625e-05
227.0, 0.000317443740760395
228.0, 0.0005745974829360438
229.0, 0.0006813986405707432
230.0, 0.0008323863681055809
231.0, 0.0009276681514866487
232.0, 0.0011385932213972727
233.0, 0.0012790542256239062
234.0, 0.0012896008309761816
235.0, 0.00132872946486649
236.0, 0.001890848899612021
237.0, 0.00181927198145248
238.0, 0.0017371511940145335
239.0, 0.0019364698969509808
240.0, 0.001984558852326344
241.0, 0.0025807364846779403
242.0, 0.002738383468344798
243.0, 0.0030036231171864836
244.0, 0.003871771810205856
245.0, 0.003806245139978418
246.0, 0.004254131438022291
247.0, 0.004565368222505337
248.0, 0.004898547266211576
249.0, 0.0059262582348845825
250.0, 0.007076728260713196
251.0, 0.007931081631642871
252.0, 0.009394626112604106
253.0, 0.011079858978963342
254.0, 0.01229512761599233
255.0, 0.014720889826631707
256.0, 0.017846882067011415
257.0, 0.021826009556396693
258.0, 0.02640392477375862
259.0, 0.031137979126980627
260.0, 0.037119328370735206
261.0, 0.04433695762883246
262.0, 0.05149928113158906
263.0, 0.05859572862245288
264.0, 0.06729807793564323
265.0, 0.07597313733309778
266.0, 0.08656457318492822
267.0, 0.09861772222207309
268.0, 0.11220278744664558
269.0, 0.13102909251079137
270.0, 0.15019800733272115
271.0, 0.17077424345884723
272.0, 0.193476371456489
273.0, 0.2147946122128694
274.0, 0.22277957913439764
275.0, 0.22246429743890261
276.0, 0.21435529635731784
277.0, 0.19744743798093448
278.0, 0.17372428607354695
279.0, 0.15248111650830237
280.0, 0.13349237085836246
281.0, 0.11806562884864646
282.0, 0.1065292648106553
283.0, 0.09793625977388075
284.0, 0.09123771300684852
285.0, 0.08628772819977713
286.0, 0.08293583826715721
287.0, 0.0805520526782144
288.0, 0.07801368947230009
289.0, 0.07585866938437437
290.0, 0.0731480154706069
291.0, 0.06907053504446868
292.0, 0.06453905623572205
293.0, 0.061082494142509845
294.0, 0.05601278881717759
295.0, 0.05053956415234189
296.0, 0.04420666860049382
297.0, 0.037820603194122664
298.0, 0.033366025557157494
299.0, 0.02870532333807022
300.0, 0.024831098209443785
301.0, 0.021952361760572147
302.0, 0.019786033216612348
303.0, 0.018002847248093083
304.0, 0.015870395368386758
305.0, 0.014149654774123763
306.0, 0.012475180963297522
307.0, 0.010829183427423731
308.0, 0.010109027167906652
309.0, 0.00940998919384605
310.0, 0.008580303268628853
311.0, 0.007982223362873526
312.0, 0.00767273043959241
313.0, 0.006760074585020376
314.0, 0.006000371806823381
315.0, 0.006099951296140169
316.0, 0.006385713744496257
317.0, 0.006144526889978194
318.0, 0.005814455024576384
319.0, 0.005582745774367419
320.0, 0.005019344962210705
321.0, 0.00455689697008762
322.0, 0.004586940786578291
323.0, 0.004828886797025977
324.0, 0.00428620555829682
325.0, 0.004013541469014214
326.0, 0.0037082849875081513
327.0, 0.0031500617678586074
328.0, 0.0030536950184450198
329.0, 0.0025768730630463654
330.0, 0.0022124584676984356
331.0, 0.0022921749693167533
332.0, 0.002420294520365574
333.0, 0.0018886690745216074
334.0, 0.0014881327575953463
335.0, 0.0013586451126931058
336.0, 0.001028536560705105
337.0, 0.0006858726376257332
338.0, 0.0008119856438695052
339.0, 0.0005053144590101082
340.0, 0.0003205828732781327
341.0, 0.00018860783004045502
342.0, 3.9908146890357935e-05
343.0, 3.0510816630706435e-05
344.0, 0.00027218741659619636
345.0, 0.00010448431140033795
346.0, 0.00024584868946435373
347.0, 0.00015445847721917084
348.0, 0.00010079298278690267
349.0, 0.0001505080132185136
350.0, 8.981634422335519e-05
351.0, 0.00013478236532995965
352.0, 0.0002634181442635306
353.0, 0.00023929600283650187
354.0, 0.0004128151336043137
355.0, 0.00021714308707314423
356.0, 4.7450059810334014e-05
357.0, 6.007271745839223e-05
358.0, 8.699657754133192e-05
359.0, 0.000733918830315169
360.0, 0.00043587871045478366
361.0, 0.0004315136259812024
362.0, 0.0006109309579843896
363.0, 0.0005112074838541338
364.0, 0.00021412887478077267
365.0, 0.0002844597944263851
366.0, 9.123647431071598e-05
367.0, 0.00014795048640427904
368.0, 0.00010372840430667364
369.0, 0.0004457919402740768
370.0, 9.097681281114775e-05
371.0, 0.00020387593036672646
372.0, 0.000253863754082216
373.0, 2.040214857870516e-05
374.0, 1.4479147391165624e-05
375.0, 0.00019581746269844164
376.0, 2.2455619744473494e-05
377.0, 0.00042131317656917387
378.0, 0.0005997136588919616
379.0, 0.0003130460129601118
380.0, 0.0005776243834750363
381.0, 0.0007127652889590939
382.0, 0.0008049147387128138
383.0, 0.0006729715608476891
384.0, 0.0003013635699696472
385.0, 0.00027810018708636
386.0, 0.00014493168803725903
387.0, 0.0004779296968522187
388.0, 0.0005462700157733096
389.0, 0.0003272446715963124
390.0, 0.0005460000899325707
391.0, 0.00039663383744897434
392.0, 0.0006068980001506844
393.0, 0.00036483432961557444
394.0, 0.00030838998259555164
395.0, 0.0009179021374711225
396.0, 0.00029808373443558704
397.0, 0.0005132975911304054
398.0, 0.0005909585414653419
399.0, 0.00045309919801713355
400.0, 0.0006345460935220722
401.0, 0.00098550393366579
402.0, 0.0007593112747859723
403.0, 0.0003821269839981297
404.0, 0.0005088016843005673
405.0, 0.0007222283429826825
406.0, 0.0004921020087757879
407.0, 0.0007039467474663461
408.0, 0.0006089283005902347
409.0, 0.00057892106261948
410.0, 0.0004763048342504041
411.0, 0.00021960416634212015
412.0, 0.0002601976664196114
413.0, 0.0004060762428409125
414.0, 0.0006011972403647756
415.0, 0.0006740283025020293
416.0, 0.0004741546215594457
417.0, 0.00016741506609126212
418.0, 0.0006692589477901739
419.0, 0.0004677151795754524
420.0, 6.386163935758293e-05
421.0, 5.7905893926121394e-05
422.0, 0.0003429668380984262
423.0, 0.000721273461024423
424.0, 0.0001807430642148745
425.0, 0.0002696059243356418
426.0, 0.00018969029177731648
427.0, 0.0005393887275527213
428.0, 0.00014995380061394895
429.0, 0.0005562406305819617
430.0, 0.00019233523631512667
431.0, 0.0002710249573696516
432.0, 0.0006924125563320114
433.0, 0.0004983682582963051
434.0, 1.525525734194597e-05
435.0, 0.0002718209072546818
436.0, 0.0008718758992521413
437.0, 0.0008801127316501149
438.0, 0.0005335674490057858
439.0, 0.0006740427971038402
440.0, 0.0006377875115579014
441.0, 0.00048637546101702506
442.0, 0.0003314028685693195
443.0, 0.0004660647347529624
444.0, 0.0008856034843018718
445.0, 0.000867926976927459
446.0, 0.0010031281582262754
447.0, 0.0009299949544969034
448.0, 0.0006885590226555902
449.0, 0.00043211435980045277
450.0, 0.00026585041018588215
451.0, 0.00021312594214406753
452.0, 0.00034376829424613694
453.0, 0.0006509648644779243
454.0, 0.0006606048820460617
455.0, 0.0002455820458103572
456.0, 0.00013071532600521083
457.0, 0.0003147119911398701
458.0, 0.0005745317847089156
459.0, 0.0006836276945334135
460.0, 0.0006751427593448049
461.0, 0.0005862213595186539
462.0, 0.0007153134017644687
463.0, 0.00036838604276820343
464.0, 0.00013933750925308752
465.0, 0.0003992715405026743
466.0, 0.0006369459986667863
467.0, 0.00029782125138427535
468.0, 7.908655975108623e-05
469.0, 0.0002032344472700901
470.0, 0.0004487053406563993
471.0, 0.0003067112094409006
472.0, 2.5655574802622994e-05
473.0, 0.0007378627612165168
474.0, 0.0009159700598567515
475.0, 0.0005535480356378027
476.0, 0.0005905588507317731
477.0, 0.0005081264932778357
478.0, 2.6960629344642334e-05
479.0, 0.00039381328087753517
480.0, 0.00042538971280675815
481.0, 0.0007467327331144707
482.0, 0.0005792011959781728
483.0, 0.0002961893777140336
484.0, 0.0006610884834359548
485.0, 0.0009292432789765054
486.0, 0.000409253567182667
487.0, 0.00021413297057497026
488.0, 0.0001442524738407502
489.0, 8.372676374458506e-05
490.0, 0.0001596716146683396
491.0, 0.0007098828230274694
492.0, 0.0004404044043604865
493.0, 0.00041066596565093595
494.0, 0.0006927518656711609
495.0, 0.0007986594966964395
496.0, 0.0006062062610988588
497.0, 0.0004776220171586214
498.0, 0.0005111515275419824
499.0, 0.0003578922279065177
500.0, 0.0004402295537153064
501.0, 0.0007845679196638242
502.0, 0.0006962253065979614
503.0, 0.0005666469761433513
504.0, 0.000907456429300545
505.0, 0.0009946629434713745
506.0, 0.000557901862372441
507.0, 0.00030360150610594846
508.0, 0.0008003173813504888
509.0, 0.00047954746812956287
510.0, 0.00018345845692804776
511.0, 0.00036533966002672675
512.0, 0.0006594189195399333
513.0, 0.000666242163959595
514.0, 0.00039624519431678915
515.0, 0.0002410252276480482
516.0, 0.0006407336791335552
517.0, 0.0004335587841749286
518.0, 0.00017968497156795092
519.0, 0.0002754003521568043
520.0, 0.00015230186121053662
521.0, 0.0002557960629966723
522.0, 0.000427037629552077
523.0, 0.0003547089280069136
524.0, 0.00024276871537207435
525.0, 0.00023398684046654146
526.0, 0.0002488085323236023
527.0, 0.0006528499510852216
528.0, 0.00034073600571963187
529.0, 0.0004591913752397774
530.0, 0.0005246870200469713
531.0, 0.00046940255772010513
532.0, 0.0007815086909562759
533.0, 0.00031097182603863994
534.0, 0.00012850533755104083
535.0, 0.000375680947642362
536.0, 0.000505550496190658
537.0, 0.00048256276903276094
538.0, 0.000646152273996868
539.0, 0.0006797543756658683
540.0, 0.00014889480036524365
541.0, 0.00021114741869755098
542.0, 0.00037081719363736424
543.0, 0.0004149674877071812
544.0, 0.0003481000881452348
545.0, 0.00027566368632817186
546.0, 0.0005096135095675092
547.0, 0.00039912240376976374
548.0, 6.160826950925713e-05
549.0, 0.00017991926308435054
550.0, 0.0006595190239593557
551.0, 0.0006320730741290428
552.0, 0.000989230987992471
553.0, 0.0007172836624333495
554.0, 0.0005991999913382134
555.0, 0.00043211474796190237
556.0, 0.00036659566119308156
557.0, 0.0010811435321486272
558.0, 0.0006691477879907815
559.0, 0.0001721486194739326
560.0, 0.00027028088808677157
561.0, 0.00040456348873829174
562.0, 0.00025741863657276556
563.0, 0.00031438025274636015
564.0, 0.000540362650613423
565.0, 0.00039274594146710106
566.0, 0.000526021007226325
567.0, 0.00039899658852465277
568.0, 5.115225312101757e-05
569.0, 0.0001575278581129243
570.0, 0.000750204657423502
571.0, 0.0005099056663752414
572.0, 0.00011057282011618065
573.0, 0.0003261832715065381
574.0, 0.00023438055858526373
575.0, 0.0006641337141493733
576.0, 0.0006389718746554233
577.0, 0.0005994688542621708
578.0, 0.0006435696951678369
579.0, 0.0003546143965891393
580.0, 0.0003349917979752822
581.0, 0.0006976983896054582
582.0, 0.0006692624746426677
583.0, 0.0005781538970768062
584.0, 0.0006061035375724565
585.0, 0.0006517932600098827
586.0, 0.0004055409551710322
587.0, 0.00021000425014833392
588.0, 0.0005001772415684011
589.0, 0.0006595119416153333
590.0, 0.00047773843274567926
591.0, 0.0007103564235841188
592.0, 0.0008314065878648774
593.0, 0.0007217994873186472
594.0, 0.0004954729696469234
595.0, 0.0001518613407336697
596.0, 0.0004977204310911684
597.0, 0.0005156903586207646
598.0, 0.00035428702394943006
599.0, 0.0005451047182288653
600.0, 0.0005857480653010412
601.0, 0.00039220254317956613
602.0, 0.0011268640175138562
603.0, 0.0007622028721766493
604.0, 0.0007944344915033676
605.0, 0.0008725363538969811
606.0, 0.000846905308570091
607.0, 0.0006286898138480648
608.0, 0.0003073899833295461
609.0, 0.0008404524145910258
610.0, 0.0009379761509292255
611.0, 0.00040121993570815795
612.0, 0.00047701735180154795
613.0, 0.0008009588897227134
614.0, 0.0005463675714453174
615.0, 5.814493225823545e-05
616.0, 0.0005136392681966401
617.0, 0.0007270288498552173
618.0, 0.0005670027650134277
619.0, 0.0007113535762383714
620.0, 0.000653698085045904
621.0, 0.00015931056718894784
622.0, 0.000359643003147257
623.0, 0.0004132520822928341
624.0, 0.0007148440267836406
625.0, 0.0008090777631706573
626.0, 0.0006868440813574729
627.0, 0.00030985183608593284
628.0, 9.918982468301631e-05
629.0, 0.000659815293691597
630.0, 0.000688231485014956
631.0, 0.00013798864941965205
632.0, 0.00020814860428807708
633.0, 0.0006229980598493737
634.0, 0.0007423372254303642
635.0, 0.0006105827612868131
636.0, 0.0002823760684410547
637.0, 0.0003261209353303593
638.0, 0.00048266359587885004
639.0, 0.0008022780571458874
640.0, 0.0008268802328061288
641.0, 0.0004679132628894838
642.0, 0.00040692526738455415
643.0, 8.867561587764833e-05
644.0, 0.00014350524924335901
645.0, 0.000632715239770114
646.0, 0.0002357314934307351
647.0, 0.00012549772693867483
648.0, 0.000498763010729101
649.0, 0.0006322310547414737
650.0, 0.00045685550155094063
651.0, 0.00022676976476645544
652.0, 0.0004453466304160647
653.0, 0.0005062841445297921
654.0, 0.00030117125050215524
655.0, 0.00026881935419546956
656.0, 0.0004152766979959338
657.0, 8.304197763702952e-05
658.0, 2.369450013654926e-05
659.0, 0.0004100905486123024
660.0, 0.000544052121632287
661.0, 0.000620761461341
662.0, 0.000614541539476817
663.0, 0.0001384013995071396
664.0, 0.0003568775203845173
665.0, 0.00015283098300769322
666.0, 0.00014159193586695372
667.0, 0.00031103366544322987
668.0, 0.0006203112253395016
669.0, 0.0009741607572578317
670.0, 0.0008484646163477814
671.0, 0.0001631629083147825
672.0, 0.0002484104794890555
673.0, 0.0008032736245960765
674.0, 0.000510541213651921
675.0, 0.0003428921609992042
676.0, 0.0008537650658105192
677.0, 0.0008631280432194431
678.0, 0.0005109098629362235
679.0, 0.0001039132790227359
680.0, 0.0004073260836055567
681.0, 0.0006080417278085274
682.0, 0.00019898989513617626
683.0, 0.00019837156721098245
684.0, 0.0004443157742930843
685.0, 0.0006961494494933058
686.0, 0.0010664695116207913
687.0, 0.0008343215336259402
688.0, 0.000599383662810171
689.0, 0.0006536246679515477
690.0, 0.0006388098702942957
691.0, 0.00039287785214505805
692.0, 0.0003426416649014937
693.0, 0.00013088617341934007
694.0, 1.286767269683646e-05
695.0, 3.9565782319677774e-05
696.0, 0.000309203572841893
697.0, 0.0005238873571373506
698.0, 0.0005617834380499048
699.0, 0.0005754548226738522
700.0, 0.0005461632701539168
701.0, 0.000628638599569004
702.0, 0.0008737761174607658
703.0, 0.0008272246517179985
704.0, 0.000415372400307274
705.0, 0.00020270092484095056
706.0, 0.00051613293287699
707.0, 0.00048770444478343875
708.0, 0.0005182859923952486
709.0, 0.0006740468102043407
710.0, 0.0004978226479254016
711.0, 0.000376370916123303
712.0, 0.0004554237213211444
713.0, 0.0003968987568796324
714.0, 0.00011359850441805694
715.0, 0.00038929001611608566
716.0, 0.0004704673345994977
717.0, 0.0008128815661213342
718.0, 0.0006977194103178762
719.0, 0.0003212598440175766
720.0, 0.00010298676925914767
721.0, 0.0002087047854366386
722.0, 0.0005975536956725792
723.0, 0.00037257143551052487
724.0, 0.000699065703161187
725.0, 0.00011532617076515115
726.0, 0.0002517830029816357
727.0, 0.0005460976025001132
728.0, 0.0005193353371311431
729.0, 0.0006119025074751336
730.0, 0.00048007421597621975
731.0, 0.0010372006580635252
732.0, 0.0004852004123199082
733.0, 0.00016294361050689114
734.0, 0.0007814733531327869
735.0, 0.0011116750358217
736.0, 0.0005383930599083935
737.0, 0.00030206464377756397
738.0, 0.0001621973486063419
739.0, 0.00019286977560514996
740.0, 0.0003818851564751954
741.0, 0.00033119016554781003
742.0, 0.00015705876234501233
743.0, 9.475337715529047e-05
744.0, 0.00018311537615933184
745.0, 0.0007408719596415115
746.0, 0.0003440499950658107
747.0, 0.0004728908690202627
748.0, 0.0005195348282609297
749.0, 0.0002944039584518812
750.0, 0.0005505242041790928
751.0, 0.0005482095107751904
752.0, 2.4017190209578693e-05
753.0, 0.00022927987933889866
754.0, 0.0002856420240161322
755.0, 0.0003075703995570125
756.0, 0.0007521000346794818
757.0, 0.0006879052385761525
758.0, 0.0003884970376322003
759.0, 0.0002954317694271833
760.0, 0.00027701074850452784
761.0, 0.00029041846669597616
762.0, 0.0009337558705118847
763.0, 0.00041651542609372227
764.0, 0.00025736550825460156
765.0, 0.0003298471967802065
766.0, 0.00011176625947675352
767.0, 0.0004638049282181427
768.0, 0.0011596389571484494
769.0, 0.0004061766168318216
770.0, 0.0003599473790021284
771.0, 0.0004092212900871636
772.0, 0.0005465349787288243
773.0, 0.0004646083304256845
774.0, 0.0003840576147886819
775.0, 0.0005861473657162021
776.0, 0.0005310411614057324
777.0, 0.00017240659206604246
778.0, 0.000771299017976955
779.0, 0.0005359852231086407
780.0, 0.00044975769177302765
781.0, 9.665464293629874e-05
782.0, 0.0001606509865799899
783.0, 0.00048725122888198884
784.0, 0.0003164195501880615
785.0, 0.00010412229342737599
786.0, 7.508339256125359e-05
787.0, 0.0003802548487383163
788.0, 0.0007566169152626114
789.0, 0.00072131640600811
790.0, 0.0005720464761857194
791.0, 0.0006999512758656052
792.0, 0.0007803724353103313
793.0, 0.0007608222854911385
794.0, 0.0008634218479163557
795.0, 4.070977787576488e-05
796.0, 0.0007396549187478245
797.0, 0.000696133914716557
798.0, 7.111602049772087e-05
799.0, 6.488201705396208e-05
800.0, 0.0002583879481388819
801.0, 0.0003400992520677719
802.0, 0.0006110386176414919
803.0, 0.00036347630055464975
804.0, 0.00020220841650103288
805.0, 0.00028974458769152786
806.0, 0.0011723261717586442
807.0, 0.0009365759707352
808.0, 0.0004898823987992342
809.0, 0.0005136092016692872
810.0, 0.0005415848850755361
811.0, 0.0004526742759887166
812.0, 0.0003326621225773653
813.0, 0.00022321983078799835
814.0, 0.00035366124697386607
815.0, 0.00021529760708261837
816.0, 0.000277373885696089
817.0, 0.00016101957919499252
818.0, 6.0166588227233124e-05
819.0, 0.00028816369133723174
820.0, 0.0007765787106552211
821.0, 0.00054906689748202
822.0, 0.0004349706414293946
823.0, 0.0006836094216566614
824.0, 0.0008684927314227972
825.0, 0.000710983302893679
826.0, 0.0005282373583825077
827.0, 0.000667282178361296
828.0, 0.0008838564557388513
829.0, 0.0007095665768257748
830.0, 0.0007921785355205927
831.0, 0.0004081713079179025
832.0, 0.0005064308609987427
833.0, 0.0004407856012325781
834.0, 0.00011040693103898762
835.0, 0.00030818147555638337
836.0, 0.0005775722102702603
837.0, 0.0004593919063991528
838.0, 0.0007849725047613074
839.0, 0.0009691013408580872
840.0, 0.0002806275951029338
841.0, 3.768257878619413e-05
842.0, 0.0003206458767783939
843.0, 0.0007039863863797034
844.0, 0.00045065953185987234
845.0, 0.00031535284525313086
846.0, 0.0006587428693183196
847.0, 0.0006182345682717656
848.0, 0.0004682067937131461
849.0, 0.00011188412800647337
850.0, 0.00037794237527410854
851.0, 0.00043021624853659856
852.0, 0.00045648423234435995
853.0, 0.0005213642732398868
854.0, 0.00031890175289927625
855.0, 0.0003153564533202296
856.0, 0.0006804739593136448
857.0, 0.0006217757756684757
858.0, 0.000919304903933388
859.0, 0.0009575285018261573
860.0, 0.0004480073062635925
861.0, 0.0004021380603219844
862.0, 0.00041112407338335014
863.0, 0.00025751603273086826
864.0, 0.00038373680969472324
865.0, 0.0007682850748645789
866.0, 0.0007104178038388344
867.0, 0.00020202975847515616
868.0, 0.0004490320406508476
869.0, 0.0006206082527898083
870.0, 0.000629132549671708
871.0, 0.0004218906887823308
872.0, 0.00010682505816273248
873.0, 0.00023991241575642652
874.0, 0.0005645338823467053
875.0, 0.0004907369848000855
876.0, 0.0003344116067425983
877.0, 0.00021349404381865498
878.0, 0.00013428781505915593
879.0, 0.0005339101308074916
880.0, 0.0005263573556501945
881.0, 0.00017231088287804867
882.0, 0.00024486506125381694
883.0, 0.00048789074248337024
884.0, 0.0001513642586750245
885.0, 0.000196603499660736
886.0, 0.0002579711610130534
887.0, 0.00038029400207444363
888.0, 0.0002651355159477436
889.0, 0.00032714590416589253
890.0, 0.00015455241363177886
891.0, 0.0006307189416973621
892.0, 0.0009462308886268565
893.0, 0.00032957934742283874
894.0, 0.00022671259800534517
895.0, 0.00035063405847799426
896.0, 0.000336083747360391
897.0, 0.0001468285614101507
898.0, 0.00019517523405795774
899.0, 0.0003769059238507314
900.0, 6.682355634054063e-05
901.0, 0.0006738513652019872
902.0, 0.0008954762522603989
903.0, 0.0005803116670889826
904.0, 0.0006363697206609525
905.0, 0.0008643447376423588
906.0, 0.0005853371363605985
907.0, 0.0002908049223505916
908.0, 0.0002737049173853696
909.0, 0.0004624321512280258
910.0, 0.00040542810911839324
911.0, 0.0004206614001250366
912.0, 0.0003112448057803454
913.0, 0.0005124449579473945
914.0, 0.0006213473187208021
915.0, 0.0004913077126644191
916.0, 0.0005817031184048521
917.0, 7.60541837700504e-05
918.0, 0.0005406686371337152
919.0, 0.0007879477003736018
920.0, 0.00032870964745590085
921.0, 0.00022668800556735312
922.0, 0.00026498333139434544
923.0, 0.00016501140168678514
924.0, 7.129364452910661e-05
925.0, 0.0003283647506863825
926.0, 0.0005955709099594151
927.0, 0.00040717775003526577
928.0, 0.0004252811290789955
929.0, 0.00016188360461914515
930.0, 0.00034533886211987673
931.0, 0.00022096896015915286
932.0, 0.00028076993953067244
933.0, 0.000618055334905256
934.0, 0.0005626833218255148
935.0, 0.00025784147330016965
936.0, 0.0003496898060672368
937.0, 0.0005962797577700249
938.0, 0.00046575971307110926
939.0, 0.00017058205030232455
940.0, 0.0007022417595849685
941.0, 0.0009559554904456737
942.0, 0.0008770567744619902
943.0, 9.095339626305658e-05
944.0, 0.0001691829328638232
945.0, 0.0007764060129423091
946.0, 0.0009509272189807643
947.0, 0.0006307784766998297
948.0, 0.0004258966373401213
949.0, 0.0007416846950964831
950.0, 0.00041730083234101903
951.0, 0.0008641995969390769
952.0, 0.00041277648570195896
953.0, 0.0002861956540637918
954.0, 0.0007269968230852154
955.0, 0.000541083384481679
956.0, 0.00018564203854529865
957.0, 0.00021112742229599247
958.0, 0.00033557950551603975
959.0, 0.00038499960293647854
960.0, 0.0005421534955393101
961.0, 0.0006450388575581614
962.0, 0.0003065644693090989
963.0, 0.0005078093244918174
964.0, 0.0004770801110061709
965.0, 0.000537394079712313
966.0, 0.0007401237260130469
967.0, 0.000944722303227953
968.0, 0.00046610571677392556
969.0, 0.0003542805777502346
970.0, 0.0005565775397228966
971.0, 0.0005266555055548533
972.0, 0.0005692491001801974
973.0, 0.00031450973696899064
974.0, 0.0007948686444095042
975.0, 0.0004311446855307747
976.0, 0.00035035031194694015
977.0, 0.00027629565406841404
978.0, 0.0003167791002330501
979.0, 0.0004248642774153736
980.0, 0.0006241381100651282
981.0, 0.0006123811661927191
982.0, 0.0005349251690671216
983.0, 0.0008040054447111347
984.0, 0.000717574928331146
985.0, 0.0002876465915328508
986.0, 4.676736425472623e-05
987.0, 9.195393254579764e-05
988.0, 0.00034175578828766253
989.0, 0.0009498661277565099
990.0, 0.0006138753686418405
991.0, 0.00094005071549789
992.0, 0.0003641393182878792
993.0, 0.00017421553037559536
994.0, 6.489837435634558e-05
995.0, 0.0004460482710392148
996.0, 0.00057532193785369
997.0, 0.0001555040132886673
998.0, 0.00020877510158799238
999.0, 0.0005284696887272534
1000.0, 0.0002823067163590158
1001.0, 0.0002502921094295294
1002.0, 0.00041188733446501156
1003.0, 0.0002606846574865944
1004.0, 0.00040412066495227374
1005.0, 0.00038912035994716915
1006.0, 0.00046024110209217734
1007.0, 0.0008144206995785838
1008.0, 0.0006100801811957547
1009.0, 4.056629090442662e-05
1010.0, 0.00018412199087750278
1011.0, 0.0005672678751838143
1012.0, 0.00023915530723379375
1013.0, 0.00010989509590815158
1014.0, 0.0005076399061133524
1015.0, 0.0006104877263427457
1016.0, 0.00036270934475912995
1017.0, 0.0005186663877793732
1018.0, 0.0002795350176416243
1019.0, 0.00031889919106690203
1020.0, 0.0003899474838637499
1021.0, 0.00026918577744521055
1022.0, 0.0004429441677911185
1023.0, 0.0005188325795800473
1024.0, 0.0003980448655897214
1025.0, 9.880427015341834e-05
1026.0, 0.00023961173305637348
1027.0, 0.0001461650433990925
1028.0, 0.00023792324846435387
1029.0, 0.0005202151308467673
1030.0, 0.0004142930346225176
1031.0, 0.0005505148235093921
1032.0, 0.0007388667430648207
1033.0, 0.0007348415900811875
1034.0, 0.000548161336623769
1035.0, 0.0005628728109474747
1036.0, 0.0008580469756791109
1037.0, 0.0008796704098802326
1038.0, 0.0009003800471148276
1039.0, 0.00027137431330441676
1040.0, 0.0005748020704833146
1041.0, 0.0007403501314013592
1042.0, 0.0006699314491975199
1043.0, 0.00012384337639866975
1044.0, 4.3196046905595494e-05
1045.0, 0.00021748879775267385
1046.0, 0.00011874097777498205
1047.0, 6.722574570733526e-05
1048.0, 0.0003540609890012116
1049.0, 0.0006446009527743087
1050.0, 0.0006207939847618999
1051.0, 0.0004087418088380362
1052.0, 0.00011634633869063855
1053.0, 5.269847551090087e-05
1054.0, 0.00021160519739091925
1055.0, 1.3314119944873632e-06
1056.0, 0.0001810724879550538
1057.0, 0.0003926265167863685
1058.0, 0.0005513969596207103
1059.0, 0.0005382579730497123
1060.0, 0.0004286279821131551
1061.0, 0.000932350385276969
1062.0, 0.0007875640359064661
1063.0, 0.00026300974370867107
1064.0, 0.0005780860625867122
1065.0, 0.0008710370418313707
1066.0, 0.000439010479913305
1067.0, 0.0004320514086240279
1068.0, 0.000494449905247763
1069.0, 0.0004510259472932765
1070.0, 0.000347628538314836
1071.0, 0.000443965001238935
1072.0, 0.0005529095183226101
1073.0, 0.0002859520844128189
1074.0, 0.0005414035113133534
1075.0, 0.0007133904311319889
1076.0, 0.00027644638280414154
1077.0, 7.710041226591608e-05
1078.0, 0.0004906984348534932
1079.0, 0.0009105183780467682
1080.0, 0.0008400253461803566
1081.0, 0.00042550177991792305
1082.0, 0.0001651497598815055
1083.0, 0.00036459395023430847
1084.0, 0.00034124100288482275
1085.0, 0.00048675138196625697
1086.0, 0.00029116117066986356
1087.0, 0.0005213377223560758
1088.0, 0.0007396749077093469
1089.0, 0.0002520714089065654
1090.0, 0.0004408923240486557
1091.0, 0.000514818722310635
1092.0, 0.0006775679347861773
1093.0, 0.0007338063991235062
1094.0, 0.0006573822295871483
1095.0, 0.0002984339471945813
1096.0, 0.00018223953206930816
1097.0, 0.00041603605270481105
1098.0, 0.0002054569901661695
1099.0, 0.0003430333469940541
1100.0, 0.000569049202477973
1101.0, 0.0007515778002227333
1102.0, 0.0008219099632683292
1103.0, 0.0008683169452411418
1104.0, 0.00016547439079919244
1105.0, 0.0006794840101364778
1106.0, 0.00078420481270091
1107.0, 0.00030593722304094205
1108.0, 0.00030209564592943163
1109.0, 0.0003790114956140895
1110.0, 9.505846131239415e-05
1111.0, 0.0001567726190091492
1112.0, 0.00014368284840615315
1113.0, 0.00020163021753174688
1114.0, 0.0006193553778814923
1115.0, 0.0006707488973491894
1116.0, 0.0004950329854479247
1117.0, 0.0003528277238739059
1118.0, 0.0003165091659354013
1119.0, 0.0005606985498919526
1120.0, 0.0005544360345141148
1121.0, 0.000301985872043775
1122.0, 0.000292174844020429
1123.0, 0.00044508582732832945
1124.0, 0.0005880002889371762
1125.0, 0.0005282997915142472
1126.0, 0.0002419356328905396
1127.0, 0.00014637171371428845
1128.0, 0.00035910762198519333
1129.0, 8.104028684418531e-05
1130.0, 0.0003127173223997427
1131.0, 0.0006601481876988453
1132.0, 0.000569649373894527
1133.0, 0.0002859016107967815
1134.0, 0.00015056144627999948
1135.0, 0.0006981998645537019
1136.0, 0.0006499684470769778
1137.0, 0.000200572548058141
1138.0, 0.00044145800828583435
1139.0, 0.0007228512384943382
1140.0, 0.000478325738058203
1141.0, 8.327095253597908e-05
1142.0, 0.00032013539541396767
1143.0, 0.00029982244818665374
1144.0, 0.0001472949321508968
1145.0, 0.0005447856240244438
1146.0, 0.001037930031733545
1147.0, 0.0008763285963169334
1148.0, 0.0008115863479837449
1149.0, 0.0002898432743667675
1150.0, 7.30978748229429e-05
1151.0, 0.00048292227979518506
1152.0, 0.00044722407049922454
1153.0, 0.0005868461324628082
1154.0, 0.0010459330399397134
1155.0, 0.0006307223552944561
1156.0, 0.00015993324622402578
1157.0, 0.00033866843950211545
1158.0, 0.000665843178177148
1159.0, 0.00034807412979382226
1160.0, 0.0005290519131817891
1161.0, 0.00056330670845183
1162.0, 0.0005358447198236059
1163.0, 0.000357156098546298
1164.0, 0.0003956080746701142
1165.0, 0.0006779576443601775
1166.0, 0.00011443112172587598
1167.0, 0.0007173563412905104
1168.0, 0.0008084748470163324
1169.0, 0.0005545504129123338
1170.0, 0.0005189552944769804
1171.0, 0.00011148898347632359
1172.0, 9.395948078938815e-05
1173.0, 0.00034707706431600033
1174.0, 0.00047773792532452593
1175.0, 0.0007114915426743395
1176.0, 0.0006336264739911583
1177.0, 0.0002218109929349637
1178.0, 0.00046215101936997687
1179.0, 0.000577296456656707
1180.0, 0.0005942205420201694
1181.0, 0.00034226184287397294
1182.0, 0.00019522517552868088
1183.0, 0.00040562522346125477
1184.0, 0.0006993343061479688
1185.0, 0.0006108612847402137
1186.0, 0.00045554782328882085
1187.0, 0.0006522963595319354
1188.0, 0.0008048860210996092
1189.0, 0.00038270038323481295
1190.0, 0.0002905371716592413
1191.0, 0.00042629724126962924
1192.0, 9.914348135837815e-05
1193.0, 0.0001369187235570198
1194.0, 0.0004510981957101998
1195.0, 0.0004204726303149532
1196.0, 0.0004071940533608389
1197.0, 0.0004752208958831629
1198.0, 0.0003390797868061317
1199.0, 0.00044937055160266864
1200.0, 0.00086849199477209
1201.0, 0.0008002279245588347
1202.0, 0.0005891922781748439
1203.0, 0.00045349519168585897
1204.0, 0.00024469910001959967
1205.0, 0.0006489078028522161
1206.0, 0.00046364722056687046
1207.0, 0.0006774524042191575
1208.0, 0.0008022598261909752
1209.0, 0.0005996975793287503
1210.0, 0.0009528311906383232
1211.0, 0.0006521776103256974
1212.0, 0.0002254561837669397
1213.0, 0.000694531409606669
1214.0, 0.0005322411617562785
1215.0, 0.00046201697307874723
1216.0, 0.0007081864176883161
1217.0, 0.000619498050572012
1218.0, 0.0010185173060570085
1219.0, 0.0009837210018588968
1220.0, 0.0006443423280460175
1221.0, 0.000468969186362006
1222.0, 0.0006319794178469006
1223.0, 0.00045744913372483824
1224.0, 4.409580436083563e-05
1225.0, 0.0002703726580188881
1226.0, 0.0006177433933838471
1227.0, 0.00047719324272888625
1228.0, 0.0002299384752566261
1229.0, 0.00030677745762468445
1230.0, 0.000654877342518276
1231.0, 0.000890672953637019
1232.0, 0.0006977598669000402
1233.0, 0.0002919743687208465
1234.0, 2.6257571057267994e-05
1235.0, 0.00011699110327662382
1236.0, 0.0002965921513315965
1237.0, 0.0001498585597344408
1238.0, 0.0003494271938560499
1239.0, 0.00012838444499812106
1240.0, 0.0001915048166840275
1241.0, 7.62782276594557e-06
1242.0, 0.00024006644759641803
1243, 0.0
1244, 0.0
1245, 0.0
1246, 0.0
1247, 0.0
1248, 0.0
1249, 0.0
1250, 0.0
1251, 0.0
1252, 0.0
1253, 0.0
1254, 0.0
1255, 0.0
1256, 0.0
1257, 0.0
1258, 0.0
1259, 0.0
1260, 0.0
1261, 0.0
1262, 0.0
1263, 0.0
1264, 0.0
1265, 0.0
1266, 0.0
1267, 0.0
1268, 0.0
1269, 0.0
1270, 0.0
1271, 0.0
1272, 0.0
1273, 0.0
1274, 0.0
1275, 0.0
1276, 0.0
1277, 0.0
1278, 0.0
1279, 0.0
1280, 0.0
1281, 0.0
1282, 0.0
1283, 0.0
1284, 0.0
1285, 0.0
1286, 0.0
1287, 0.0
1288, 0.0
1289, 0.0
1290, 0.0
1291, 0.0
1292, 0.0
1293, 0.0
1294, 0.0
1295, 0.0
1296, 0.0
1297, 0.0
1298, 0.0
1299, 0.0
1300, 0.0
1301, 0.0
1302, 0.0
1303, 0.0
1304, 0.0
1305, 0.0
1306, 0.0
1307, 0.0
1308, 0.0
1309, 0.0
1310, 0.0
1311, 0.0
1312, 0.0
1313, 0.0
1314, 0.0
1315, 0.0
1316, 0.0
1317, 0.0
1318, 0.0
1319, 0.0
1320, 0.0
1321, 0.0
1322, 0.0
1323, 0.0
1324, 0.0
1325, 0.0
1326, 0.0
1327, 0.0
1328, 0.0
1329, 0.0
1330, 0.0
1331, 0.0
1332, 0.0
1333, 0.0
1334, 0.0
1335, 0.0
1336, 0.0
1337, 0.0
1338, 0.0
1339, 0.0
1340, 0.0
1341, 0.0
1342, 0.0
1343, 0.0
1344, 0.0
1345, 0.0
1346, 0.0
1347, 0.0
1348, 0.0
1349, 0.0
1350, 0.0
1351, 0.0
1352, 0.0
1353, 0.0
1354, 0.0
1355, 0.0
1356, 0.0
1357, 0.0
1358, 0.0
1359, 0.0
1360, 0.0
1361, 0.0
1362, 0.0
1363, 0.0
1364, 0.0
1365, 0.0
1366, 0.0
1367, 0.0
1368, 0.0
1369, 0.0
1370, 0.0
1371, 0.0
1372, 0.0
1373, 0.0
1374, 0.0
1375, 0.0
1376, 0.0
1377, 0.0
1378, 0.0
1379, 0.0
1380, 0.0
1381, 0.0
1382, 0.0
1383, 0.0
1384, 0.0
1385, 0.0
1386, 0.0
1387, 0.0
1388, 0.0
1389, 0.0
1390, 0.0
1391, 0.0
1392, 0.0
1393, 0.0
1394, 0.0
1395, 0.0
1396, 0.0
1397, 0.0
1398, 0.0
1399, 0.0
1400, 0.0
1401, 0.0
1402, 0.0
1403, 0.0
1404, 0.0
1405, 0.0
1406, 0.0
1407, 0.0
1408, 0.0
1409, 0.0
1410, 0.0
1411, 0.0
1412, 0.0
1413, 0.0
1414, 0.0
1415, 0.0
1416, 0.0
1417, 0.0
1418, 0.0
1419, 0.0
1420, 0.0
1421, 0.0
1422, 0.0
1423, 0.0
1424, 0.0
1425, 0.0
1426, 0.0
1427, 0.0
1428, 0.0
1429, 0.0
1430, 0.0
1431, 0.0
1432, 0.0
1433, 0.0
1434, 0.0
1435, 0.0
1436, 0.0
1437, 0.0
1438, 0.0
1439, 0.0
1440, 0.0
1441, 0.0
1442, 0.0
1443, 0.0
1444, 0.0
1445, 0.0
1446, 0.0
1447, 0.0
1448, 0.0
1449, 0.0
1450, 0.0
1451, 0.0
1452, 0.0
1453, 0.0
1454, 0.0
1455, 0.0
1456, 0.0
1457, 0.0
1458, 0.0
1459, 0.0
1460, 0.0
1461, 0.0
1462, 0.0
1463, 0.0
1464, 0.0
1465, 0.0
1466, 0.0
1467, 0.0
1468, 0.0
1469, 0.0
1470, 0.0
1471, 0.0
1472, 0.0
1473, 0.0
1474, 0.0
1475, 0.0
1476, 0.0
1477, 0.0
1478, 0.0
1479, 0.0
1480, 0.0
1481, 0.0
1482, 0.0
1483, 0.0
1484, 0.0
1485, 0.0
1486, 0.0
1487, 0.0
1488, 0.0
1489, 0.0
1490, 0.0
1491, 0.0
1492, 0.0
1493, 0.0
1494, 0.0
1495, 0.0
1496, 0.0
1497, 0.0
1498, 0.0
1499, 0.0
1500, 0.0
1501, 0.0
1502, 0.0
1503, 0.0
1504, 0.0
1505, 0.0
1506, 0.0
1507, 0.0
1508, 0.0
1509, 0.0
1510, 0.0
1511, 0.0
1512, 0.0
1513, 0.0
1514, 0.0
1515, 0.0
1516, 0.0
1517, 0.0
1518, 0.0
1519, 0.0
1520, 0.0
1521, 0.0
1522, 0.0
1523, 0.0
1524, 0.0
1525, 0.0
1526, 0.0
1527, 0.0
1528, 0.0
1529, 0.0
1530, 0.0
1531, 0.0
1532, 0.0
1533, 0.0
1534, 0.0
1535, 0.0
1536, 0.0
1537, 0.0
1538, 0.0
1539, 0.0
1540, 0.0
1541, 0.0
1542, 0.0
1543, 0.0
1544, 0.0
1545, 0.0
1546, 0.0
1547, 0.0
1548, 0.0
1549, 0.0
1550, 0.0
1551, 0.0
1552, 0.0
1553, 0.0
1554, 0.0
1555, 0.0
1556, 0.0
1557, 0.0
1558, 0.0
1559, 0.0
1560, 0.0
1561, 0.0
1562, 0.0
1563, 0.0
1564, 0.0
1565, 0.0
1566, 0.0
1567, 0.0
1568, 0.0
1569, 0.0
1570, 0.0
1571, 0.0
1572, 0.0
1573, 0.0
1574, 0.0
1575, 0.0
1576, 0.0
1577, 0.0
1578, 0.0
1579, 0.0
1580, 0.0
1581, 0.0
1582, 0.0
1583, 0.0
1584, 0.0
1585, 0.0
1586, 0.0
1587, 0.0
1588, 0.0
1589, 0.0
1590, 0.0
1591, 0.0
1592, 0.0
1593, 0.0
1594, 0.0
1595, 0.0
1596, 0.0
1597, 0.0
1598, 0.0
1599, 0.0
