30, 0.0
31, 0.0
32, 0.0
33, 0.0
34, 0.0
35, 0.0
36, 0.0
37, 0.0
38, 0.0
39, 0.0
40, 0.0
41, 0.0
42, 0.0
43, 0.0
44, 0.0
45, 0.0
46, 0.0
47, 0.0
48, 0.0
49, 0.0
50, 0.0
51, 0.0
52, 0.0
53, 0.0
54, 0.0
55, 0.0
56, 0.0
57, 0.0
58, 0.0
59, 0.0
60, 0.0
61, 0.0
62, 0.0
63, 0.0
64, 0.0
65, 0.0
66, 0.0
67, 0.0
68, 0.0
69, 0.0
70, 0.0
71, 0.0
72, 0.0
73, 0.0
74, 0.0
75, 0.0
76, 0.0
77, 0.0
78, 0.0
79, 0.0
80, 0.0
81, 0.0
82, 0.0
83, 0.0
84, 0.0
85, 0.0
86, 0.0
87, 0.0
88, 0.0
89, 0.0
90, 0.0
91, 0.0
92, 0.0
93, 0.0
94, 0.0
95, 0.0
96, 0.0
97, 0.0
98, 0.0
99, 0.0
100, 0.0
101, 0.0
102, 0.0
103, 0.0
104, 0.0
105, 0.0
106, 0.0
107, 0.0
108, 0.0
109, 0.0
110, 0.0
111, 0.0
112, 0.0
113, 0.0
114, 0.0
115.0, 5.583296284536678e-05
116.0, 0.0002596029002372157
117.0, 0.0040713318400198975
118.0, 0.005929750393985396
119.0, 0.005456181020033798
120.0, 0.008444906567088043
121.0, 0.01723034381457046
122.0, 0.029230143024880507
123.0, 0.04266559355777108
124.0, 0.05627994926471472
125.0, 0.07164075224780062
126.0, 0.08920494229187281
127.0, 0.11088101147162004
128.0, 0.13774157831843775
129.0, 0.167761080500856
130.0, 0.20009092703381715
131.0, 0.19983231931009396
132.0, 0.20268441961185343
133.0, 0.2078577636182775
134.0, 0.19579082897792435
135.0, 0.17460768899319717
136.0, 0.15176431561550988
137.0, 0.1316510419741539
138.0, 0.10552503695185775
139.0, 0.08205043571156964
140.0, 0.061866050764237096
141.0, 0.04668150986108883
142.0, 0.038298548102698116
143.0, 0.03205376674058769
144.0, 0.026171739403870013
145.0, 0.020870224935567467
146.0, 0.01740576448525763
147.0, 0.015139076126571104
148.0, 0.01288898753790616
149.0, 0.014131384587678215
150.0, 0.0152183161038744
151.0, 0.015192638515592825
152.0, 0.016867035008756855
153.0, 0.014801245807987081
154.0, 0.013481187814322445
155.0, 0.019884853711732424
156.0, 0.015533585211644236
157.0, 0.013649527192646466
158.0, 0.0160382685554673
159.0, 0.017862107121021875
160.0, 0.01945943391258396
161.0, 0.02144993556415034
162.0, 0.024502541164955486
163.0, 0.02739838506629632
164.0, 0.02886947543640228
165.0, 0.02953098550392879
166.0, 0.032477896404234825
167.0, 0.033537876906636586
168.0, 0.033988313016501806
169.0, 0.03439969305995794
170.0, 0.03630268050578162
171.0, 0.03484868087032648
172.0, 0.032372351268408546
173.0, 0.03440538158255388
174.0, 0.03470427576708084
175.0, 0.03665555980262362
176.0, 0.041149783699676784
177.0, 0.04544402094960025
178.0, 0.047025266172035805
179.0, 0.048312548688636305
180.0, 0.05227125305652756
181.0, 0.05671024535648396
182.0, 0.062142878490455154
183.0, 0.06805950101197063
184.0, 0.07115427425071215
185.0, 0.07608647589605848
186.0, 0.08096758744150874
187.0, 0.08461136001218411
188.0, 0.08938064805401211
189.0, 0.09133886451303068
190.0, 0.09156385733872469
191.0, 0.09271818212207601
192.0, 0.09139562292638348
193.0, 0.09059588549262185
194.0, 0.09096399139523224
195.0, 0.0882019682198072
196.0, 0.08137794720960939
197.0, 0.07372299995426673
198.0, 0.06885223946920764
199.0, 0.059322933255370004
200.0, 0.05249730444504378
201.0, 0.04757695388473428
202.0, 0.0369709562799433
203.0, 0.029132144574040546
204.0, 0.02284761850586956
205.0, 0.01768706529914949
206.0, 0.013428726361972874
207.0, 0.009346675517087047
208.0, 0.0057456506807475995
209.0, 0.0033322267407754035
210.0, 0.001362378634326297
211.0, 0.001088678690537318
212.0, 0.002474012883855512
213.0, 0.002818596631225633
214.0, 0.0029238104492450502
215.0, 0.002422329706151828
216.0, 0.0009202941102751069
217.0, 0.001686662152614129
218.0, 0.0015164726449672396
219.0, 0.0010465399854118927
220.0, 0.0023299838229389027
221.0, 0.0013126567924580455
222.0, 0.0011114243577470468
223.0, 0.002382360737780721
224.0, 0.0015703854475249365
225.0, 0.0011113044102904353
226.0, 0.0012499078370965628
227.0, 0.0023568663479094517
228.0, 0.0021443023643119416
229.0, 0.0015021365823764275
230.0, 0.0009211813424999097
231.0, 0.0018281932769122758
232.0, 0.0012737393123150708
233.0, 0.0008263522786292624
234.0, 0.0009743555469855928
235.0, 0.0006876268737712161
236.0, 0.00034726860527705707
237.0, 9.15889784833526e-05
238.0, 9.346914193672707e-05
239.0, 0.002056438632823855
240.0, 0.0028435053796233636
241.0, 0.0028562571333676416
242.0, 0.004367605297710804
243.0, 0.0023941925171848174
244.0, 0.0017074444419364599
245.0, 0.003729730887116242
246.0, 0.0021332511207342803
247.0, 0.0012513982689601295
248.0, 0.001794200297027645
249.0, 0.00482167606972008
250.0, 0.0061579461910916886
251.0, 0.005168956294580339
252.0, 0.0027675122781357754
253.0, 0.0018546387646163833
254.0, 0.0024210385420803944
255.0, 0.00212300191717659
256.0, 0.00048603102945120346
257.0, 0.0017215185798353117
258.0, 0.0021006331254064614
259.0, 0.002387174450180573
260.0, 0.003271111977300411
261.0, 0.003307859299284858
262.0, 0.0031230918552490345
263.0, 0.0037626145722178136
264.0, 0.008009278552096913
265.0, 0.012761445241779343
266.0, 0.015621141682747136
267.0, 0.016533600863273462
268.0, 0.02046435781200593
269.0, 0.026829944925951078
270.0, 0.03237374003000694
271.0, 0.03478228441973889
272.0, 0.03689015618387574
273.0, 0.04012251935699742
274.0, 0.043904276445558096
275.0, 0.04722789752250452
276.0, 0.04332281143418971
277.0, 0.041840673634602296
278.0, 0.04372907753342642
279.0, 0.04614047261830862
280.0, 0.05096168973424785
281.0, 0.05462428359048212
282.0, 0.05563340417822082
283.0, 0.05872978506496312
284.0, 0.06285538894530998
285.0, 0.06933826258612555
286.0, 0.08007752667412259
287.0, 0.09139191234012634
288.0, 0.11003699447738687
289.0, 0.1343324178512573
290.0, 0.15913094174480047
291.0, 0.20051798483937555
292.0, 0.2533373031875103
293.0, 0.31563270778373576
294.0, 0.3801165011612234
295.0, 0.46537565234809564
296.0, 0.5528613042576325
297.0, 0.6314867328484418
298.0, 0.6810486651478317
299.0, 0.7066943009192788
300.0, 0.7071984314944441
301.0, 0.6770435244777532
302.0, 0.6181072183253284
303.0, 0.5524055705755243
304.0, 0.48616814899757216
305.0, 0.43212882630997695
306.0, 0.3821221906878399
307.0, 0.3389798549380323
308.0, 0.3042140188574088
309.0, 0.2816419898008567
310.0, 0.267788048151443
311.0, 0.2565785826584356
312.0, 0.24439946413606903
313.0, 0.2319047316348186
314.0, 0.220589518395236
315.0, 0.21207920377761555
316.0, 0.20907018022537985
317.0, 0.19789984785577627
318.0, 0.1919767860533238
319.0, 0.18779869123019732
320.0, 0.17131257181488163
321.0, 0.15736998148377815
322.0, 0.14566832872703425
323.0, 0.1346883106838223
324.0, 0.11420188585946871
325.0, 0.1040781952291924
326.0, 0.09508775951342667
327.0, 0.08270141573701421
328.0, 0.07476178337407467
329.0, 0.0657874116169849
330.0, 0.057317290262856466
331.0, 0.051072808717875076
332.0, 0.049166897534695574
333.0, 0.04466239798122763
334.0, 0.039604629189123844
335.0, 0.03900377875061691
336.0, 0.039477389333729254
337.0, 0.036444233959406
338.0, 0.03108709289158768
339.0, 0.0314030457000457
340.0, 0.02876261027095445
341.0, 0.02661753229942794
342.0, 0.02563235179048825
343.0, 0.020718011368086393
344.0, 0.019158705024901107
345.0, 0.01884591424820653
346.0, 0.01860559493937525
347.0, 0.02289410466473924
348.0, 0.02171103843756279
349.0, 0.01909356805960772
350.0, 0.01968935178665185
351.0, 0.019991048886244648
352.0, 0.017555885622753807
353.0, 0.014248277409489854
354.0, 0.014229198260055243
355.0, 0.014225094396557503
356.0, 0.014545597950160555
357.0, 0.015158218360290146
358.0, 0.01577216692540294
359.0, 0.015777673818204486
360.0, 0.01591407080733117
361.0, 0.016315428589819183
362.0, 0.01629882978890216
363.0, 0.01605871850291558
364.0, 0.016421656573515717
365.0, 0.017722791918050932
366.0, 0.017301012528087606
367.0, 0.018669210998722867
368.0, 0.021730701292699852
369.0, 0.0265404224715254
370.0, 0.02493435453973686
371.0, 0.0256884114561223
372.0, 0.026497679078953184
373.0, 0.02381185064749829
374.0, 0.024991237462382566
375.0, 0.0253936290329734
376.0, 0.02453322694106028
377.0, 0.022031149627929375
378.0, 0.0215546153713093
379.0, 0.02302832031707422
380.0, 0.025182029526507232
381.0, 0.023299483938674558
382.0, 0.026231884691929726
383.0, 0.028697902584459856
384.0, 0.02924428010569159
385.0, 0.028251269643795134
386.0, 0.025862016668315325
387.0, 0.023144380839358755
388.0, 0.020735785325111326
389.0, 0.020768525327898583
390.0, 0.02510016363541354
391.0, 0.027128502820453402
392.0, 0.0225734754760179
393.0, 0.02283098954740616
394.0, 0.02540699570111227
395.0, 0.027082662770557972
396.0, 0.024588936715641573
397.0, 0.029630041580655124
398.0, 0.03036423414972376
399.0, 0.029427036329768036
400.0, 0.030928010748427544
401.0, 0.03189829546009947
402.0, 0.02887826354583251
403.0, 0.025988226365188286
404.0, 0.03231804934862491
405.0, 0.03137155884257336
406.0, 0.03104001874856588
407.0, 0.03239161230325491
408.0, 0.03556929599816185
409.0, 0.03944284315078936
410.0, 0.04102804351678075
411.0, 0.04142151505312552
412.0, 0.04761982312446883
413.0, 0.054258152167880346
414.0, 0.06473759827978988
415.0, 0.07980718053312043
416.0, 0.09764569046231254
417.0, 0.12319771687161364
418.0, 0.1595217517683037
419.0, 0.2093347803026862
420.0, 0.2823789206266129
421.0, 0.38148344527356537
422.0, 0.5011668067900188
423.0, 0.6358682200959604
424.0, 0.7345526998504749
425.0, 0.7935004220731788
426.0, 0.7989838570732432
427.0, 0.7400473002234234
428.0, 0.6381782182583176
429.0, 0.5150317859127821
430.0, 0.39292255268789567
431.0, 0.2908717626673724
432.0, 0.22279339049648905
433.0, 0.1677123782393705
434.0, 0.1263118168198908
435.0, 0.09986825867560753
436.0, 0.08071824828606551
437.0, 0.06569093025436405
438.0, 0.05513235472754607
439.0, 0.049812249380365825
440.0, 0.043296638501402224
441.0, 0.03864851279535506
442.0, 0.0351062659651203
443.0, 0.03133659255492608
444.0, 0.030770318802155323
445.0, 0.025596851176002626
446.0, 0.01851302260633352
447.0, 0.01536423255440389
448.0, 0.015353660617592857
449.0, 0.015806553080301024
450.0, 0.015794800362973937
451.0, 0.013886477375114916
452.0, 0.013658818805954648
453.0, 0.012742571414630229
454.0, 0.012047056983621223
455.0, 0.014497622923271572
456.0, 0.013815325032543138
457.0, 0.01250688760544637
458.0, 0.011516128589223323
459.0, 0.01240286354499129
460.0, 0.010300258845102377
461.0, 0.00825875447778681
462.0, 0.007763025110656131
463.0, 0.011768542283906985
464.0, 0.009595093113791853
465.0, 0.0100283122321504
466.0, 0.011775673011497446
467.0, 0.005169292712323501
468.0, 0.008412127264625953
469.0, 0.010769995928111226
470.0, 0.011789309685783676
471.0, 0.017668017686785924
472.0, 0.020639179915286465
473.0, 0.02068645626414476
474.0, 0.020256080216735937
475.0, 0.0283179085392733
476.0, 0.03165222912010103
477.0, 0.03409222523928321
478.0, 0.035936688075215134
479.0, 0.03493679986033575
480.0, 0.03865649010679826
481.0, 0.042807776135767035
482.0, 0.046762127789355776
483.0, 0.052014501439948686
484.0, 0.05543105796734026
485.0, 0.05564878211973822
486.0, 0.055177016734330835
487.0, 0.06480556034232904
488.0, 0.06656006515706994
489.0, 0.06394620506269938
490.0, 0.06079978785625188
491.0, 0.06824126200455546
492.0, 0.06407054368584836
493.0, 0.062216583069346236
494.0, 0.0638595519484258
495.0, 0.0619053298039727
496.0, 0.05968433754017966
497.0, 0.057577705428979935
498.0, 0.05522735509383578
499.0, 0.051162836186082764
500.0, 0.05016874236277277
501.0, 0.046437541344883086
502.0, 0.040511561639705644
503.0, 0.03760959513006213
504.0, 0.03687885643067946
505.0, 0.034969894982348496
506.0, 0.032010046637338474
507.0, 0.030045858961964034
508.0, 0.02615078122244043
509.0, 0.02267509032134613
510.0, 0.01969717985440277
511.0, 0.016473884816588354
512.0, 0.01128934899013564
513.0, 0.00975335282110513
514.0, 0.009907211152013635
515.0, 0.005736803049474692
516.0, 0.005552404898715947
517.0, 0.0054123265668482535
518.0, 0.004379708354614908
519.0, 0.0014842528657620254
520.0, 0.0019353089749376746
521.0, 0.0012910566014388202
522.0, 0.0014039597072142485
523.0, 0.006025019071420976
524.0, 0.0033654319653848275
525.0, 0.002628411133467499
526.0, 0.003102436801219612
527.0, 0.0029963385637230507
528.0, 0.0029762242410666605
529.0, 0.00260073685158018
530.0, 0.002022859849050873
531.0, 0.001441365230660776
532.0, 0.0012569394196236415
533.0, 0.0018167921385443214
534.0, 0.002072660026243906
535.0, 0.0010538174493423945
536.0, 0.00209133382336733
537.0, 0.002433619368875488
538.0, 0.00333074576926022
539.0, 0.00564558538337889
540.0, 0.00651356735946767
541.0, 0.005130162153979498
542.0, 0.003600641531504596
543.0, 0.003152427174324845
544.0, 0.002453660711294186
545.0, 0.004330251548175906
546.0, 0.005909658782602664
547.0, 0.00606918721730764
548.0, 0.007174919294857585
549.0, 0.010562686574077076
550.0, 0.0106902934871829
551.0, 0.007324059859440465
552.0, 0.01031429326142348
553.0, 0.006436770604613543
554.0, 0.0033475089875259385
555.0, 0.003703168894404621
556.0, 0.009260508818048251
557.0, 0.007259070387068956
558.0, 0.004799520785756215
559.0, 0.005029717303791429
560.0, 0.012509274130514093
561.0, 0.0047074929831904646
562.0, 0.003029025833247401
563.0, 0.005736847429491876
564.0, 0.004030645882375407
565.0, 0.005785854603652157
566.0, 0.005888410110827189
567.0, 0.006014391086308489
568.0, 0.009015006932473184
569.0, 0.01358957265571735
570.0, 0.014870100748883194
571.0, 0.014830971030373855
572.0, 0.01557648820685914
573.0, 0.016338806180538686
574.0, 0.015135020048268997
575.0, 0.013796339950709235
576.0, 0.013695674140873429
577.0, 0.015452211102206242
578.0, 0.016173491023257748
579.0, 0.01666494049392257
580.0, 0.017472006096171687
581.0, 0.01955487013862305
582.0, 0.022208568917942872
583.0, 0.02419213308000296
584.0, 0.025321295956578727
585.0, 0.0264886900715615
586.0, 0.026216295492123568
587.0, 0.03015600168285703
588.0, 0.03581077375823809
589.0, 0.033955677613508595
590.0, 0.03823857160547045
591.0, 0.04392281386265922
592.0, 0.04955953334670487
593.0, 0.053683713815410365
594.0, 0.06284498216032684
595.0, 0.07968261159080679
596.0, 0.09940041903705708
597.0, 0.11668513307860136
598.0, 0.13239030678575212
599.0, 0.15101508535825928
600.0, 0.1680351882372378
601.0, 0.17967535886231545
602.0, 0.17953994625971695
603.0, 0.16138913914650987
604.0, 0.1415352412197153
605.0, 0.12543834534872503
606.0, 0.1040032332608602
607.0, 0.09097198654949955
608.0, 0.08066596737811897
609.0, 0.0722481693347513
610.0, 0.06762213670785869
611.0, 0.0631043105865579
612.0, 0.05852771453568915
613.0, 0.05415537733946393
614.0, 0.05047953773634261
615.0, 0.053884876866541274
616.0, 0.058372636386834535
617.0, 0.0607156907100911
618.0, 0.05825266032398325
619.0, 0.06570200357951388
620.0, 0.07633602809973886
621.0, 0.08578537385646307
622.0, 0.09281412199602379
623.0, 0.11077353096546913
624.0, 0.12772776046397083
625.0, 0.1451638905645382
626.0, 0.16428624382866724
627.0, 0.18766548897957105
628.0, 0.2074988385102539
629.0, 0.2205998020470049
630.0, 0.22761011552855123
631.0, 0.23124124437541607
632.0, 0.21879284565872276
633.0, 0.20440207065857013
634.0, 0.19166845085619896
635.0, 0.18370413937468558
636.0, 0.19403246860060586
637.0, 0.2095257395956791
638.0, 0.23466272037165606
639.0, 0.2730726337434762
640.0, 0.3309327098195433
641.0, 0.4040760304156961
642.0, 0.4805405204876537
643.0, 0.5554016329197903
644.0, 0.6273502013365873
645.0, 0.6418539850448303
646.0, 0.6181219283575702
647.0, 0.564740846689262
648.0, 0.49199889761428584
649.0, 0.4119862018762109
650.0, 0.3356828347266263
651.0, 0.26565583992387287
652.0, 0.20457125015408373
653.0, 0.17621582926139934
654.0, 0.14133239141490805
655.0, 0.11489370148676378
656.0, 0.10258297177720736
657.0, 0.08605506282803066
658.0, 0.07213029685516972
659.0, 0.06339529793198642
660.0, 0.05881345251831774
661.0, 0.05346949413898692
662.0, 0.04348049115980356
663.0, 0.040746951081018674
664.0, 0.03998909364765438
665.0, 0.03208141512507465
666.0, 0.03152507567019996
667.0, 0.03209124533442873
668.0, 0.0306117378705794
669.0, 0.025940431048818408
670.0, 0.027939589535681066
671.0, 0.021070900304378325
672.0, 0.0179746021799776
673.0, 0.01960783260974154
674.0, 0.014222871828329669
675.0, 0.016519538035018985
676.0, 0.016706800196026734
677.0, 0.014530434932021191
678.0, 0.011862585630878946
679.0, 0.011838224025267872
680.0, 0.011662040958665108
681.0, 0.010096076542000197
682.0, 0.006961750338243238
683.0, 0.009057041324500059
684.0, 0.008778431404916374
685.0, 0.0060405060865741
686.0, 0.0025046865777943045
687.0, 0.003678242126741722
688.0, 0.0058302666281437624
689.0, 0.005764145695789111
690.0, 0.004949364401791559
691.0, 0.006189903495540897
692.0, 0.0042901311914754275
693.0, 0.004969228936458792
694.0, 0.006059432654603906
695.0, 0.00608949982038576
696.0, 0.006125152993290536
697.0, 0.0028514753136846165
698.0, 0.0029968545179169656
699.0, 0.0055032291034907855
700.0, 0.0016702100075200199
701.0, 0.003520643306090963
702.0, 0.0029619755557515
703.0, 0.002256536910503089
704.0, 0.0050309268938641
705.0, 0.008607810806865455
706.0, 0.004609292412450098
707.0, 0.0017584336504416654
708.0, 0.0032825713023488623
709.0, 0.0005583774418147899
710.0, 0.004572544036179278
711.0, 0.006749927757729855
712.0, 0.006438945663069496
713.0, 0.006150900042764149
714.0, 0.004431371252571821
715.0, 0.0028900785186111496
716.0, 0.004062042012652876
717.0, 0.00875117627846881
718.0, 0.004020641627690627
719.0, 0.003921445690503041
720.0, 0.0039316168984476355
721.0, 0.0035617913170727985
722.0, 0.006339829212814692
723.0, 0.004944468373867024
724.0, 0.004973551251877274
725.0, 0.005155031966929526
726.0, 0.0032725094135284084
727.0, 0.0023346780197969316
728.0, 0.002098943179293231
729.0, 0.002980409369787221
730.0, 0.004416887206857159
731.0, 0.0030381372508503307
732.0, 0.006860017637140139
733.0, 0.0074623719674698245
734.0, 0.007969939340203286
735.0, 0.01589796190193176
736.0, 0.00635865586318891
737.0, 0.0017325710160422715
738.0, 0.002228997166020374
739.0, 0.005855705045837307
740.0, 0.0013362486277342512
741.0, 0.0027876636193011513
742.0, 0.0030935083785067065
743.0, 0.0020115125314024325
744.0, 0.0027291309129720605
745.0, 0.005489357953943809
746.0, 0.003576064966895911
747.0, 0.0012727647137658186
748.0, 0.0021132079870253536
749.0, 0.003959440983618281
750.0, 0.00256772375193564
751.0, 0.001300316606818644
752.0, 0.0018577153233335505
753.0, 0.005732250340574854
754.0, 0.005016374650558236
755.0, 0.002886936941564665
756.0, 0.0009723847893198702
757.0, 0.001156865136598918
758.0, 0.009241872534228911
759.0, 0.005937403620108204
760.0, 0.0019130220875686185
761.0, 0.0020098453883320815
762.0, 0.009124239155479323
763.0, 0.004680930452979423
764.0, 0.006026612499270833
765.0, 0.007010521160741406
766.0, 0.0024920409437357875
767.0, 0.011394760621701335
768.0, 0.00854297638999109
769.0, 0.003826918838366789
770.0, 0.003520160748892006
771.0, 0.014551285870517561
772.0, 0.009982587486426251
773.0, 0.006995713449132524
774.0, 0.009342357818011536
775.0, 0.016471421198185645
776.0, 0.0037785613162474177
777.0, 0.012521500249524937
778.0, 0.01765751883810458
779.0, 0.015322953511149665
780.0, 0.014971826261739214
781.0, 0.016168713235808457
782.0, 0.014817458060997532
783.0, 0.01699369744447002
784.0, 0.026371931487359213
785.0, 0.03284523876364531
786.0, 0.033951395331835346
787.0, 0.03515509703793796
788.0, 0.03909675116395031
789.0, 0.0478452539714047
790.0, 0.04958917724698677
791.0, 0.049819316608906136
792.0, 0.051902539452257423
793.0, 0.05815382655525796
794.0, 0.06918570727880229
795.0, 0.06964067954055424
796.0, 0.07504017800715895
797.0, 0.08494355040579472
798.0, 0.0935473960407116
799.0, 0.09122994532750016
800.0, 0.09058591281917
801.0, 0.09573591811661303
802.0, 0.10356387739508602
803.0, 0.09472326160786401
804.0, 0.09727431932074546
805.0, 0.09551526850974403
806.0, 0.09158178227732726
807.0, 0.08998294795855903
808.0, 0.08440090595694405
809.0, 0.07881522337298541
810.0, 0.08044927484572757
811.0, 0.08415254991684439
812.0, 0.07040833937923256
813.0, 0.06933165416328094
814.0, 0.068089517545178
815.0, 0.061296146138780906
816.0, 0.04933938192425628
817.0, 0.05876650222046922
818.0, 0.05505512682053524
819.0, 0.052109595414930265
820.0, 0.047269905324368346
821.0, 0.03142938951142743
822.0, 0.039228983036375134
823.0, 0.04008201492057174
824.0, 0.03377086767642322
825.0, 0.024691322887331082
826.0, 0.027915337874641878
827.0, 0.020178661840920653
828.0, 0.014812802874419394
829.0, 0.015340399465510596
830.0, 0.021811256260570868
831.0, 0.0168581295511678
832.0, 0.012434338743671444
833.0, 0.009180364477933974
834.0, 0.008026050499804017
835.0, 0.010270955618202524
836.0, 0.015082278352994628
837.0, 0.007428235506978462
838.0, 0.0017751644263152059
839.0, 0.004080991778128716
840.0, 0.0004299833480230042
841.0, 0.0069311806086736595
842.0, 0.006209146540422373
843.0, 0.0017274354767717432
844.0, 0.0004847052186295062
845.0, 0.005020223464755661
846.0, 0.005084864868347341
847.0, 0.0027073189235492456
848.0, 0.0016245888652019615
849.0, 0.007712474595690736
850.0, 0.003836369480361787
851.0, 0.0021654331245061654
852.0, 0.0047897041099129916
853.0, 0.009560373575009627
854.0, 0.0043552803212912675
855.0, 0.003964190950810682
856.0, 0.0032572252590312117
857.0, 0.001879281162676452
858.0, 0.00045846557579553866
859.0, 0.0017378464847428296
860.0, 0.0034339850927556296
861.0, 0.006773536592308176
862.0, 0.008603864356065187
863.0, 0.003462391328083644
864.0, 0.005896796513252628
865.0, 0.014066312098923063
866.0, 0.012353555112233072
867.0, 0.002138352195374037
868.0, 0.00970191690838599
869.0, 0.011649314235017059
870.0, 0.010170524014363969
871.0, 0.009981741888225626
872.0, 0.012202709550276827
873.0, 0.002952086410651425
874.0, 0.014296509275811886
875.0, 0.014189668085236511
876.0, 0.010411150272761828
877.0, 0.018318326935473167
878.0, 0.016967463577182634
879.0, 0.014295656136830195
880.0, 0.01574680252235131
881.0, 0.0176755570769188
882.0, 0.010053471880052848
883.0, 0.014287930302742188
884.0, 0.013543618566666497
885.0, 0.013710603887867958
886.0, 0.01530786651507229
887.0, 0.010299459156034228
888.0, 0.014903723501924603
889.0, 0.013501218342703823
890.0, 0.013247489102178739
891.0, 0.018610149708751703
892.0, 0.01924575966442176
893.0, 0.02157708551768142
894.0, 0.024412431090360707
895.0, 0.023232533824808072
896.0, 0.015586542480935797
897.0, 0.021626562776607353
898.0, 0.022136416095145887
899.0, 0.020332488748635275
900.0, 0.020252953850020964
901.0, 0.02613831006686145
902.0, 0.02611559616719996
903.0, 0.01631113328291462
904.0, 0.018116696301196094
905.0, 0.02564273914425107
906.0, 0.007785412523831709
907.0, 0.010409087749035673
908.0, 0.01090156249324834
909.0, 0.009568897635540865
910.0, 0.008234067303945278
911.0, 0.011014584285381074
912.0, 0.010547879033578691
913.0, 0.011643912613569151
914.0, 0.012499526844634573
915.0, 0.011620242209534826
916.0, 0.009621390161551613
917.0, 0.00940345453787601
918.0, 0.009188032213909774
919.0, 0.008431650453088134
920.0, 0.007100503219144008
921.0, 0.006762719683711023
922.0, 0.00805624070795452
923.0, 0.005133614763612595
924.0, 0.0024040925916211636
925.0, 0.005784748827539267
926.0, 0.006112658315664589
927.0, 0.007798923652939956
928.0, 0.00513291922337804
929.0, 0.0029474232673184003
930.0, 0.009574224601639907
931.0, 0.0021051272729088713
932.0, 0.004044998836688355
933.0, 0.008264600320641378
934.0, 0.011254401894918177
935.0, 0.011503867093532462
936.0, 0.006199469159177132
937.0, 0.002907349013114584
938.0, 0.0027509273250084488
939.0, 0.005969548468775527
940.0, 0.011951100942911347
941.0, 0.004491467387780324
942.0, 0.00827106007228726
943.0, 0.010884289413461168
944.0, 0.008082742490827263
945.0, 0.007096584421804726
946.0, 0.01123519690977033
947.0, 0.008970055346225008
948.0, 0.008976222540901196
949.0, 0.015300151177620264
950.0, 0.022955453183169224
951.0, 0.012734074568634714
952.0, 0.01152717802271056
953.0, 0.014145109282404861
954.0, 0.01570405191052506
955.0, 0.01671918189899542
956.0, 0.013728118296270976
957.0, 0.011764251107740006
958.0, 0.01254847643297774
959.0, 0.016779843525618867
960.0, 0.02378989377531386
961.0, 0.016818886254503975
962.0, 0.02391833165162899
963.0, 0.02778421775867149
964.0, 0.018437455823851277
965.0, 0.025124390218255525
966.0, 0.02369244893736814
967.0, 0.02529175484558078
968.0, 0.032044075541732345
969.0, 0.03872253724532136
970.0, 0.01843826119209993
971.0, 0.03487350440226478
972.0, 0.040952535139928636
973.0, 0.03635968795432804
974.0, 0.03006417213327057
975.0, 0.037771511015079966
976.0, 0.03803310864697473
977.0, 0.04125766887532453
978.0, 0.0495091311847704
979.0, 0.06009173935213672
980.0, 0.05779592634461177
981.0, 0.06234849031390586
982.0, 0.06837164020126245
983.0, 0.07068608119654926
984.0, 0.07177017084751008
985.0, 0.10286117240520709
986.0, 0.09360628958944098
987.0, 0.10100987536260624
988.0, 0.11945581980754294
989.0, 0.1350351550712905
990.0, 0.13976073448529533
991.0, 0.16618485128455637
992.0, 0.18775733691193822
993.0, 0.20701551489662812
994.0, 0.23023565990666595
995.0, 0.26280643127076825
996.0, 0.28220415449638275
997.0, 0.3187441941708068
998.0, 0.3615548887672454
999.0, 0.4014619626584185
1000.0, 0.44799864973063286
1001.0, 0.526531422053532
1002.0, 0.5946824530622958
1003.0, 0.6609905861353894
1004.0, 0.7316789438876883
1005.0, 0.7965781512919757
1006.0, 0.848385876186815
1007.0, 0.9160523517148123
1008.0, 0.9690845215233017
1009.0, 0.9915686480118343
1010.0, 0.9996757172312247
1011.0, 0.9972125791270994
1012.0, 0.9529522170299316
1013.0, 0.8996607806034432
1014.0, 0.8465003009876966
1015.0, 0.7652777937734302
1016.0, 0.6931337055201835
1017.0, 0.6256105186327784
1018.0, 0.5624633806336891
1019.0, 0.506904288528294
1020.0, 0.4652855662686985
1021.0, 0.4120597786123054
1022.0, 0.3750033573394927
1023.0, 0.3507749460057009
1024.0, 0.3328984932036146
1025.0, 0.31306907727692074
1026.0, 0.298389120735949
1027.0, 0.2903923303364544
1028.0, 0.2900607318530977
1029.0, 0.2929502626193163
1030.0, 0.29354487711291355
1031.0, 0.3094366073112476
1032.0, 0.32114626793185547
1033.0, 0.34189532960834235
1034.0, 0.3642888522701665
1035.0, 0.37923469794984044
1036.0, 0.41428478412291103
1037.0, 0.44732351594369574
1038.0, 0.47942033258093125
1039.0, 0.5119198051016
1040.0, 0.5473285980220852
1041.0, 0.5925025758529702
1042.0, 0.6096599486342527
1043.0, 0.6394001299470844
1044.0, 0.6611743991262715
1045.0, 0.6611410441808554
1046.0, 0.6575608420874925
1047.0, 0.6587785257517361
1048.0, 0.6525874612156902
1049.0, 0.6463111940563536
1050.0, 0.6474290841620732
1051.0, 0.6617048086605515
1052.0, 0.6790151508704272
1053.0, 0.7011858443165572
1054.0, 0.728581356762711
1055.0, 0.7683398191518457
1056.0, 0.8311773238322683
1057.0, 0.9010909103610858
1058.0, 0.9151016128410464
1059.0, 0.9330895471793278
1060.0, 0.9345862653627346
1061.0, 0.876421696955269
1062.0, 0.8030201992770795
1063.0, 0.7136074200243618
1064.0, 0.6138257949898145
1065.0, 0.523876674288018
1066.0, 0.4529242072427065
1067.0, 0.36265546075724203
1068.0, 0.30990447779069025
1069.0, 0.27267431383338736
1070.0, 0.24001810560818906
1071.0, 0.20729206642628045
1072.0, 0.17905527451213574
1073.0, 0.15779312663784031
1074.0, 0.1394271532451258
1075.0, 0.12736511198465889
1076.0, 0.11872205335156111
1077.0, 0.10560549170403663
1078.0, 0.09088682878086181
1079.0, 0.09069542607381267
1080.0, 0.08080113889120975
1081.0, 0.07042109499529171
1082.0, 0.07613618297794451
1083.0, 0.07222923906226733
1084.0, 0.06654260718713287
1085.0, 0.06104596734189563
1086.0, 0.05480734896781415
1087.0, 0.04785243143666493
1088.0, 0.04391482385291464
1089.0, 0.053228467966729656
1090.0, 0.04431734920821037
1091.0, 0.03879487236564922
1092.0, 0.04393922945819472
1093.0, 0.046447600794847096
1094.0, 0.03408064597072503
1095.0, 0.03568263301230722
1096.0, 0.03579037083466899
1097.0, 0.0367290641910565
1098.0, 0.04538168777704785
1099.0, 0.036062844132809316
1100.0, 0.03530869729205201
1101.0, 0.041479041401197535
1102.0, 0.041038111974797814
1103.0, 0.030776215251684034
1104.0, 0.03910116278556481
1105.0, 0.04128155625977013
1106.0, 0.04144127360117198
1107.0, 0.04212312264205208
1108.0, 0.043193918525885736
1109.0, 0.04196044958515093
1110.0, 0.039098713882413566
1111.0, 0.04420399533549181
1112.0, 0.044287550902230244
1113.0, 0.038677512050347154
1114.0, 0.033318302534579215
1115.0, 0.038796591260749524
1116.0, 0.030845076945203678
1117.0, 0.03616893819285822
1118.0, 0.041849451438241814
1119.0, 0.03919910114234598
1120.0, 0.03766785995695161
1121.0, 0.046912242234476896
1122.0, 0.037827658002040965
1123.0, 0.029982661526947403
1124.0, 0.028329012438214972
1125.0, 0.026238561795930503
1126.0, 0.014514751900221359
1127.0, 0.023852296504673593
1128.0, 0.021951481068662754
1129.0, 0.01590036848123976
1130.0, 0.01683884557073075
1131.0, 0.021112039973797094
1132.0, 0.006127635750554357
1133.0, 0.009065817964252933
1134.0, 0.01306475641908175
1135.0, 0.009933896631676379
1136.0, 0.004006795306037156
1137.0, 0.017033619084307092
1138.0, 0.006750862915439817
1139.0, 0.005980843914269637
1140.0, 0.01135804420409085
1141.0, 0.011241151296961124
1142.0, 0.004431590347597696
1143.0, 0.016981986485928094
1144.0, 0.009883702215187782
1145.0, 0.005462352860251247
1146.0, 0.011621862979163206
1147.0, 0.016504502138564015
1148.0, 0.007601575550720095
1149.0, 0.008190245734634808
1150.0, 0.0076343258482643485
1151.0, 0.004389364009721612
1152.0, 0.0025594699650596563
1153.0, 0.01354638487055396
1154.0, 0.008817149044868657
1155.0, 0.0035043417783319703
1156.0, 0.004829637906436977
1157.0, 0.008304177388044204
1158.0, 0.0016535001802351612
1159.0, 0.0051778846047956665
1160.0, 0.01441975921425945
1161.0, 0.011397448357607554
1162.0, 0.008723714727328255
1163.0, 0.014293088430823359
1164.0, 0.0005207513157200801
1165.0, 8.888130478761715e-05
1166.0, 0.002448736354383692
1167.0, 0.0025715719855552836
1168.0, 0.002652866422948403
1169.0, 0.008889089789841192
1170.0, 0.015645983219894737
1171.0, 0.010867999089927064
1172.0, 0.014061103546836708
1173.0, 0.01463689351470023
1174.0, 0.007030393817130979
1175.0, 0.006950491351921715
1176.0, 0.013705014674445215
1177.0, 0.010063770541590966
1178.0, 0.00983659768681364
1179.0, 0.013851558722108841
1180.0, 0.01590779424171661
1181.0, 0.013782129951703052
1182.0, 0.02103452588870062
1183.0, 0.01966550626560493
1184.0, 0.0182234178574869
1185.0, 0.020798791820122342
1186.0, 0.02243490307384535
1187.0, 0.03060909212236329
1188.0, 0.030520585178686988
1189.0, 0.033615298182107414
1190.0, 0.03650173630985098
1191.0, 0.0348100034654933
1192.0, 0.03426409652174392
1193.0, 0.032872774411891764
1194.0, 0.03153118381717507
1195.0, 0.029183056023159872
1196.0, 0.027340687060703476
1197.0, 0.028184259140279378
1198.0, 0.02781279708929048
1199.0, 0.027444706328623582
1200.0, 0.0198859636755332
1201.0, 0.025018782245097983
1202.0, 0.03886179200713425
1203.0, 0.026633382426378232
1204.0, 0.017757797042764697
1205.0, 0.025428675015555853
1206.0, 0.02162112589947186
1207.0, 0.014133327826886406
1208.0, 0.015997654572805203
1209.0, 0.024195277571272787
1210.0, 0.011841687636488782
1211.0, 0.019450051228232342
1212.0, 0.022254198669796242
1213.0, 0.015608900559642784
1214.0, 0.009486103634182227
1215.0, 0.017668769330096055
1216.0, 0.018802413968197613
1217.0, 0.014016856582835663
1218.0, 0.010355604839429228
1219.0, 0.011228426188770166
1220.0, 0.015159326858490998
1221.0, 0.017509772398525962
1222.0, 0.02166456562708321
1223.0, 0.015342979026038298
1224.0, 0.009963362335787668
1225.0, 0.012647744935313746
1226.0, 0.01646505920731102
1227.0, 0.022948124685026043
1228.0, 0.015486318080691546
1229.0, 0.007823104649579766
1230.0, 0.008351089704714477
1231.0, 0.01737839731347782
1232.0, 0.022812940414053535
1233.0, 0.007381703377421341
1234.0, 0.010678187877605468
1235.0, 0.008673468553417094
1236.0, 0.006894658784589854
1237.0, 0.01674819792530003
1238.0, 0.014969556112813873
1239.0, 0.008949853687878642
1240.0, 0.01585511373688589
1241.0, 0.020213633524841707
1242.0, 0.015563550691336397
1243.0, 0.007761519939936628
1244.0, 0.01995296438109646
1245.0, 0.01089367281969549
1246.0, 0.007581739499835411
1247.0, 0.015248001106261469
1248.0, 0.022635969208468245
1249.0, 0.012538448442341659
1250.0, 0.013305676432186298
1251.0, 0.01387353279604599
1252.0, 0.013495046895981255
1253.0, 0.01303892207023931
1254.0, 0.013254880347338868
1255.0, 0.014466083921683378
1256.0, 0.018612840106684597
1257.0, 0.021359562613585317
1258.0, 0.015074795535544125
1259.0, 0.015894807540782447
1260.0, 0.02726271058090551
1261.0, 0.027735217519720915
1262.0, 0.0038037782288005296
1263.0, 3.511733860814385e-05
1264, 0.0
1265, 0.0
1266, 0.0
1267, 0.0
1268, 0.0
1269, 0.0
1270, 0.0
1271, 0.0
1272, 0.0
1273, 0.0
1274, 0.0
1275, 0.0
1276, 0.0
1277, 0.0
1278, 0.0
1279, 0.0
1280, 0.0
1281, 0.0
1282, 0.0
1283, 0.0
1284, 0.0
1285, 0.0
1286, 0.0
1287, 0.0
1288, 0.0
1289, 0.0
1290, 0.0
1291, 0.0
1292, 0.0
1293, 0.0
1294, 0.0
1295, 0.0
1296, 0.0
1297, 0.0
1298, 0.0
1299, 0.0
1300, 0.0
1301, 0.0
1302, 0.0
1303, 0.0
1304, 0.0
1305, 0.0
1306, 0.0
1307, 0.0
1308, 0.0
1309, 0.0
1310, 0.0
1311, 0.0
1312, 0.0
1313, 0.0
1314, 0.0
1315, 0.0
1316, 0.0
1317, 0.0
1318, 0.0
1319, 0.0
1320, 0.0
1321, 0.0
1322, 0.0
1323, 0.0
1324, 0.0
1325, 0.0
1326, 0.0
1327, 0.0
1328, 0.0
1329, 0.0
1330, 0.0
1331, 0.0
1332, 0.0
1333, 0.0
1334, 0.0
1335, 0.0
1336, 0.0
1337, 0.0
1338, 0.0
1339, 0.0
1340, 0.0
1341, 0.0
1342, 0.0
1343, 0.0
1344, 0.0
1345, 0.0
1346, 0.0
1347, 0.0
1348, 0.0
1349, 0.0
1350, 0.0
1351, 0.0
1352, 0.0
1353, 0.0
1354, 0.0
1355, 0.0
1356, 0.0
1357, 0.0
1358, 0.0
1359, 0.0
1360, 0.0
1361, 0.0
1362, 0.0
1363, 0.0
1364, 0.0
1365, 0.0
1366, 0.0
1367, 0.0
1368, 0.0
1369, 0.0
1370, 0.0
1371, 0.0
1372, 0.0
1373, 0.0
1374, 0.0
1375, 0.0
1376, 0.0
1377, 0.0
1378, 0.0
1379, 0.0
1380, 0.0
1381, 0.0
1382, 0.0
1383, 0.0
1384, 0.0
1385, 0.0
1386, 0.0
1387, 0.0
1388, 0.0
1389, 0.0
1390, 0.0
1391, 0.0
1392, 0.0
1393, 0.0
1394, 0.0
1395, 0.0
1396, 0.0
1397, 0.0
1398, 0.0
1399, 0.0
1400, 0.0
1401, 0.0
1402, 0.0
1403, 0.0
1404, 0.0
1405, 0.0
1406, 0.0
1407, 0.0
1408, 0.0
1409, 0.0
1410, 0.0
1411, 0.0
1412, 0.0
1413, 0.0
1414, 0.0
1415, 0.0
1416, 0.0
1417, 0.0
1418, 0.0
1419, 0.0
1420, 0.0
1421, 0.0
1422, 0.0
1423, 0.0
1424, 0.0
1425, 0.0
1426, 0.0
1427, 0.0
1428, 0.0
1429, 0.0
1430, 0.0
1431, 0.0
1432, 0.0
1433, 0.0
1434, 0.0
1435, 0.0
1436, 0.0
1437, 0.0
1438, 0.0
1439, 0.0
1440, 0.0
1441, 0.0
1442, 0.0
1443, 0.0
1444, 0.0
1445, 0.0
1446, 0.0
1447, 0.0
1448, 0.0
1449, 0.0
1450, 0.0
1451, 0.0
1452, 0.0
1453, 0.0
1454, 0.0
1455, 0.0
1456, 0.0
1457, 0.0
1458, 0.0
1459, 0.0
1460, 0.0
1461, 0.0
1462, 0.0
1463, 0.0
1464, 0.0
1465, 0.0
1466, 0.0
1467, 0.0
1468, 0.0
1469, 0.0
1470, 0.0
1471, 0.0
1472, 0.0
1473, 0.0
1474, 0.0
1475, 0.0
1476, 0.0
1477, 0.0
1478, 0.0
1479, 0.0
1480, 0.0
1481, 0.0
1482, 0.0
1483, 0.0
1484, 0.0
1485, 0.0
1486, 0.0
1487, 0.0
1488, 0.0
1489, 0.0
1490, 0.0
1491, 0.0
1492, 0.0
1493, 0.0
1494, 0.0
1495, 0.0
1496, 0.0
1497, 0.0
1498, 0.0
1499, 0.0
1500, 0.0
1501, 0.0
1502, 0.0
1503, 0.0
1504, 0.0
1505, 0.0
1506, 0.0
1507, 0.0
1508, 0.0
1509, 0.0
1510, 0.0
1511, 0.0
1512, 0.0
1513, 0.0
1514, 0.0
1515, 0.0
1516, 0.0
1517, 0.0
1518, 0.0
1519, 0.0
1520, 0.0
1521, 0.0
1522, 0.0
1523, 0.0
1524, 0.0
1525, 0.0
1526, 0.0
1527, 0.0
1528, 0.0
1529, 0.0
1530, 0.0
1531, 0.0
1532, 0.0
1533, 0.0
1534, 0.0
1535, 0.0
1536, 0.0
1537, 0.0
1538, 0.0
1539, 0.0
1540, 0.0
1541, 0.0
1542, 0.0
1543, 0.0
1544, 0.0
1545, 0.0
1546, 0.0
1547, 0.0
1548, 0.0
1549, 0.0
1550, 0.0
1551, 0.0
1552, 0.0
1553, 0.0
1554, 0.0
1555, 0.0
1556, 0.0
1557, 0.0
1558, 0.0
1559, 0.0
1560, 0.0
1561, 0.0
1562, 0.0
1563, 0.0
1564, 0.0
1565, 0.0
1566, 0.0
1567, 0.0
1568, 0.0
1569, 0.0
1570, 0.0
1571, 0.0
1572, 0.0
1573, 0.0
1574, 0.0
1575, 0.0
1576, 0.0
1577, 0.0
1578, 0.0
1579, 0.0
1580, 0.0
1581, 0.0
1582, 0.0
1583, 0.0
1584, 0.0
1585, 0.0
1586, 0.0
1587, 0.0
1588, 0.0
1589, 0.0
1590, 0.0
1591, 0.0
1592, 0.0
1593, 0.0
1594, 0.0
1595, 0.0
1596, 0.0
1597, 0.0
1598, 0.0
1599, 0.0
