30, 0.0
31, 0.0
32, 0.0
33, 0.0
34, 0.0
35, 0.0
36, 0.0
37, 0.0
38, 0.0
39, 0.0
40, 0.0
41, 0.0
42, 0.0
43, 0.0
44, 0.0
45, 0.0
46, 0.0
47, 0.0
48, 0.0
49, 0.0
50, 0.0
51, 0.0
52, 0.0
53, 0.0
54, 0.0
55, 0.0
56, 0.0
57, 0.0
58, 0.0
59, 0.0
60, 0.0
61, 0.0
62, 0.0
63, 0.0
64, 0.0
65, 0.0
66, 0.0
67, 0.0
68, 0.0
69, 0.0
70, 0.0
71, 0.0
72, 0.0
73, 0.0
74, 0.0
75, 0.0
76, 0.0
77, 0.0
78, 0.0
79, 0.0
80, 0.0
81, 0.0
82, 0.0
83, 0.0
84, 0.0
85, 0.0
86, 0.0
87, 0.0
88, 0.0
89, 0.0
90, 0.0
91, 0.0
92, 0.0
93, 0.0
94, 0.0
95, 0.0
96, 0.0
97, 0.0
98, 0.0
99, 0.0
100, 0.0
101, 0.0
102, 0.0
103, 0.0
104, 0.0
105, 0.0
106, 0.0
107, 0.0
108, 0.0
109, 0.0
110, 0.0
111, 0.0
112, 0.0
113, 0.0
114, 0.0
115, 0.0
116, 0.0
117, 0.0
118, 0.0
119, 0.0
120, 0.0
121, 0.0
122.0, 0.0013975696863249825
123.0, 0.005806306867160987
124.0, 0.01700402473752701
125.0, 0.030147459916144106
126.0, 0.04503194867839935
127.0, 0.06331289179357122
128.0, 0.08801380807109642
129.0, 0.11702384976003674
130.0, 0.14990545379784403
131.0, 0.16670803750578292
132.0, 0.18855373110770954
133.0, 0.21058388302963763
134.0, 0.20744398276874465
135.0, 0.19436288101760835
136.0, 0.18130197095965533
137.0, 0.1735559753228099
138.0, 0.14131021794635995
139.0, 0.11598314421550761
140.0, 0.0956331672847057
141.0, 0.07356720266675891
142.0, 0.05205498876518817
143.0, 0.037753760286024354
144.0, 0.03374943053948784
145.0, 0.018793442233678057
146.0, 0.014658014328278044
147.0, 0.01582385167219092
148.0, 0.012509501865551614
149.0, 0.011409906643340118
150.0, 0.008592332558142771
151.0, 0.003310239384607898
152.0, 0.0015542537163054512
153.0, 0.0008151440566125298
154.0, 0.001874576351101062
155.0, 0.006336082246000387
156.0, 0.0032961103234027764
157.0, 0.0013274731325272908
158.0, 0.0022515068806900672
159.0, 0.00979835576833829
160.0, 0.015992973926762497
161.0, 0.022652230300782124
162.0, 0.03140146956763923
163.0, 0.03956618822391964
164.0, 0.04699781129664678
165.0, 0.05344565058171349
166.0, 0.05770979450320101
167.0, 0.06557934155372405
168.0, 0.07148449281203408
169.0, 0.07246937011085697
170.0, 0.07871937533512627
171.0, 0.07727134572363777
172.0, 0.0717456584137247
173.0, 0.06952579247132923
174.0, 0.06862533769141042
175.0, 0.06728017035383417
176.0, 0.06523576849210717
177.0, 0.066184752429485
178.0, 0.06606086420866505
179.0, 0.06494692674165102
180.0, 0.06266865635627812
181.0, 0.06136681578958668
182.0, 0.05837449582532265
183.0, 0.05358866464913803
184.0, 0.048132135962940796
185.0, 0.04668289392890177
186.0, 0.04767002243502333
187.0, 0.050545367708195565
188.0, 0.044198885359449255
189.0, 0.04131459863822534
190.0, 0.0404544132490276
191.0, 0.03748916857940649
192.0, 0.030159350742956545
193.0, 0.026078925917716343
194.0, 0.027058937224296295
195.0, 0.022513739972139814
196.0, 0.015826517072196743
197.0, 0.009478777520944412
198.0, 0.006538415345529882
199.0, 0.0026350273976620125
200.0, 0.0014398642022724279
201.0, 0.002862264935724184
202.0, 0.004690752836831367
203.0, 0.0037374134574677254
204.0, 0.0022907332685900396
205.0, 0.0014884589823812044
206.0, 0.004388640354705034
207.0, 0.004369020651256659
208.0, 0.0027626048650898627
209.0, 0.0019757281926885955
210.0, 0.008464406098502833
211.0, 0.012688515722424245
212.0, 0.01312439670460828
213.0, 0.015016956403981983
214.0, 0.014635055174188118
215.0, 0.01563581958681369
216.0, 0.021269671660118457
217.0, 0.019800160718953266
218.0, 0.022255055932652867
219.0, 0.026245781973919673
220.0, 0.02335835718581768
221.0, 0.02351790479948554
222.0, 0.019947619505107317
223.0, 0.01149415014662313
224.0, 0.016624014881878472
225.0, 0.015583386093782653
226.0, 0.014058560098232205
227.0, 0.01812597246862181
228.0, 0.017261011889499092
229.0, 0.011315184612974887
230.0, 0.0036780542464741467
231.0, 0.00668669264711581
232.0, 0.0046122318745744515
233.0, 0.004324922452794452
234.0, 0.008174052202038087
235.0, 0.006379427662487224
236.0, 0.0038758142783618423
237.0, 0.0020441761339702585
238.0, 0.002777229219469772
239.0, 0.001550876521298288
240.0, 0.0009945672988478076
241.0, 0.00230172595299494
242.0, 0.009444164130018633
243.0, 0.006490439550849393
244.0, 0.004965516879715856
245.0, 0.009119078562344523
246.0, 0.005013424772459877
247.0, 0.005158055127805971
248.0, 0.007471011971413337
249.0, 0.00977962223808844
250.0, 0.012574384303589273
251.0, 0.01077636443958599
252.0, 0.005399772218249705
253.0, 0.001803335429687805
254.0, 0.0020349914884073006
255.0, 0.0027032174591776373
256.0, 0.0026151951700140426
257.0, 0.0027068865968327355
258.0, 0.004451933241551961
259.0, 0.00731593379872825
260.0, 0.010927487322941467
261.0, 0.01204153828403566
262.0, 0.014777578691116173
263.0, 0.019838632978633468
264.0, 0.028818073481670856
265.0, 0.039987775746180475
266.0, 0.04804389345653116
267.0, 0.05237968433186644
268.0, 0.06564524605504467
269.0, 0.08192894415079735
270.0, 0.09785367223211504
271.0, 0.11057088826625014
272.0, 0.1217406563157196
273.0, 0.1315694481831861
274.0, 0.1393896240208537
275.0, 0.14331350894081826
276.0, 0.14666564752792363
277.0, 0.14693802774466128
278.0, 0.1439513840319789
279.0, 0.14001787858548767
280.0, 0.13406559258967082
281.0, 0.1288786383202464
282.0, 0.12611639168849814
283.0, 0.1302484970155056
284.0, 0.1291670911895193
285.0, 0.12883103913032468
286.0, 0.13780413932967525
287.0, 0.14424658201650126
288.0, 0.15837782466592135
289.0, 0.17964334572830318
290.0, 0.20315010583405954
291.0, 0.23803179587668014
292.0, 0.28539394474891516
293.0, 0.3452124798139696
294.0, 0.40702814680293464
295.0, 0.4895595403331876
296.0, 0.5786328268038823
297.0, 0.664232915729706
298.0, 0.7434297099129241
299.0, 0.8039763469836613
300.0, 0.8407980127772519
301.0, 0.8412377559031476
302.0, 0.8063366206110443
303.0, 0.7590051786224074
304.0, 0.7023090534910947
305.0, 0.6342452650722031
306.0, 0.5666102710816167
307.0, 0.5092696448421493
308.0, 0.46590084978012813
309.0, 0.4285589600365696
310.0, 0.4014488471947096
311.0, 0.3764861097530459
312.0, 0.34724144069336366
313.0, 0.320104092359005
314.0, 0.2936685855592271
315.0, 0.2704829473482908
316.0, 0.2557705453103972
317.0, 0.23771881869834904
318.0, 0.2275087196645314
319.0, 0.22372909912351127
320.0, 0.2149806437344343
321.0, 0.20449856582490408
322.0, 0.19358453942079165
323.0, 0.18169480642486513
324.0, 0.15886857129103568
325.0, 0.1442381055789715
326.0, 0.13316391920050524
327.0, 0.12277386345751841
328.0, 0.11291816951436955
329.0, 0.10133070403450986
330.0, 0.08907175292739505
331.0, 0.07759100832293836
332.0, 0.06859240013226241
333.0, 0.061631696651340453
334.0, 0.05592929085630086
335.0, 0.04956507287711407
336.0, 0.05144416378458638
337.0, 0.047901989852558315
338.0, 0.03803562733568604
339.0, 0.03574560015367022
340.0, 0.03303912763296868
341.0, 0.028651672649631896
342.0, 0.022082381898422147
343.0, 0.016535983256178347
344.0, 0.018147539232686454
345.0, 0.02106667012978421
346.0, 0.02039438102833756
347.0, 0.025564648097175277
348.0, 0.02306160673358419
349.0, 0.017891153701862655
350.0, 0.01827841604229326
351.0, 0.015690417352816354
352.0, 0.012509818239815545
353.0, 0.0107073569511538
354.0, 0.015426517166181207
355.0, 0.01878002028823178
356.0, 0.0184588650480935
357.0, 0.015552541610185953
358.0, 0.019200066320092336
359.0, 0.01651988655965281
360.0, 0.01619814132035555
361.0, 0.021120028738221226
362.0, 0.020467280185234506
363.0, 0.021380312223724676
364.0, 0.023075892558966207
365.0, 0.025050633271067595
366.0, 0.0268682978022742
367.0, 0.03195129367936394
368.0, 0.036081421712840366
369.0, 0.033986971274130515
370.0, 0.03235768982696751
371.0, 0.03697418076719227
372.0, 0.042510744217105115
373.0, 0.037723809599370405
374.0, 0.04204722515883602
375.0, 0.04490747613462999
376.0, 0.04585765534565283
377.0, 0.04817909982605616
378.0, 0.05119568744483875
379.0, 0.04944971937879804
380.0, 0.04395620523158946
381.0, 0.04817071099009724
382.0, 0.04179285872526006
383.0, 0.0371389614066496
384.0, 0.0391477159360767
385.0, 0.04677298081322922
386.0, 0.043561849752338275
387.0, 0.04114252114178606
388.0, 0.04624856891390155
389.0, 0.04179430717324425
390.0, 0.043994270797292456
391.0, 0.04388068697491304
392.0, 0.03284051825268972
393.0, 0.032489361549388134
394.0, 0.03825226726695682
395.0, 0.042796336540103286
396.0, 0.03575240858275109
397.0, 0.035173108190178805
398.0, 0.037908867794789414
399.0, 0.041079645757754774
400.0, 0.03929044420410725
401.0, 0.03296163388135915
402.0, 0.03153056683517222
403.0, 0.03483786753389192
404.0, 0.03902396007132963
405.0, 0.030714908056190867
406.0, 0.031993142439782275
407.0, 0.04206297432605426
408.0, 0.03767512151183135
409.0, 0.037481849083435825
410.0, 0.03538900974400128
411.0, 0.030868509741497813
412.0, 0.032461245639971305
413.0, 0.03012234176898334
414.0, 0.02912589036538631
415.0, 0.03166450815850043
416.0, 0.0369064500875242
417.0, 0.03842913359067421
418.0, 0.04434242442047833
419.0, 0.059114827852251736
420.0, 0.07703528432702436
421.0, 0.10307632563359359
422.0, 0.13666660070796796
423.0, 0.17766381717853605
424.0, 0.22184830283381293
425.0, 0.26123728361231097
426.0, 0.290482771382293
427.0, 0.30401458890650684
428.0, 0.2991047413417951
429.0, 0.26846495367920264
430.0, 0.22756741472012065
431.0, 0.19505258663064942
432.0, 0.16570488710449618
433.0, 0.12966884822238098
434.0, 0.09421857621588996
435.0, 0.07102263215081377
436.0, 0.059634451438796816
437.0, 0.05558010206623085
438.0, 0.05274069892563481
439.0, 0.04049922597584155
440.0, 0.03577942697990224
441.0, 0.03711392906993781
442.0, 0.03961910628083493
443.0, 0.0328623654058185
444.0, 0.026590230379030542
445.0, 0.020373813794386936
446.0, 0.01614403541265552
447.0, 0.019263422352187885
448.0, 0.01758697761693789
449.0, 0.01902728972987381
450.0, 0.02258606448846253
451.0, 0.021148734079187832
452.0, 0.0232806478997215
453.0, 0.021943270624320332
454.0, 0.0179008811653671
455.0, 0.018820608875931608
456.0, 0.01557722069706661
457.0, 0.012375063607893835
458.0, 0.011725819143266324
459.0, 0.019790772584442687
460.0, 0.016923694783421463
461.0, 0.016108537898496995
462.0, 0.019350720474374528
463.0, 0.020263871822251665
464.0, 0.01982664983786866
465.0, 0.02226294811317259
466.0, 0.026857678883956678
467.0, 0.023912071901948235
468.0, 0.030315353759989526
469.0, 0.03685238899347723
470.0, 0.04181861814727913
471.0, 0.051542737331443135
472.0, 0.05772622147179068
473.0, 0.061496435033961835
474.0, 0.06328424649677845
475.0, 0.06363422528102322
476.0, 0.07760022406997599
477.0, 0.09070768418408685
478.0, 0.09962378439545728
479.0, 0.11430997441531712
480.0, 0.12330177094749342
481.0, 0.13005633795692695
482.0, 0.13584861152435027
483.0, 0.14115761381437347
484.0, 0.1416444426233968
485.0, 0.13731699643224476
486.0, 0.13018095947478142
487.0, 0.13229270397595333
488.0, 0.1301779749548486
489.0, 0.12738189422553
490.0, 0.12533495110532059
491.0, 0.12511460312709585
492.0, 0.12180350758129085
493.0, 0.11874531871344367
494.0, 0.11618703697353797
495.0, 0.10933321502663138
496.0, 0.09802946407896282
497.0, 0.09322422798328436
498.0, 0.09481211856752172
499.0, 0.0840787096138726
500.0, 0.07827884797315685
501.0, 0.07377160120008767
502.0, 0.06848944646087897
503.0, 0.057982587739325256
504.0, 0.05591764440420868
505.0, 0.052138768144262146
506.0, 0.045514639925875205
507.0, 0.043059707426742005
508.0, 0.03690957689099361
509.0, 0.03170065741031143
510.0, 0.028037519434619594
511.0, 0.023916862473319152
512.0, 0.019322980606811223
513.0, 0.021256540129452772
514.0, 0.025722429395333396
515.0, 0.014955354384662816
516.0, 0.007042228133803341
517.0, 0.007605207606270694
518.0, 0.012806602472124076
519.0, 0.009224003131493892
520.0, 0.004689974958246197
521.0, 0.0030812157876821313
522.0, 0.003109133994721529
523.0, 0.0003545252435026168
524.0, 0.00022875561948207385
525.0, 0.002159466618264347
526.0, 0.0040531755979012676
527.0, 0.0018947702594073448
528.0, 0.004150006565051027
529.0, 0.003355045500487976
530.0, 0.001621111035322537
531.0, 0.00352453785705946
532.0, 0.00335912524066364
533.0, 0.0020238612574602546
534.0, 0.0010514269990521497
535.0, 0.0024363078669022275
536.0, 0.0032648842154540565
537.0, 0.004224923063632239
538.0, 0.004387008636571069
539.0, 0.002745769778304077
540.0, 0.010570790910718452
541.0, 0.007260795541505159
542.0, 0.002616086068846544
543.0, 0.004959153740593752
544.0, 0.0013877460677704464
545.0, 0.005344261390351081
546.0, 0.0069921314398786565
547.0, 0.0009967128993957396
548.0, 0.008275557662804741
549.0, 0.010518237407447516
550.0, 0.01021109232094758
551.0, 0.010665297545783572
552.0, 0.028278897799174394
553.0, 0.015284935299414099
554.0, 0.0027219180763647767
555.0, 0.00262897670183288
556.0, 0.01199541129768099
557.0, 0.030698754737344385
558.0, 0.031005029757850702
559.0, 0.014047011245362442
560.0, 0.015489924670554645
561.0, 0.008301321290639489
562.0, 0.003822475889156189
563.0, 0.004195492800441937
564.0, 0.008881756320597968
565.0, 0.011262350840804552
566.0, 0.010368911026137061
567.0, 0.008267043664104867
568.0, 0.009098884732789508
569.0, 0.007870775182011736
570.0, 0.008130160568022814
571.0, 0.007946662236408122
572.0, 0.0043945314627809075
573.0, 0.014431642681486388
574.0, 0.014836799505080578
575.0, 0.015058649875723178
576.0, 0.024132976955122298
577.0, 0.027718156518106368
578.0, 0.022939914084004597
579.0, 0.018974414752414542
580.0, 0.021240724114388453
581.0, 0.02155202086781383
582.0, 0.023462248081808097
583.0, 0.026140664807426283
584.0, 0.029012537227415973
585.0, 0.030944692256089937
586.0, 0.03311834271690275
587.0, 0.0364478796576227
588.0, 0.040520920771782674
589.0, 0.042979552274743336
590.0, 0.04979320625337741
591.0, 0.05820066966093042
592.0, 0.06551646833146817
593.0, 0.06695876924068304
594.0, 0.08174332965361285
595.0, 0.09934864437812915
596.0, 0.12137867790134058
597.0, 0.1513118531915965
598.0, 0.17402398508103553
599.0, 0.20562588076968266
600.0, 0.24150024530066952
601.0, 0.27643764744495775
602.0, 0.2979352074455599
603.0, 0.28919782005680356
604.0, 0.268510946390496
605.0, 0.2458962261012937
606.0, 0.21522291438726265
607.0, 0.1978654218127276
608.0, 0.1794199505780857
609.0, 0.15685349411712177
610.0, 0.13847757298591842
611.0, 0.12837920326712657
612.0, 0.1202111569510381
613.0, 0.11301367123694896
614.0, 0.10749261103427266
615.0, 0.10986258925949723
616.0, 0.11007655734384392
617.0, 0.11005094601229291
618.0, 0.11357809476148534
619.0, 0.12439623505566533
620.0, 0.14096121141252105
621.0, 0.15747169936805105
622.0, 0.1697647376787811
623.0, 0.1872915182639206
624.0, 0.21879519900129515
625.0, 0.24914171534203514
626.0, 0.2773120709045379
627.0, 0.33760998213373955
628.0, 0.36765229744923505
629.0, 0.40098926628079734
630.0, 0.4369017020626823
631.0, 0.4488150166636902
632.0, 0.4353449980380572
633.0, 0.4164454371632456
634.0, 0.39039024722755483
635.0, 0.35107606050476725
636.0, 0.3409993283624428
637.0, 0.324697785793376
638.0, 0.3157950408823745
639.0, 0.32734517610850145
640.0, 0.3691181664581685
641.0, 0.4172526930978657
642.0, 0.47880526539290513
643.0, 0.5552496654493387
644.0, 0.6370151772459487
645.0, 0.6943164913838747
646.0, 0.7178722489211494
647.0, 0.7034353399094373
648.0, 0.6465567283446904
649.0, 0.5803487491275611
650.0, 0.5015467727482101
651.0, 0.4179384609349277
652.0, 0.3402610083736541
653.0, 0.288406308651924
654.0, 0.23615444787834197
655.0, 0.1951564145301884
656.0, 0.17098198220652203
657.0, 0.1416674154793709
658.0, 0.11994625879091078
659.0, 0.10023499229632729
660.0, 0.08382092775788132
661.0, 0.08216781778233104
662.0, 0.06608947057889188
663.0, 0.06143237807953919
664.0, 0.06250993853384407
665.0, 0.052936011032444386
666.0, 0.05490664222977441
667.0, 0.053402213145746905
668.0, 0.04982772429649771
669.0, 0.04601207241328606
670.0, 0.04377130182941043
671.0, 0.03242015629160272
672.0, 0.02620032121106139
673.0, 0.028277510904793857
674.0, 0.026536631065495007
675.0, 0.036078598447260635
676.0, 0.03111394002281527
677.0, 0.02173562939645414
678.0, 0.035262126434117955
679.0, 0.024238220638285655
680.0, 0.02426723671748632
681.0, 0.024579550787586432
682.0, 0.01534138764324647
683.0, 0.013836404408777083
684.0, 0.014279365438807822
685.0, 0.014377316057648127
686.0, 0.013434967568968472
687.0, 0.012654233531519803
688.0, 0.019162011405292306
689.0, 0.01802510052527226
690.0, 0.013954993577233316
691.0, 0.019428521343297787
692.0, 0.014295455065008601
693.0, 0.01311194775819211
694.0, 0.01099876276310941
695.0, 0.005344905475350228
696.0, 0.012978205819080274
697.0, 0.010575140916539879
698.0, 0.0074029787254517795
699.0, 0.005910589595795513
700.0, 0.0029768285190410575
701.0, 0.0030233987613455977
702.0, 0.0034779750906651485
703.0, 0.006616766410523986
704.0, 0.01562910187461813
705.0, 0.013751351690436097
706.0, 0.014373293869053509
707.0, 0.01098008127700425
708.0, 0.0019408481925420548
709.0, 0.0018243162058629617
710.0, 0.00849907157135239
711.0, 0.009353646964983262
712.0, 0.008273750166226206
713.0, 0.020687600802561948
714.0, 0.013797355380608401
715.0, 0.00651288117073977
716.0, 0.005724775013173101
717.0, 0.014523532750335475
718.0, 0.004702519500189673
719.0, 0.012030805306503781
720.0, 0.011889975290646367
721.0, 0.002927410534345796
722.0, 0.014007732321833714
723.0, 0.01110390750248477
724.0, 0.0060192429128739355
725.0, 0.003988597285778054
726.0, 0.009404235360691708
727.0, 0.009260042573225989
728.0, 0.012802583762275218
729.0, 0.0108305292606025
730.0, 0.001570246176086935
731.0, 0.001904739247089458
732.0, 0.008656709231136454
733.0, 0.010602677058091984
734.0, 0.011513602190202525
735.0, 0.021870106954111106
736.0, 0.0062088787927511695
737.0, 0.011073329555522685
738.0, 0.017843946055985313
739.0, 0.013230135474842246
740.0, 0.005649295874722585
741.0, 0.002771486550297555
742.0, 0.003943487549932179
743.0, 0.00735317466028786
744.0, 0.009469176779978468
745.0, 0.013219853932237381
746.0, 0.014224403659851982
747.0, 0.009871501498546834
748.0, 0.0008825181551883592
749.0, 0.00984249408631855
750.0, 0.007318134234160363
751.0, 0.0034656724227799416
752.0, 0.005048603795775868
753.0, 0.02028426463991735
754.0, 0.008104134799569982
755.0, 0.00354238414550331
756.0, 0.004549684722335624
757.0, 0.0063444865316018
758.0, 0.004762812135923392
759.0, 0.009918849295020281
760.0, 0.013502762763690324
761.0, 0.014251981961611282
762.0, 0.01633616368530545
763.0, 0.02002499011014636
764.0, 0.020352319625991103
765.0, 0.013921018553344964
766.0, 0.0012749095177392077
767.0, 0.014393876951574998
768.0, 0.015556077009118142
769.0, 0.01363489219496972
770.0, 0.0149469178699144
771.0, 0.027331151774502876
772.0, 0.0155628009530867
773.0, 0.00599323268270157
774.0, 0.010779362456894946
775.0, 0.0326326813186877
776.0, 0.01749019253424027
777.0, 0.02227108415814221
778.0, 0.023957231077606073
779.0, 0.022861761308643404
780.0, 0.03524045040141609
781.0, 0.03166487598771092
782.0, 0.028959984110153894
783.0, 0.034249784119589184
784.0, 0.04988095492756216
785.0, 0.05947608242257539
786.0, 0.0594609018934367
787.0, 0.06789548735651368
788.0, 0.0850304902493059
789.0, 0.10258455262055166
790.0, 0.08952326778365381
791.0, 0.09227800600989146
792.0, 0.0998391973688244
793.0, 0.10550845343812254
794.0, 0.11559591200163023
795.0, 0.12170860723131117
796.0, 0.1315587125842806
797.0, 0.14176702244922895
798.0, 0.14557587648534526
799.0, 0.14515488712578867
800.0, 0.1499903831055759
801.0, 0.15850080865000185
802.0, 0.1663633237462721
803.0, 0.16206408928224608
804.0, 0.17656812054907303
805.0, 0.17523976260207794
806.0, 0.16506530379193357
807.0, 0.15876125389952608
808.0, 0.16366364728182814
809.0, 0.15391802016706843
810.0, 0.1505169881822778
811.0, 0.1524231537517725
812.0, 0.14119109612311567
813.0, 0.1344013689594102
814.0, 0.13448890883700695
815.0, 0.12281233996739711
816.0, 0.09607045358846995
817.0, 0.11134825529294384
818.0, 0.10984523590538225
819.0, 0.1058502132820653
820.0, 0.09579964163339948
821.0, 0.071912097863754
822.0, 0.07046106161869797
823.0, 0.06423435854320865
824.0, 0.06524065186266291
825.0, 0.06960703035764655
826.0, 0.04909607808786287
827.0, 0.04678200635012037
828.0, 0.04213396178479283
829.0, 0.037869913114982466
830.0, 0.037202601945720136
831.0, 0.0333970949878228
832.0, 0.02482946861291019
833.0, 0.02199723773190069
834.0, 0.020811714373072353
835.0, 0.010257123172673894
836.0, 0.018574640625058446
837.0, 0.016268137791160354
838.0, 0.014672427177358111
839.0, 0.017271806847096456
840.0, 0.015180380739978768
841.0, 0.018387826861867098
842.0, 0.013530580345487682
843.0, 0.008887403139535503
844.0, 0.012466137703225194
845.0, 0.0150266712274408
846.0, 0.008455937294507578
847.0, 0.00612708070382755
848.0, 0.008822559456458233
849.0, 0.011717382091590296
850.0, 0.0026853809962464224
851.0, 0.00839763622333414
852.0, 0.01409307455444973
853.0, 0.01249474230774421
854.0, 0.004526105552205763
855.0, 0.007377549742520208
856.0, 0.006428523417750307
857.0, 0.006404860276290931
858.0, 0.01100304436360989
859.0, 0.012767820791421242
860.0, 0.010733135178474887
861.0, 0.011386017193270427
862.0, 0.011162996689605475
863.0, 0.004281072357704413
864.0, 0.0047256170889747205
865.0, 0.012187252821219173
866.0, 0.010555599808610556
867.0, 0.0020838667062567885
868.0, 0.005346375904917763
869.0, 0.015164495327336776
870.0, 0.010437016806742904
871.0, 0.008007051498624278
872.0, 0.013182112410295073
873.0, 0.003530880355101602
874.0, 0.014190171224260133
875.0, 0.013376010872574381
876.0, 0.012424756644467336
877.0, 0.02242742672356516
878.0, 0.017328793384392735
879.0, 0.006911940480129863
880.0, 0.017832765114045496
881.0, 0.029595370346171337
882.0, 0.006922776546997555
883.0, 0.005740813745012979
884.0, 0.006935371799935687
885.0, 0.014506191312779403
886.0, 0.019639525152165545
887.0, 0.0007964637234107973
888.0, 0.009694229271908338
889.0, 0.008249523545421288
890.0, 0.006571144695092349
891.0, 0.009728026238320137
892.0, 0.01284596138774831
893.0, 0.00676097847371354
894.0, 0.007631851024065989
895.0, 0.01082053333539594
896.0, 0.011903712345745155
897.0, 0.015009202452922614
898.0, 0.018637462994462915
899.0, 0.015585266296222249
900.0, 0.013238449686844397
901.0, 0.019772263760623184
902.0, 0.020555154644772745
903.0, 0.011717402162087848
904.0, 0.01650061321617582
905.0, 0.021691586412143696
906.0, 0.00020206357993277904
907.0, 0.0044487695277580334
908.0, 0.010511731118954384
909.0, 0.009879040142828172
910.0, 0.00887184421183394
911.0, 0.026547654192276636
912.0, 0.014669556426606764
913.0, 0.01804466818388959
914.0, 0.02065012668294426
915.0, 0.015949174699828143
916.0, 0.010343098530329449
917.0, 0.003059784834379898
918.0, 0.0038976799199837106
919.0, 0.004793992049728577
920.0, 0.0029250590559620412
921.0, 0.009746268201103544
922.0, 0.005674599116555745
923.0, 0.005438701759383631
924.0, 0.008168466035995293
925.0, 0.010218580831305734
926.0, 0.003928696079520599
927.0, 0.009592694923766881
928.0, 0.008051419184247075
929.0, 0.00662679051650526
930.0, 0.013107518271407393
931.0, 0.008652026519933503
932.0, 0.005196286487166249
933.0, 0.007843440842433057
934.0, 0.014907475477485622
935.0, 0.020927165643461726
936.0, 0.006593472890536672
937.0, 0.01631525899324074
938.0, 0.013454669144597744
939.0, 0.0024297918494318852
940.0, 0.0033027164328285506
941.0, 0.014660592100323302
942.0, 0.01380055560048915
943.0, 0.00719314812417842
944.0, 0.0019246218260449521
945.0, 0.0053316204105574375
946.0, 0.007318115009254272
947.0, 0.01527072999332212
948.0, 0.019929683268063946
949.0, 0.021759431991881545
950.0, 0.027765057850638895
951.0, 0.029121678226776766
952.0, 0.019318017499081064
953.0, 0.01928653777071971
954.0, 0.02759736536187613
955.0, 0.023712812505390545
956.0, 0.019244213027750715
957.0, 0.020958048764439078
958.0, 0.028227112511607796
959.0, 0.03628194764324208
960.0, 0.03592428228563853
961.0, 0.03381448944733427
962.0, 0.05611380013413476
963.0, 0.06933827691847702
964.0, 0.0673572004727993
965.0, 0.0752283066189167
966.0, 0.06454854927065258
967.0, 0.06354837221999535
968.0, 0.05901660032727886
969.0, 0.04607570730730078
970.0, 0.030428484900210787
971.0, 0.05116836153586275
972.0, 0.05064364749588685
973.0, 0.041199169184206734
974.0, 0.036957314936620744
975.0, 0.053085306893638703
976.0, 0.04900341168947435
977.0, 0.04581979384154067
978.0, 0.052197288584022804
979.0, 0.0636740093557648
980.0, 0.059791139696412074
981.0, 0.06749366024850108
982.0, 0.07495937788326594
983.0, 0.07080947597384524
984.0, 0.06772394281145352
985.0, 0.10684457938959481
986.0, 0.09758556989086249
987.0, 0.10833340032016871
988.0, 0.12743078109144665
989.0, 0.14178094252812845
990.0, 0.1378973922702697
991.0, 0.17287649281779838
992.0, 0.1950834850466946
993.0, 0.21510095310187496
994.0, 0.24429834068447137
995.0, 0.29356501637847904
996.0, 0.29086250676505315
997.0, 0.32016792445347153
998.0, 0.3566138344288133
999.0, 0.3927565647120771
1000.0, 0.4355431140365843
1001.0, 0.5013512347870167
1002.0, 0.5587841111727042
1003.0, 0.6170805054596286
1004.0, 0.6792066900946813
1005.0, 0.7433292159347358
1006.0, 0.7955789693340174
1007.0, 0.8557071844121026
1008.0, 0.9133689970767318
1009.0, 0.951251429064932
1010.0, 0.9545122535741634
1011.0, 0.9742831462950884
1012.0, 0.9391254912234055
1013.0, 0.8971524178616826
1014.0, 0.8514976469890174
1015.0, 0.7897948185514897
1016.0, 0.7107426901821674
1017.0, 0.6437182957238758
1018.0, 0.5871153015918347
1019.0, 0.5308918019016774
1020.0, 0.4692091581455446
1021.0, 0.4303986317607421
1022.0, 0.3936164082193226
1023.0, 0.3608948706623947
1024.0, 0.3372524627170941
1025.0, 0.3236434318245208
1026.0, 0.30733236844172057
1027.0, 0.30240243165916625
1028.0, 0.31182269991863676
1029.0, 0.31843011058789356
1030.0, 0.3183211918851472
1031.0, 0.3417370295475519
1032.0, 0.3573080367642064
1033.0, 0.38213200509335093
1034.0, 0.4058884128333431
1035.0, 0.42876596971583797
1036.0, 0.4676361549297021
1037.0, 0.5035435916008891
1038.0, 0.5479290331513893
1039.0, 0.5814939233270069
1040.0, 0.6184689481664809
1041.0, 0.6974323297607727
1042.0, 0.7143779453822307
1043.0, 0.7572899159143307
1044.0, 0.7900789626107755
1045.0, 0.8041347617368388
1046.0, 0.8082923236632894
1047.0, 0.8294204453265782
1048.0, 0.8195472051936119
1049.0, 0.806331757546304
1050.0, 0.8006432600649263
1051.0, 0.8042119829176677
1052.0, 0.8015655463583506
1053.0, 0.8105833661336291
1054.0, 0.8303618653381615
1055.0, 0.8575559665485509
1056.0, 0.8928772222861874
1057.0, 0.9491336624651704
1058.0, 0.9361228288806762
1059.0, 0.9707223305297927
1060.0, 0.9854688382939725
1061.0, 0.9448807881307023
1062.0, 0.8725074649293806
1063.0, 0.8042914617108815
1064.0, 0.709536523236818
1065.0, 0.6251815467954341
1066.0, 0.5448878351365505
1067.0, 0.439185649602042
1068.0, 0.37865289830416404
1069.0, 0.3344074554315725
1070.0, 0.2970898073687833
1071.0, 0.2602693108605026
1072.0, 0.22273050158432803
1073.0, 0.2037569213894202
1074.0, 0.17853883553766525
1075.0, 0.167933124563217
1076.0, 0.1639600351203979
1077.0, 0.15363730202944148
1078.0, 0.12407264358444323
1079.0, 0.12604479585763648
1080.0, 0.10799100304293204
1081.0, 0.097679044618923
1082.0, 0.10268785115269655
1083.0, 0.10550563790076632
1084.0, 0.09557466891692093
1085.0, 0.09431533944136225
1086.0, 0.09352514046026658
1087.0, 0.0932560054621728
1088.0, 0.09553154708009537
1089.0, 0.08927201924978727
1090.0, 0.07829849424805327
1091.0, 0.0778388677323658
1092.0, 0.07853555243536472
1093.0, 0.0753906112748862
1094.0, 0.0866017780133025
1095.0, 0.07943648360341163
1096.0, 0.08048122393465836
1097.0, 0.08943248928631058
1098.0, 0.10261106886515219
1099.0, 0.11461064569102981
1100.0, 0.11853316089809067
1101.0, 0.1340381561669063
1102.0, 0.14473471333532328
1103.0, 0.15383152447769838
1104.0, 0.17328177349294377
1105.0, 0.2143635237636049
1106.0, 0.2292584652636639
1107.0, 0.22984417039858668
1108.0, 0.23576639359346535
1109.0, 0.24927614144543755
1110.0, 0.23762913547707276
1111.0, 0.25363298170921633
1112.0, 0.26972171825436236
1113.0, 0.25848679659404056
1114.0, 0.2361731799163516
1115.0, 0.24339108294285552
1116.0, 0.23114595123486154
1117.0, 0.23110839403646696
1118.0, 0.2343949184496294
1119.0, 0.22251620110122414
1120.0, 0.1935659754655804
1121.0, 0.20055290532293163
1122.0, 0.192261319592668
1123.0, 0.1666767751624368
1124.0, 0.15650096999890103
1125.0, 0.1581621008332365
1126.0, 0.13171491812874583
1127.0, 0.13691564771091588
1128.0, 0.13277728951456583
1129.0, 0.12513051146608142
1130.0, 0.11472643750985036
1131.0, 0.10041484194552414
1132.0, 0.08096482504520777
1133.0, 0.07535425169373967
1134.0, 0.08478121858902946
1135.0, 0.07539806532595748
1136.0, 0.05600834148651872
1137.0, 0.087105253995416
1138.0, 0.05621732311486977
1139.0, 0.05875482058601043
1140.0, 0.05465368294927871
1141.0, 0.03914192508376935
1142.0, 0.026403085508952866
1143.0, 0.04065528244995117
1144.0, 0.02676902823360368
1145.0, 0.03249234967268967
1146.0, 0.037984836641799
1147.0, 0.030703137877533825
1148.0, 0.019051018881200164
1149.0, 0.026097353421676205
1150.0, 0.034615402300135927
1151.0, 0.03425113003451735
1152.0, 0.027224251191140483
1153.0, 0.020887656075545945
1154.0, 0.02072095919738197
1155.0, 0.014402013686708084
1156.0, 0.006328297905133862
1157.0, 0.013329488626243514
1158.0, 0.024210237916690247
1159.0, 0.003743326428343234
1160.0, 0.03694883164147588
1161.0, 0.01576548615845312
1162.0, 0.012819070850124972
1163.0, 0.022112258534084273
1164.0, 0.023166852204300682
1165.0, 0.03270165957130538
1166.0, 0.017442045351212403
1167.0, 0.013038465188427151
1168.0, 0.011066517206425406
1169.0, 0.012445633373736442
1170.0, 0.022957854922586327
1171.0, 0.004566562799729298
1172.0, 0.006362122439692487
1173.0, 0.017058521735777585
1174.0, 0.02057584434653724
1175.0, 0.013276938386634178
1176.0, 0.015890869533142626
1177.0, 0.024892905416874497
1178.0, 0.013059055653851213
1179.0, 0.019125160127984247
1180.0, 0.030106588822435408
1181.0, 0.01837983058081161
1182.0, 0.017127306659187498
1183.0, 0.03313305151949718
1184.0, 0.026364802215574704
1185.0, 0.02330391302882512
1186.0, 0.03578959370483068
1187.0, 0.04841742072224464
1188.0, 0.021143781858716577
1189.0, 0.03739302328689574
1190.0, 0.03415310480196199
1191.0, 0.027893585523942242
1192.0, 0.04076682434621899
1193.0, 0.05648890611087765
1194.0, 0.038629079012441024
1195.0, 0.03939836456406595
1196.0, 0.047609524691968816
1197.0, 0.044198417571343754
1198.0, 0.024111987523182363
1199.0, 0.053594408998922316
1200.0, 0.03396363538159728
1201.0, 0.04849196093764068
1202.0, 0.05435998254342868
1203.0, 0.035521557175810986
1204.0, 0.019365967705200843
1205.0, 0.04381925097537171
1206.0, 0.03315809973360689
1207.0, 0.01842698526735759
1208.0, 0.025296217684989387
1209.0, 0.04552528864541559
1210.0, 0.021640757453829918
1211.0, 0.027514377089548434
1212.0, 0.03875578836411466
1213.0, 0.02296211174429771
1214.0, 0.006782386743818298
1215.0, 0.021200529011360148
1216.0, 0.03877014299987303
1217.0, 0.010678720382305865
1218.0, 0.02647661954045513
1219.0, 0.026405745714408315
1220.0, 0.009975701167559515
1221.0, 0.013850205184489706
1222.0, 0.03481531086237109
1223.0, 0.020078806090951966
1224.0, 0.013828271679324962
1225.0, 0.016511631956474364
1226.0, 0.016182144696253245
1227.0, 6.306566820428516e-05
1228.0, 6.907459651940991e-06
1229, 0.0
1230, 0.0
1231, 0.0
1232, 0.0
1233, 0.0
1234, 0.0
1235, 0.0
1236, 0.0
1237, 0.0
1238, 0.0
1239, 0.0
1240, 0.0
1241, 0.0
1242, 0.0
1243, 0.0
1244, 0.0
1245, 0.0
1246, 0.0
1247, 0.0
1248, 0.0
1249, 0.0
1250, 0.0
1251, 0.0
1252, 0.0
1253, 0.0
1254, 0.0
1255, 0.0
1256, 0.0
1257, 0.0
1258, 0.0
1259, 0.0
1260, 0.0
1261, 0.0
1262, 0.0
1263, 0.0
1264, 0.0
1265, 0.0
1266, 0.0
1267, 0.0
1268, 0.0
1269, 0.0
1270, 0.0
1271, 0.0
1272, 0.0
1273, 0.0
1274, 0.0
1275, 0.0
1276, 0.0
1277, 0.0
1278, 0.0
1279, 0.0
1280, 0.0
1281, 0.0
1282, 0.0
1283, 0.0
1284, 0.0
1285, 0.0
1286, 0.0
1287, 0.0
1288, 0.0
1289, 0.0
1290, 0.0
1291, 0.0
1292, 0.0
1293, 0.0
1294, 0.0
1295, 0.0
1296, 0.0
1297, 0.0
1298, 0.0
1299, 0.0
1300, 0.0
1301, 0.0
1302, 0.0
1303, 0.0
1304, 0.0
1305, 0.0
1306, 0.0
1307, 0.0
1308, 0.0
1309, 0.0
1310, 0.0
1311, 0.0
1312, 0.0
1313, 0.0
1314, 0.0
1315, 0.0
1316, 0.0
1317, 0.0
1318, 0.0
1319, 0.0
1320, 0.0
1321, 0.0
1322, 0.0
1323, 0.0
1324, 0.0
1325, 0.0
1326, 0.0
1327, 0.0
1328, 0.0
1329, 0.0
1330, 0.0
1331, 0.0
1332, 0.0
1333, 0.0
1334, 0.0
1335, 0.0
1336, 0.0
1337, 0.0
1338, 0.0
1339, 0.0
1340, 0.0
1341, 0.0
1342, 0.0
1343, 0.0
1344, 0.0
1345, 0.0
1346, 0.0
1347, 0.0
1348, 0.0
1349, 0.0
1350, 0.0
1351, 0.0
1352, 0.0
1353, 0.0
1354, 0.0
1355, 0.0
1356, 0.0
1357, 0.0
1358, 0.0
1359, 0.0
1360, 0.0
1361, 0.0
1362, 0.0
1363, 0.0
1364, 0.0
1365, 0.0
1366, 0.0
1367, 0.0
1368, 0.0
1369, 0.0
1370, 0.0
1371, 0.0
1372, 0.0
1373, 0.0
1374, 0.0
1375, 0.0
1376, 0.0
1377, 0.0
1378, 0.0
1379, 0.0
1380, 0.0
1381, 0.0
1382, 0.0
1383, 0.0
1384, 0.0
1385, 0.0
1386, 0.0
1387, 0.0
1388, 0.0
1389, 0.0
1390, 0.0
1391, 0.0
1392, 0.0
1393, 0.0
1394, 0.0
1395, 0.0
1396, 0.0
1397, 0.0
1398, 0.0
1399, 0.0
1400, 0.0
1401, 0.0
1402, 0.0
1403, 0.0
1404, 0.0
1405, 0.0
1406, 0.0
1407, 0.0
1408, 0.0
1409, 0.0
1410, 0.0
1411, 0.0
1412, 0.0
1413, 0.0
1414, 0.0
1415, 0.0
1416, 0.0
1417, 0.0
1418, 0.0
1419, 0.0
1420, 0.0
1421, 0.0
1422, 0.0
1423, 0.0
1424, 0.0
1425, 0.0
1426, 0.0
1427, 0.0
1428, 0.0
1429, 0.0
1430, 0.0
1431, 0.0
1432, 0.0
1433, 0.0
1434, 0.0
1435, 0.0
1436, 0.0
1437, 0.0
1438, 0.0
1439, 0.0
1440, 0.0
1441, 0.0
1442, 0.0
1443, 0.0
1444, 0.0
1445, 0.0
1446, 0.0
1447, 0.0
1448, 0.0
1449, 0.0
1450, 0.0
1451, 0.0
1452, 0.0
1453, 0.0
1454, 0.0
1455, 0.0
1456, 0.0
1457, 0.0
1458, 0.0
1459, 0.0
1460, 0.0
1461, 0.0
1462, 0.0
1463, 0.0
1464, 0.0
1465, 0.0
1466, 0.0
1467, 0.0
1468, 0.0
1469, 0.0
1470, 0.0
1471, 0.0
1472, 0.0
1473, 0.0
1474, 0.0
1475, 0.0
1476, 0.0
1477, 0.0
1478, 0.0
1479, 0.0
1480, 0.0
1481, 0.0
1482, 0.0
1483, 0.0
1484, 0.0
1485, 0.0
1486, 0.0
1487, 0.0
1488, 0.0
1489, 0.0
1490, 0.0
1491, 0.0
1492, 0.0
1493, 0.0
1494, 0.0
1495, 0.0
1496, 0.0
1497, 0.0
1498, 0.0
1499, 0.0
1500, 0.0
1501, 0.0
1502, 0.0
1503, 0.0
1504, 0.0
1505, 0.0
1506, 0.0
1507, 0.0
1508, 0.0
1509, 0.0
1510, 0.0
1511, 0.0
1512, 0.0
1513, 0.0
1514, 0.0
1515, 0.0
1516, 0.0
1517, 0.0
1518, 0.0
1519, 0.0
1520, 0.0
1521, 0.0
1522, 0.0
1523, 0.0
1524, 0.0
1525, 0.0
1526, 0.0
1527, 0.0
1528, 0.0
1529, 0.0
1530, 0.0
1531, 0.0
1532, 0.0
1533, 0.0
1534, 0.0
1535, 0.0
1536, 0.0
1537, 0.0
1538, 0.0
1539, 0.0
1540, 0.0
1541, 0.0
1542, 0.0
1543, 0.0
1544, 0.0
1545, 0.0
1546, 0.0
1547, 0.0
1548, 0.0
1549, 0.0
1550, 0.0
1551, 0.0
1552, 0.0
1553, 0.0
1554, 0.0
1555, 0.0
1556, 0.0
1557, 0.0
1558, 0.0
1559, 0.0
1560, 0.0
1561, 0.0
1562, 0.0
1563, 0.0
1564, 0.0
1565, 0.0
1566, 0.0
1567, 0.0
1568, 0.0
1569, 0.0
1570, 0.0
1571, 0.0
1572, 0.0
1573, 0.0
1574, 0.0
1575, 0.0
1576, 0.0
1577, 0.0
1578, 0.0
1579, 0.0
1580, 0.0
1581, 0.0
1582, 0.0
1583, 0.0
1584, 0.0
1585, 0.0
1586, 0.0
1587, 0.0
1588, 0.0
1589, 0.0
1590, 0.0
1591, 0.0
1592, 0.0
1593, 0.0
1594, 0.0
1595, 0.0
1596, 0.0
1597, 0.0
1598, 0.0
1599, 0.0
