30, 0.0
31, 0.0
32, 0.0
33, 0.0
34, 0.0
35, 0.0
36, 0.0
37, 0.0
38, 0.0
39, 0.0
40, 0.0
41, 0.0
42, 0.0
43, 0.0
44, 0.0
45, 0.0
46, 0.0
47, 0.0
48, 0.0
49, 0.0
50, 0.0
51, 0.0
52, 0.0
53, 0.0
54, 0.0
55, 0.0
56, 0.0
57, 0.0
58, 0.0
59, 0.0
60, 0.0
61, 0.0
62, 0.0
63, 0.0
64, 0.0
65, 0.0
66, 0.0
67, 0.0
68, 0.0
69, 0.0
70, 0.0
71, 0.0
72, 0.0
73, 0.0
74, 0.0
75, 0.0
76, 0.0
77, 0.0
78, 0.0
79, 0.0
80, 0.0
81, 0.0
82, 0.0
83, 0.0
84, 0.0
85, 0.0
86, 0.0
87, 0.0
88, 0.0
89, 0.0
90, 0.0
91, 0.0
92, 0.0
93, 0.0
94, 0.0
95, 0.0
96, 0.0
97, 0.0
98, 0.0
99, 0.0
100, 0.0
101, 0.0
102, 0.0
103, 0.0
104, 0.0
105, 0.0
106, 0.0
107, 0.0
108, 0.0
109, 0.0
110, 0.0
111, 0.0
112.0, 7.462712959850854e-05
113.0, 0.0011720849178119038
114.0, 0.002828865666309091
115.0, 0.00449229516993232
116.0, 0.00544669679332999
117.0, 0.006259409371799506
118.0, 0.005731987344247502
119.0, 0.004416467626518526
120.0, 0.00995234299577771
121.0, 0.01962618025860456
122.0, 0.03024313021045978
123.0, 0.03863960059837885
124.0, 0.05207561938739108
125.0, 0.06861677686900593
126.0, 0.08820519812702378
127.0, 0.1122929111162683
128.0, 0.14014225509651806
129.0, 0.16719765821455196
130.0, 0.18934153431453735
131.0, 0.20477573441760694
132.0, 0.2163602747696794
133.0, 0.22146355572855314
134.0, 0.20431976756120307
135.0, 0.18135666943281484
136.0, 0.15759010332414924
137.0, 0.13604026093527774
138.0, 0.1137500152051679
139.0, 0.09038990031111856
140.0, 0.06741833104717429
141.0, 0.05012226999661338
142.0, 0.03815439823287619
143.0, 0.02957205443684157
144.0, 0.023960602866367555
145.0, 0.01599038680299442
146.0, 0.013114633688897424
147.0, 0.012076319119064333
148.0, 0.005604255627001785
149.0, 0.005744684876547996
150.0, 0.005429464652251708
151.0, 0.00287406801887962
152.0, 0.0053074436821108715
153.0, 0.0045752336960684144
154.0, 0.0033234585183572352
155.0, 0.005367450142282406
156.0, 0.00460307849756432
157.0, 0.005971465592933314
158.0, 0.009557134500318023
159.0, 0.008199511373212086
160.0, 0.010508264358944018
161.0, 0.014413906062017751
162.0, 0.018439899471494492
163.0, 0.022235024339462495
164.0, 0.02448370924443455
165.0, 0.025246515222489826
166.0, 0.025026112079562592
167.0, 0.026193921662376118
168.0, 0.027610008744986345
169.0, 0.028721223211485472
170.0, 0.02907638089377525
171.0, 0.027914796829350726
172.0, 0.02608195821030778
173.0, 0.025475076452785073
174.0, 0.024784047780657792
175.0, 0.02324452554603723
176.0, 0.020850497774009775
177.0, 0.021937572886481623
178.0, 0.02061550523538802
179.0, 0.019009255765639374
180.0, 0.01971660203484271
181.0, 0.01914735425402122
182.0, 0.01853031124125219
183.0, 0.018021575622996503
184.0, 0.01761007846963987
185.0, 0.01967574632656775
186.0, 0.02006659940455919
187.0, 0.01590938982915741
188.0, 0.01816362497481015
189.0, 0.018579867799578837
190.0, 0.01762699160894291
191.0, 0.01677842551505114
192.0, 0.014546590581013083
193.0, 0.014184444510670592
194.0, 0.016144015485551225
195.0, 0.010511974416222078
196.0, 0.010207672972179
197.0, 0.011490849379317356
198.0, 0.010334709758264685
199.0, 0.009922197776746607
200.0, 0.010638738634315534
201.0, 0.011721885587460242
202.0, 0.009339823104413471
203.0, 0.004771803787978091
204.0, 0.0018888870937480936
205.0, 0.0028306070069373354
206.0, 0.0028815489647489733
207.0, 0.00228172753707439
208.0, 0.001673788526063415
209.0, 0.002309996617529973
210.0, 0.0011407781357083255
211.0, 0.0010461692795368555
212.0, 0.0023406135658437413
213.0, 0.0026154356968781343
214.0, 0.0022474140441160737
215.0, 0.0022182581718597316
216.0, 0.003339714872882031
217.0, 0.003728593723750087
218.0, 0.0034442800281433406
219.0, 0.0027580866212297416
220.0, 0.002315219070808424
221.0, 0.0010015706710630042
222.0, 0.00027540584758872837
223.0, 0.0006416505852861747
224.0, 0.0028120682426013973
225.0, 0.003581017833011252
226.0, 0.003284831661881143
227.0, 0.002028332691565506
228.0, 0.0021739051150763463
229.0, 0.0015320958205721964
230.0, 0.0004925536942074337
231.0, 0.0008248201817252999
232.0, 0.003001428341978793
233.0, 0.0037173035304332303
234.0, 0.002072455466748953
235.0, 0.00393446834405066
236.0, 0.0038684702557511908
237.0, 0.0028308251038404665
238.0, 0.0016821814139491088
239.0, 0.0009016819920661747
240.0, 0.002055483343267072
241.0, 0.0042635571934691715
242.0, 0.004096032335866375
243.0, 0.0019198655036673819
244.0, 0.00215951394700667
245.0, 0.005929307489190868
246.0, 0.002377851804371162
247.0, 0.003418518003247682
248.0, 0.005336954871669594
249.0, 0.004271867375238905
250.0, 0.0014577997035784278
251.0, 0.0013900047127703963
252.0, 0.003162534741196907
253.0, 0.002945735088387288
254.0, 0.0017434809238869402
255.0, 0.0013566425633532383
256.0, 0.002191394529360701
257.0, 0.0014398894683454546
258.0, 0.000740983883760974
259.0, 0.0015703079557340951
260.0, 0.005554153100152272
261.0, 0.004671640596782781
262.0, 0.005842525080276264
263.0, 0.008614539370547368
264.0, 0.011131535651007619
265.0, 0.013557860304804754
266.0, 0.017243393834787676
267.0, 0.021665552759535186
268.0, 0.019379909940883098
269.0, 0.022681664780168937
270.0, 0.02771180212173907
271.0, 0.03205686553371744
272.0, 0.03142619010224625
273.0, 0.03416993848302277
274.0, 0.03885144825067164
275.0, 0.04293384842746566
276.0, 0.045382443202265414
277.0, 0.0480621256668374
278.0, 0.05080575250402077
279.0, 0.05128857887183611
280.0, 0.05609630307332002
281.0, 0.06131233578235025
282.0, 0.0653638892506673
283.0, 0.07171721040396034
284.0, 0.0787929392721135
285.0, 0.08831910269844365
286.0, 0.10266358756622058
287.0, 0.11750296318472944
288.0, 0.13631017174694018
289.0, 0.16094933367101474
290.0, 0.19685559863878493
291.0, 0.23988048117061067
292.0, 0.2921841600962144
293.0, 0.3547876316395331
294.0, 0.4295492862071784
295.0, 0.5155585032066573
296.0, 0.602453401834917
297.0, 0.6839445160248114
298.0, 0.7398405952982612
299.0, 0.7683958901364618
300.0, 0.7735561378221814
301.0, 0.7575525918402893
302.0, 0.7099079577482564
303.0, 0.6574910960071191
304.0, 0.6051082115196296
305.0, 0.5592341235736021
306.0, 0.5205774291938976
307.0, 0.48811181368433904
308.0, 0.4619345165477222
309.0, 0.44348604673768843
310.0, 0.4213310611819107
311.0, 0.39290374651572874
312.0, 0.3560867162173043
313.0, 0.327205716876956
314.0, 0.2969496912628757
315.0, 0.2678042140120716
316.0, 0.24345371612670363
317.0, 0.22523223407277643
318.0, 0.2121537436240466
319.0, 0.20273684351866483
320.0, 0.19332342142049846
321.0, 0.18857978511959456
322.0, 0.18324573921132506
323.0, 0.17567528237010255
324.0, 0.16384247041156685
325.0, 0.15421158751027372
326.0, 0.14530548971137597
327.0, 0.1364142627001447
328.0, 0.12803776469327965
329.0, 0.11732474837780732
330.0, 0.10680302118431764
331.0, 0.09921793506938434
332.0, 0.09137397140755862
333.0, 0.0862135840059153
334.0, 0.08276947830086656
335.0, 0.07891300936671192
336.0, 0.07012686726245991
337.0, 0.0650764060023732
338.0, 0.06307953238486243
339.0, 0.05545580363467214
340.0, 0.053625479926029576
341.0, 0.052746613128209587
342.0, 0.05115132848471797
343.0, 0.04833036228168182
344.0, 0.046480231343825104
345.0, 0.04528817610404675
346.0, 0.044606336698229596
347.0, 0.044449259783462224
348.0, 0.043584818435110355
349.0, 0.042029018654413906
350.0, 0.03972484739007767
351.0, 0.04249730133470343
352.0, 0.042543625213434216
353.0, 0.040443268558642054
354.0, 0.03813637740378857
355.0, 0.0400785890756355
356.0, 0.04161423472141899
357.0, 0.04253139014370392
358.0, 0.04478433383579941
359.0, 0.04331699802437263
360.0, 0.04336158523372972
361.0, 0.04633155307089993
362.0, 0.05073765280360521
363.0, 0.04726124970907854
364.0, 0.04569559205850824
365.0, 0.05074211582977471
366.0, 0.05193638309208772
367.0, 0.0542033976115584
368.0, 0.0564122370791449
369.0, 0.05757665639129866
370.0, 0.05926782378452541
371.0, 0.06045393192854054
372.0, 0.061642545666818545
373.0, 0.06359791668121134
374.0, 0.06415873152038995
375.0, 0.06465962891354378
376.0, 0.06517850948461826
377.0, 0.06564150128196598
378.0, 0.06483531916991124
379.0, 0.06401395112576835
380.0, 0.06310609615534496
381.0, 0.06104227416514534
382.0, 0.05935852426155082
383.0, 0.05741076603240192
384.0, 0.05548052658592567
385.0, 0.05654723584664824
386.0, 0.05409851382456158
387.0, 0.05178539616002995
388.0, 0.051348044639896506
389.0, 0.054030232665412806
390.0, 0.0521117605262802
391.0, 0.04935834290127981
392.0, 0.04811157534127538
393.0, 0.04307393596793931
394.0, 0.04297133378525345
395.0, 0.043394526712537164
396.0, 0.03999218266490094
397.0, 0.03854170170573995
398.0, 0.03841228810528551
399.0, 0.03875178991527309
400.0, 0.038375422987761525
401.0, 0.034768506768010576
402.0, 0.03296178007324986
403.0, 0.032503362578003424
404.0, 0.031803405466489375
405.0, 0.029173571388414105
406.0, 0.028376107720159575
407.0, 0.029167035605494857
408.0, 0.02948654406048422
409.0, 0.02706325113675581
410.0, 0.027810635813294106
411.0, 0.03033291601905254
412.0, 0.023940974141706553
413.0, 0.02066532041641636
414.0, 0.021664462532383882
415.0, 0.025804591681773365
416.0, 0.023996150768377782
417.0, 0.02174253906165837
418.0, 0.022923114762190538
419.0, 0.02856595086648573
420.0, 0.03322120005468624
421.0, 0.04130569443899999
422.0, 0.05176392928275778
423.0, 0.06358667821828946
424.0, 0.06881307358937273
425.0, 0.07365600234050461
426.0, 0.07539898082393136
427.0, 0.0721299515951778
428.0, 0.06545812968953282
429.0, 0.05635307151670796
430.0, 0.0470974808833293
431.0, 0.03961777326587753
432.0, 0.033753100952325116
433.0, 0.02824789762303543
434.0, 0.023535122630298326
435.0, 0.020107870103148812
436.0, 0.018537256496738604
437.0, 0.017350691566970947
438.0, 0.016521143325518073
439.0, 0.01607193851829695
440.0, 0.014064109467492739
441.0, 0.01399363265419038
442.0, 0.013821604781112485
443.0, 0.010114499957275596
444.0, 0.010723075168678054
445.0, 0.009685008410656903
446.0, 0.008097765896215359
447.0, 0.008728049670413003
448.0, 0.009855665436823511
449.0, 0.011027652662090432
450.0, 0.011707380924923448
451.0, 0.010821202768808139
452.0, 0.010215093814739047
453.0, 0.008942117503847347
454.0, 0.007548679137908017
455.0, 0.007630913732553839
456.0, 0.0057886888827253825
457.0, 0.006669208256109055
458.0, 0.009611567034038941
459.0, 0.011048757164846167
460.0, 0.007744439201659493
461.0, 0.006943547244789898
462.0, 0.008438761214321838
463.0, 0.0079706766491973
464.0, 0.007969846513775495
465.0, 0.008758095002031091
466.0, 0.009993119866554899
467.0, 0.01037465340856928
468.0, 0.010692155620684048
469.0, 0.012001865451593631
470.0, 0.013953260803618067
471.0, 0.014567199501756565
472.0, 0.01633207966727163
473.0, 0.016636328740772487
474.0, 0.015485928513126388
475.0, 0.015007776238955278
476.0, 0.01452852046169578
477.0, 0.017364127184821332
478.0, 0.02248030662881664
479.0, 0.023088819877318666
480.0, 0.024382400294720438
481.0, 0.025669341508869008
482.0, 0.026820915647059143
483.0, 0.02797248256625998
484.0, 0.029580254105280514
485.0, 0.03145382007838084
486.0, 0.03417737002917553
487.0, 0.04015466497482968
488.0, 0.04070710580104359
489.0, 0.041878360452679564
490.0, 0.044949984622591053
491.0, 0.04937171376589862
492.0, 0.047581365893859584
493.0, 0.04756314494400195
494.0, 0.050495207374941106
495.0, 0.05409842165079927
496.0, 0.05144069076815448
497.0, 0.0516300438868071
498.0, 0.05412574802389926
499.0, 0.05062601097894673
500.0, 0.052036309523475884
501.0, 0.04895317155602336
502.0, 0.04236196895228731
503.0, 0.04104387654065509
504.0, 0.038541784416731464
505.0, 0.03688124693885807
506.0, 0.03520261571672956
507.0, 0.030056239393946534
508.0, 0.027303026974232453
509.0, 0.025636866176131052
510.0, 0.024407333533990584
511.0, 0.02253731806310352
512.0, 0.020421606059892704
513.0, 0.018121349545876988
514.0, 0.015829685113736416
515.0, 0.013956345486719108
516.0, 0.011585889223605256
517.0, 0.011066251246441531
518.0, 0.011031900080253074
519.0, 0.008333437115857855
520.0, 0.0066478530669913695
521.0, 0.00668203993460853
522.0, 0.00811430605473313
523.0, 0.01034601633400055
524.0, 0.004809845908070591
525.0, 0.0027157273415590786
526.0, 0.004548827207119455
527.0, 0.010067780854587656
528.0, 0.005794116340998989
529.0, 0.004687603999084056
530.0, 0.004513141628135153
531.0, 0.002088425303056478
532.0, 0.0064552835772027466
533.0, 0.005235861413693025
534.0, 0.0034029952239432323
535.0, 0.005780370916474284
536.0, 0.0014231824462748062
537.0, 0.0010519661427198207
538.0, 0.0015388583641633058
539.0, 0.0006742767436682374
540.0, 0.00462549036649918
541.0, 0.004604518731923851
542.0, 0.0034394185774539914
543.0, 0.002992014073813665
544.0, 0.00405667204771482
545.0, 0.00418414385618016
546.0, 0.003972372401866318
547.0, 0.0036408783558414854
548.0, 0.002619710821063075
549.0, 0.003675512540000634
550.0, 0.0040761442329453725
551.0, 0.0028952944493499493
552.0, 0.0007796499256149294
553.0, 0.0015437052231243725
554.0, 0.001674909260813039
555.0, 0.0008763824786366175
556.0, 0.0017392493331391634
557.0, 0.0035320727374188324
558.0, 0.00312196242870751
559.0, 0.002100821393582774
560.0, 0.00637139007203801
561.0, 0.003223464958570609
562.0, 0.0016276959058709418
563.0, 0.002139740559468956
564.0, 0.0035418826285944717
565.0, 0.0011814430408253057
566.0, 0.0001999681561269886
567.0, 0.0007337157095783545
568.0, 0.002428637851865478
569.0, 0.003569049832798282
570.0, 0.0056179856313330785
571.0, 0.0056106506131823304
572.0, 0.0009100045847330648
573.0, 0.0061655938808652605
574.0, 0.00600529850386092
575.0, 0.005344008655981287
576.0, 0.007455048456535145
577.0, 0.008851950565105186
578.0, 0.008678730287608113
579.0, 0.008416081116550332
580.0, 0.008612216638595276
581.0, 0.008078732072552632
582.0, 0.00789993367448891
583.0, 0.008396304935180596
584.0, 0.009657671495707745
585.0, 0.011615461325348235
586.0, 0.011686048736077826
587.0, 0.012468057886917239
588.0, 0.013868919259126516
589.0, 0.014300635030140677
590.0, 0.017605053053480715
591.0, 0.01973818113328465
592.0, 0.020802703218763506
593.0, 0.021731468493516738
594.0, 0.026300608536204504
595.0, 0.0370985045306202
596.0, 0.04826982827957577
597.0, 0.053654910479362904
598.0, 0.06500842555945302
599.0, 0.07637518015626131
600.0, 0.08514250135101101
601.0, 0.08967818051767444
602.0, 0.09195288858364604
603.0, 0.08465030647752603
604.0, 0.0741528150148324
605.0, 0.06385366935188679
606.0, 0.05664857550934198
607.0, 0.05036447083328861
608.0, 0.04426882028903584
609.0, 0.03918248274902151
610.0, 0.038069401109469825
611.0, 0.03616390555706529
612.0, 0.0329029400035567
613.0, 0.02962477355793397
614.0, 0.028778393432664282
615.0, 0.03139195520382823
616.0, 0.03307854732681052
617.0, 0.033338435515223586
618.0, 0.03207222494158738
619.0, 0.03568841588374139
620.0, 0.042664195828907236
621.0, 0.04759230607146009
622.0, 0.04848112220641766
623.0, 0.057903191664966956
624.0, 0.06732379347751948
625.0, 0.0759525525608674
626.0, 0.08403995516682662
627.0, 0.09374387891197013
628.0, 0.10393094143798517
629.0, 0.11205040482525284
630.0, 0.11862314155814611
631.0, 0.12583092739962487
632.0, 0.13199964356963345
633.0, 0.1361822922815296
634.0, 0.13709360676919774
635.0, 0.13370541592426707
636.0, 0.15231807596525915
637.0, 0.17465021944136552
638.0, 0.20649549040798554
639.0, 0.25261740618041967
640.0, 0.3210099473622361
641.0, 0.40360839178125096
642.0, 0.4878864586048216
643.0, 0.5689754091678725
644.0, 0.6466027657076153
645.0, 0.6782455607229407
646.0, 0.6622591797409729
647.0, 0.6084305108895409
648.0, 0.5370959440310448
649.0, 0.4433158496535848
650.0, 0.3581546711948689
651.0, 0.28476990598522417
652.0, 0.2245468869083196
653.0, 0.18799870740610863
654.0, 0.15104347503838966
655.0, 0.12211105667090855
656.0, 0.10460869249769052
657.0, 0.08980096088816918
658.0, 0.08022536463289467
659.0, 0.07096496464788223
660.0, 0.06171285705135637
661.0, 0.05553938680640343
662.0, 0.04859707889241352
663.0, 0.043776468803903505
664.0, 0.039553631327649226
665.0, 0.03337787354802529
666.0, 0.03110126229346683
667.0, 0.030190118286087735
668.0, 0.0283267111321573
669.0, 0.024591441018634225
670.0, 0.02566665428422341
671.0, 0.020774809444873595
672.0, 0.017865488957776742
673.0, 0.017762757269777035
674.0, 0.013807396984831948
675.0, 0.014813423740235889
676.0, 0.015458185649458087
677.0, 0.014844592660987163
678.0, 0.012830076304473087
679.0, 0.011647628992651423
680.0, 0.010287813032213275
681.0, 0.009018316032372457
682.0, 0.008285341765290458
683.0, 0.010255153594891942
684.0, 0.007546434270457398
685.0, 0.006307162726631267
686.0, 0.007281337848460643
687.0, 0.005538045704636847
688.0, 0.004780149656283648
689.0, 0.006146170330956381
690.0, 0.007934190029928564
691.0, 0.007433726527606382
692.0, 0.0068088079934017064
693.0, 0.007724735845112118
694.0, 0.0063042069788748715
695.0, 0.0013393754292152977
696.0, 0.004578066797014996
697.0, 0.003907787527487711
698.0, 0.004830385127726078
699.0, 0.007456364350733394
700.0, 0.007328944825144027
701.0, 0.005541677389932653
702.0, 0.005625830075443594
703.0, 0.0067096075114335
704.0, 0.0071966659120737695
705.0, 0.004480018800240309
706.0, 0.002052978123376806
707.0, 0.00144212594198705
708.0, 0.002855151104718074
709.0, 0.0031207409242223105
710.0, 0.001986405794632128
711.0, 0.0016366305105150602
712.0, 0.0027756723466004826
713.0, 0.00577029114614438
714.0, 0.004514508888271445
715.0, 0.0024055551320846555
716.0, 0.002438606863765778
717.0, 0.006157364130794225
718.0, 0.004504333429814344
719.0, 0.0045425149613149505
720.0, 0.0034015597635659177
721.0, 0.0013263889551014974
722.0, 0.002202374969791467
723.0, 0.004053400267784567
724.0, 0.004485898911287401
725.0, 0.0033772578072966955
726.0, 0.0011316584651278755
727.0, 0.002347284237966302
728.0, 0.001570361736247145
729.0, 0.0008161143036861665
730.0, 0.001211469327523148
731.0, 0.0029644878953760806
732.0, 0.0053939198440841035
733.0, 0.004172139387775921
734.0, 0.0019648777744675017
735.0, 0.004378145367859945
736.0, 0.004015776860013048
737.0, 0.0030936403254972758
738.0, 0.0030319007271655263
739.0, 0.004064748317809536
740.0, 0.0017056668154693077
741.0, 0.001457615769065841
742.0, 0.0017911652817869756
743.0, 0.0021087865704324305
744.0, 0.0019971719411793045
745.0, 0.004346331218816051
746.0, 0.00431170657567226
747.0, 0.0027723503462135503
748.0, 0.0010094402370783456
749.0, 0.0016968631623862866
750.0, 0.002426546849920546
751.0, 0.0021366851438642037
752.0, 0.00122893224921685
753.0, 0.0014030033799870179
754.0, 0.0007760431785157701
755.0, 0.0004736272221509881
756.0, 0.00042184171955900337
757.0, 0.000536466357064819
758.0, 0.0013987145254255296
759.0, 0.002385083556279924
760.0, 0.0025399721365920143
761.0, 0.0022446533271573504
762.0, 0.003262438875162305
763.0, 0.0032193301963020587
764.0, 0.004027278597129549
765.0, 0.004614304608789859
766.0, 0.004259335916465285
767.0, 0.007221748131996867
768.0, 0.006607083960901576
769.0, 0.003630000612797225
770.0, 0.002274063934990371
771.0, 0.011208173028862612
772.0, 0.007627931260780022
773.0, 0.003096677500260974
774.0, 0.003524302566850149
775.0, 0.010949757435743664
776.0, 0.003186311675519466
777.0, 0.00909611324167417
778.0, 0.012712509579145416
779.0, 0.011647159300765715
780.0, 0.01209275920887791
781.0, 0.012537953266361689
782.0, 0.013554141590281007
783.0, 0.016393432580152054
784.0, 0.021233712327986855
785.0, 0.022528854078092023
786.0, 0.026630781334151143
787.0, 0.028402648096146427
788.0, 0.02882236464170647
789.0, 0.03238484088957664
790.0, 0.033727336373160416
791.0, 0.03779486416092144
792.0, 0.04353523548952555
793.0, 0.04958983661385045
794.0, 0.05343766074345287
795.0, 0.05461697717365101
796.0, 0.05925915237241821
797.0, 0.0657950596971208
798.0, 0.06984546854112109
799.0, 0.06801558440728181
800.0, 0.07014794871683405
801.0, 0.07229351691029788
802.0, 0.0728344557974324
803.0, 0.07384442578010451
804.0, 0.07765526519728767
805.0, 0.07775796686982507
806.0, 0.07497180907104506
807.0, 0.07138011166939057
808.0, 0.06698929864513667
809.0, 0.06637193212729059
810.0, 0.06724178784757055
811.0, 0.06603976403047528
812.0, 0.05624084765326665
813.0, 0.05182575316639586
814.0, 0.05304976437925248
815.0, 0.05087853597121361
816.0, 0.0412620841792899
817.0, 0.04625653741898392
818.0, 0.046718370631336846
819.0, 0.04518425260877755
820.0, 0.04009767880362782
821.0, 0.028413740374134966
822.0, 0.030562746928389253
823.0, 0.027700206130732943
824.0, 0.02314071920733817
825.0, 0.0194604327443451
826.0, 0.01904526238561738
827.0, 0.01888788553147262
828.0, 0.014439792064502532
829.0, 0.013353486342465816
830.0, 0.02152988768013641
831.0, 0.013980607748600783
832.0, 0.010347356544404504
833.0, 0.007345933101130761
834.0, 0.0055486511321429805
835.0, 0.007985379012324047
836.0, 0.010984363436564552
837.0, 0.006891895920971992
838.0, 0.004149095016476061
839.0, 0.0057407294378238015
840.0, 0.0016091951339749447
841.0, 0.0033228596553980614
842.0, 0.003631958126305363
843.0, 0.003425633266611269
844.0, 0.004659014993095146
845.0, 0.0050980950398465405
846.0, 0.004390735084165375
847.0, 0.003147565961758376
848.0, 0.002428211185252752
849.0, 0.003869292335596285
850.0, 0.004195267735087333
851.0, 0.0019382878369774647
852.0, 0.0023822873731836015
853.0, 0.005794368751041987
854.0, 0.0009223081519221122
855.0, 0.003044804182896094
856.0, 0.0037204862773616136
857.0, 0.0027511725084855792
858.0, 0.0013941128992454915
859.0, 0.002343206509252418
860.0, 0.004480377561024193
861.0, 0.005635661300625621
862.0, 0.005068845766437783
863.0, 0.0027121125017873196
864.0, 0.002009756832613484
865.0, 0.007885145555222912
866.0, 0.008021211786734454
867.0, 0.001177783362559369
868.0, 0.0015754490093012866
869.0, 0.0062550294940781105
870.0, 0.004169184404015075
871.0, 0.0028534036703720803
872.0, 0.006666266578485401
873.0, 0.0025239734251611794
874.0, 0.010443098667886532
875.0, 0.010677639509476776
876.0, 0.007562910706762874
877.0, 0.01012761481285559
878.0, 0.006271126794648281
879.0, 0.005145202081481621
880.0, 0.005066445483846314
881.0, 0.005032398866045159
882.0, 0.004253813594513552
883.0, 0.0052544284904792685
884.0, 0.005903616940463487
885.0, 0.006931614176075881
886.0, 0.008382096095288288
887.0, 0.009222703052412472
888.0, 0.011109783748327443
889.0, 0.01208385589553669
890.0, 0.012732969001137653
891.0, 0.013662956753528766
892.0, 0.014922631594111592
893.0, 0.01445899697998961
894.0, 0.015169938877648156
895.0, 0.015461731718540598
896.0, 0.013862335904068324
897.0, 0.017910357063634745
898.0, 0.01592760523815153
899.0, 0.014580724184182537
900.0, 0.016007299481279727
901.0, 0.020181823519506915
902.0, 0.01804707560530827
903.0, 0.015025778970134683
904.0, 0.017599835009560392
905.0, 0.019946368534819528
906.0, 0.00427349072448679
907.0, 0.006445418354674057
908.0, 0.010155510261812448
909.0, 0.009679541932413141
910.0, 0.00622428198943566
911.0, 0.012738766727621004
912.0, 0.0036978804402678566
913.0, 0.004769855372184122
914.0, 0.00893537657844008
915.0, 0.009981654081981279
916.0, 0.011027717856524
917.0, 0.011479174647073235
918.0, 0.011084770919214655
919.0, 0.009444496854053424
920.0, 0.00696715173679833
921.0, 0.00830584634999325
922.0, 0.006912708395247538
923.0, 0.006274518500443163
924.0, 0.007335440289868912
925.0, 0.009824063757672462
926.0, 0.008820696645633062
927.0, 0.008793242864973471
928.0, 0.0058997128016472855
929.0, 0.005236566254171774
930.0, 0.014481703080261593
931.0, 0.00744677769411305
932.0, 0.00655213367976012
933.0, 0.009767548000621826
934.0, 0.013353843252857892
935.0, 0.012076994470719466
936.0, 0.009376606641312521
937.0, 0.009526246101717427
938.0, 0.00913727533554868
939.0, 0.007832240535377491
940.0, 0.0081590096613592
941.0, 0.010508351580504591
942.0, 0.010231592027569934
943.0, 0.009116822445737093
944.0, 0.008599924617329089
945.0, 0.009664304647030202
946.0, 0.011846985952143944
947.0, 0.014893272230538202
948.0, 0.016567723166447286
949.0, 0.016705572371255514
950.0, 0.018932043425913817
951.0, 0.017331241815699266
952.0, 0.0210950526788396
953.0, 0.022843808085513295
954.0, 0.018434852863856686
955.0, 0.012839409269826317
956.0, 0.016918122096971223
957.0, 0.015904618608095552
958.0, 0.01570067779106811
959.0, 0.020350807260975025
960.0, 0.02403701625163593
961.0, 0.022690224769554738
962.0, 0.027001506037239907
963.0, 0.029016241945618592
964.0, 0.025020842332416825
965.0, 0.03132596805869062
966.0, 0.027145033615236926
967.0, 0.026563399194812508
968.0, 0.03222601261709824
969.0, 0.04025423204814681
970.0, 0.02972353688972833
971.0, 0.036629001392802375
972.0, 0.04274755455907572
973.0, 0.04445730724539684
974.0, 0.041723632009893374
975.0, 0.03873957202190397
976.0, 0.04769400310228341
977.0, 0.05397753228224945
978.0, 0.058544220183073016
979.0, 0.0632521796840772
980.0, 0.06346981131382776
981.0, 0.06758218532730446
982.0, 0.07459502963700668
983.0, 0.07758378888289287
984.0, 0.07705197212791329
985.0, 0.1049204724073339
986.0, 0.09866071420124804
987.0, 0.10591443239657213
988.0, 0.12238342621031911
989.0, 0.136937035760994
990.0, 0.14356903986742725
991.0, 0.16570225992793974
992.0, 0.1862819121940129
993.0, 0.20598362108656848
994.0, 0.22866843908753792
995.0, 0.2606702567145838
996.0, 0.2839088567551148
997.0, 0.3229374924082873
998.0, 0.3653939456842667
999.0, 0.40246647118150924
1000.0, 0.4472968988482526
1001.0, 0.5207785977921368
1002.0, 0.5866939003775633
1003.0, 0.6501664747635552
1004.0, 0.7183587167194608
1005.0, 0.7941442982302847
1006.0, 0.8527051860252288
1007.0, 0.9174022420116135
1008.0, 0.9701981009338303
1009.0, 0.9979295544208754
1010.0, 0.9999203674777261
1011.0, 0.9935142570674763
1012.0, 0.977318498083783
1013.0, 0.9259666181006284
1014.0, 0.8393224711380061
1015.0, 0.7525659541582349
1016.0, 0.6844074753334406
1017.0, 0.6133571780812526
1018.0, 0.5483499589122653
1019.0, 0.49082136587771674
1020.0, 0.43387620940160665
1021.0, 0.3903144674153672
1022.0, 0.3516809043466262
1023.0, 0.32170570005446775
1024.0, 0.29809569275934
1025.0, 0.27432393501758684
1026.0, 0.2567282971445495
1027.0, 0.2407652510923438
1028.0, 0.23471304470409896
1029.0, 0.23278134604552767
1030.0, 0.22447794443423366
1031.0, 0.23440747523729558
1032.0, 0.23971913744193082
1033.0, 0.24908871610378064
1034.0, 0.259606175936495
1035.0, 0.2674250859684773
1036.0, 0.28936936603172164
1037.0, 0.3072685047034886
1038.0, 0.3265610237474256
1039.0, 0.3485313296500362
1040.0, 0.373826718952404
1041.0, 0.404881460774408
1042.0, 0.4229356363128005
1043.0, 0.44727340086992334
1044.0, 0.4668836136645979
1045.0, 0.4762478139073867
1046.0, 0.49060952725094936
1047.0, 0.5030218682361899
1048.0, 0.5155482753260304
1049.0, 0.5241341457062052
1050.0, 0.5324923853073797
1051.0, 0.5547986953067214
1052.0, 0.5885385208741544
1053.0, 0.6294357304439134
1054.0, 0.6768748404740988
1055.0, 0.7331709817792192
1056.0, 0.8021313642924963
1057.0, 0.8752980855108052
1058.0, 0.9042483969061945
1059.0, 0.9119698668359469
1060.0, 0.906522360170968
1061.0, 0.8855823774605183
1062.0, 0.8152917689141888
1063.0, 0.7198789039166725
1064.0, 0.6132872614047963
1065.0, 0.5173439081483283
1066.0, 0.44236340665331686
1067.0, 0.35502027297000077
1068.0, 0.30362664691415614
1069.0, 0.26523862131029263
1070.0, 0.22874494478990143
1071.0, 0.19331359172402637
1072.0, 0.17358133037967896
1073.0, 0.15212929782071738
1074.0, 0.128652194986008
1075.0, 0.11490397419669887
1076.0, 0.10714044260701797
1077.0, 0.08976892160568581
1078.0, 0.0853524593170218
1079.0, 0.08260732299176395
1080.0, 0.07259162603924066
1081.0, 0.06367245996642111
1082.0, 0.06597057613774628
1083.0, 0.055944403041229135
1084.0, 0.052922559982283755
1085.0, 0.0541045034296561
1086.0, 0.05339758203110644
1087.0, 0.049115553115704834
1088.0, 0.05207555767617724
1089.0, 0.04634574457411484
1090.0, 0.038278093941679865
1091.0, 0.03433057833527073
1092.0, 0.03552183123857493
1093.0, 0.036536328029379825
1094.0, 0.030346639883803837
1095.0, 0.031650621926585895
1096.0, 0.028933648045509682
1097.0, 0.026366147516953962
1098.0, 0.032517110165285655
1099.0, 0.03016795827804802
1100.0, 0.02962164740446785
1101.0, 0.03389302347782207
1102.0, 0.035232281466184005
1103.0, 0.03138633411565498
1104.0, 0.03939185689403462
1105.0, 0.04345106131219582
1106.0, 0.04475445300670362
1107.0, 0.04654204564645057
1108.0, 0.04761566052599125
1109.0, 0.04269755192117556
1110.0, 0.04006110522382689
1111.0, 0.04772150418446973
1112.0, 0.04749537576222653
1113.0, 0.04191819832942269
1114.0, 0.04140237019608496
1115.0, 0.04942737717373796
1116.0, 0.043362703651411906
1117.0, 0.05303764147791356
1118.0, 0.0548467238280808
1119.0, 0.04034645820105791
1120.0, 0.04095545277290379
1121.0, 0.05183984889825209
1122.0, 0.045394832448338446
1123.0, 0.03499337631848222
1124.0, 0.03025149278372623
1125.0, 0.03373794481249641
1126.0, 0.02042081033588897
1127.0, 0.028523403811249123
1128.0, 0.025257976207486158
1129.0, 0.018757629551732238
1130.0, 0.019046594714218507
1131.0, 0.015220670591256919
1132.0, 0.00997343200646543
1133.0, 0.01556282921556736
1134.0, 0.016469145388860035
1135.0, 0.01035624710548371
1136.0, 0.008143469246544821
1137.0, 0.01679675491222985
1138.0, 0.009525128926921011
1139.0, 0.007017070774905049
1140.0, 0.00955472637536286
1141.0, 0.01037009613042912
1142.0, 0.0016962116905653779
1143.0, 0.008926783729821927
1144.0, 0.005881099507947175
1145.0, 0.0045774722828284
1146.0, 0.00798731285124446
1147.0, 0.007658829466673385
1148.0, 0.005928064558131419
1149.0, 0.0061700588374941885
1150.0, 0.0071773086869005515
1151.0, 0.006340992380028352
1152.0, 0.0036190635124348546
1153.0, 0.007841914934378602
1154.0, 0.0022094113564033024
1155.0, 0.0011953359266824372
1156.0, 0.005148103002839406
1157.0, 0.007842366669797167
1158.0, 0.0006815292442817022
1159.0, 0.005680074483904701
1160.0, 0.01038759712658845
1161.0, 0.0076892741147329855
1162.0, 0.0033434495593916555
1163.0, 0.0028959106721612267
1164.0, 0.001124230870023639
1165.0, 0.005196280051324874
1166.0, 0.006792823572261523
1167.0, 0.004704788750329475
1168.0, 0.0015027766726775106
1169.0, 0.0019116946514158646
1170.0, 0.007390469113631164
1171.0, 0.00710386563944195
1172.0, 0.012800692597550583
1173.0, 0.01336761690472125
1174.0, 0.004603733964033615
1175.0, 0.0038620314005638917
1176.0, 0.0056603335618737125
1177.0, 0.0030989385386493732
1178.0, 0.003669044052249619
1179.0, 0.005373399816207974
1180.0, 0.003731538529994403
1181.0, 0.008606135842999274
1182.0, 0.010482373534943546
1183.0, 0.007916430871710017
1184.0, 0.008540501618677872
1185.0, 0.014145340333215054
1186.0, 0.018120642657037944
1187.0, 0.01583038603268576
1188.0, 0.01105417808131916
1189.0, 0.016646697494323202
1190.0, 0.017981649820503317
1191.0, 0.007727944964468178
1192.0, 0.018905456126501272
1193.0, 0.019337552523233454
1194.0, 0.01357033503759508
1195.0, 0.013355327466637536
1196.0, 0.01760129265097911
1197.0, 0.016633581840539556
1198.0, 0.004779338467407424
1199.0, 0.013123955495276752
1200.0, 0.01120429466045036
1201.0, 0.014437137116627894
1202.0, 0.022866916970245107
1203.0, 0.011628253136602247
1204.0, 0.006904768064046222
1205.0, 0.014968257734858423
1206.0, 0.015252552217197552
1207.0, 0.012701007764546473
1208.0, 0.014590276677828548
1209.0, 0.01382783725652423
1210.0, 0.006582274994927857
1211.0, 0.011926963947882709
1212.0, 0.013426315519380888
1213.0, 0.00875682634756031
1214.0, 0.004968591858224396
1215.0, 0.008893135471252483
1216.0, 0.015541551339822993
1217.0, 0.011676567901924942
1218.0, 0.008878848683324303
1219.0, 0.011370911630217787
1220.0, 0.013404638095065011
1221.0, 0.00957658683145293
1222.0, 0.014663648250788905
1223.0, 0.013477681782058737
1224.0, 0.008304643096874047
1225.0, 0.004942768628379076
1226.0, 0.007754517260302269
1227.0, 0.011726502630352308
1228.0, 0.011478096451214309
1229.0, 0.00755023578650015
1230.0, 0.00654743652863738
1231.0, 0.011767719736723017
1232.0, 0.014816562785887973
1233.0, 0.0038412951677669564
1234.0, 0.009459834105235716
1235.0, 0.007744333304014486
1236.0, 0.004178121401078423
1237.0, 0.010992254944732873
1238.0, 0.00889329058980039
1239.0, 0.003957600227493326
1240.0, 0.007635285306718654
1241.0, 0.008169845514352573
1242.0, 0.003948506562376209
1243.0, 0.002491491520034957
1244.0, 0.013181374389609653
1245.0, 0.01059547252996846
1246.0, 0.0074731191402959045
1247.0, 0.009041879916828977
1248.0, 0.01222172131126447
1249.0, 0.009011961622238327
1250.0, 0.0052159292167572105
1251.0, 0.002020360088886059
1252.0, 0.0026331211661069355
1253.0, 0.005814184889158188
1254.0, 0.00927431464037223
1255.0, 0.011127626192499247
1256.0, 0.01412506984307271
1257.0, 0.01325753884156063
1258.0, 0.011627973999878728
1259.0, 0.014619074152279232
1260.0, 0.020691998693055717
1261.0, 0.018644114595040985
1262.0, 0.002541867344496028
1263.0, 1.8434989729543327e-05
1264, 0.0
1265, 0.0
1266, 0.0
1267, 0.0
1268, 0.0
1269, 0.0
1270, 0.0
1271, 0.0
1272, 0.0
1273, 0.0
1274, 0.0
1275, 0.0
1276, 0.0
1277, 0.0
1278, 0.0
1279, 0.0
1280, 0.0
1281, 0.0
1282, 0.0
1283, 0.0
1284, 0.0
1285, 0.0
1286, 0.0
1287, 0.0
1288, 0.0
1289, 0.0
1290, 0.0
1291, 0.0
1292, 0.0
1293, 0.0
1294, 0.0
1295, 0.0
1296, 0.0
1297, 0.0
1298, 0.0
1299, 0.0
1300, 0.0
1301, 0.0
1302, 0.0
1303, 0.0
1304, 0.0
1305, 0.0
1306, 0.0
1307, 0.0
1308, 0.0
1309, 0.0
1310, 0.0
1311, 0.0
1312, 0.0
1313, 0.0
1314, 0.0
1315, 0.0
1316, 0.0
1317, 0.0
1318, 0.0
1319, 0.0
1320, 0.0
1321, 0.0
1322, 0.0
1323, 0.0
1324, 0.0
1325, 0.0
1326, 0.0
1327, 0.0
1328, 0.0
1329, 0.0
1330, 0.0
1331, 0.0
1332, 0.0
1333, 0.0
1334, 0.0
1335, 0.0
1336, 0.0
1337, 0.0
1338, 0.0
1339, 0.0
1340, 0.0
1341, 0.0
1342, 0.0
1343, 0.0
1344, 0.0
1345, 0.0
1346, 0.0
1347, 0.0
1348, 0.0
1349, 0.0
1350, 0.0
1351, 0.0
1352, 0.0
1353, 0.0
1354, 0.0
1355, 0.0
1356, 0.0
1357, 0.0
1358, 0.0
1359, 0.0
1360, 0.0
1361, 0.0
1362, 0.0
1363, 0.0
1364, 0.0
1365, 0.0
1366, 0.0
1367, 0.0
1368, 0.0
1369, 0.0
1370, 0.0
1371, 0.0
1372, 0.0
1373, 0.0
1374, 0.0
1375, 0.0
1376, 0.0
1377, 0.0
1378, 0.0
1379, 0.0
1380, 0.0
1381, 0.0
1382, 0.0
1383, 0.0
1384, 0.0
1385, 0.0
1386, 0.0
1387, 0.0
1388, 0.0
1389, 0.0
1390, 0.0
1391, 0.0
1392, 0.0
1393, 0.0
1394, 0.0
1395, 0.0
1396, 0.0
1397, 0.0
1398, 0.0
1399, 0.0
1400, 0.0
1401, 0.0
1402, 0.0
1403, 0.0
1404, 0.0
1405, 0.0
1406, 0.0
1407, 0.0
1408, 0.0
1409, 0.0
1410, 0.0
1411, 0.0
1412, 0.0
1413, 0.0
1414, 0.0
1415, 0.0
1416, 0.0
1417, 0.0
1418, 0.0
1419, 0.0
1420, 0.0
1421, 0.0
1422, 0.0
1423, 0.0
1424, 0.0
1425, 0.0
1426, 0.0
1427, 0.0
1428, 0.0
1429, 0.0
1430, 0.0
1431, 0.0
1432, 0.0
1433, 0.0
1434, 0.0
1435, 0.0
1436, 0.0
1437, 0.0
1438, 0.0
1439, 0.0
1440, 0.0
1441, 0.0
1442, 0.0
1443, 0.0
1444, 0.0
1445, 0.0
1446, 0.0
1447, 0.0
1448, 0.0
1449, 0.0
1450, 0.0
1451, 0.0
1452, 0.0
1453, 0.0
1454, 0.0
1455, 0.0
1456, 0.0
1457, 0.0
1458, 0.0
1459, 0.0
1460, 0.0
1461, 0.0
1462, 0.0
1463, 0.0
1464, 0.0
1465, 0.0
1466, 0.0
1467, 0.0
1468, 0.0
1469, 0.0
1470, 0.0
1471, 0.0
1472, 0.0
1473, 0.0
1474, 0.0
1475, 0.0
1476, 0.0
1477, 0.0
1478, 0.0
1479, 0.0
1480, 0.0
1481, 0.0
1482, 0.0
1483, 0.0
1484, 0.0
1485, 0.0
1486, 0.0
1487, 0.0
1488, 0.0
1489, 0.0
1490, 0.0
1491, 0.0
1492, 0.0
1493, 0.0
1494, 0.0
1495, 0.0
1496, 0.0
1497, 0.0
1498, 0.0
1499, 0.0
1500, 0.0
1501, 0.0
1502, 0.0
1503, 0.0
1504, 0.0
1505, 0.0
1506, 0.0
1507, 0.0
1508, 0.0
1509, 0.0
1510, 0.0
1511, 0.0
1512, 0.0
1513, 0.0
1514, 0.0
1515, 0.0
1516, 0.0
1517, 0.0
1518, 0.0
1519, 0.0
1520, 0.0
1521, 0.0
1522, 0.0
1523, 0.0
1524, 0.0
1525, 0.0
1526, 0.0
1527, 0.0
1528, 0.0
1529, 0.0
1530, 0.0
1531, 0.0
1532, 0.0
1533, 0.0
1534, 0.0
1535, 0.0
1536, 0.0
1537, 0.0
1538, 0.0
1539, 0.0
1540, 0.0
1541, 0.0
1542, 0.0
1543, 0.0
1544, 0.0
1545, 0.0
1546, 0.0
1547, 0.0
1548, 0.0
1549, 0.0
1550, 0.0
1551, 0.0
1552, 0.0
1553, 0.0
1554, 0.0
1555, 0.0
1556, 0.0
1557, 0.0
1558, 0.0
1559, 0.0
1560, 0.0
1561, 0.0
1562, 0.0
1563, 0.0
1564, 0.0
1565, 0.0
1566, 0.0
1567, 0.0
1568, 0.0
1569, 0.0
1570, 0.0
1571, 0.0
1572, 0.0
1573, 0.0
1574, 0.0
1575, 0.0
1576, 0.0
1577, 0.0
1578, 0.0
1579, 0.0
1580, 0.0
1581, 0.0
1582, 0.0
1583, 0.0
1584, 0.0
1585, 0.0
1586, 0.0
1587, 0.0
1588, 0.0
1589, 0.0
1590, 0.0
1591, 0.0
1592, 0.0
1593, 0.0
1594, 0.0
1595, 0.0
1596, 0.0
1597, 0.0
1598, 0.0
1599, 0.0
