30, 0.0
31, 0.0
32, 0.0
33, 0.0
34, 0.0
35, 0.0
36, 0.0
37, 0.0
38, 0.0
39, 0.0
40, 0.0
41, 0.0
42, 0.0
43, 0.0
44, 0.0
45, 0.0
46, 0.0
47, 0.0
48, 0.0
49, 0.0
50, 0.0
51, 0.0
52, 0.0
53, 0.0
54, 0.0
55, 0.0
56, 0.0
57, 0.0
58, 0.0
59, 0.0
60, 0.0
61, 0.0
62, 0.0
63, 0.0
64, 0.0
65, 0.0
66, 0.0
67, 0.0
68, 0.0
69, 0.0
70, 0.0
71, 0.0
72, 0.0
73, 0.0
74, 0.0
75, 0.0
76, 0.0
77, 0.0
78, 0.0
79, 0.0
80, 0.0
81, 0.0
82, 0.0
83, 0.0
84, 0.0
85, 0.0
86, 0.0
87, 0.0
88, 0.0
89, 0.0
90, 0.0
91, 0.0
92, 0.0
93.0, 8.479628845394166e-05
94.0, 0.0012306920783721018
95.0, 0.001478727058430495
96.0, 0.0011760166458419051
97.0, 0.0005590237757406636
98.0, 0.003500028730801091
99.0, 0.008328487442656417
100.0, 0.01460313328201139
101.0, 0.020193847477498136
102.0, 0.026115283269533517
103.0, 0.03294775322113251
104.0, 0.04165825742284689
105.0, 0.04956121095263977
106.0, 0.05575295299119782
107.0, 0.05984949286881485
108.0, 0.05980228344283729
109.0, 0.06154682576638253
110.0, 0.06569647963417283
111.0, 0.07357584003695815
112.0, 0.09002421551106904
113.0, 0.09817686335574484
114.0, 0.0970757355798048
115.0, 0.09146864946637635
116.0, 0.08508745418707309
117.0, 0.08001461202224948
118.0, 0.07822992805396983
119.0, 0.07011890861639877
120.0, 0.06214745548872256
121.0, 0.05556075971326387
122.0, 0.054180941531235476
123.0, 0.055854249141788354
124.0, 0.057849876112304785
125.0, 0.05860278637426115
126.0, 0.0602805221674926
127.0, 0.061721340007796804
128.0, 0.06320844511724899
129.0, 0.06586295069146528
130.0, 0.06759986841651165
131.0, 0.06691195024274348
132.0, 0.0628551675317253
133.0, 0.06533990019080978
134.0, 0.0642321832433563
135.0, 0.06141807014434353
136.0, 0.06088141416909845
137.0, 0.0632095885353667
138.0, 0.06366910794682853
139.0, 0.06106485673424851
140.0, 0.06308502103229806
141.0, 0.06174505262038635
142.0, 0.059446251407313556
143.0, 0.0595806465093534
144.0, 0.05922828568160576
145.0, 0.05604730493097984
146.0, 0.05038421491834389
147.0, 0.049989777791255574
148.0, 0.04275159264103336
149.0, 0.0337576486502077
150.0, 0.0274276613670158
151.0, 0.017924014856626366
152.0, 0.011624748688678643
153.0, 0.008018663425467698
154.0, 0.0021116809369995876
155.0, 0.0025018388649786128
156.0, 0.005716992285183998
157.0, 0.010253293010116609
158.0, 0.010082877613662843
159.0, 0.010583754619427737
160.0, 0.011437936631919327
161.0, 0.011513471923130956
162.0, 0.010952857549975138
163.0, 0.00925593204190758
164.0, 0.006262194994745924
165.0, 0.004183062581276042
166.0, 0.003203231084441503
167.0, 0.003422686184185345
168.0, 0.00533239196554112
169.0, 0.014880608445769335
170.0, 0.02729214006534813
171.0, 0.041259569611471994
172.0, 0.05266168108123784
173.0, 0.06949557823377214
174.0, 0.08732712503041777
175.0, 0.10299708792417539
176.0, 0.12473222089354778
177.0, 0.14317936773191137
178.0, 0.15813499969058326
179.0, 0.1697842544865458
180.0, 0.17697602479598135
181.0, 0.18343419551180917
182.0, 0.19037957426890695
183.0, 0.1945192778241167
184.0, 0.19629708469646107
185.0, 0.19849162763048298
186.0, 0.20554685019707641
187.0, 0.20361557277983533
188.0, 0.20349974084686326
189.0, 0.2064240878171973
190.0, 0.2086676717822732
191.0, 0.2162740799505275
192.0, 0.22372877661588209
193.0, 0.22714635422361634
194.0, 0.23933950729377002
195.0, 0.24869698440235768
196.0, 0.2538946238882629
197.0, 0.25152395682191314
198.0, 0.25613612007463515
199.0, 0.25516539211961836
200.0, 0.245671473413222
201.0, 0.2462198336195214
202.0, 0.2374774144265084
203.0, 0.22674867115719002
204.0, 0.22188656212671534
205.0, 0.21543787741042997
206.0, 0.21081167314259674
207.0, 0.20662743865749747
208.0, 0.19558022605566844
209.0, 0.18948618787832325
210.0, 0.1858211355705841
211.0, 0.18372647086223695
212.0, 0.1846794308642422
213.0, 0.1825436643205119
214.0, 0.18122783911726392
215.0, 0.1872336848372148
216.0, 0.19342077723104348
217.0, 0.2017822691470899
218.0, 0.21195381865303486
219.0, 0.21992586234924477
220.0, 0.2232674943826393
221.0, 0.22755069489661245
222.0, 0.23612577912751975
223.0, 0.2285357606137325
224.0, 0.22249107471139298
225.0, 0.21440234009284712
226.0, 0.19641060905360078
227.0, 0.18276198762281484
228.0, 0.16699223486452835
229.0, 0.14818409624094314
230.0, 0.129036495911851
231.0, 0.11259931845677293
232.0, 0.09673175313521717
233.0, 0.08011190129582485
234.0, 0.07381042399541617
235.0, 0.06499079078303716
236.0, 0.05674737381419927
237.0, 0.05628184987572622
238.0, 0.0556557319828943
239.0, 0.05772316689738983
240.0, 0.06238252362518456
241.0, 0.06427238861187887
242.0, 0.07015953941338843
243.0, 0.07932400302551788
244.0, 0.09174038203345262
245.0, 0.09840121163265522
246.0, 0.10891862103910485
247.0, 0.12025975538269176
248.0, 0.12627354966813772
249.0, 0.13397881340220685
250.0, 0.14118375805240607
251.0, 0.14736972764076423
252.0, 0.15184646246633537
253.0, 0.15268798723249974
254.0, 0.15230725448983715
255.0, 0.15192513601636182
256.0, 0.150190122369848
257.0, 0.14624051474033828
258.0, 0.14209371834247086
259.0, 0.14102406681532495
260.0, 0.13719188724627118
261.0, 0.13039276309395517
262.0, 0.12153466704325576
263.0, 0.11483134156460559
264.0, 0.10829446000735886
265.0, 0.10117110339615693
266.0, 0.09313379849301326
267.0, 0.08524658539145057
268.0, 0.0740341798334795
269.0, 0.06377191248463983
270.0, 0.059641023315167456
271.0, 0.05079810919210929
272.0, 0.04214361517198683
273.0, 0.03544952685214682
274.0, 0.035233402119767006
275.0, 0.03357301665786842
276.0, 0.03222076043176459
277.0, 0.03168161022047805
278.0, 0.031857375338037695
279.0, 0.033435743279128814
280.0, 0.03720881010947003
281.0, 0.044029618035433066
282.0, 0.04548199391648783
283.0, 0.049723196371049945
284.0, 0.0553362266546169
285.0, 0.05962832997223349
286.0, 0.07029605644486946
287.0, 0.07690353716129215
288.0, 0.08027683002604223
289.0, 0.09181979095103283
290.0, 0.10075291797882206
291.0, 0.1085455946448054
292.0, 0.11563084105342804
293.0, 0.12028824627192537
294.0, 0.12119763065398943
295.0, 0.12206405908067468
296.0, 0.12653527419491453
297.0, 0.12186031656319896
298.0, 0.12101611450005491
299.0, 0.12288953303769252
300.0, 0.12385641771644323
301.0, 0.12280776833144816
302.0, 0.12351257189782021
303.0, 0.12688309522709795
304.0, 0.1338741189946367
305.0, 0.1332399620433448
306.0, 0.1328583439233464
307.0, 0.13620489648767833
308.0, 0.13937031383911103
309.0, 0.13748072309033457
310.0, 0.13307953078917398
311.0, 0.12841463917187165
312.0, 0.12263087239609757
313.0, 0.11749156070053017
314.0, 0.11274810690049973
315.0, 0.10770728561545212
316.0, 0.10522412767355889
317.0, 0.1023424067182908
318.0, 0.09921611698770764
319.0, 0.09924445238274753
320.0, 0.09945541605557544
321.0, 0.10019707626793609
322.0, 0.10152681936624718
323.0, 0.10178715431674738
324.0, 0.09967830398133015
325.0, 0.09716531349375176
326.0, 0.09582944619793325
327.0, 0.09455216134029663
328.0, 0.09363393761651413
329.0, 0.09142808879829582
330.0, 0.08495540104651782
331.0, 0.08319408844535116
332.0, 0.07886245843883125
333.0, 0.07282213583080814
334.0, 0.07080305534642839
335.0, 0.06976034203669337
336.0, 0.06663602270548347
337.0, 0.061525572375826745
338.0, 0.061686218593655355
339.0, 0.06170330788518669
340.0, 0.06321746483589587
341.0, 0.06728249895199968
342.0, 0.07573085461519995
343.0, 0.08257962007567296
344.0, 0.09143626600862065
345.0, 0.10620854493958501
346.0, 0.11642376466052952
347.0, 0.13279227971918262
348.0, 0.15043401787015745
349.0, 0.15950629908306774
350.0, 0.1752711236759394
351.0, 0.1831620092620923
352.0, 0.1851443940839138
353.0, 0.19423891274609006
354.0, 0.19502914902520327
355.0, 0.19972692590534186
356.0, 0.21012388023716788
357.0, 0.21528898491810605
358.0, 0.21851086793557842
359.0, 0.2194385292164219
360.0, 0.21782708653874203
361.0, 0.21472078462785898
362.0, 0.21203023021052061
363.0, 0.20654316706519169
364.0, 0.19535333898983234
365.0, 0.18611981227760524
366.0, 0.1755266264170599
367.0, 0.16492038670767406
368.0, 0.1563026237045572
369.0, 0.14346825930262266
370.0, 0.13179290294037124
371.0, 0.1219123607368418
372.0, 0.11448629171588875
373.0, 0.10568642785706238
374.0, 0.09822409464861416
375.0, 0.0923226155838056
376.0, 0.08708297285016456
377.0, 0.08152439571528956
378.0, 0.07717552549337738
379.0, 0.0743805699507413
380.0, 0.07211600930062803
381.0, 0.06819829949522713
382.0, 0.06465499548788317
383.0, 0.06243273896840817
384.0, 0.06077098543891686
385.0, 0.059954076016009876
386.0, 0.058918024817646186
387.0, 0.05687350630834849
388.0, 0.05561688671325629
389.0, 0.05697223118333239
390.0, 0.057476942189727445
391.0, 0.05305700118163286
392.0, 0.05282425058758345
393.0, 0.05095218927280355
394.0, 0.049275709991031584
395.0, 0.05140286999677398
396.0, 0.05136208706121786
397.0, 0.0530193837401439
398.0, 0.056058585216987554
399.0, 0.05879101947418571
400.0, 0.06238470951240205
401.0, 0.06621767233411814
402.0, 0.07056225458937379
403.0, 0.07687658554454851
404.0, 0.08302932800607302
405.0, 0.08943443228501911
406.0, 0.09625616685570672
407.0, 0.10376912430416972
408.0, 0.10739195334648875
409.0, 0.11099482292670691
410.0, 0.11576990350265079
411.0, 0.11892810412278171
412.0, 0.1188288825131261
413.0, 0.12120479785880221
414.0, 0.12880402563622032
415.0, 0.13415775009873415
416.0, 0.1434575999696465
417.0, 0.15386937569481618
418.0, 0.16356263955098568
419.0, 0.1808455423309355
420.0, 0.20041007482371145
421.0, 0.22422901029883655
422.0, 0.25445525836116534
423.0, 0.2870370239484024
424.0, 0.3204199857670714
425.0, 0.3591020889012897
426.0, 0.40925887349099216
427.0, 0.45045727785980827
428.0, 0.4990353288150511
429.0, 0.5479947216409008
430.0, 0.584428878946213
431.0, 0.6234693560643275
432.0, 0.648087730140607
433.0, 0.6613821757019573
434.0, 0.671962350301768
435.0, 0.6612638229467555
436.0, 0.645713730213036
437.0, 0.625786226484159
438.0, 0.596921728235397
439.0, 0.5616456101784825
440.0, 0.5230956128704756
441.0, 0.48558327950590324
442.0, 0.4613099963165874
443.0, 0.4289171167998994
444.0, 0.39962779502074597
445.0, 0.37558097280718516
446.0, 0.35568451545453766
447.0, 0.3392579509462135
448.0, 0.3243319061715518
449.0, 0.3103739984280702
450.0, 0.2972800035597018
451.0, 0.2840131610147651
452.0, 0.2704220906772713
453.0, 0.2566866639285336
454.0, 0.24413062711903785
455.0, 0.2300830064901798
456.0, 0.21570926190154255
457.0, 0.2016493306171881
458.0, 0.18940569069574853
459.0, 0.17832946341181066
460.0, 0.1685437670168813
461.0, 0.15995147367613016
462.0, 0.15106269405706604
463.0, 0.1453346993208649
464.0, 0.13943068349255927
465.0, 0.13241319360170228
466.0, 0.13029428652199582
467.0, 0.12586595282460833
468.0, 0.12159930255856516
469.0, 0.11873471331503883
470.0, 0.1168065977036183
471.0, 0.11645844424778251
472.0, 0.11578536552954406
473.0, 0.11399617461206568
474.0, 0.11460767373669363
475.0, 0.11523269201495437
476.0, 0.11575042857824488
477.0, 0.11625051928614741
478.0, 0.11906207104251615
479.0, 0.12226264390986442
480.0, 0.1256628379599121
481.0, 0.12897013905207325
482.0, 0.12942008013726355
483.0, 0.13444674772648546
484.0, 0.14041228980566353
485.0, 0.1449303394001712
486.0, 0.14638447910930577
487.0, 0.1505896881123443
488.0, 0.15557722575533328
489.0, 0.16000401739154957
490.0, 0.16230178366336087
491.0, 0.16507722095469032
492.0, 0.1681219335613191
493.0, 0.17106203926756985
494.0, 0.17005363889261088
495.0, 0.17212105851642923
496.0, 0.17306461495726844
497.0, 0.17029053353379744
498.0, 0.165074741079542
499.0, 0.16214035475499639
500.0, 0.15861535608708346
501.0, 0.15260084476137434
502.0, 0.1422804174350697
503.0, 0.13582318754637848
504.0, 0.1309093199676012
505.0, 0.12587298264556937
506.0, 0.11646187205737239
507.0, 0.10981583226927945
508.0, 0.10317499079503005
509.0, 0.09534419622933098
510.0, 0.08930355612886812
511.0, 0.08464401804311754
512.0, 0.07917514225640421
513.0, 0.07244231344524314
514.0, 0.07012383644612619
515.0, 0.06533629425589685
516.0, 0.06120086709564677
517.0, 0.059059941821384514
518.0, 0.05832142925531363
519.0, 0.055722214380127214
520.0, 0.0526513774551099
521.0, 0.04963043826114826
522.0, 0.046477024916370666
523.0, 0.04629361533981786
524.0, 0.044094801611426176
525.0, 0.03877435721395706
526.0, 0.03377758950309232
527.0, 0.03386270433073224
528.0, 0.03297918963432516
529.0, 0.029885743192492095
530.0, 0.027060691373023606
531.0, 0.024604340841902803
532.0, 0.022637160322219796
533.0, 0.021327831314604632
534.0, 0.02117591112318248
535.0, 0.0192528135655334
536.0, 0.017148457694371913
537.0, 0.016060261902868685
538.0, 0.018523253688057583
539.0, 0.01562963094153653
540.0, 0.015390526583185297
541.0, 0.016734011485375143
542.0, 0.01415600732360812
543.0, 0.013045415872726803
544.0, 0.012512474081869725
545.0, 0.013122138530297358
546.0, 0.01616477500498692
547.0, 0.014276043879978667
548.0, 0.014013479232541716
549.0, 0.015541680252259021
550.0, 0.018350208764461525
551.0, 0.015781224081685176
552.0, 0.016217173603649576
553.0, 0.017713491845891712
554.0, 0.017546454256582425
555.0, 0.019325367188943003
556.0, 0.02191322616301273
557.0, 0.0237450988925178
558.0, 0.0234154252433722
559.0, 0.02255831836327808
560.0, 0.025314901590323593
561.0, 0.02708104915568884
562.0, 0.025040163463893487
563.0, 0.02639552188094855
564.0, 0.02583095705738611
565.0, 0.025164185617377197
566.0, 0.025353034629800743
567.0, 0.026179430648262638
568.0, 0.02613755087328269
569.0, 0.026201941977881338
570.0, 0.026698650506741056
571.0, 0.027298975575791053
572.0, 0.02330518703041581
573.0, 0.021144780564294516
574.0, 0.02146496028721956
575.0, 0.020056223807754313
576.0, 0.01918721123702466
577.0, 0.019480861360305746
578.0, 0.019697517358285312
579.0, 0.016479218543010106
580.0, 0.018542950214984897
581.0, 0.017192827498338552
582.0, 0.014615058113051069
583.0, 0.01634164442708389
584.0, 0.01465245314129048
585.0, 0.015045435112976114
586.0, 0.014849133196251519
587.0, 0.010524296760002534
588.0, 0.012071033718453908
589.0, 0.010242828450076359
590.0, 0.009044315875213899
591.0, 0.011510230999798858
592.0, 0.009856720555262426
593.0, 0.008559483803885248
594.0, 0.007804567068203143
595.0, 0.007703210907242677
596.0, 0.008258469714131664
597.0, 0.008255221748637609
598.0, 0.007931138762887632
599.0, 0.007236440783865979
600.0, 0.00554072136512356
601.0, 0.004874540989971431
602.0, 0.004778493281315205
603.0, 0.004394474602361158
604.0, 0.0016251818813048068
605.0, 0.0018363033227739199
606.0, 0.0020104841427875417
607.0, 0.001665372930549501
608.0, 0.0006672657977103044
609.0, 0.00022260641490857213
610.0, 0.0015228668697538654
611.0, 0.0027759479692028785
612.0, 0.001927408381369571
613.0, 0.0019864155199682608
614.0, 0.0036123434441886074
615.0, 0.004098949382993262
616.0, 0.0019971343731357274
617.0, 0.0036138260241439244
618.0, 0.003650149653430881
619.0, 0.0039002951397503188
620.0, 0.004723311392432174
621.0, 0.003723866083214021
622.0, 0.004225498634973916
623.0, 0.004289928827347063
624.0, 0.0041421355001969055
625.0, 0.0059467902184018595
626.0, 0.006883682741682469
627.0, 0.005404821382046347
628.0, 0.0036655650088500856
629.0, 0.005690131989875489
630.0, 0.006131552609473621
631.0, 0.0059411214789581385
632.0, 0.006004689360963383
633.0, 0.007108150768490178
634.0, 0.006991579906937973
635.0, 0.005951761174465017
636.0, 0.004649319006338918
637.0, 0.0034803100765030785
638.0, 0.0022970714749409437
639.0, 0.00418084976230295
640.0, 0.004832539124809278
641.0, 0.003353517315712622
642.0, 0.001979273700581402
643.0, 0.003999918694730502
644.0, 0.004483624230505905
645.0, 0.003675553967204359
646.0, 0.003786929425449059
647.0, 0.005043241719805514
648.0, 0.004008643552256279
649.0, 0.0024839260606356467
650.0, 0.0026757784440733946
651.0, 0.0030119598643519384
652.0, 0.003469283969650695
653.0, 0.003472182638719612
654.0, 0.0028472957818887886
655.0, 0.003014768284280157
656.0, 0.0018962529598647675
657.0, 0.0026693052123671042
658.0, 0.004567516288405678
659.0, 0.0013715092837399189
660.0, 0.0014449606563437254
661.0, 0.0032366825433406583
662.0, 0.004798801732350325
663.0, 0.003215297422385106
664.0, 0.0015973908295391398
665.0, 0.002175069668025943
666.0, 0.002864307224660599
667.0, 0.0018221823998649791
668.0, 0.0025120780237143994
669.0, 0.0029602784856146013
670.0, 0.002142881493478432
671.0, 0.0005665093340926025
672.0, 0.0033670771313929473
673.0, 0.004055726544663877
674.0, 0.0038345346468372657
675.0, 0.0028091519417589054
676.0, 0.0005647473779571376
677.0, 0.001684918298779709
678.0, 0.0016812943559826891
679.0, 0.001175408193839097
680.0, 0.0013308222472383784
681.0, 0.0012731434226439507
682.0, 0.001710877328418107
683.0, 0.002012718676819914
684.0, 0.001798442559204789
685.0, 0.0011273132632132771
686.0, 0.0028666715268648914
687.0, 0.003307115970414874
688.0, 0.0022314546016926617
689.0, 0.001960237923446659
690.0, 0.0019106465670885608
691.0, 0.0030266337834521165
692.0, 0.0038088506798934635
693.0, 0.002307051827845131
694.0, 0.003419108218638817
695.0, 0.0035172354343818274
696.0, 0.0038271995281101575
697.0, 0.00505666344059095
698.0, 0.006612239149722649
699.0, 0.007846800178053675
700.0, 0.008348834762030452
701.0, 0.008244874585142293
702.0, 0.008186935655676167
703.0, 0.008429077163427029
704.0, 0.008964398301877893
705.0, 0.009787953631317915
706.0, 0.01085738654116209
707.0, 0.011261641317685865
708.0, 0.011229676683290835
709.0, 0.01167730009798326
710.0, 0.01281818826515688
711.0, 0.012909532011803017
712.0, 0.013855439058478648
713.0, 0.014214822740785128
714.0, 0.013740431470727834
715.0, 0.012686279714655267
716.0, 0.014493395052346557
717.0, 0.016023693086775644
718.0, 0.016527131675707327
719.0, 0.015835967133453227
720.0, 0.01924787825499554
721.0, 0.018820785725974024
722.0, 0.01831110400705638
723.0, 0.019258849560968204
724.0, 0.021094592629260042
725.0, 0.02012501095416949
726.0, 0.02097946339176713
727.0, 0.022771024080113767
728.0, 0.022927554480677206
729.0, 0.024127480470955854
730.0, 0.025073127792607414
731.0, 0.025160639108785247
732.0, 0.02475367924750541
733.0, 0.029157964304186823
734.0, 0.028016075081704964
735.0, 0.028930434971749536
736.0, 0.03179209033740738
737.0, 0.031186429316030134
738.0, 0.030986434626399696
739.0, 0.03302764073224098
740.0, 0.03507046090332189
741.0, 0.03498490178957122
742.0, 0.03633435922511114
743.0, 0.038349980715161464
744.0, 0.039992646308803365
745.0, 0.04132571231482249
746.0, 0.04405364844317666
747.0, 0.04626311672365602
748.0, 0.04718629850351214
749.0, 0.04736701064540854
750.0, 0.04772731761732949
751.0, 0.04980585966695596
752.0, 0.05126292233876879
753.0, 0.05289052506457748
754.0, 0.05540976948628883
755.0, 0.06009693560475215
756.0, 0.06108636570052423
757.0, 0.0638315485379785
758.0, 0.06799511498749615
759.0, 0.07126506526449793
760.0, 0.0744298337546636
761.0, 0.07791276798174916
762.0, 0.08175327309097076
763.0, 0.085938772579158
764.0, 0.0903317283599791
765.0, 0.09517307139336288
766.0, 0.10032381033455144
767.0, 0.10577661330579886
768.0, 0.11156813979958165
769.0, 0.11815695603140097
770.0, 0.12267302155424827
771.0, 0.12999836949350574
772.0, 0.1419680669359279
773.0, 0.14534543113449774
774.0, 0.15096528389940556
775.0, 0.15969820222797415
776.0, 0.16988412223673327
777.0, 0.17762429060850987
778.0, 0.1905048153435859
779.0, 0.20121476682342912
780.0, 0.2120531994913481
781.0, 0.22488388355798916
782.0, 0.23802246046992573
783.0, 0.2494518742605171
784.0, 0.26588479658319736
785.0, 0.28532090042324143
786.0, 0.2997417385358535
787.0, 0.31498873409380507
788.0, 0.32964533220116277
789.0, 0.34631655230931313
790.0, 0.3659752727756445
791.0, 0.38126646170769624
792.0, 0.3979908214633545
793.0, 0.41335719516520464
794.0, 0.4289574534588476
795.0, 0.4492186176333035
796.0, 0.4689575365323699
797.0, 0.4849792097114879
798.0, 0.5072295174751339
799.0, 0.5382374529122579
800.0, 0.5512768539430015
801.0, 0.572743911000103
802.0, 0.5990027958576214
803.0, 0.624169060996693
804.0, 0.6399716004174454
805.0, 0.6582506728119983
806.0, 0.6713072981192723
807.0, 0.6775546688954764
808.0, 0.6761245175719233
809.0, 0.6662370466250991
810.0, 0.6588798258485518
811.0, 0.6514567721265961
812.0, 0.6386313640658535
813.0, 0.6145611668955623
814.0, 0.5955651573214595
815.0, 0.5810591788536058
816.0, 0.5584062366616176
817.0, 0.5304040420745346
818.0, 0.526724586663951
819.0, 0.5024526228194859
820.0, 0.4848352541947279
821.0, 0.4659039809929954
822.0, 0.436627387189158
823.0, 0.4302370121631309
824.0, 0.42068498029234863
825.0, 0.4075917776348918
826.0, 0.39407618369138525
827.0, 0.3876201135531483
828.0, 0.382736805564587
829.0, 0.37512265929172856
830.0, 0.37183424701018924
831.0, 0.375938368546946
832.0, 0.3718458779030617
833.0, 0.37000235092012634
834.0, 0.37503368479686766
835.0, 0.38248336408862993
836.0, 0.3839735241499076
837.0, 0.40036262609495743
838.0, 0.410588871773016
839.0, 0.4217628077891042
840.0, 0.4381182413230433
841.0, 0.461054102379312
842.0, 0.48756154800447793
843.0, 0.5148369801850236
844.0, 0.5459922723549997
845.0, 0.583664333475985
846.0, 0.62045282708452
847.0, 0.6663146397343478
848.0, 0.7146151534479929
849.0, 0.763019813613601
850.0, 0.811104831823023
851.0, 0.8553481887640059
852.0, 0.8916790756578741
853.0, 0.9307327071835313
854.0, 0.9719877320446995
855.0, 0.9830379125836566
856.0, 0.9951999184263804
857.0, 0.9885614565711897
858.0, 0.9667688250076771
859.0, 0.9386042349843011
860.0, 0.9047450361612033
861.0, 0.8629164428439635
862.0, 0.8123480104572083
863.0, 0.7508613060197077
864.0, 0.6747516794178904
865.0, 0.6199032468374265
866.0, 0.5752219176751063
867.0, 0.5254314232777821
868.0, 0.4674601080926572
869.0, 0.43127033390155567
870.0, 0.3978549270850242
871.0, 0.36325181409471685
872.0, 0.3329403711290152
873.0, 0.3119416751880618
874.0, 0.28099188876933945
875.0, 0.2678953982690925
876.0, 0.25488153963622123
877.0, 0.23817184978203565
878.0, 0.22192957410553657
879.0, 0.2086040483006182
880.0, 0.19561160147710827
881.0, 0.18794559074513667
882.0, 0.18437076638793148
883.0, 0.17043391880838576
884.0, 0.16493912790469598
885.0, 0.15959316287233402
886.0, 0.1541060787473358
887.0, 0.14897114991667038
888.0, 0.1434553455542306
889.0, 0.14164084742751357
890.0, 0.1364890484101258
891.0, 0.1307550643323968
892.0, 0.13078744609754808
893.0, 0.1263236616647869
894.0, 0.12460018063931125
895.0, 0.12163046616299766
896.0, 0.11634115597067929
897.0, 0.11040162125666456
898.0, 0.1099412245462341
899.0, 0.10559287054020398
900.0, 0.09998353335915079
901.0, 0.09581445744186991
902.0, 0.09536093048051547
903.0, 0.0905618437484084
904.0, 0.08405813377281597
905.0, 0.07907175159791777
906.0, 0.0779848283467109
907.0, 0.0768992698891375
908.0, 0.0703115973886734
909.0, 0.06273294874594605
910.0, 0.05652221497642953
911.0, 0.0531721330890717
912.0, 0.04750305134963351
913.0, 0.042728662271312084
914.0, 0.03972306170000609
915.0, 0.03793296353098198
916.0, 0.035390030553578436
917.0, 0.03351030471315302
918.0, 0.03140800146340845
919.0, 0.029167176578246017
920.0, 0.026893836270937607
921.0, 0.024711150798193464
922.0, 0.022745511347947382
923.0, 0.02060236699226689
924.0, 0.0187399175203726
925.0, 0.017623186852050977
926.0, 0.017604699447078934
927.0, 0.016384375788964456
928.0, 0.015393619958569795
929.0, 0.014510534012365102
930.0, 0.013457622891148444
931.0, 0.013487821103622826
932.0, 0.01162876046936906
933.0, 0.010749882317534229
934.0, 0.01060531142578961
935.0, 0.0098017847573802
936.0, 0.01111246523064986
937.0, 0.0097888625627548
938.0, 0.009057294217087815
939.0, 0.0093354578878195
940.0, 0.009019757116514872
941.0, 0.008918413437496156
942.0, 0.008818890466180868
943.0, 0.008193049477657909
944.0, 0.007315912695126137
945.0, 0.007565241901251083
946.0, 0.00887241235113741
947.0, 0.008396785659452575
948.0, 0.008262571397603526
949.0, 0.009716291706277497
950.0, 0.01198689327342178
951.0, 0.011800904117001396
952.0, 0.012367070889474837
953.0, 0.012959545556326023
954.0, 0.012907109745632923
955.0, 0.012862050792929326
956.0, 0.011707335867781629
957.0, 0.01029870491693812
958.0, 0.008676667018885918
959.0, 0.007059963914236441
960.0, 0.007201924297905899
961.0, 0.007510956128588265
962.0, 0.0067505714739887895
963.0, 0.0066959528535618755
964.0, 0.008769760940730053
965.0, 0.006026639808513057
966.0, 0.007225397701679858
967.0, 0.007323564831489634
968.0, 0.006389009263482989
969.0, 0.006272061146031849
970.0, 0.00863880708243222
971.0, 0.00727007709728189
972.0, 0.008335905276858535
973.0, 0.01155225143029997
974.0, 0.013556826069992547
975.0, 0.011637104460320534
976.0, 0.013631848719656503
977.0, 0.01504572310822843
978.0, 0.01565964821161808
979.0, 0.01758217668983843
980.0, 0.017609242887577158
981.0, 0.018418083135895342
982.0, 0.019643816729153316
983.0, 0.02110133635416741
984.0, 0.022668761298354344
985.0, 0.02195091329974144
986.0, 0.024147140308077845
987.0, 0.024931217031372018
988.0, 0.023971979573606104
989.0, 0.024331125663629362
990.0, 0.027662725738690844
991.0, 0.028481626936450913
992.0, 0.028773782237976706
993.0, 0.030252419588826032
994.0, 0.03442056906569668
995.0, 0.033655869553350114
996.0, 0.03492868449599904
997.0, 0.03594631579159333
998.0, 0.03653956644937221
999.0, 0.03875301596732642
1000.0, 0.039626959800251466
1001.0, 0.04139939029648923
1002.0, 0.04410751719386199
1003.0, 0.0470597257849521
1004.0, 0.04878713621749448
1005.0, 0.049051843228122706
1006.0, 0.05058620171720681
1007.0, 0.05129164416401713
1008.0, 0.05190511707257224
1009.0, 0.05624020209173381
1010.0, 0.05776944340696585
1011.0, 0.06050966745927948
1012.0, 0.062369436108382664
1013.0, 0.06304475172950767
1014.0, 0.06409268365675332
1015.0, 0.06567313269395685
1016.0, 0.06847684718734208
1017.0, 0.06932067467487199
1018.0, 0.06895101711316488
1019.0, 0.07178828190293181
1020.0, 0.07179365692438539
1021.0, 0.07230854238946967
1022.0, 0.0716703013861967
1023.0, 0.06991225349437276
1024.0, 0.06850410087573361
1025.0, 0.06785573065494674
1026.0, 0.06595475948665912
1027.0, 0.06350849426279596
1028.0, 0.061774394421038936
1029.0, 0.06219681794313617
1030.0, 0.06059999759283536
1031.0, 0.05788940006721923
1032.0, 0.0564720862689066
1033.0, 0.0562239245066044
1034.0, 0.05556996928931745
1035.0, 0.05481820748303456
1036.0, 0.05201043794982892
1037.0, 0.051084660632703796
1038.0, 0.05102583955644061
1039.0, 0.049027765744787094
1040.0, 0.04917531294468281
1041.0, 0.04829702470283403
1042.0, 0.04936139299383254
1043.0, 0.050103051819629776
1044.0, 0.04759906717890239
1045.0, 0.0481801845361806
1046.0, 0.0467154816062171
1047.0, 0.044490083103800086
1048.0, 0.04329139570240274
1049.0, 0.04409758860486925
1050.0, 0.04335560908583382
1051.0, 0.04142967681047007
1052.0, 0.041049114301662505
1053.0, 0.03998638899188216
1054.0, 0.03671136849342178
1055.0, 0.034994542963993076
1056.0, 0.031719685721684085
1057.0, 0.03044114423634281
1058.0, 0.02965676372732931
1059.0, 0.027846899249846485
1060.0, 0.02481250080953206
1061.0, 0.022879186832844133
1062.0, 0.019859148506990013
1063.0, 0.017842619616477817
1064.0, 0.01719117138029263
1065.0, 0.015369679521447445
1066.0, 0.01362041792448254
1067.0, 0.013805749815883298
1068.0, 0.01237495779238639
1069.0, 0.009810994444649005
1070.0, 0.010309277718981916
1071.0, 0.009330173148311824
1072.0, 0.009331670490424422
1073.0, 0.009244079438562978
1074.0, 0.00918137357030848
1075.0, 0.009718241219013058
1076.0, 0.008569359329085296
1077.0, 0.007194089455487943
1078.0, 0.006422979218308678
1079.0, 0.005517416028317356
1080.0, 0.0037738743713463625
1081.0, 0.003801831054381829
1082.0, 0.0016565319905753528
1083.0, 0.0021516134310910254
1084.0, 0.0027250821567067576
1085.0, 0.0011823014341609758
1086.0, 0.0007500314850313586
1087.0, 0.0017344845686955949
1088.0, 0.0014641993636111122
1089.0, 0.001767803289853662
1090.0, 0.0028800553352408397
1091.0, 0.0018301457766693174
1092.0, 0.0007446434277057037
1093.0, 0.0005227481050353918
1094.0, 0.0006121659518588487
1095.0, 0.0007101917826740225
1096.0, 0.0007916757216471346
1097.0, 0.0009703991860953033
1098.0, 0.0005454317917693371
1099.0, 0.0005031027870888512
1100.0, 0.0006187666216876191
1101.0, 0.0004258248298303549
1102.0, 0.0018220707885571678
1103.0, 0.003045484827981944
1104.0, 0.007388805013710844
1105.0, 0.011749914527624996
1106.0, 0.013548606954442516
1107.0, 0.01640359100362829
1108.0, 0.018791697742849667
1109.0, 0.023207071529879168
1110.0, 0.022397565724013687
1111.0, 0.013953300789463042
1112.0, 0.0038219549941050325
1113.0, 0.0007877560847055279
1114.0, 0.0007322201492094679
1115.0, 0.0013597697963687982
1116.0, 0.0013964587972984735
1117.0, 0.000597358513307154
1118.0, 0.0008689490835302634
1119.0, 0.0005983551769452216
1120.0, 0.0011402284526096454
1121.0, 0.0026459217522623495
1122.0, 0.004677781218932522
1123.0, 0.0062094329674540535
1124.0, 0.0070674661006291314
1125.0, 0.008315073933358853
1126.0, 0.008075707456346778
1127.0, 0.0051856326283062065
1128.0, 0.0003376888947824127
1129.0, 0.0004524968956842514
1130.0, 0.0004030063330545213
1131.0, 0.0005650891033141378
1132.0, 0.000979741430111357
1133.0, 0.0014189599434171565
1134.0, 0.0024111603859962483
1135.0, 0.0017630184972026084
1136.0, 0.0011024023637563204
1137.0, 0.0011594133827060801
1138.0, 0.001710269028760169
1139.0, 0.0002340764919682185
1140.0, 0.0010465323523721655
1141.0, 0.001135108369470509
1142.0, 0.0006539681478804881
1143.0, 0.0006390381592762683
1144.0, 0.002689691310986341
1145.0, 0.0008144436533640007
1146.0, 0.0005717641597037061
1147.0, 0.0003800511495254653
1148.0, 0.00022196457800547985
1149.0, 0.0007094647722024088
1150.0, 0.0002771785710095184
1151.0, 0.0001240283689020234
1152.0, 0.00031953429840958573
1153.0, 0.00039489136447946925
1154.0, 0.0001958718923910044
1155.0, 0.0005237897373641079
1156.0, 0.0006864455335611451
1157.0, 0.0008796923828937696
1158.0, 0.0013042535520326028
1159.0, 0.0016706768305895367
1160.0, 0.0014981441381360892
1161.0, 0.002898021350866499
1162.0, 0.0013883800071762115
1163.0, 0.0023132540064597024
1164.0, 0.0032512247502202605
1165.0, 0.001389429293315691
1166.0, 0.00021035682562206765
1167.0, 0.0032552977240579584
1168.0, 0.0020891600298361245
1169.0, 0.0013133277284706555
1170.0, 0.0019320479810733594
1171.0, 0.000323443773985353
1172.0, 0.00033981951312208805
1173.0, 0.00244381420048089
1174.0, 0.002261109108760344
1175.0, 0.0008700326219145608
1176.0, 0.0008918589307447475
1177.0, 0.002893515644302454
1178.0, 0.0007905538033072179
1179.0, 0.000453717807215265
1180.0, 0.0006037385060253326
1181.0, 0.0004213223957235685
1182.0, 0.0004080309140043662
1183.0, 0.00017183432830184526
1184.0, 0.0003057817334951593
1185.0, 0.0003747135485064577
1186.0, 0.00031880115521459336
1187.0, 0.0002510605275450771
1188.0, 0.0003554004606282846
1189.0, 0.00037980075630572417
1190.0, 0.0011026455016208076
1191.0, 0.001674647646413879
1192.0, 0.0015079990082355235
1193.0, 0.0006189600927036079
1194.0, 0.000786956491796628
1195.0, 0.00035201501936961134
1196.0, 0.00019807923322583186
1197.0, 0.0005390311429723482
1198.0, 0.001394459306351948
1199.0, 0.0029238909016612
1200.0, 0.001975455534561495
1201.0, 0.0020882526548680375
1202.0, 0.0014162915636399987
1203.0, 0.000602845305071378
1204.0, 0.001955814796855471
1205.0, 0.0014999503588508818
1206.0, 0.0006470264594130113
1207.0, 0.002357154591899968
1208.0, 0.003163414087000843
1209.0, 0.0014575253550756563
1210.0, 0.0022729625649907962
1211.0, 0.0025626742805692562
1212.0, 0.0010477456811288717
1213.0, 0.0013110467174539515
1214.0, 0.00279089713709195
1215.0, 0.0029402335623858068
1216.0, 0.002299750927953228
1217.0, 0.0012788096914813623
1218.0, 0.0023573741815864184
1219.0, 0.004197454039822296
1220.0, 0.004619528870804959
1221.0, 0.0017422050448169227
1222.0, 0.0021065476922864238
1223.0, 0.0026878976206958613
1224.0, 0.0026961728745865687
1225.0, 0.002841645453014518
1226.0, 0.00342654124163107
1227.0, 0.0023353609678044797
1228.0, 0.003241266654222299
1229.0, 0.004001180423986089
1230.0, 0.00309365750623073
1231.0, 0.0018974934537040336
1232.0, 0.002973443059545979
1233.0, 0.003989705351392492
1234.0, 0.005301752082378461
1235.0, 0.005408545231477728
1236.0, 0.00537994126706384
1237.0, 0.005374048392129394
1238.0, 0.004033241356463425
1239.0, 0.004270749784825388
1240.0, 0.0043057929636848334
1241.0, 0.0038940893210516157
1242.0, 0.0034311976554884174
1243.0, 0.003586664289901511
1244.0, 0.0051036064022924885
1245.0, 0.005043737155286485
1246.0, 0.005338605334635625
1247.0, 0.005663563817032791
1248.0, 0.0053904943418978425
1249.0, 0.004417725526681988
1250.0, 0.005444903978603797
1251.0, 0.0053744041567069245
1252.0, 0.004471937158392363
1253.0, 0.00455910806543076
1254.0, 0.005624545520888012
1255.0, 0.005876913752344311
1256.0, 0.005619989845318064
1257.0, 0.005381152043727378
1258.0, 0.005783813835487289
1259.0, 0.0060923328425084595
1260.0, 0.005865085320279545
1261.0, 0.00563159996847841
1262.0, 0.006330522691291762
1263.0, 0.005979933963863714
1264.0, 0.005922981598775639
1265.0, 0.006004400768626292
1266.0, 0.005959251006512267
1267.0, 0.006599328546112439
1268.0, 0.005386112365390998
1269.0, 0.005638782771083983
1270.0, 0.005766995447723423
1271.0, 0.005983970613676257
1272.0, 0.0068390959022786475
1273.0, 0.0062120712366023
1274.0, 0.005269544185011483
1275.0, 0.005010509192684334
1276.0, 0.004738556051638621
1277.0, 0.0043710082037755355
1278.0, 0.00443415745785557
1279.0, 0.005583496320426623
1280.0, 0.00466148644299492
1281.0, 0.004926507120535012
1282.0, 0.005434239289385523
1283.0, 0.004981419693240472
1284.0, 0.0033644141497743618
1285.0, 0.0053163522443175236
1286.0, 0.004617248426224244
1287.0, 0.0042729098137191815
1288.0, 0.004264167743694052
1289.0, 0.004304533672674741
1290.0, 0.004507147641391222
1291.0, 0.00456776173992987
1292.0, 0.004466096455221024
1293.0, 0.004647136001769901
1294.0, 0.004818006380020418
1295.0, 0.004771928683871592
1296.0, 0.004739421288329341
1297.0, 0.004714138888044585
1298.0, 0.0048090320975949325
1299.0, 0.004587176866781771
1300.0, 0.004606282575392626
1301.0, 0.004949472167931202
1302.0, 0.0043670146250112596
1303.0, 0.00457859472852455
1304.0, 0.004143434592865684
1305.0, 0.00302600439157238
1306.0, 0.0025766278300050154
1307.0, 0.0031745522939911385
1308.0, 0.0023255148125321565
1309.0, 0.003435700336268698
1310.0, 0.001565832438964851
1311.0, 0.0024831921954951226
1312.0, 0.0034331422945589364
1313.0, 0.0014419331365540533
1314.0, 0.001170964912770664
1315.0, 0.0026402281887619467
1316.0, 0.0025752263676836256
1317.0, 0.002973508934640586
1318.0, 0.003611648206096798
1319.0, 0.0033858496999166045
1320.0, 0.0016880864295307628
1321.0, 0.0038185701423127743
1322.0, 0.004230872014884657
1323.0, 0.0027907035648406238
1324.0, 0.0030015867322678246
1325.0, 0.005688161367008986
1326.0, 0.002381095258995466
1327.0, 0.001869252670515367
1328.0, 0.0028889723523048442
1329.0, 0.0021296733559178467
1330.0, 0.001198686201834186
1331.0, 0.002327968158391384
1332.0, 0.0040814309955018585
1333.0, 0.002832880178755678
1334.0, 0.002582947729761725
1335.0, 0.0028402514153502757
1336.0, 0.003590420323149393
1337.0, 0.004313126808902708
1338.0, 0.0032508538898819083
1339.0, 0.003183136637901619
1340.0, 0.0032173653532979116
1341.0, 0.003013227019734027
1342.0, 0.002265544091246591
1343.0, 0.002166991715805994
1344.0, 0.005831232686908175
1345.0, 0.0031658179256739243
1346.0, 0.0023158923464218816
1347.0, 0.003885242333955294
1348.0, 0.004534451134076281
1349.0, 0.002934720754367684
1350.0, 0.0026185146881096315
1351.0, 0.005104070692273937
1352.0, 0.005349980698547241
1353.0, 0.00348265976325718
1354.0, 0.0030490461317594655
1355.0, 0.004467461742171997
1356.0, 0.0037465494564101662
1357.0, 0.0035530938803619233
1358.0, 0.00429594932544527
1359.0, 0.003239617148817698
1360.0, 0.0030751911901681643
1361.0, 0.0035985956256501944
1362.0, 0.001868101677306788
1363.0, 0.0031623492503529
1364.0, 0.0036047219422142922
1365.0, 0.004586087488890221
1366.0, 0.004366350826777242
1367.0, 0.0038491740437244077
1368.0, 0.004999371517314403
1369.0, 0.004042375959866434
1370.0, 0.0025868638320279574
1371.0, 0.0031441637267382075
1372.0, 0.0036871881483547956
1373.0, 0.00380557408599352
1374.0, 0.004034306494585409
1375.0, 0.003989084396390006
1376.0, 0.005109496730200122
1377.0, 0.0046683789575437395
1378.0, 0.0033170033071293153
1379.0, 0.00311894655081684
1380.0, 0.00411231367171024
1381.0, 0.002011458625436003
1382.0, 0.0020970421155436293
1383.0, 0.005263168517444944
1384.0, 0.005410354199801566
1385.0, 0.00492880939441198
1386.0, 0.0060992365915407635
1387.0, 0.007329075943444743
1388.0, 0.005273323669122821
1389.0, 0.006682993077795501
1390.0, 0.004996412511817105
1391.0, 0.00398216371412534
1392.0, 0.004959254787493776
1393.0, 0.00565910893292281
1394.0, 0.005458321491694708
1395.0, 0.004493486108588659
1396.0, 0.004878248124902747
1397.0, 0.004563176290686118
1398.0, 0.0048470154156587284
1399.0, 0.006526933559443615
1400.0, 0.004096962436126234
1401.0, 0.0038915138200990517
1402.0, 0.005665567046176926
1403.0, 0.005507109119176297
1404.0, 0.004555312512149319
1405.0, 0.004404308567391417
1406.0, 0.004427401081892524
1407.0, 0.004994776985880028
1408.0, 0.004786340721945023
1409.0, 0.006449208834918617
1410.0, 0.0052729015849617995
1411.0, 0.0035866990769641066
1412.0, 0.00744988199522811
1413.0, 0.006269060528937077
1414.0, 0.003837936206287739
1415.0, 0.006428473741659764
1416.0, 0.006539817333461159
1417.0, 0.004983160445837068
1418.0, 0.005312689410987933
1419.0, 0.005593805473278735
1420.0, 0.004802558944319181
1421.0, 0.00471245781127337
1422.0, 0.005335728974508623
1423.0, 0.004924339196684938
1424.0, 0.003940734231689705
1425.0, 0.005172174396928839
1426.0, 0.005798081890545601
1427.0, 0.006034835486199555
1428.0, 0.005559364893086692
1429.0, 0.00538747071581939
1430.0, 0.004797974700487138
1431.0, 0.003346582559770275
1432.0, 0.004447751761187661
1433.0, 0.005443790936584966
1434.0, 0.006587608828022825
1435.0, 0.006228870234549651
1436.0, 0.0047085852602366945
1437.0, 0.0032629918338917528
1438.0, 0.0032917312781899476
1439.0, 0.006663859421883703
1440.0, 0.005494471107437325
1441.0, 0.005656321793089415
1442.0, 0.006000486419708872
1443.0, 0.0054153047859566445
1444.0, 0.004475614716663266
1445.0, 0.006028299507069169
1446.0, 0.006028571058699359
1447.0, 0.004982165384299694
1448.0, 0.005480738942042345
1449.0, 0.005329758965939947
1450.0, 0.0040093919966607584
1451.0, 0.00445632294352604
1452.0, 0.005064910246671949
1453.0, 0.003075130310713107
1454.0, 0.0043853769747434525
1455.0, 0.004549130949956702
1456.0, 0.004070198524822499
1457.0, 0.004850063346199837
1458.0, 0.003439770150002311
1459.0, 0.0020287110205904238
1460.0, 0.002046608453224407
1461.0, 0.003656878216374491
1462.0, 0.003378483330733321
1463.0, 0.002122150440949361
1464.0, 0.004101191939703132
1465.0, 0.004283005015303352
1466.0, 0.003073537251755122
1467.0, 0.0029282505413888915
1468.0, 0.003410822183904311
1469.0, 0.004810269876745366
1470.0, 0.00643622274513537
1471.0, 0.005779986515951724
1472.0, 0.0035624074630495996
1473.0, 0.005184237142530413
1474.0, 0.004290679960443459
1475.0, 0.002792704902365102
1476.0, 0.002426805399124948
1477.0, 0.002588086852755821
1478.0, 0.00011806759800704267
1479.0, 0.002178635542750516
1480.0, 0.0020593236200677455
1481.0, 0.001213040918310034
1482.0, 0.0009695705135335793
1483.0, 0.0017868380341329072
1484.0, 0.0027854560492657915
1485.0, 0.0013070631280582322
1486.0, 0.0006878970435648143
1487.0, 0.0021758061482377113
1488.0, 0.0029394483906034427
1489.0, 0.0031981856068245902
1490.0, 0.003269794772637874
1491.0, 0.002044690327053487
1492.0, 0.0020143653061268827
1493.0, 0.0023652029273574593
1494.0, 0.0026472626415037395
1495.0, 0.0021221237073104364
1496.0, 0.0015088848002815262
1497.0, 0.001503697333732719
1498.0, 0.0011508626363891704
1499.0, 0.0005030327002305814
1500.0, 0.0009299850960082498
1501.0, 0.0007341050225577406
1502.0, 0.0006693844172274328
1503.0, 0.0013807364383190746
1504.0, 0.002376751765120379
1505.0, 0.0017745444155524222
1506.0, 0.0033341608685520966
1507.0, 0.0022118204981216314
1508.0, 0.001003087300187613
1509.0, 0.0016599048228650277
1510.0, 0.002969599937119863
1511.0, 0.0021753670657196572
1512.0, 7.773224969852082e-05
1513.0, 0.002685427120063843
1514.0, 0.0032578608916982547
1515.0, 0.0014406877322229639
1516, 0.0
1517, 0.0
1518, 0.0
1519, 0.0
1520, 0.0
1521, 0.0
1522, 0.0
1523, 0.0
1524, 0.0
1525, 0.0
1526, 0.0
1527, 0.0
1528, 0.0
1529, 0.0
1530, 0.0
1531, 0.0
1532, 0.0
1533, 0.0
1534, 0.0
1535, 0.0
1536, 0.0
1537, 0.0
1538, 0.0
1539, 0.0
1540, 0.0
1541, 0.0
1542, 0.0
1543, 0.0
1544, 0.0
1545, 0.0
1546, 0.0
1547, 0.0
1548, 0.0
1549, 0.0
1550, 0.0
1551, 0.0
1552, 0.0
1553, 0.0
1554, 0.0
1555, 0.0
1556, 0.0
1557, 0.0
1558, 0.0
1559, 0.0
1560, 0.0
1561, 0.0
1562, 0.0
1563, 0.0
1564, 0.0
1565, 0.0
1566, 0.0
1567, 0.0
1568, 0.0
1569, 0.0
1570, 0.0
1571, 0.0
1572, 0.0
1573, 0.0
1574, 0.0
1575, 0.0
1576, 0.0
1577, 0.0
1578, 0.0
1579, 0.0
1580, 0.0
1581, 0.0
1582, 0.0
1583, 0.0
1584, 0.0
1585, 0.0
1586, 0.0
1587, 0.0
1588, 0.0
1589, 0.0
1590, 0.0
1591, 0.0
1592, 0.0
1593, 0.0
1594, 0.0
1595, 0.0
1596, 0.0
1597, 0.0
1598, 0.0
1599, 0.0
