30, 0.0
31, 0.0
32, 0.0
33, 0.0
34, 0.0
35, 0.0
36, 0.0
37, 0.0
38, 0.0
39, 0.0
40, 0.0
41, 0.0
42, 0.0
43, 0.0
44, 0.0
45, 0.0
46, 0.0
47, 0.0
48, 0.0
49, 0.0
50, 0.0
51, 0.0
52, 0.0
53, 0.0
54, 0.0
55, 0.0
56, 0.0
57, 0.0
58, 0.0
59, 0.0
60, 0.0
61, 0.0
62, 0.0
63, 0.0
64, 0.0
65, 0.0
66, 0.0
67, 0.0
68, 0.0
69, 0.0
70, 0.0
71, 0.0
72, 0.0
73, 0.0
74, 0.0
75, 0.0
76, 0.0
77, 0.0
78, 0.0
79, 0.0
80, 0.0
81, 0.0
82, 0.0
83, 0.0
84, 0.0
85, 0.0
86, 0.0
87, 0.0
88, 0.0
89, 0.0
90, 0.0
91, 0.0
92, 0.0
93, 0.0
94, 0.0
95, 0.0
96, 0.0
97, 0.0
98, 0.0
99, 0.0
100, 0.0
101.0, 5.50641630512436e-06
102.0, 5.2569803528407695e-05
103.0, 0.00029546352250689787
104.0, 0.0017379520862653962
105.0, 0.0019742818167318966
106.0, 0.0002049760856584217
107.0, 0.0008585980592359019
108.0, 0.0007975203963047215
109.0, 0.0024476474483252466
110.0, 0.0041976755099395295
111.0, 0.004847212451625691
112.0, 0.004179168832823675
113.0, 0.008163727590354074
114.0, 0.008229536443350066
115.0, 0.00771560586303347
116.0, 0.008768198657812854
117.0, 0.011753567520563321
118.0, 0.009693550471621022
119.0, 0.010820120608715804
120.0, 0.00906299633848517
121.0, 0.007852264322638608
122.0, 0.009819771675319312
123.0, 0.009438949308998034
124.0, 0.00846122060910379
125.0, 0.009882431585826074
126.0, 0.010256208394215332
127.0, 0.009671305533610515
128.0, 0.01278536182881377
129.0, 0.016596202094317815
130.0, 0.014741985164369857
131.0, 0.01515656014501225
132.0, 0.01713453527003961
133.0, 0.01622332448872183
134.0, 0.014379974705169033
135.0, 0.017791393706201458
136.0, 0.022041832787990143
137.0, 0.022525918433103635
138.0, 0.018800002816501515
139.0, 0.020138882965395257
140.0, 0.01905538794607548
141.0, 0.02264148099543398
142.0, 0.0288838579447401
143.0, 0.03586874479879165
144.0, 0.042395744472356216
145.0, 0.04696599993048611
146.0, 0.0485244569389714
147.0, 0.0467029296464238
148.0, 0.041138169412629294
149.0, 0.03313145750158927
150.0, 0.03056217308706207
151.0, 0.02893024109723382
152.0, 0.026563533374659574
153.0, 0.026994865842152164
154.0, 0.030605964636695973
155.0, 0.0317884184609206
156.0, 0.031079776243284462
157.0, 0.032334732632449306
158.0, 0.031512903537014886
159.0, 0.028677173995777575
160.0, 0.026699602740866656
161.0, 0.02881387030775022
162.0, 0.029707324838322863
163.0, 0.03292111672945798
164.0, 0.036399794410403676
165.0, 0.03638389727391688
166.0, 0.028271044888038818
167.0, 0.029792533546557507
168.0, 0.0284803159463707
169.0, 0.026571997838346503
170.0, 0.025085976170278645
171.0, 0.023118777800284408
172.0, 0.017011273110392678
173.0, 0.017756533132795845
174.0, 0.016999380658736855
175.0, 0.015009798290704738
176.0, 0.015241396104377657
177.0, 0.022457168333308637
178.0, 0.020424874145553527
179.0, 0.021988402072663556
180.0, 0.024306911248141373
181.0, 0.024720946867833257
182.0, 0.022618931807987037
183.0, 0.024273329200487456
184.0, 0.025228867592311657
185.0, 0.022254383646184553
186.0, 0.02030923596478447
187.0, 0.02362087166341826
188.0, 0.02384018486760716
189.0, 0.02668375787831735
190.0, 0.029425753244403087
191.0, 0.031508671355946774
192.0, 0.03338904372061726
193.0, 0.03611674867145215
194.0, 0.035391993781710415
195.0, 0.035390262887393616
196.0, 0.03317698276281122
197.0, 0.028593645978293038
198.0, 0.023807579824344744
199.0, 0.02492453896531927
200.0, 0.02157323409595689
201.0, 0.019834878149521257
202.0, 0.018712644553467005
203.0, 0.018499564345715366
204.0, 0.02105636491481096
205.0, 0.022366127773907042
206.0, 0.02365693410450334
207.0, 0.02330241575220642
208.0, 0.02386470496923656
209.0, 0.026849172702364903
210.0, 0.026762374943454393
211.0, 0.02396147681027529
212.0, 0.023872717999562063
213.0, 0.02308957129641272
214.0, 0.021084124959797154
215.0, 0.020306688400252806
216.0, 0.021403068169494492
217.0, 0.020648205453736225
218.0, 0.02134737446020129
219.0, 0.0218406974444356
220.0, 0.021286990810114717
221.0, 0.023529503231457267
222.0, 0.021419475870406792
223.0, 0.018486625758964443
224.0, 0.013321044683877951
225.0, 0.010109359889929045
226.0, 0.013713989546402816
227.0, 0.01013856556109877
228.0, 0.011258180073012517
229.0, 0.013371904579090361
230.0, 0.013329468182998709
231.0, 0.012010742103248205
232.0, 0.01565813576096705
233.0, 0.010018001409798843
234.0, 0.010523901606544352
235.0, 0.012982249312972873
236.0, 0.01303331181838078
237.0, 0.009278586107004093
238.0, 0.010410401954952648
239.0, 0.011035626383693986
240.0, 0.010192440712073472
241.0, 0.008864939095178683
242.0, 0.009057315460973584
243.0, 0.0125462172955941
244.0, 0.011998866705577933
245.0, 0.011518806815955898
246.0, 0.011960523446040906
247.0, 0.012615223873284696
248.0, 0.012030672359421256
249.0, 0.00829221193917623
250.0, 0.008331066075437111
251.0, 0.010605992418451133
252.0, 0.00991917158577324
253.0, 0.00821446900871208
254.0, 0.00957644363155007
255.0, 0.00941533629988055
256.0, 0.008733820097148282
257.0, 0.009753304808222585
258.0, 0.011617421154965387
259.0, 0.01175510193581282
260.0, 0.00758859327189809
261.0, 0.010654069838557717
262.0, 0.0076377795727851335
263.0, 0.009503011957323252
264.0, 0.012244624968655055
265.0, 0.012550690189366276
266.0, 0.01651107545441625
267.0, 0.012949216891288286
268.0, 0.011435840386502959
269.0, 0.012998800084515294
270.0, 0.014379564896254946
271.0, 0.01277246716670223
272.0, 0.014981092025843532
273.0, 0.016851968863668552
274.0, 0.01758900464639334
275.0, 0.015598709704863689
276.0, 0.012576419026469552
277.0, 0.012231104593517823
278.0, 0.011483639520278113
279.0, 0.01199416329091851
280.0, 0.013445828051829898
281.0, 0.013314709673291538
282.0, 0.011658639744087663
283.0, 0.012455992198795294
284.0, 0.00976482935869077
285.0, 0.009173145999903641
286.0, 0.01045688829366368
287.0, 0.010725280975467053
288.0, 0.008885589933606709
289.0, 0.01018979789343443
290.0, 0.007887186034934575
291.0, 0.007223994567818827
292.0, 0.006131820239885262
293.0, 0.00717476548008807
294.0, 0.013010740519119903
295.0, 0.015961709718829226
296.0, 0.006770933584774151
297.0, 0.006209663785171255
298.0, 0.004458663513066522
299.0, 0.0010636712601903102
300.0, 0.0038052260726999135
301.0, 0.0030349464215874925
302.0, 0.004725542465093597
303.0, 0.005426238447750869
304.0, 0.005462970922778227
305.0, 0.004362057845019012
306.0, 0.000565040948676616
307.0, 0.0014857572469264742
308.0, 0.003780378661987025
309.0, 0.0028584464059802366
310.0, 0.0023309111393397816
311.0, 0.004615409313109991
312.0, 0.006171311617041949
313.0, 0.008603826008453885
314.0, 0.003958654752363719
315.0, 0.004321389490764808
316.0, 0.006162122084870578
317.0, 0.003976735600476356
318.0, 0.002821059709051189
319.0, 0.000843571161414943
320.0, 0.0002504791910779057
321.0, 0.0022613180773999497
322.0, 0.004605746549529787
323.0, 0.004536833340402161
324.0, 0.0035511740910352248
325.0, 0.002838927256843375
326.0, 0.0031944222032004635
327.0, 0.002609418268699925
328.0, 0.0022261264741277723
329.0, 0.004271583191314104
330.0, 0.006115603824255817
331.0, 0.004847288469071981
332.0, 0.002050069383662332
333.0, 0.001878457129763607
334.0, 0.004228563786817196
335.0, 0.005223621603208611
336.0, 0.0011915002111766186
337.0, 0.002092612161543982
338.0, 0.002382537756092324
339.0, 0.002188761995784674
340.0, 0.0018989838620240666
341.0, 0.0015517649718849971
342.0, 0.002225265649228299
343.0, 0.0019406520688169705
344.0, 0.003599918031821835
345.0, 0.0047749508247050595
346.0, 0.004937081161696382
347.0, 0.005865661983008757
348.0, 0.0015478023502910583
349.0, 0.0014385973503933027
350.0, 0.0023174622235716514
351.0, 0.0020229436885813522
352.0, 0.0018000193619406107
353.0, 0.0054819034807717035
354.0, 0.003984219136261942
355.0, 0.001187974228308415
356.0, 0.001343863562027402
357.0, 0.002492562297591589
358.0, 0.0032218945011890346
359.0, 0.004487574889702615
360.0, 0.003027795318680308
361.0, 0.0016287840502330851
362.0, 0.001864029406875966
363.0, 0.0030727489009794652
364.0, 0.004381037757054445
365.0, 0.005518060181022191
366.0, 0.0066993296196780775
367.0, 0.0027759757949013192
368.0, 0.0011368789134233556
369.0, 0.0017543675200304403
370.0, 0.002430330821787046
371.0, 0.0013295927584826804
372.0, 0.003638206466320867
373.0, 0.0033799609170102655
374.0, 0.0017478243374734772
375.0, 0.001181204627763883
376.0, 0.0022341743874167226
377.0, 0.0028304360166795566
378.0, 0.004623242215424972
379.0, 0.0038867328816688035
380.0, 0.002199888402612484
381.0, 0.0011989107370812308
382.0, 0.001466244081148519
383.0, 0.002157332906806529
384.0, 0.002116659136293783
385.0, 0.004269032337291504
386.0, 0.002721599348470707
387.0, 0.000765748917667096
388.0, 0.0009209471844781668
389.0, 0.0021851880779126527
390.0, 0.0024595667254742833
391.0, 0.001474873830050947
392.0, 0.0027851052485102267
393.0, 0.003714046889441308
394.0, 0.004069732970657097
395.0, 0.006397884414863988
396.0, 0.006299790517088614
397.0, 0.0020229093948282125
398.0, 0.003121869157104411
399.0, 0.005298200264609262
400.0, 0.004730619130254343
401.0, 0.001753768492510858
402.0, 0.004651023700671709
403.0, 0.00427963209108451
404.0, 0.001603613490784473
405.0, 0.0014246263874129292
406.0, 0.0027571814304272638
407.0, 0.0017245905774473662
408.0, 0.0020386579200627848
409.0, 0.0006488848070475296
410.0, 0.002600303105057083
411.0, 0.0028034324510594734
412.0, 0.0011047179745395928
413.0, 0.0009415316942620339
414.0, 0.005276272987402674
415.0, 0.0018588298181273623
416.0, 0.0008402813726695074
417.0, 0.001646461505748392
418.0, 0.0023282369806075375
419.0, 0.0017760211356304637
420.0, 0.001738888460774748
421.0, 0.0011337112596453657
422.0, 0.004114456100407967
423.0, 0.0033071907333582936
424.0, 0.0016472039933930482
425.0, 0.002190121973777485
426.0, 0.0017319953499963163
427.0, 0.0018851479156337166
428.0, 0.0023559574317760963
429.0, 0.002624501609134275
430.0, 0.0022772423510685523
431.0, 0.001317179400606313
432.0, 0.00044727820051715156
433.0, 0.002360356084821871
434.0, 0.003514508678999748
435.0, 0.003500706289019435
436.0, 0.003221653287941545
437.0, 0.0041355841630614084
438.0, 0.006148038004643615
439.0, 0.0011954604671278587
440.0, 0.0015981306645029977
441.0, 0.0023484528069304057
442.0, 0.0026144024691686753
443.0, 0.0024449782732539867
444.0, 0.002314403409810518
445.0, 0.0027737271184332408
446.0, 0.0019241415395472071
447.0, 0.0009601739482585527
448.0, 0.0008476632684758534
449.0, 0.0028471359969462506
450.0, 0.005384824482261493
451.0, 0.0027601805480511796
452.0, 0.005608693289243724
453.0, 0.004550750316904988
454.0, 0.0037961990835892042
455.0, 0.0023339205375333097
456.0, 0.000961024085801719
457.0, 0.0028987606214835935
458.0, 0.002219374944979113
459.0, 0.0014451877099407135
460.0, 0.0004823232098436335
461.0, 0.001834565141070844
462.0, 0.0031671245348556106
463.0, 0.00084174514005136
464.0, 0.0003764859299274747
465.0, 0.0024616643023525407
466.0, 0.0014894213329310407
467.0, 0.002220015773280967
468.0, 0.003859282092999545
469.0, 0.004166019769126973
470.0, 0.0040620881112360474
471.0, 0.0029070615033566756
472.0, 0.0038261290061921685
473.0, 0.0030869418351337588
474.0, 0.0023047476156365957
475.0, 0.002036089258535396
476.0, 0.0005168231034905099
477.0, 0.0006296821353924397
478.0, 0.0022137257422877106
479.0, 0.003940589234577827
480.0, 0.004460951200955057
481.0, 0.004215257187250845
482.0, 0.0041721627363398425
483.0, 0.0030834946666160636
484.0, 0.00286088015712032
485.0, 0.002745077277875658
486.0, 0.002779696277339286
487.0, 0.003663817801732685
488.0, 0.00506967619986169
489.0, 0.004911037746597871
490.0, 0.0024741150574756586
491.0, 0.0020952596177608728
492.0, 0.004125525072761911
493.0, 0.003242592260553578
494.0, 0.0015946566101255816
495.0, 0.005213213158396593
496.0, 0.0067459818423836705
497.0, 0.0052410399820766
498.0, 0.007593616832562096
499.0, 0.004516045504025056
500.0, 0.0015461860231902676
501.0, 0.0032264865042951414
502.0, 0.0001804976047546092
503.0, 0.003556832975362888
504.0, 0.0014544039597325763
505.0, 0.004157307184172166
506.0, 0.0054665410121957116
507.0, 0.002769686772582238
508.0, 0.0003070833893692575
509.0, 0.0012206821929648273
510.0, 0.0013550286263580864
511.0, 0.00342524563594509
512.0, 0.002907929126087243
513.0, 0.001382789269948629
514.0, 0.001887973177392351
515.0, 0.0038123383130716213
516.0, 0.003262981841005888
517.0, 0.0033449290370356037
518.0, 0.0036099839439232553
519.0, 0.002875006475509241
520.0, 0.001254668868736335
521.0, 0.00060323294257751
522.0, 0.004190718904288996
523.0, 0.0022386397180206878
524.0, 0.0022613588518608846
525.0, 0.0020570145525526076
526.0, 0.0014852903675263227
527.0, 0.0017193985018770777
528.0, 0.003494094897998226
529.0, 0.0010711315320671565
530.0, 0.0027799419892990096
531.0, 0.007808549879243194
532.0, 0.008725768364309988
533.0, 0.006796596390933588
534.0, 0.006620004742187876
535.0, 0.001849448406840131
536.0, 0.003333075687793184
537.0, 0.0032869400522526006
538.0, 0.002661553934751361
539.0, 0.002938657025053227
540.0, 0.003798715059330853
541.0, 0.0032043288181856566
542.0, 0.002089000943554014
543.0, 0.0032435190569824373
544.0, 0.001551172884734117
545.0, 0.00032467775151815185
546.0, 0.0009353200338702761
547.0, 0.002120917353060808
548.0, 0.0012592060207084876
549.0, 0.0023896249984849145
550.0, 0.0037135476030275595
551.0, 0.0019058496923591648
552.0, 0.0009042907555133498
553.0, 0.0016458453234690633
554.0, 0.0018969939085267803
555.0, 0.0011749209245773356
556.0, 0.006711452641056095
557.0, 0.0049887909341644636
558.0, 0.004214466997437196
559.0, 0.0042835534359129505
560.0, 0.003193407797558664
561.0, 0.0015032858797739343
562.0, 0.005862079029468522
563.0, 0.004947515716393654
564.0, 0.001835370501384309
565.0, 0.0007872896777113503
566.0, 0.001955614942991708
567.0, 0.0039147605132948005
568.0, 0.005633535362009353
569.0, 0.0006143825987808887
570.0, 0.0028500904800090854
571.0, 0.0035757109307249604
572.0, 0.005161279914286504
573.0, 0.0067963384619061035
574.0, 0.00586521003274408
575.0, 0.0029690898237869873
576.0, 0.005556217790001497
577.0, 0.0015193987225614767
578.0, 0.0037767696622831703
579.0, 0.003885420964441885
580.0, 0.001994000169712537
581.0, 0.0045224097270770425
582.0, 0.004159613270803218
583.0, 0.002385032617735755
584.0, 0.006312566735643045
585.0, 0.006748324813140842
586.0, 0.006433778556958252
587.0, 0.006399923483385388
588.0, 0.004214331460570711
589.0, 0.004987856988129583
590.0, 0.0039133685267092305
591.0, 0.004448259739014313
592.0, 0.004845617494612889
593.0, 0.004001241540146695
594.0, 0.0021602692629120483
595.0, 0.0007119215415729177
596.0, 0.0007634669513226287
597.0, 0.0028738064723143
598.0, 0.0014296011553353153
599.0, 0.00188693437731268
600.0, 0.0024144243737095443
601.0, 0.0011904521495499688
602.0, 0.0013929135128414641
603.0, 0.006988055917298312
604.0, 0.007552150287934809
605.0, 0.007659579809946325
606.0, 0.007075586221189349
607.0, 0.0062836112713531575
608.0, 0.006326584766441901
609.0, 0.0076122111362148075
610.0, 0.0064019509067399
611.0, 0.006371451311477025
612.0, 0.0061398026492259375
613.0, 0.005135684606793469
614.0, 0.004585131716947582
615.0, 0.004388705785563147
616.0, 0.002273089204165939
617.0, 0.004758286486933798
618.0, 0.0037986877158723803
619.0, 0.004425776622738742
620.0, 0.004700389765595345
621.0, 0.005079388233469899
622.0, 0.005936260056151097
623.0, 0.004997004164990662
624.0, 0.0008511750623509278
625.0, 0.009219303291225209
626.0, 0.004921805418335529
627.0, 0.003110717997697918
628.0, 0.00304571682952606
629.0, 0.0018854664905998911
630.0, 0.007038687984349628
631.0, 0.004785638679884437
632.0, 0.0042165752202427634
633.0, 0.007106550628492275
634.0, 0.006001754399161741
635.0, 0.004707243743244771
636.0, 0.007176419287259292
637.0, 0.008764194681410353
638.0, 0.006314613955991715
639.0, 0.004795168910990737
640.0, 0.007564826182103724
641.0, 0.006997042022813655
642.0, 0.007200420379421219
643.0, 0.011726452653045956
644.0, 0.014139264703045759
645.0, 0.0009553620950788645
646.0, 0.0019202715288267648
647.0, 0.003898388778285226
648.0, 0.003239893091506606
649.0, 0.00459268553599375
650.0, 0.0068594382068269
651.0, 0.0033813289112721652
652.0, 0.004830751619075821
653.0, 0.000941818374683971
654.0, 0.0051498692114756075
655.0, 0.006085430756808118
656.0, 0.004222313520445244
657.0, 0.0051181492213130345
658.0, 0.009391196323607137
659.0, 0.00230659231776203
660.0, 0.002456697599567947
661.0, 0.007331869487969612
662.0, 0.0062572293360624
663.0, 0.004541811481789927
664.0, 0.004272029903015092
665.0, 0.003800156054518974
666.0, 0.006041963553403458
667.0, 0.005903996671784846
668.0, 0.006215427789397943
669.0, 0.007164248835721234
670.0, 0.007449700579075888
671.0, 0.007402893083557251
672.0, 0.007655648762748075
673.0, 0.007335907095513161
674.0, 0.006139234318773211
675.0, 0.006167112194687703
676.0, 0.005482201535305841
677.0, 0.004496442168834483
678.0, 0.0030714460962158172
679.0, 0.002539004255684728
680.0, 0.004666347560703246
681.0, 0.003233927236566193
682.0, 0.004113018490394096
683.0, 0.003990602094443491
684.0, 0.0037120257575252733
685.0, 0.004241070765670506
686.0, 0.0069378974836446046
687.0, 0.009565909650550352
688.0, 0.0010835400717126263
689.0, 0.004466701737708219
690.0, 0.007562976331055375
691.0, 0.005734131091038278
692.0, 0.004611127310122143
693.0, 0.003676486905616962
694.0, 0.002862405397080345
695.0, 0.010089645736203317
696.0, 0.011755884638901103
697.0, 0.008297352360371928
698.0, 0.01321695353610958
699.0, 0.016743038398271546
700.0, 0.023626162080194774
701.0, 0.03635306634873614
702.0, 0.04806143192112631
703.0, 0.062135961497415376
704.0, 0.06050686346104734
705.0, 0.06411845431195717
706.0, 0.06238941949321626
707.0, 0.05885031663033794
708.0, 0.05462122301352468
709.0, 0.046376587763438136
710.0, 0.0329434282373694
711.0, 0.016707388389926397
712.0, 0.009048341603146222
713.0, 0.008832828335612717
714.0, 0.00715154444337319
715.0, 0.006862964018804451
716.0, 0.008369169502346768
717.0, 0.004201073356158649
718.0, 0.0018714146244948099
719.0, 0.005320409437983113
720.0, 0.00480610805035757
721.0, 0.0020555339493232537
722.0, 0.003790696126789884
723.0, 0.007619955269495139
724.0, 0.006342395880304174
725.0, 0.001541045671819515
726.0, 0.006079170950009257
727.0, 0.00871560029882996
728.0, 0.008445086615071038
729.0, 0.005837260320095449
730.0, 0.004640860541403794
731.0, 0.006836766955425545
732.0, 0.009001011517208828
733.0, 0.003181822313365275
734.0, 0.007390887974647103
735.0, 0.002475766934563366
736.0, 0.0031208298491200983
737.0, 0.0034689216548543685
738.0, 0.004161839588079837
739.0, 0.006784722337317656
740.0, 0.003944771104051948
741.0, 0.0022410000130323286
742.0, 0.0027240795660356735
743.0, 0.001307114535227347
744.0, 0.0033078994775739344
745.0, 0.005047277666302788
746.0, 0.00386347636073058
747.0, 0.0024720840654333586
748.0, 0.005374122627092722
749.0, 0.007499689038162206
750.0, 0.006234519442767547
751.0, 0.007682680392146261
752.0, 0.005158362050968133
753.0, 0.003997508847673536
754.0, 0.005685582166316242
755.0, 0.0032216602582043515
756.0, 0.0026622860265276857
757.0, 0.0034463719221835003
758.0, 0.0014464987030355252
759.0, 0.0019957161778120214
760.0, 0.0032354233153949565
761.0, 0.0050729974617154915
762.0, 0.00722377283689955
763.0, 0.0074898881386269165
764.0, 0.009320226844571811
765.0, 0.008780890305987984
766.0, 0.003985395691924087
767.0, 0.0026529158612017983
768.0, 0.0056297257913770354
769.0, 0.005816160864971776
770.0, 0.0016461577241069065
771.0, 0.004886596720467133
772.0, 0.005802029346837171
773.0, 0.001446643730305614
774.0, 0.0008485433406284275
775.0, 0.002239236929901513
776.0, 0.0026345649131925227
777.0, 0.0031781957398642887
778.0, 0.005259195277780296
779.0, 0.004673327136576851
780.0, 0.004540601869872659
781.0, 0.00614123208501755
782.0, 0.006405973641920168
783.0, 0.005008227364808222
784.0, 0.004782193502520073
785.0, 0.004286430758225561
786.0, 0.0017822417155556264
787.0, 0.003560303325583088
788.0, 0.003983761631046759
789.0, 0.003936028230257082
790.0, 0.00735985246055685
791.0, 0.005622126951268802
792.0, 0.003999539244000872
793.0, 0.00508217732479291
794.0, 0.0043260083379096275
795.0, 0.000817243381338594
796.0, 0.007770571427426766
797.0, 0.0015514510059739185
798.0, 0.0035102502085108903
799.0, 0.0036457607849950733
800.0, 0.003117285595854618
801.0, 0.004416376079566857
802.0, 0.005783323609677852
803.0, 0.005273585242193771
804.0, 0.008559207496714528
805.0, 0.0051387669467729425
806.0, 0.00686020327565418
807.0, 0.005112547841752817
808.0, 0.005201734351246734
809.0, 0.006990511113052558
810.0, 0.005922417092117427
811.0, 0.006497910203299842
812.0, 0.006091823834129415
813.0, 0.006874792350969228
814.0, 0.006690813938826853
815.0, 0.006097611579573415
816.0, 0.006199000411432574
817.0, 0.0074440405612822644
818.0, 0.00935087928450735
819.0, 0.010513813496897026
820.0, 0.007496828490569386
821.0, 0.011325821294106456
822.0, 0.009162389351783325
823.0, 0.006519915973792451
824.0, 0.00756935308720787
825.0, 0.008754559559491368
826.0, 0.008375247249636186
827.0, 0.010679258613827309
828.0, 0.0053553968450580965
829.0, 0.0037474117995486677
830.0, 0.003891359078799097
831.0, 0.006578735241142356
832.0, 0.005584652732622446
833.0, 0.003253263500636548
834.0, 0.0030287759035123427
835.0, 0.0029917492970760223
836.0, 0.0021041897123977773
837.0, 0.01070919127397807
838.0, 0.00888384605454534
839.0, 0.00753878012843827
840.0, 0.005521179614929952
841.0, 0.004098350017545483
842.0, 0.003666064421152428
843.0, 0.003278562780337082
844.0, 0.0038298704642447615
845.0, 0.004206260144163606
846.0, 0.004850922346316248
847.0, 0.00409890584242477
848.0, 0.0027879710242613626
849.0, 0.005908836423611385
850.0, 0.0063980810167650745
851.0, 0.0017295420865553392
852.0, 0.005977097142290147
853.0, 0.014552464513930843
854.0, 0.008334947702303919
855.0, 0.008837823279179521
856.0, 0.009961113775372999
857.0, 0.0065184526811477884
858.0, 0.005066899122937655
859.0, 0.005421355294715274
860.0, 0.0022763554970509883
861.0, 0.007770483585132068
862.0, 0.005932045588130066
863.0, 0.004950775931893737
864.0, 0.009063410235818302
865.0, 0.0067629810592619456
866.0, 0.004007174219711103
867.0, 0.004013651262741077
868.0, 0.004664179418723094
869.0, 0.005998806955707752
870.0, 0.008017338645576372
871.0, 0.008972880328891293
872.0, 0.005305863468217981
873.0, 0.007906564594267154
874.0, 0.008700327035596955
875.0, 0.005245829029339308
876.0, 0.001597126319140065
877.0, 0.0009306536771877508
878.0, 0.0007365099640149076
879.0, 0.005635643265889032
880.0, 0.0011277703300743298
881.0, 0.003419957118349081
882.0, 0.005903489576026789
883.0, 0.0045210901855384225
884.0, 0.0031256889456720994
885.0, 0.0052720725411000095
886.0, 0.007983970280166517
887.0, 0.007897537221444243
888.0, 0.0043867096869802434
889.0, 0.0019152148775188954
890.0, 0.0043275903470939275
891.0, 0.0071450003675166875
892.0, 0.006057066823304079
893.0, 0.004378511995267142
894.0, 0.006171713455324689
895.0, 0.007472485438359993
896.0, 0.004624191947397011
897.0, 0.002673224662699522
898.0, 0.0014166227311975584
899.0, 0.00221170718450263
900.0, 0.004701786940413387
901.0, 0.005275160242914605
902.0, 0.002980170431733268
903.0, 0.0023281955000633014
904.0, 0.007542286627762134
905.0, 0.006335848898854671
906.0, 0.0016121121509697417
907.0, 0.004714969592335985
908.0, 0.004345566852880562
909.0, 0.004217403550196229
910.0, 0.004417458403312765
911.0, 0.0031402429553327726
912.0, 0.00288939219591926
913.0, 0.007954681548471936
914.0, 0.00035798661961720935
915.0, 0.006799668588414529
916.0, 0.004045769466309123
917.0, 0.007564083472487233
918.0, 0.006553217097666035
919.0, 0.003490345999796247
920.0, 0.0028383475161117256
921.0, 0.0023830231205168367
922.0, 0.0023758454140560374
923.0, 0.002620006585044879
924.0, 0.0035896401544505277
925.0, 0.005442429637478511
926.0, 0.005853322141831737
927.0, 0.006657459211056652
928.0, 0.006453926964350126
929.0, 0.006497867464361543
930.0, 0.0069369096336256205
931.0, 0.0014832660123544625
932.0, 0.00923193263294549
933.0, 0.0056220390414467815
934.0, 0.0016191405236538996
935.0, 0.013569650643011093
936.0, 0.011001536538537676
937.0, 0.004453963004106858
938.0, 0.00668519394052736
939.0, 0.009418823272501953
940.0, 0.006586088427953832
941.0, 0.010798709020201793
942.0, 0.005500547062982766
943.0, 0.007792274022549889
944.0, 0.006963927969579689
945.0, 0.005501395964411382
946.0, 0.0031397242031004843
947.0, 0.0020983160179895025
948.0, 0.0035311230868314974
949.0, 0.0034556892761221014
950.0, 0.0044422563921627444
951.0, 0.00814525740726344
952.0, 0.005320827061076273
953.0, 0.006280859355586474
954.0, 0.007994086584409301
955.0, 0.007785672348434147
956.0, 0.004697986701465007
957.0, 0.002156712757555016
958.0, 0.004628555914307446
959.0, 0.00731138797676681
960.0, 0.0019676416700195967
961.0, 0.005903875714079472
962.0, 0.008704052618798612
963.0, 0.004315869478627292
964.0, 0.0021088155241473115
965.0, 0.003689255834833263
966.0, 0.007030253942378871
967.0, 0.010041293483313203
968.0, 0.009017614181855624
969.0, 0.010971280103602432
970.0, 0.0058545049997855494
971.0, 0.009766544492134715
972.0, 0.006533252374052984
973.0, 0.0033803355210237796
974.0, 0.0014595145011532674
975.0, 0.0021090103444983033
976.0, 0.005227306159061806
977.0, 0.007594415671701027
978.0, 0.011095348651840255
979.0, 0.008076352357369598
980.0, 0.0056976924227372105
981.0, 0.009735341882503332
982.0, 0.006542456372719639
983.0, 0.0046644547827127516
984.0, 0.005598703101964892
985.0, 0.0077673943316069055
986.0, 0.009109797055740434
987.0, 0.005918661575442711
988.0, 0.009022481043819938
989.0, 0.005858068064679742
990.0, 0.00393520173707687
991.0, 0.003259162765056862
992.0, 0.003756125721186973
993.0, 0.004753640075316411
994.0, 0.007048782867554148
995.0, 0.007256151491379828
996.0, 0.004364208334680588
997.0, 0.009357812216145605
998.0, 0.006984822952467317
999.0, 0.010327260856295326
1000.0, 0.010179413091224571
1001.0, 0.009856457951490226
1002.0, 0.009133429392153735
1003.0, 0.006849284568434974
1004.0, 0.005425485220737144
1005.0, 0.0048884638411544334
1006.0, 0.0038647773689171766
1007.0, 0.009414768291562814
1008.0, 0.008407501254763321
1009.0, 0.0041236646906586336
1010.0, 0.0072951096381270114
1011.0, 0.004993130327352575
1012.0, 0.004119322198289185
1013.0, 0.005658041244513303
1014.0, 0.0056227216334226076
1015.0, 0.005290738251661846
1016.0, 0.007248158519489252
1017.0, 0.0013512821321565384
1018.0, 0.006103323699699603
1019.0, 0.001583307906211489
1020.0, 0.0034662887950407343
1021.0, 0.0028077801782798338
1022.0, 0.003319833906097295
1023.0, 0.0028450380038953916
1024.0, 0.005423022905322822
1025.0, 0.00812176667227417
1026.0, 0.003242607709863981
1027.0, 0.008062536423969452
1028.0, 0.0024273569074124046
1029.0, 0.002275157097728934
1030.0, 0.004151807652776941
1031.0, 0.00439922415240055
1032.0, 0.0022466540407359206
1033.0, 0.0025058631565376896
1034.0, 0.0038199988836113328
1035.0, 0.004545088318743064
1036.0, 0.006788671770995711
1037.0, 0.007057560679299198
1038.0, 0.0005252524940990112
1039.0, 0.00870118729139802
1040.0, 0.010224650411440299
1041.0, 0.003671793017803759
1042.0, 0.003045352381876642
1043.0, 0.003335957185436757
1044.0, 0.0030342877287807078
1045.0, 0.004371193823269082
1046.0, 0.006941856333266939
1047.0, 0.008142436403786193
1048.0, 0.0038415405223048305
1049.0, 0.006336508927138118
1050.0, 0.003495552095418825
1051.0, 0.0038114993540893875
1052.0, 0.0017761801338467913
1053.0, 0.0011991913613125728
1054.0, 0.0012657079647650444
1055.0, 0.002524999788928096
1056.0, 0.007124561193112158
1057.0, 0.010793435020946549
1058.0, 0.004695141738720381
1059.0, 0.004803000150242335
1060.0, 0.014816126771825523
1061.0, 0.009505151885107258
1062.0, 0.010338192759335658
1063.0, 0.010441970410903645
1064.0, 0.010293776880842872
1065.0, 0.01057438072106874
1066.0, 0.00824148434672349
1067.0, 0.005185487220940757
1068.0, 0.008982700969406001
1069.0, 0.008310392352407726
1070.0, 0.00600682107772289
1071.0, 0.014263493117213583
1072.0, 0.01019754294787699
1073.0, 0.00661203866245704
1074.0, 0.007014762327907216
1075.0, 0.008138049757513198
1076.0, 0.011323932118193618
1077.0, 0.014107068999721839
1078.0, 0.013004333933263558
1079.0, 0.020747045063675477
1080.0, 0.03763708799941917
1081.0, 0.06096430372852187
1082.0, 0.11351312297249
1083.0, 0.1488515398002186
1084.0, 0.22270728732452977
1085.0, 0.4069195871334537
1086.0, 0.7009551520167453
1087.0, 0.9343595151141075
1088.0, 0.905040948288287
1089.0, 0.611825061562775
1090.0, 0.28396095467892196
1091.0, 0.11802489151512713
1092.0, 0.0535488028880393
1093.0, 0.03132769148544916
1094.0, 0.014725425970552843
1095.0, 0.011582196761131638
1096.0, 0.009211168437284499
1097.0, 0.009920141220554457
1098.0, 0.011608197267878194
1099.0, 0.012144279297157745
1100.0, 0.014705923562099594
1101.0, 0.008995518002620382
1102.0, 0.006068768344879992
1103.0, 0.010902453803949623
1104.0, 0.00759952871303958
1105.0, 0.004473662507435593
1106.0, 0.007225638833714537
1107.0, 0.0072169280657834334
1108.0, 0.006079398090107693
1109.0, 0.008375224897968818
1110.0, 0.00894247548304124
1111.0, 0.0032693599800915933
1112.0, 0.002261798001714659
1113.0, 0.0040345411902494915
1114.0, 0.005944653207400279
1115.0, 0.0017970740090708526
1116.0, 0.0014753521484806233
1117.0, 0.0043141946985533405
1118.0, 0.008279679699782234
1119.0, 0.007146908756358199
1120.0, 0.006572157216427849
1121.0, 0.008757957682190324
1122.0, 0.007277787245856776
1123.0, 0.00295107939904646
1124.0, 0.0032310868242289045
1125.0, 0.00965685433796254
1126.0, 0.006235211490809266
1127.0, 0.006621395869930397
1128.0, 0.006106388499785552
1129.0, 0.005938369283163778
1130.0, 0.008752020211976115
1131.0, 0.00593943855214703
1132.0, 0.003612521935954883
1133.0, 0.008568226775906641
1134.0, 0.010052375708075347
1135.0, 0.0038688264680355263
1136.0, 0.0035970603570123208
1137.0, 0.0059679240303301155
1138.0, 0.0007787074202073507
1139.0, 0.0069318625554647875
1140.0, 0.008062616073004965
1141.0, 0.011096197948504992
1142.0, 0.009505042699187003
1143.0, 0.008426305063395893
1144.0, 0.010160949387585388
1145.0, 0.00941738010530535
1146.0, 0.007026701892653425
1147.0, 0.006413268705883258
1148.0, 0.004307781526189259
1149.0, 0.009729835117473384
1150.0, 0.007380349001038359
1151.0, 0.007610722146752216
1152.0, 0.010177327040987876
1153.0, 0.008895053965586984
1154.0, 0.005101185591950168
1155.0, 0.004063142457752231
1156.0, 0.0032417663645817624
1157.0, 0.000356824267755062
1158.0, 0.0022445510785560566
1159.0, 0.007467812805055018
1160.0, 0.0016064962143484912
1161.0, 0.0026065408944532104
1162.0, 0.005157954433402032
1163.0, 0.004614733481092467
1164.0, 0.001803058978744722
1165.0, 0.0018770734510935268
1166.0, 0.0021943446016400043
1167.0, 0.008364888386293418
1168.0, 0.01089932733950495
1169.0, 0.005130032081360066
1170.0, 0.0059998108778809645
1171.0, 0.007586705809550469
1172.0, 0.00212610628154501
1173.0, 0.0021207781531096953
1174.0, 0.011269308598743921
1175.0, 0.008693026957302025
1176.0, 0.006272706309467962
1177.0, 0.005285373326394271
1178.0, 0.0028431579195266326
1179.0, 0.0036328569493662838
1180.0, 0.00663249576233184
1181.0, 0.006423427366654482
1182.0, 0.0036311093311753263
1183.0, 0.002313911083419772
1184.0, 0.0010248288590544768
1185.0, 0.002814025624803922
1186.0, 0.0027939455740348166
1187.0, 0.007768170493847602
1188.0, 0.007149799546319532
1189.0, 0.007664641843563235
1190.0, 0.010789775702597865
1191.0, 0.008015650546905496
1192.0, 0.003996927958706689
1193.0, 0.006875649045140373
1194.0, 0.010962664602017308
1195.0, 0.0070548011262659745
1196.0, 0.0030412060441598263
1197.0, 0.006837559528063728
1198.0, 0.006735512241815578
1199.0, 0.007988239541694279
1200.0, 0.008255734675172106
1201.0, 0.006732368763271778
1202.0, 0.005452028807438847
1203.0, 0.006038432088777959
1204.0, 0.0038148185172922557
1205.0, 0.004045408375299163
1206.0, 0.0040830903534243455
1207.0, 0.002940455653821302
1208.0, 0.006209282500189633
1209.0, 0.002438730161161707
1210.0, 0.0031454891467458516
1211.0, 0.011028837631422636
1212.0, 0.0068318698001127685
1213.0, 0.007195456975360887
1214.0, 0.013483554186865502
1215.0, 0.005097197032024655
1216.0, 0.005834609647458551
1217.0, 0.0059344785012966925
1218.0, 0.008083953511200198
1219.0, 0.01010036598280874
1220.0, 0.006074482197548806
1221.0, 0.0035274559532395174
1222.0, 0.004560303400556566
1223.0, 0.0026956741185437598
1224.0, 0.006609862995306188
1225.0, 0.0006489491095233208
1226.0, 0.005775056917026207
1227.0, 0.005379274417356943
1228.0, 0.007090539800670341
1229.0, 0.004103856115905702
1230.0, 0.001974387266510486
1231.0, 0.007211876116892814
1232.0, 0.011448101976227925
1233.0, 0.008784990030102425
1234.0, 0.0064370485693176285
1235.0, 0.006906066950762919
1236.0, 0.0026955040119622064
1237.0, 0.002569919959874841
1238.0, 0.0021983373533116636
1239.0, 0.008864219847603445
1240.0, 0.009991777594894015
1241.0, 0.009065121623059402
1242.0, 0.008353141147564878
1243.0, 0.0036740252636019567
1244.0, 0.005623535257811501
1245.0, 0.006024564402467684
1246.0, 0.004690684042143212
1247.0, 0.006991802712457209
1248.0, 0.008680258294409757
1249.0, 0.0058103203422883555
1250.0, 0.0005512462450982903
1251.0, 0.002469468366737433
1252.0, 0.004700431322658268
1253.0, 0.01137543764029514
1254.0, 0.0055581625680745156
1255.0, 0.007372538262112718
1256.0, 0.008091841555263962
1257.0, 0.009342332683674803
1258.0, 0.008510648970683933
1259.0, 0.005827226858733777
1260.0, 0.0072637910835685725
1261.0, 0.012248614757321849
1262.0, 0.013579272708960262
1263.0, 0.010685692515669075
1264.0, 0.008393669493631763
1265.0, 0.005550713894764043
1266.0, 0.004938058712743401
1267.0, 0.008515573593607842
1268.0, 0.009377462638981664
1269.0, 0.01309854193429873
1270.0, 0.009193711074688679
1271.0, 0.01309825756932087
1272.0, 0.008889485208159785
1273.0, 0.008157066079925952
1274.0, 0.009661973069307401
1275.0, 0.007310389147859206
1276.0, 0.004138140942962532
1277.0, 0.004230881980813286
1278.0, 0.007589232883090743
1279.0, 0.008904827165805883
1280.0, 0.007888340147573903
1281.0, 0.008252997409104287
1282.0, 0.010833387798143074
1283.0, 0.01090227343751286
1284.0, 0.0025617345452807186
1285.0, 0.006021519007614333
1286.0, 0.00368992594308851
1287.0, 0.006690380954649558
1288.0, 0.012125640103294406
1289.0, 0.012037462040008719
1290.0, 0.01098791222812814
1291.0, 0.010236600641929189
1292.0, 0.0075216688197510175
1293.0, 0.008571434207621884
1294.0, 0.007820444771477936
1295.0, 0.007148882794500282
1296.0, 0.01379545021813676
1297.0, 0.009300054560606496
1298.0, 0.013786526000667175
1299.0, 0.009664134626479855
1300.0, 0.007042627361481778
1301.0, 0.008903481062603021
1302.0, 0.003239187472035804
1303.0, 0.004700967831514848
1304.0, 0.005853804163438497
1305.0, 0.004677469505451161
1306.0, 0.007510881073393587
1307.0, 0.012518104359237368
1308.0, 0.012184212280211777
1309.0, 0.005843141476232537
1310.0, 0.008543229420967642
1311.0, 0.0035179290160884903
1312.0, 0.0068300820846251085
1313.0, 0.009215111504079828
1314.0, 0.009636542377701856
1315.0, 0.004098403956197494
1316.0, 0.008376955984183025
1317.0, 0.00806656273202535
1318.0, 0.003243110463119091
1319.0, 0.006611605197463457
1320.0, 0.008157397275759188
1321.0, 0.0062105932437983985
1322.0, 0.005021926834023503
1323.0, 0.0052921759842860265
1324.0, 0.007758611090070701
1325.0, 0.007356029842306966
1326.0, 0.006368728228179293
1327.0, 0.006509736132935851
1328.0, 0.0021558223236471112
1329.0, 0.008677882803336078
1330.0, 0.010250126182972141
1331.0, 0.008026158651397011
1332.0, 0.011603986368064971
1333.0, 0.009235933900538694
1334.0, 0.012833648496528696
1335.0, 0.00970549023453042
1336.0, 0.009587752752780426
1337.0, 0.010198675168893143
1338.0, 0.01162465945184836
1339.0, 0.01231681257519376
1340.0, 0.006843415109141252
1341.0, 0.0029617022243618027
1342.0, 0.002097023916689347
1343.0, 0.00043191424673270744
1344.0, 0.0015309727863627369
1345.0, 0.0005866706379356042
1346.0, 0.005700221091692586
1347.0, 0.006040074210145139
1348.0, 0.004968361176856568
1349.0, 0.0038511062092329044
1350.0, 0.008637198449405373
1351.0, 0.00498625155736394
1352.0, 0.007310964813371831
1353.0, 0.010347527118418865
1354.0, 0.01082766112268451
1355.0, 0.009679966561136347
1356.0, 0.007543891398490252
1357.0, 0.007837464534987388
1358.0, 0.008033662590317783
1359.0, 0.0039032434220123914
1360.0, 0.007190532157821322
1361.0, 0.008411515397557329
1362.0, 0.005168702869905154
1363.0, 0.010839615738071212
1364.0, 0.00548000157109806
1365.0, 0.012212932688674804
1366.0, 0.010098260147549363
1367.0, 0.006361537819299111
1368.0, 0.00974511847400418
1369.0, 0.013886214215957664
1370.0, 0.00905914847576396
1371.0, 0.004720810775320721
1372.0, 0.004218691841591855
1373.0, 0.0048532471535370466
1374.0, 0.003208994850294919
1375.0, 0.003545037840310125
1376.0, 0.007507171812875494
1377.0, 0.005465675956911282
1378.0, 0.007945550734165072
1379.0, 0.013473826502368027
1380.0, 0.00908488194810813
1381.0, 0.001937691496563432
1382.0, 0.00377414005411933
1383.0, 0.006817960235914784
1384.0, 0.006939004791137394
1385.0, 0.010220134248765807
1386.0, 0.009153355147901767
1387.0, 0.006660547505623434
1388.0, 0.0026952007264017734
1389.0, 0.0009203002089754723
1390.0, 0.0049208944387524895
1391.0, 0.008652507633486392
1392.0, 0.009714184512204573
1393.0, 0.010317590389655988
1394.0, 0.01063286685543498
1395.0, 0.008883444644793409
1396.0, 0.0049691525972118955
1397.0, 0.004371832561805428
1398.0, 0.004199008688220405
1399.0, 0.00454332317766045
1400.0, 0.007278596297372774
1401.0, 0.004442841731868433
1402.0, 0.00029266512914293604
1403.0, 0.005997816613074209
1404.0, 0.004781576648214669
1405.0, 0.0061020635102979545
1406.0, 0.008291823583103432
1407.0, 0.006787873902591134
1408.0, 0.010286700037707767
1409.0, 0.005423882636522165
1410.0, 0.0053996026901472205
1411.0, 0.005783980772690819
1412.0, 0.00288638056384002
1413.0, 0.0033146820745440205
1414.0, 0.005188493277651834
1415.0, 0.005329735827573694
1416.0, 0.0034051811514027065
1417.0, 0.0011709163486095713
1418.0, 0.003567415620156879
1419.0, 0.0066435570136967855
1420.0, 0.006972527488124441
1421.0, 0.012223330476836656
1422.0, 0.0039879195918793965
1423.0, 0.005377107146492537
1424.0, 0.003146567887370059
1425.0, 0.006173753425582755
1426.0, 0.006686926369186077
1427.0, 0.006497191983812301
1428.0, 0.009465954800753972
1429.0, 0.00486373751580257
1430.0, 0.000811910767016442
1431.0, 0.0021724891111529355
1432.0, 0.0019850622344446934
1433.0, 0.003378763380103237
1434.0, 0.008188177322399154
1435.0, 0.006716280014163623
1436.0, 0.0008864677724606174
1437.0, 0.002199698357215981
1438.0, 0.004890804094556129
1439.0, 0.0026055409831886164
1440.0, 0.003419447962401196
1441.0, 0.006368189925632005
1442.0, 0.0060787682478205445
1443.0, 0.003477849477765647
1444.0, 0.00428122558907202
1445.0, 0.0033593152740737852
1446.0, 0.006622195506423575
1447.0, 0.0028077586363231006
1448.0, 0.0018788821853321504
1449.0, 0.0004493588655947716
1450.0, 0.0029060588496052143
1451.0, 0.002118891418023646
1452.0, 0.0024324551846607806
1453.0, 0.0018462831338171288
1454.0, 0.0011293145869039688
1455.0, 0.0011252068559131267
1456.0, 0.000803964465796669
1457.0, 0.0020798052571715285
1458.0, 0.0033552725025154666
1459.0, 0.0025745821207810537
1460.0, 0.00482136612557097
1461.0, 0.007072997474117044
1462.0, 0.005597339961438742
1463.0, 0.011505775789685122
1464.0, 0.0076652665463835595
1465.0, 0.005082533820506456
1466.0, 0.013152349334122553
1467.0, 0.01694155329253666
1468.0, 0.01218755239387136
1469.0, 0.006208307840334061
1470.0, 0.0024725428907885986
1471.0, 0.0003878268619583893
1472.0, 0.001249328430395397
1473.0, 0.0010130777466832088
1474.0, 0.0026545528372633716
1475.0, 0.005927207766270397
1476.0, 0.008505665774738085
1477.0, 0.005868268153244704
1478.0, 0.005733254870985487
1479.0, 0.008408038098836916
1480.0, 0.007713084110131693
1481.0, 0.008616766187910492
1482.0, 0.01290617836797748
1483.0, 0.013747207019075905
1484.0, 0.013756549280211569
1485.0, 0.015665123477477824
1486.0, 0.012421809122938119
1487.0, 0.00835879705997
1488.0, 0.010704400848991292
1489.0, 0.007079338018191853
1490.0, 0.00798873671702411
1491.0, 0.010740706701591144
1492.0, 0.007277432678017334
1493.0, 0.0081279100367089
1494.0, 0.009970511419570331
1495.0, 0.0035715875662830953
1496.0, 0.00559218816368697
1497.0, 0.008261285132505226
1498.0, 0.010069938349867674
1499.0, 0.011767534156333841
1500.0, 0.012831840684286186
1501.0, 0.012420530966258737
1502.0, 0.012364159368376683
1503.0, 0.009205060596430937
1504.0, 0.005503546800165519
1505.0, 0.003814245773966655
1506.0, 0.005144195654620666
1507.0, 0.00710236620881175
1508.0, 0.007731840072025574
1509.0, 0.010444336061753065
1510.0, 0.010918544152445512
1511.0, 0.009726676100677956
1512.0, 0.01199396704933077
1513.0, 0.00632934646814146
1514.0, 0.00492836892032169
1515.0, 0.008601303557080163
1516.0, 0.004244939841961169
1517.0, 0.007354249069266574
1518.0, 0.011114472047355342
1519.0, 0.0034679897883036527
1520.0, 0.005223608324151772
1521.0, 0.014410307890597988
1522.0, 0.01326579181545839
1523.0, 0.00999437996244741
1524.0, 0.008968824114480623
1525.0, 0.007903867203469604
1526.0, 0.010170447779742324
1527.0, 0.007395561011050883
1528.0, 0.00855508034962991
1529.0, 0.009701065308803193
1530.0, 0.0031920224943004795
1531.0, 0.010742443771768844
1532.0, 0.007537020177396951
1533.0, 0.00906711472880961
1534.0, 0.011197693609468196
1535.0, 0.006676296528181362
1536.0, 0.004200021493814645
1537.0, 0.008035398361381741
1538.0, 0.008958050180032586
1539.0, 0.0039558849944762026
1540.0, 0.004288100254956951
1541.0, 0.006216258184860837
1542.0, 0.0037356301928873586
1543.0, 0.0047684525001714054
1544.0, 0.003959835139739362
1545.0, 0.004454341149664102
1546.0, 0.0064960130067294765
1547.0, 0.005262505075034284
1548.0, 0.006549075875786925
1549.0, 0.013695279960113653
1550.0, 0.005477433988452816
1551.0, 0.008062815463223478
1552.0, 0.0031095161849801073
1553.0, 0.006264684317428701
1554.0, 0.007135574261664434
1555.0, 0.009352190624664563
1556.0, 0.008479585985235098
1557.0, 0.012223111682754934
1558.0, 0.003584618435155203
1559.0, 0.007922625299427905
1560.0, 0.008290441726814356
1561.0, 0.0052937273616892
1562.0, 0.01078426976139608
1563.0, 0.009570260643882738
1564.0, 0.002092638412040891
1565.0, 0.0014165925855147993
1566.0, 0.0005040767262997682
1567.0, 0.005421114128474533
1568.0, 0.005132966298714184
1569.0, 0.0014170986944070946
1570.0, 0.001966564317419273
1571.0, 0.001233657600070662
1572, 0.0
1573, 0.0
1574, 0.0
1575, 0.0
1576, 0.0
1577, 0.0
1578, 0.0
1579, 0.0
1580, 0.0
1581, 0.0
1582, 0.0
1583, 0.0
1584, 0.0
1585, 0.0
1586, 0.0
1587, 0.0
1588, 0.0
1589, 0.0
1590, 0.0
1591, 0.0
1592, 0.0
1593, 0.0
1594, 0.0
1595, 0.0
1596, 0.0
1597, 0.0
1598, 0.0
1599, 0.0
