30, 0.0
31, 0.0
32, 0.0
33, 0.0
34, 0.0
35, 0.0
36, 0.0
37, 0.0
38, 0.0
39, 0.0
40, 0.0
41, 0.0
42, 0.0
43, 0.0
44, 0.0
45, 0.0
46, 0.0
47, 0.0
48, 0.0
49, 0.0
50, 0.0
51.0, 5.459190895480501e-05
52.0, 0.00028689790450716723
53.0, 0.0001638906842304379
54.0, 0.00033707508764898236
55.0, 0.0009914908611715592
56.0, 0.001723247402077235
57.0, 0.002516911935746116
58.0, 0.0031653638590598268
59.0, 0.0032252621548004815
60.0, 0.004559256516005012
61.0, 0.005957033230403803
62.0, 0.007050173546028477
63.0, 0.006502823960363077
64.0, 0.005998991526656743
65.0, 0.005571795125052515
66.0, 0.005307968503063369
67.0, 0.005076836985108393
68.0, 0.004790791352656681
69.0, 0.004358559003981093
70.0, 0.002529834020303992
71.0, 0.0013907104147695688
72.0, 0.0007171920040975068
73.0, 0.00032685763597505187
74.0, 0.0003312135324357248
75.0, 0.001224644584419948
76.0, 0.003041178045501326
77.0, 0.004223365432039742
78.0, 0.005837618417371387
79.0, 0.007094668056880378
80.0, 0.006810562581793036
81.0, 0.006670858759289239
82.0, 0.005895246378637727
83.0, 0.004682209452698892
84.0, 0.006486299553539514
85.0, 0.006449045201165141
86.0, 0.005693372986653522
87.0, 0.005208396554572075
88.0, 0.0060407745197211425
89.0, 0.006182210986790775
90.0, 0.005829913897025567
91.0, 0.008162927063371204
92.0, 0.00884240278925302
93.0, 0.009951320396276686
94.0, 0.013345464952330247
95.0, 0.012742777567667563
96.0, 0.012571853622320642
97.0, 0.01303157814462519
98.0, 0.013430164836737701
99.0, 0.014586901329770552
100.0, 0.016040410430124198
101.0, 0.017571174902272665
102.0, 0.016348808408655706
103.0, 0.017170378943270156
104.0, 0.01907625522776986
105.0, 0.01860411112790148
106.0, 0.019624922809107034
107.0, 0.021176079543093064
108.0, 0.022909008280983894
109.0, 0.02175484243767299
110.0, 0.02224660261203314
111.0, 0.023270587142896655
112.0, 0.02252843355745529
113.0, 0.023763780697504826
114.0, 0.02484285950068285
115.0, 0.025252940481351766
116.0, 0.026318572610068813
117.0, 0.026783470380154616
118.0, 0.026280375332101417
119.0, 0.024002123284417098
120.0, 0.022952478207509074
121.0, 0.02130341600051247
122.0, 0.01936185673423557
123.0, 0.02175518260507287
124.0, 0.020762443052760596
125.0, 0.019163098531796315
126.0, 0.019120860950272645
127.0, 0.018859320789710716
128.0, 0.019034430366497383
129.0, 0.019518510673656588
130.0, 0.0196700163201171
131.0, 0.01858483303031898
132.0, 0.01856104611695659
133.0, 0.020816171437785656
134.0, 0.0197891570185709
135.0, 0.01939846890349104
136.0, 0.019821154523295876
137.0, 0.021638356430310406
138.0, 0.021808244138454627
139.0, 0.02240301622659858
140.0, 0.02384908989019613
141.0, 0.024358585549868396
142.0, 0.02670158904335658
143.0, 0.029380089964728504
144.0, 0.030744679646416046
145.0, 0.03398828508520293
146.0, 0.0378417965545449
147.0, 0.04238260580380725
148.0, 0.048872960239250945
149.0, 0.060014066689609694
150.0, 0.07194501944042772
151.0, 0.08255307691535893
152.0, 0.10250197591786256
153.0, 0.11523754383226838
154.0, 0.12164275124175401
155.0, 0.12307115927602864
156.0, 0.11294031624959182
157.0, 0.09912011453117453
158.0, 0.08399377509808369
159.0, 0.07381563774981607
160.0, 0.0652173740838961
161.0, 0.060644325703167565
162.0, 0.06389771364831777
163.0, 0.057694942226555045
164.0, 0.05091886192904412
165.0, 0.04431054723391214
166.0, 0.036930643825495824
167.0, 0.029822156389047547
168.0, 0.02462258141309908
169.0, 0.022361467241428325
170.0, 0.01889465361091585
171.0, 0.01826560578591253
172.0, 0.018295696047170806
173.0, 0.014886519310337786
174.0, 0.01516603047367439
175.0, 0.015957615970946276
176.0, 0.016586054098990756
177.0, 0.016694226149954222
178.0, 0.019268739114740266
179.0, 0.021818410821818866
180.0, 0.022385744996187368
181.0, 0.023759012567725092
182.0, 0.02209436228924217
183.0, 0.018714266136044055
184.0, 0.017568319395002408
185.0, 0.01601128704102128
186.0, 0.014369010424379339
187.0, 0.012850898370483378
188.0, 0.013140636333484952
189.0, 0.012655452740811535
190.0, 0.01248731532259027
191.0, 0.01389092999226781
192.0, 0.01265325659701921
193.0, 0.013066378852543066
194.0, 0.014842481424344472
195.0, 0.01568283832731669
196.0, 0.015457667225401777
197.0, 0.015971522454686138
198.0, 0.01783821693810416
199.0, 0.01731756953112114
200.0, 0.01933916374357617
201.0, 0.02214680473037051
202.0, 0.023627887159322573
203.0, 0.028534550146046975
204.0, 0.03747176822394717
205.0, 0.04861083198484556
206.0, 0.053921620703751845
207.0, 0.059206802641865036
208.0, 0.058310511044860944
209.0, 0.048353806120881325
210.0, 0.04138237321243166
211.0, 0.03344341947375546
212.0, 0.025699325221063718
213.0, 0.019796574662110628
214.0, 0.017631676364365093
215.0, 0.014974177876934449
216.0, 0.012202066381128206
217.0, 0.013191223478418293
218.0, 0.011494393045145395
219.0, 0.009854588366579068
220.0, 0.009436891277648287
221.0, 0.009906669265994605
222.0, 0.008760795102466638
223.0, 0.007879129323473011
224.0, 0.009744188325440451
225.0, 0.007283057928373304
226.0, 0.007049225236675845
227.0, 0.008458602423085635
228.0, 0.006870361178253084
229.0, 0.007683352014615936
230.0, 0.008326314484507913
231.0, 0.0077997882269835285
232.0, 0.005484376205513515
233.0, 0.005959935099388643
234.0, 0.006915506941946784
235.0, 0.005998668039844197
236.0, 0.007647966001199484
237.0, 0.0074346005481324305
238.0, 0.006006358613480835
239.0, 0.006005167450562249
240.0, 0.0077204379587058275
241.0, 0.007950799076394423
242.0, 0.006309043593327627
243.0, 0.008403569579835528
244.0, 0.009212296625822715
245.0, 0.00940850922942332
246.0, 0.009419661492248594
247.0, 0.010942246549559938
248.0, 0.011122374896965855
249.0, 0.010814278378231849
250.0, 0.011825465085019912
251.0, 0.009151014506494911
252.0, 0.008653326141131469
253.0, 0.010284700306898606
254.0, 0.007808827256157326
255.0, 0.007500380235886863
256.0, 0.007986244525537515
257.0, 0.008595931944244248
258.0, 0.0069850342992744735
259.0, 0.007432064629704365
260.0, 0.0074974219036094145
261.0, 0.00406686485574626
262.0, 0.004736144009211839
263.0, 0.004446909473543714
264.0, 0.0031239036784510964
265.0, 0.0017537460935658365
266.0, 0.0015906471874725947
267.0, 0.001996435440633997
268.0, 0.002643179877521298
269.0, 0.002043748829940949
270.0, 0.0011894097331103203
271.0, 0.000869373228366223
272.0, 0.0016645326166182589
273.0, 0.0013601738351454971
274.0, 0.001673948939254951
275.0, 0.002622186245811651
276.0, 0.004316575573910136
277.0, 0.003627383313137461
278.0, 0.004346008336872501
279.0, 0.005789541856618115
280.0, 0.003792446752851549
281.0, 0.005384442316138817
282.0, 0.006295233780683045
283.0, 0.00533474717525173
284.0, 0.004938693036918272
285.0, 0.005293756773784521
286.0, 0.004790441550784502
287.0, 0.00217969678733785
288.0, 0.005051731777058919
289.0, 0.005100175462977899
290.0, 0.00372560805644412
291.0, 0.0031210712455600927
292.0, 0.0027598131158497125
293.0, 0.002805678076267701
294.0, 0.003292377597104445
295.0, 0.004318421459443297
296.0, 0.003547107141895891
297.0, 0.003712871999281238
298.0, 0.005253313381321863
299.0, 0.004664374996490117
300.0, 0.0033055293046836457
301.0, 0.0030430122603505166
302.0, 0.005042020397916229
303.0, 0.0028934260156836277
304.0, 0.002544068094170796
305.0, 0.0029020816042065
306.0, 0.002643783508886968
307.0, 0.0023575553815426663
308.0, 0.0031419284320950568
309.0, 0.003911410657728162
310.0, 0.0016421905165955402
311.0, 0.0033535701459068024
312.0, 0.003427477572002538
313.0, 0.0017221397292405008
314.0, 0.003926576472244214
315.0, 0.0027998813838915853
316.0, 0.001494050451588015
317.0, 0.001386744220786309
318.0, 0.0029481433583124356
319.0, 0.0017224000321140725
320.0, 0.000865575289357748
321.0, 0.0029925041307591283
322.0, 0.0014392773387463527
323.0, 0.0012273470850159942
324.0, 0.0019062177221416596
325.0, 0.002754769114552746
326.0, 0.002126416334958734
327.0, 0.0019118289634543772
328.0, 0.0018087972809066408
329.0, 0.000393572203178118
330.0, 0.0011765961995543054
331.0, 0.0016681809191395145
332.0, 0.0013482947111773992
333.0, 0.0005062630934517451
334.0, 0.0007153447192043285
335.0, 0.0009871015676674666
336.0, 0.0010246576099588922
337.0, 0.002455891173346915
338.0, 0.0016212485578490112
339.0, 0.0009089662742065975
340.0, 0.0020998022017782335
341.0, 0.0025529988147541655
342.0, 0.0018749633589356983
343.0, 0.0017671694009590156
344.0, 0.004545063816381498
345.0, 0.00145494104699767
346.0, 0.0019746381258016767
347.0, 0.00408718176302493
348.0, 0.0020224270858090476
349.0, 0.0011623965302097713
350.0, 0.001790733305834252
351.0, 0.003032403932983911
352.0, 0.0014370112281764072
353.0, 0.0022720857753134416
354.0, 0.0021088845593680737
355.0, 0.0006507675948107872
356.0, 0.002871777858986449
357.0, 0.002567241467015857
358.0, 0.0014201652477471764
359.0, 0.0003750154240461619
360.0, 0.002143830134863885
361.0, 0.001292674482454387
362.0, 0.0006040817615445261
363.0, 0.0021869356634593323
364.0, 0.002221331043789673
365.0, 0.0018710144424007112
366.0, 0.0016082160902686985
367.0, 0.0020201935722700577
368.0, 0.0011584081810215047
369.0, 0.0010521210429098175
370.0, 0.0012420885817738389
371.0, 0.0007027932100477975
372.0, 0.0009128111557959761
373.0, 0.0007286404492065193
374.0, 0.00031196033706250574
375.0, 0.0004978770056607918
376.0, 0.0020268865961976692
377.0, 0.0021061434995560463
378.0, 0.0009497100276869663
379.0, 0.00201376976566232
380.0, 0.0013294774818796054
381.0, 0.0005490410006752321
382.0, 0.0002840442771397582
383.0, 0.001145134469770775
384.0, 0.0010424523461666521
385.0, 0.0017110628384620183
386.0, 0.003549206213444322
387.0, 0.0008482079283791586
388.0, 0.00046687934375957247
389.0, 0.0010584362667959166
390.0, 0.0017278866788901703
391.0, 0.000664791915833699
392.0, 0.001113571071784427
393.0, 0.0014611250319818301
394.0, 0.0001946649751827749
395.0, 0.0021921304384522377
396.0, 0.0016801805666109629
397.0, 0.00042171302136746064
398.0, 0.0007684599934539437
399.0, 0.003113952014798077
400.0, 0.0030919379195742413
401.0, 0.0020899872928556306
402.0, 0.0028705549575120263
403.0, 0.0013309895187394272
404.0, 0.0007218439480981125
405.0, 0.0013901260658962982
406.0, 0.003491810839622504
407.0, 0.0014311926460935835
408.0, 0.0012221055408062444
409.0, 0.0023627607908121473
410.0, 0.0005185939848905864
411.0, 0.001575473589659457
412.0, 0.0019985678135896736
413.0, 0.0014870522271522065
414.0, 0.0018904840518397482
415.0, 0.002330777403313556
416.0, 0.0019258498992976536
417.0, 0.0009854782622666812
418.0, 0.002584721436604414
419.0, 0.001439866656819893
420.0, 0.0011084049342971563
421.0, 0.0024350266696535837
422.0, 0.0020940254400115973
423.0, 0.0012750702352969994
424.0, 0.0010153485692256333
425.0, 0.0016511805240984109
426.0, 0.001660048847501702
427.0, 0.0023997832050208353
428.0, 0.0024832836874184726
429.0, 0.0012393315164825139
430.0, 0.00037707690316670327
431.0, 0.0015567963201509579
432.0, 0.0021796984483745457
433.0, 0.0007761517570944745
434.0, 0.0031608774764259775
435.0, 0.0026958800589821645
436.0, 0.0016456227796743273
437.0, 0.0017388516802084304
438.0, 0.0030725590207300356
439.0, 0.001840705953034271
440.0, 0.0008151460696974832
441.0, 0.002465414177562393
442.0, 0.0014533629238843411
443.0, 0.0016393895021830048
444.0, 0.0018829511855607555
445.0, 0.001008339367459698
446.0, 0.0013550555218754597
447.0, 0.0025138743468259652
448.0, 0.0028256779069506114
449.0, 0.00033878008206473576
450.0, 0.002637600323954325
451.0, 0.00213274587327214
452.0, 0.000680945884805023
453.0, 0.0008627640527753603
454.0, 0.0034583164943778693
455.0, 0.002697689023825979
456.0, 0.0010663190345154173
457.0, 0.0022872921202344246
458.0, 0.002088694855734403
459.0, 0.0012655778967342103
460.0, 0.0011108662834296412
461.0, 0.0035191913019576642
462.0, 0.0016877305328764623
463.0, 0.0023204162999809572
464.0, 0.0032661271551964167
465.0, 0.0005403001575020857
466.0, 0.0014809469128615666
467.0, 0.0015400048584029511
468.0, 0.0010470202771910074
469.0, 0.0010106388380005096
470.0, 0.0035533287634664196
471.0, 0.0028208236984882556
472.0, 0.0009407894871856762
473.0, 0.0021123212104539983
474.0, 0.0013816633260470468
475.0, 0.0015503361552702303
476.0, 0.0026119306987487344
477.0, 0.0042496236676771585
478.0, 0.0017559697385672638
479.0, 0.002141184034955083
480.0, 0.0034383787542724676
481.0, 0.0015256823117472927
482.0, 0.002073411039095862
483.0, 0.0025880665302725385
484.0, 0.0025689461816305365
485.0, 0.0014695163335543384
486.0, 0.00259843537106059
487.0, 0.0028974101560170513
488.0, 0.0023420758615648367
489.0, 0.0011860646663449052
490.0, 0.003206715989833914
491.0, 0.0027496677321998237
492.0, 0.0016073294356766083
493.0, 0.002933947647099645
494.0, 0.001184029711322439
495.0, 0.0008925099613887181
496.0, 0.0017237338470732434
497.0, 0.002914770484479237
498.0, 0.002023781613936876
499.0, 0.001554969357006972
500.0, 0.0013799835509091952
501.0, 0.0012052605498103868
502.0, 0.0029857041675168793
503.0, 0.002889340874147507
504.0, 0.0016304859208145452
505.0, 0.00016502065642553436
506.0, 0.003034775469810478
507.0, 0.002233662702401932
508.0, 0.0009493827765560162
509.0, 0.00263343952405633
510.0, 0.0015241853135221574
511.0, 0.0013318017715010753
512.0, 0.0016326699003078545
513.0, 0.002001543704362852
514.0, 0.0011338170602129395
515.0, 0.0022273467080559427
516.0, 0.0026747909632494167
517.0, 0.0005178607848917601
518.0, 0.00038639930567856785
519.0, 0.002567070625238249
520.0, 0.0034176452106195556
521.0, 0.0008868246682104345
522.0, 0.0032467471428570737
523.0, 0.002093499388001638
524.0, 0.0011939034249792402
525.0, 0.002499054215128971
526.0, 0.002797203933072522
527.0, 0.0017043299662675713
528.0, 0.001650355067937897
529.0, 0.0031864069787193006
530.0, 0.0011674625830598057
531.0, 0.0026159148826183985
532.0, 0.003547048652694884
533.0, 0.00266284027944464
534.0, 0.001805927002843169
535.0, 0.0028312589592785426
536.0, 0.002527562279241719
537.0, 0.0012169560444036736
538.0, 0.004937700290189566
539.0, 0.0031374097034791346
540.0, 0.0011631972670306668
541.0, 0.0008081489898301682
542.0, 0.003600653758790772
543.0, 0.001829744891960784
544.0, 0.0020838826541168874
545.0, 0.0039434566595874364
546.0, 0.003144745543549781
547.0, 0.0029799129121900665
548.0, 0.004269450455783177
549.0, 0.005068192416700926
550.0, 0.0013336165589316771
551.0, 0.004199227388090019
552.0, 0.003491122183269277
553.0, 0.001436592519479708
554.0, 0.00261242654190895
555.0, 0.0034901139240479102
556.0, 0.002291367058714007
557.0, 0.0015985411032682295
558.0, 0.0043487215372854495
559.0, 0.0017537640951807909
560.0, 0.0019704943782367095
561.0, 0.0030238598028981558
562.0, 0.0032249244366689797
563.0, 0.0030558473203393904
564.0, 0.0030205345904255423
565.0, 0.0024138758350619955
566.0, 0.001081582746979155
567.0, 0.0019263411072876753
568.0, 0.0021143139854275976
569.0, 0.0014555221654232898
570.0, 0.0006021615636827426
571.0, 0.003969504460906071
572.0, 0.0025042234552776536
573.0, 0.0023956313957331312
574.0, 0.004070734615726463
575.0, 0.0017024465160575307
576.0, 0.0011534477775101927
577.0, 0.0029601371012460166
578.0, 0.004961758615635799
579.0, 0.0013211003004726688
580.0, 0.0028460988565381026
581.0, 0.0031009578252277803
582.0, 0.002275184335644678
583.0, 0.0020765412996697997
584.0, 0.003420086920207005
585.0, 0.0025240060119817507
586.0, 0.001674777717967376
587.0, 0.0038098620840779926
588.0, 0.002691361121805658
589.0, 0.0012150659475095328
590.0, 0.002091379327359871
591.0, 0.006707102918023964
592.0, 0.0017483658525550465
593.0, 0.0025203777761273857
594.0, 0.0029388185227021205
595.0, 0.000648614256235427
596.0, 0.0026192183671383705
597.0, 0.004205131289752185
598.0, 0.003481780968326102
599.0, 0.0011688895168275577
600.0, 0.002895557334552597
601.0, 0.002247123640696678
602.0, 0.002464448657739363
603.0, 0.0037307409215858968
604.0, 0.004828027523969501
605.0, 0.0019764087992171987
606.0, 0.0030903199873055904
607.0, 0.004990536883138151
608.0, 0.001524923329493979
609.0, 0.002723861839369902
610.0, 0.0020059910010861814
611.0, 0.0006744409047829756
612.0, 0.0003051982487390929
613.0, 0.0032389211861586055
614.0, 0.0027663639407683443
615.0, 0.0022535775895083958
616.0, 0.0033915554655679792
617.0, 0.003056852427885112
618.0, 0.002084431170499873
619.0, 0.0033524676090821905
620.0, 0.006043398095080718
621.0, 0.0025961948691700697
622.0, 0.0038859474526416683
623.0, 0.004183269456715042
624.0, 0.003186595730918552
625.0, 0.00288156561770549
626.0, 0.0050440456569734084
627.0, 0.00418246665246179
628.0, 0.0028037122286546875
629.0, 0.004885575062196491
630.0, 0.0035572454092759115
631.0, 0.002719709729464509
632.0, 0.003384267130081475
633.0, 0.0057073958636951055
634.0, 0.0018476692481277656
635.0, 0.002584689314116524
636.0, 0.003515835638829152
637.0, 0.002729825328080812
638.0, 0.0010029878846592635
639.0, 0.003411385491228945
640.0, 0.003035303430134176
641.0, 0.0008183772710641955
642.0, 0.0037559879224440002
643.0, 0.0028240666612422286
644.0, 0.0018140912647700994
645.0, 0.002408968932015215
646.0, 0.006357835206017192
647.0, 0.0016033819875450066
648.0, 0.00236185962769751
649.0, 0.004147158534092851
650.0, 0.003172681335844847
651.0, 0.0007847879977156687
652.0, 0.0034045806378902306
653.0, 0.003823554846939352
654.0, 0.000982146159129187
655.0, 0.004903359973905735
656.0, 0.0033759949981085773
657.0, 0.0021716531282931196
658.0, 0.002645729513194659
659.0, 0.004916327577392066
660.0, 0.0018334357599540678
661.0, 0.0030484872795067015
662.0, 0.004608882712804592
663.0, 0.0009966367221806733
664.0, 0.00126174115119128
665.0, 0.0037359854563916222
666.0, 0.004253736770789711
667.0, 0.0014477547469030796
668.0, 0.005560322710699594
669.0, 0.003997733400039212
670.0, 0.0024187625731453208
671.0, 0.0027085093278382613
672.0, 0.004913631626024976
673.0, 0.0018009021180994283
674.0, 0.002063676111256465
675.0, 0.003998573095506376
676.0, 0.003119818020523296
677.0, 0.00242414811136667
678.0, 0.004369104572120263
679.0, 0.004955134601127483
680.0, 0.0017974529622526861
681.0, 0.004237083158990304
682.0, 0.003974853863813539
683.0, 0.0038618615034915716
684.0, 0.0046218211365850565
685.0, 0.004698367087727509
686.0, 0.002031965425631484
687.0, 0.002537823471359192
688.0, 0.004375646457055254
689.0, 0.0026805032858519835
690.0, 0.003146602092067003
691.0, 0.0046554641006342655
692.0, 0.004277536824748062
693.0, 0.00045641506066193137
694.0, 0.0036189770054449017
695.0, 0.003591659651045962
696.0, 0.002821015518800798
697.0, 0.003066406826028527
698.0, 0.007089827572290194
699.0, 0.004074958719245269
700.0, 0.0040862540313256045
701.0, 0.005692820792578821
702.0, 0.003801382455697444
703.0, 0.005619977413049249
704.0, 0.009068238963863167
705.0, 0.01018630857978262
706.0, 0.007162450721967449
707.0, 0.012097638979736609
708.0, 0.010340535257828715
709.0, 0.00651487802992939
710.0, 0.003444074327572073
711.0, 0.004678059874522338
712.0, 0.003948672061215545
713.0, 0.004798455733346645
714.0, 0.005431122563991253
715.0, 0.0028697385859406395
716.0, 0.003661886742695483
717.0, 0.005217052503435825
718.0, 0.005015972523273519
719.0, 0.0027052168838492437
720.0, 0.00612685683872116
721.0, 0.004781236784106633
722.0, 0.002368503325119144
723.0, 0.001596635720611889
724.0, 0.006327613817134864
725.0, 0.004074809199488282
726.0, 0.003966161221916456
727.0, 0.0047119005089432545
728.0, 0.0043036573704845005
729.0, 0.0022424463651514867
730.0, 0.0035570951119040834
731.0, 0.003985253952561639
732.0, 0.0028304654229973697
733.0, 0.004614402766547326
734.0, 0.004842980772417421
735.0, 0.003400090654961344
736.0, 0.0030019845982003825
737.0, 0.0075272537182265176
738.0, 0.0017868043519673094
739.0, 0.0040000202353494795
740.0, 0.005787513838580481
741.0, 0.002567708794808353
742.0, 0.0005713236615547003
743.0, 0.004821242656498147
744.0, 0.004381353340407276
745.0, 0.0013231734507761824
746.0, 0.0056975099392445935
747.0, 0.0050542859309054625
748.0, 0.003798158192640658
749.0, 0.004072979330258587
750.0, 0.006566799932239685
751.0, 0.0017682628560560239
752.0, 0.003844460545717532
753.0, 0.005613024487754175
754.0, 0.004781836006048027
755.0, 0.0020388955216280695
756.0, 0.005089838105163514
757.0, 0.0035777485115655455
758.0, 0.001915785960831327
759.0, 0.005396213402840548
760.0, 0.004761767483181501
761.0, 0.0020807210360907335
762.0, 0.003012912489890094
763.0, 0.006648500874897845
764.0, 0.0014218375106326668
765.0, 0.003032860205869877
766.0, 0.004413979945747596
767.0, 0.003990549890439582
768.0, 0.0013398757615075748
769.0, 0.005099470082264928
770.0, 0.003483524889496235
771.0, 0.0018225215101058873
772.0, 0.002437838222893902
773.0, 0.0036072031840083713
774.0, 0.0030292960082835673
775.0, 0.004381801134582633
776.0, 0.0052200045792824825
777.0, 0.0016536107235180669
778.0, 0.002933274293491486
779.0, 0.0046786278544602095
780.0, 0.004041131964762758
781.0, 0.001297848546954397
782.0, 0.004036615183231354
783.0, 0.001681622225061053
784.0, 0.0009626350170440827
785.0, 0.0025521462994614686
786.0, 0.0055437249736636305
787.0, 0.002307147379673271
788.0, 0.003969161881826577
789.0, 0.0042229123844974605
790.0, 0.0010872768618770449
791.0, 0.0007469287084228625
792.0, 0.004925672750208162
793.0, 0.0038382827683040794
794.0, 0.0013728869326700389
795.0, 0.004666301755012464
796.0, 0.002680768149637133
797.0, 0.002245322963844708
798.0, 0.003295626900456888
799.0, 0.00462178377934689
800.0, 0.001966443610125778
801.0, 0.0029529056866789702
802.0, 0.002971048176637013
803.0, 0.001992195040609747
804.0, 0.0010439131049184013
805.0, 0.005018597749908082
806.0, 0.00288286644913884
807.0, 0.0018798706353810467
808.0, 0.0037382771792819863
809.0, 0.0036634343023032095
810.0, 0.0012751877744400307
811.0, 0.0024992286968815733
812.0, 0.003595201261586856
813.0, 0.0007529312217228624
814.0, 0.0032429696628231332
815.0, 0.003838450038785631
816.0, 0.0028002151972461066
817.0, 0.002412262853948992
818.0, 0.007922131761061489
819.0, 0.0028732032938753186
820.0, 0.002444381060621821
821.0, 0.003936834339927535
822.0, 0.003994056929915121
823.0, 0.0010669281874535889
824.0, 0.0028860996602805646
825.0, 0.003338558914587832
826.0, 0.0019301055082824676
827.0, 0.0007546862663584003
828.0, 0.005867900733870696
829.0, 0.00381582413471389
830.0, 0.002875227363232873
831.0, 0.006061061502809188
832.0, 0.0024900022580345224
833.0, 0.0010140718570607757
834.0, 0.00307553655100736
835.0, 0.004777865972539143
836.0, 0.0012893757803846676
837.0, 0.003465978826810177
838.0, 0.0021799308186996155
839.0, 0.0015610417662113739
840.0, 0.003344860659274534
841.0, 0.007270333743362245
842.0, 0.0025686248456092487
843.0, 0.004145309764273634
844.0, 0.0069989121900893994
845.0, 0.005786971573261557
846.0, 0.0028488923866128997
847.0, 0.009402223067125504
848.0, 0.00855879342329956
849.0, 0.003093892075901659
850.0, 0.005753558010341094
851.0, 0.00857036682009408
852.0, 0.012661569953828031
853.0, 0.019821119691072114
854.0, 0.02651375589012646
855.0, 0.015777098565696184
856.0, 0.01031429526729103
857.0, 0.009146755233798303
858.0, 0.007692067666948701
859.0, 0.0023998754112054274
860.0, 0.00762319855566029
861.0, 0.0055363513382630765
862.0, 0.0032362034279018546
863.0, 0.003472938200063226
864.0, 0.006935347390625024
865.0, 0.003176684337823218
866.0, 0.0035756388316155185
867.0, 0.0043679099999584595
868.0, 0.003294785060716375
869.0, 0.001952735579590607
870.0, 0.005309097029278221
871.0, 0.003608687665892887
872.0, 0.0020491697005410705
873.0, 0.006813603643981795
874.0, 0.003065076330090499
875.0, 0.001760373227645446
876.0, 0.003847276737889588
877.0, 0.005946770224337416
878.0, 0.0008586915763931654
879.0, 0.0034614951850603396
880.0, 0.004424894922371275
881.0, 0.0039736884578748626
882.0, 0.0033738614159084393
883.0, 0.006362169463951891
884.0, 0.002546325868267761
885.0, 0.003671636405087534
886.0, 0.006723093226727822
887.0, 0.0068019623897129225
888.0, 0.0018651157486002379
889.0, 0.005465855401330905
890.0, 0.005211076953773162
891.0, 0.0015039604171891902
892.0, 0.0008507412724011597
893.0, 0.005611056677249637
894.0, 0.00319280554205586
895.0, 0.0015901568869303045
896.0, 0.0033079109936765237
897.0, 0.0038895303420332012
898.0, 0.002345175535143639
899.0, 0.004982158545122732
900.0, 0.005476510296559937
901.0, 0.0011831279902987874
902.0, 0.006913077591403315
903.0, 0.005808628217172124
904.0, 0.003844808542866419
905.0, 0.0036126567946104934
906.0, 0.0061810059319246345
907.0, 0.0025774457182978624
908.0, 0.003599914631722457
909.0, 0.005193404760078485
910.0, 0.005306851731156507
911.0, 0.0027791735566975746
912.0, 0.006900476196257456
913.0, 0.00547743998193558
914.0, 0.0036102418345171426
915.0, 0.004063503850554619
916.0, 0.006582424529861138
917.0, 0.0035155960249532575
918.0, 0.005361666375707915
919.0, 0.007268620574792353
920.0, 0.005139321443584018
921.0, 0.0012019433713106485
922.0, 0.006028173032558964
923.0, 0.004997142797082335
924.0, 0.002806605180087165
925.0, 0.006607308948200462
926.0, 0.0067072850000644895
927.0, 0.0037686838159194866
928.0, 0.004544393088363808
929.0, 0.006960926829547887
930.0, 0.004843747305568735
931.0, 0.004298179846437934
932.0, 0.006960521795723412
933.0, 0.00629482735616338
934.0, 0.0033877596628985414
935.0, 0.007041042658939455
936.0, 0.004539418754173557
937.0, 0.003159277834263819
938.0, 0.004840690338776307
939.0, 0.007748767272662492
940.0, 0.002591832826169974
941.0, 0.006956938145941573
942.0, 0.006792491225791239
943.0, 0.004109647969976635
944.0, 0.0028440786075619806
945.0, 0.008929691111222628
946.0, 0.003487110851727462
947.0, 0.0038921554789384245
948.0, 0.006316312562938591
949.0, 0.004231272462113623
950.0, 0.001419702305896211
951.0, 0.0058052350692158645
952.0, 0.005705475171475648
953.0, 0.0027130615871458754
954.0, 0.0028749043050055514
955.0, 0.006537112245727426
956.0, 0.0036563297186145544
957.0, 0.004306698758260907
958.0, 0.00699728906104067
959.0, 0.0037342889339623776
960.0, 0.00237532922433451
961.0, 0.007701679266241431
962.0, 0.007068665267792073
963.0, 0.0018946361855668998
964.0, 0.006855756772111941
965.0, 0.005568745026766525
966.0, 0.0024310786836735836
967.0, 0.0027064942534781996
968.0, 0.00591049740084446
969.0, 0.0032525254095967225
970.0, 0.0032347065177644567
971.0, 0.005378478005614318
972.0, 0.005595226998215968
973.0, 0.0033748324448790727
974.0, 0.005909946721706728
975.0, 0.0058783928653810226
976.0, 0.0039044841025142603
977.0, 0.0033851224759681472
978.0, 0.0053570735852735505
979.0, 0.003504598488438366
980.0, 0.002539723164198218
981.0, 0.003249986716311432
982.0, 0.0030904908957873883
983.0, 0.001208868918622377
984.0, 0.005215751861841405
985.0, 0.003905098643678736
986.0, 0.0023004825075182917
987.0, 0.002940567762378382
988.0, 0.006106187583488034
989.0, 0.003001702722568571
990.0, 0.0051534209242820655
991.0, 0.005088289971557378
992.0, 0.002960215481778399
993.0, 0.0013177236965698528
994.0, 0.005807935091556638
995.0, 0.0021584201527387317
996.0, 0.0033435850145891884
997.0, 0.006647952299971756
998.0, 0.005482672978950889
999.0, 0.0013514956241773885
1000.0, 0.0056569359563346956
1001.0, 0.0059346188650451345
1002.0, 0.003532858702132221
1003.0, 0.004305549019872427
1004.0, 0.009149221795284507
1005.0, 0.004259451197831552
1006.0, 0.00502996335524893
1007.0, 0.007633319870144847
1008.0, 0.0024676232252455283
1009.0, 0.0028962397781516764
1010.0, 0.008535376699674713
1011.0, 0.007362704900059998
1012.0, 0.003439923602237718
1013.0, 0.006440841094597823
1014.0, 0.0066053185795390355
1015.0, 0.003926990159031075
1016.0, 0.0053983439058256835
1017.0, 0.007123431179473341
1018.0, 0.0019650305686235775
1019.0, 0.005333111259867427
1020.0, 0.007242429076289787
1021.0, 0.0045737561776542585
1022.0, 0.0022425774317005433
1023.0, 0.007156090481737484
1024.0, 0.004098054590354644
1025.0, 0.0029568287888424734
1026.0, 0.006381793080770915
1027.0, 0.008381069624954066
1028.0, 0.001588738743922108
1029.0, 0.006885624774108678
1030.0, 0.0068376528675429885
1031.0, 0.004133395885080994
1032.0, 0.004324071981016919
1033.0, 0.011616607771379928
1034.0, 0.005521493213147123
1035.0, 0.004440877635124929
1036.0, 0.007439168880411284
1037.0, 0.008872230946347811
1038.0, 0.0039825595843835625
1039.0, 0.009776075122698612
1040.0, 0.008707984376048736
1041.0, 0.007043265287623468
1042.0, 0.0077293944116157524
1043.0, 0.01067775785109823
1044.0, 0.002775108758897547
1045.0, 0.005803208751440869
1046.0, 0.008957153869416661
1047.0, 0.00786002416627969
1048.0, 0.00286157756342299
1049.0, 0.009522012023411516
1050.0, 0.008602129055328991
1051.0, 0.0071028543530776865
1052.0, 0.008044595784865329
1053.0, 0.010989640671194734
1054.0, 0.005202121612157326
1055.0, 0.00865247668571402
1056.0, 0.008596413152297927
1057.0, 0.005548378105636972
1058.0, 0.0039437355886648
1059.0, 0.013724961037527562
1060.0, 0.009953930040823629
1061.0, 0.009744252732627719
1062.0, 0.01012188020246625
1063.0, 0.007562494729201164
1064.0, 0.0019862579039161637
1065.0, 0.010620187489519655
1066.0, 0.010286237011513613
1067.0, 0.007382754526661743
1068.0, 0.00755479923901733
1069.0, 0.012095949380083217
1070.0, 0.006235038052249469
1071.0, 0.009473481111673784
1072.0, 0.013555772645703342
1073.0, 0.012890753534993426
1074.0, 0.006064941624829811
1075.0, 0.017513014307494145
1076.0, 0.01737733119842292
1077.0, 0.018365806780228026
1078.0, 0.024178287590722176
1079.0, 0.03114233888712829
1080.0, 0.029773327114157363
1081.0, 0.0495092618151096
1082.0, 0.07776986408346019
1083.0, 0.15609814088829355
1084.0, 0.3647826584494592
1085.0, 0.9128562922289958
1086.0, 0.9894280984720726
1087.0, 0.7668165595224947
1088.0, 0.4432593367951247
1089.0, 0.20398693899500187
1090.0, 0.08917697977003361
1091.0, 0.053831732346137584
1092.0, 0.033904901163468386
1093.0, 0.021140898526332972
1094.0, 0.01637588550215804
1095.0, 0.019283980476680646
1096.0, 0.010839508835494862
1097.0, 0.010432260693589702
1098.0, 0.013704898611703977
1099.0, 0.013991120057247359
1100.0, 0.004705657644247722
1101.0, 0.012656064110693083
1102.0, 0.012103236679622821
1103.0, 0.00808990192741916
1104.0, 0.0071124660070255395
1105.0, 0.01499613117467627
1106.0, 0.006630186462631265
1107.0, 0.009161206880817861
1108.0, 0.010062835863424728
1109.0, 0.0071010224219323495
1110.0, 0.004512635213786098
1111.0, 0.012375346841207419
1112.0, 0.007247378387360804
1113.0, 0.005011851494304169
1114.0, 0.0073565780072791485
1115.0, 0.009976819957903942
1116.0, 0.001663753338576184
1117.0, 0.0057463409400006155
1118.0, 0.008377165500141432
1119.0, 0.007127799576655924
1120.0, 0.005182866866418882
1121.0, 0.013552513435164629
1122.0, 0.005810898297949967
1123.0, 0.006070751204640685
1124.0, 0.008499764770265619
1125.0, 0.007970062470437793
1126.0, 0.0023370877918846237
1127.0, 0.009401092577067765
1128.0, 0.005539238069510604
1129.0, 0.0021140843687693723
1130.0, 0.004333581907725562
1131.0, 0.011271162772169763
1132.0, 0.002936000249352859
1133.0, 0.00346051385175344
1134.0, 0.008210426029901198
1135.0, 0.008878345511132094
1136.0, 0.0031772884410263256
1137.0, 0.0090790924489409
1138.0, 0.004674764206109309
1139.0, 0.002751895211352244
1140.0, 0.005557079053986848
1141.0, 0.00915140362304955
1142.0, 0.0031805780054142523
1143.0, 0.005601871368262612
1144.0, 0.00662457419591418
1145.0, 0.00534194665754667
1146.0, 0.00566741403535206
1147.0, 0.011660340815109199
1148.0, 0.0031338812802150194
1149.0, 0.0009745002478327777
1150.0, 0.006644329893016266
1151.0, 0.00860077857146848
1152.0, 0.001278870684956687
1153.0, 0.008073483562979936
1154.0, 0.007363034774302476
1155.0, 0.003005724810034569
1156.0, 0.004803819079099844
1157.0, 0.010579717002281813
1158.0, 0.0032034630797802676
1159.0, 0.002470107006946927
1160.0, 0.005894437335833769
1161.0, 0.00483037219890267
1162.0, 0.0030869227290233926
1163.0, 0.00859201506530438
1164.0, 0.01089561902584505
1165.0, 0.00331100482131225
1166.0, 0.006090880335178711
1167.0, 0.00858858820586594
1168.0, 0.003316906615268444
1169.0, 0.004740124962193663
1170.0, 0.008656255744260936
1171.0, 0.004959984333580406
1172.0, 0.004589824705894649
1173.0, 0.008307285533728783
1174.0, 0.0072777881614684604
1175.0, 0.0010643082587927775
1176.0, 0.007810589222443444
1177.0, 0.007483138138745599
1178.0, 0.003912302517669116
1179.0, 0.006109350955177878
1180.0, 0.011708326563196347
1181.0, 0.004190505616966326
1182.0, 0.006248449085339002
1183.0, 0.008803080240374957
1184.0, 0.006455796136281724
1185.0, 0.002986428596673395
1186.0, 0.009734573403867925
1187.0, 0.007048634492247692
1188.0, 0.005067176850210878
1189.0, 0.006677657371364788
1190.0, 0.009355746366748102
1191.0, 0.002285542419476661
1192.0, 0.009518198534838481
1193.0, 0.010013391920707783
1194.0, 0.005318443427023801
1195.0, 0.002685335466234857
1196.0, 0.011756655808776176
1197.0, 0.002382193291081161
1198.0, 0.002682287191817439
1199.0, 0.007859220777861511
1200.0, 0.010182740229665643
1201.0, 0.005063796552188863
1202.0, 0.01064952812435109
1203.0, 0.010725936546524682
1204.0, 0.006774614181373316
1205.0, 0.007972767461480826
1206.0, 0.012842167988253253
1207.0, 0.0025586950571861197
1208.0, 0.00430717113308647
1209.0, 0.010263895217342427
1210.0, 0.007443330478506283
1211.0, 0.0034065044285389525
1212.0, 0.010358549956097769
1213.0, 0.009272204004349163
1214.0, 0.006071242679661932
1215.0, 0.010518845875798533
1216.0, 0.010731929243374565
1217.0, 0.005082303169094549
1218.0, 0.00959866022584983
1219.0, 0.011010916651210161
1220.0, 0.007603038465552121
1221.0, 0.009634159096361823
1222.0, 0.013174379164787194
1223.0, 0.010567831729323109
1224.0, 0.004964089204204785
1225.0, 0.010504550418519389
1226.0, 0.008089142874948973
1227.0, 0.006561682273412374
1228.0, 0.010623849827471625
1229.0, 0.015998404445767826
1230.0, 0.0047590749947868565
1231.0, 0.011176017638845043
1232.0, 0.01206942959189413
1233.0, 0.008511621588558619
1234.0, 0.00857606873111671
1235.0, 0.016682729312370075
1236.0, 0.00883902564249023
1237.0, 0.008609173167018367
1238.0, 0.011903320018379175
1239.0, 0.011815397414339571
1240.0, 0.004134983619024063
1241.0, 0.008898189318568617
1242.0, 0.01086261440730825
1243.0, 0.007678958492892343
1244.0, 0.008100949452613651
1245.0, 0.013475913702307104
1246.0, 0.010176292231861095
1247.0, 0.006409098320614045
1248.0, 0.011996115350770083
1249.0, 0.010655987237549286
1250.0, 0.0069825475220931564
1251.0, 0.010749813801657711
1252.0, 0.014506274127691687
1253.0, 0.006617783453324182
1254.0, 0.01045138217243961
1255.0, 0.011994662380336555
1256.0, 0.008116629098316527
1257.0, 0.008118188403184595
1258.0, 0.013051976871871753
1259.0, 0.005762347861567604
1260.0, 0.006013702563861401
1261.0, 0.011735724268526596
1262.0, 0.014421263167547254
1263.0, 0.004925829108120161
1264.0, 0.01238326487102317
1265.0, 0.010300428728102077
1266.0, 0.007000859608554173
1267.0, 0.009180834250420116
1268.0, 0.015861929207273424
1269.0, 0.0053222097606620625
1270.0, 0.009305938219251353
1271.0, 0.013332035921689694
1272.0, 0.009588723700079127
1273.0, 0.0053938040453140644
1274.0, 0.013726248066478068
1275.0, 0.008725209029846505
1276.0, 0.003723673355631228
1277.0, 0.012087485324208115
1278.0, 0.014206188333406207
1279.0, 0.0049332289222371005
1280.0, 0.0047849637339121565
1281.0, 0.01444051164777162
1282.0, 0.009316503469378037
1283.0, 0.007910905461039161
1284.0, 0.009519238740920106
1285.0, 0.008114260224268515
1286.0, 0.0003996537125336786
1287.0, 0.011312230419511637
1288.0, 0.010406385008985393
1289.0, 0.005260474269780026
1290.0, 0.005509177492801017
1291.0, 0.012848652078652142
1292.0, 0.0014005973423967238
1293.0, 0.007908670429813264
1294.0, 0.010761310070599222
1295.0, 0.007545480602257871
1296.0, 0.005599351942572374
1297.0, 0.01271680056429595
1298.0, 0.005473552092276962
1299.0, 0.002222745629300285
1300.0, 0.005756958720734719
1301.0, 0.00539782819515332
1302.0, 0.00016187347920297617
1303.0, 0.0008178263353656083
1304.0, 0.010986332674217364
1305.0, 0.004546677551815223
1306.0, 0.0035643313188959917
1307.0, 0.005534659156764635
1308.0, 0.005422418624709233
1309.0, 0.003386115770016866
1310.0, 0.009379889668247519
1311.0, 0.003577711939194886
1312.0, 0.0006950610659793399
1313.0, 0.005186425454687436
1314.0, 0.011008666875080838
1315.0, 0.0008549229001147702
1316.0, 0.006340167890676961
1317.0, 0.009376112133522078
1318.0, 0.005877847636364313
1319.0, 0.004228598776688484
1320.0, 0.009297841118650698
1321.0, 0.005739738382005676
1322.0, 0.0020293361108448364
1323.0, 0.00853392323581983
1324.0, 0.008148982535572431
1325.0, 0.003693604481169406
1326.0, 0.004734377279233065
1327.0, 0.00829549583779114
1328.0, 0.0038967737103886967
1329.0, 0.007024491869302322
1330.0, 0.008692914176321093
1331.0, 0.005518005593581055
1332.0, 0.001762540831588607
1333.0, 0.012619988854193841
1334.0, 0.004106367853505491
1335.0, 0.0036346707318721653
1336.0, 0.008501715319024581
1337.0, 0.00956813816119981
1338.0, 0.0018006682226310135
1339.0, 0.006553675957382281
1340.0, 0.010175118374883132
1341.0, 0.004328936273726375
1342.0, 0.0065503931591337945
1343.0, 0.0124884962322811
1344.0, 0.006485111180812891
1345.0, 0.0012169903483662267
1346.0, 0.01068974852444172
1347.0, 0.006277509500318959
1348.0, 0.003740618676734539
1349.0, 0.007530273590702309
1350.0, 0.009468563202624503
1351.0, 0.000622648135920661
1352.0, 0.010123330294476266
1353.0, 0.011577797162855827
1354.0, 0.00719902242988164
1355.0, 0.005672335102088774
1356.0, 0.012178598484847019
1357.0, 0.006053929097222326
1358.0, 0.005791927079006759
1359.0, 0.009944025317439995
1360.0, 0.008172129565207263
1361.0, 0.004451206647821297
1362.0, 0.009446553377105468
1363.0, 0.013862073237927614
1364.0, 0.0051648994560577425
1365.0, 0.010628722225788612
1366.0, 0.011451380683918821
1367.0, 0.005768576199785439
1368.0, 0.005802641564208535
1369.0, 0.018888912994655123
1370.0, 0.004340166313644883
1371.0, 0.00550109643018544
1372.0, 0.010778145307937729
1373.0, 0.009518027577606024
1374.0, 0.0012338459199031657
1375.0, 0.005826391469617874
1376.0, 0.005637512966810504
1377.0, 0.0043247213889753945
1378.0, 0.009479238143407093
1379.0, 0.012622046897687474
1380.0, 0.0055137235319285055
1381.0, 0.004690818190796305
1382.0, 0.015112021297692655
1383.0, 0.00847363646631185
1384.0, 0.007067165346917376
1385.0, 0.012928856377412198
1386.0, 0.01553328820823222
1387.0, 0.0024296148718604025
1388.0, 0.010302508664530485
1389.0, 0.013865363405394921
1390.0, 0.007870916967273048
1391.0, 0.0070906489314977615
1392.0, 0.015547422629923575
1393.0, 0.008040530534011364
1394.0, 0.004815098410851759
1395.0, 0.014415751405289784
1396.0, 0.012276261379315463
1397.0, 0.008003398508140204
1398.0, 0.010544881617621972
1399.0, 0.013130335169431597
1400.0, 0.004574676833208528
1401.0, 0.01433291522633644
1402.0, 0.016339024412961412
1403.0, 0.010072980714411478
1404.0, 0.006363025730657548
1405.0, 0.0154621827846599
1406.0, 0.010994070844085128
1407.0, 0.009263948695827633
1408.0, 0.013823413347662359
1409.0, 0.012519598147439776
1410.0, 0.008800961804199104
1411.0, 0.013695286626798501
1412.0, 0.015495199055709919
1413.0, 0.005975344794136179
1414.0, 0.01166021890180845
1415.0, 0.01411298858240435
1416.0, 0.009496111759385969
1417.0, 0.0068610590483843
1418.0, 0.02019388624569923
1419.0, 0.007020325550679648
1420.0, 0.004561183452677569
1421.0, 0.012367199137052028
1422.0, 0.013110689248130003
1423.0, 0.0043281155061361334
1424.0, 0.012649034090897893
1425.0, 0.017656108582609072
1426.0, 0.005795267532040496
1427.0, 0.011236198141122812
1428.0, 0.014896864914426388
1429.0, 0.007503160048634801
1430.0, 0.003962394603821388
1431.0, 0.020250230643789405
1432.0, 0.010260833555281164
1433.0, 0.006765312434656269
1434.0, 0.013329989627440019
1435.0, 0.015600137564529508
1436.0, 0.004022779992276366
1437.0, 0.011124935232331871
1438.0, 0.015236002124559413
1439.0, 0.00586911540226819
1440.0, 0.007835474941613055
1441.0, 0.014961906225575531
1442.0, 0.0139541180701403
1443.0, 0.006010461476730883
1444.0, 0.017668797300183565
1445.0, 0.012350679412561821
1446.0, 0.008552688184835329
1447.0, 0.012874413828778672
1448.0, 0.01653563324617673
1449.0, 0.006977766527263464
1450.0, 0.015909644752797186
1451.0, 0.01897880104441248
1452.0, 0.010033337450385975
1453.0, 0.008512852722663998
1454.0, 0.014559741735040257
1455.0, 0.016610077874456557
1456.0, 0.010008438547271287
1457.0, 0.02474896142805201
1458.0, 0.018127031917909698
1459.0, 0.015533157181727918
1460.0, 0.023124413984947276
1461.0, 0.032901657023912824
1462.0, 0.03221776144760482
1463.0, 0.039336757580583
1464.0, 0.0438302158066505
1465.0, 0.030972516787835115
1466.0, 0.024424033206973263
1467.0, 0.026103397150889142
1468.0, 0.021443133012981744
1469.0, 0.009958305279139792
1470.0, 0.0241210397708737
1471.0, 0.01743281665242142
1472.0, 0.009864144576022946
1473.0, 0.013613104058147911
1474.0, 0.02058344304897314
1475.0, 0.006992654278793106
1476.0, 0.01255534605820521
1477.0, 0.020023990241011754
1478.0, 0.009844640970072363
1479.0, 0.009395797243840785
1480.0, 0.017604295598723008
1481.0, 0.0142038435008555
1482.0, 0.006316641823596547
1483.0, 0.018689611930487786
1484.0, 0.013925281300926455
1485.0, 0.007694741670587411
1486.0, 0.011360521861521339
1487.0, 0.017923472440372283
1488.0, 0.006569143959278985
1489.0, 0.012010695286960998
1490.0, 0.019816446630669827
1491.0, 0.010124575172315483
1492.0, 0.0075296195453145925
1493.0, 0.015528522403169886
1494.0, 0.018011969117342933
1495.0, 0.0008771427152874595
1496.0, 0.012416420081098965
1497.0, 0.014950209478399923
1498.0, 0.00786387632589896
1499.0, 0.00763491754318482
1500.0, 0.013728099450236158
1501.0, 0.00771735069560047
1502.0, 0.006268595256759629
1503.0, 0.016127224984833072
1504.0, 0.008806607798272565
1505.0, 0.008088144148612508
1506.0, 0.015420948090062038
1507.0, 0.017044370816549796
1508.0, 0.0028316788076567937
1509.0, 0.011059775822347672
1510.0, 0.015486632415218252
1511.0, 0.006781858249752193
1512.0, 0.006602222652900471
1513.0, 0.012615170425367325
1514.0, 0.0073256497462704465
1515.0, 0.0008978976889347798
1516.0, 0.013371134466874775
1517.0, 0.005805621300128171
1518.0, 0.0007564148647579452
1519.0, 5.25733490508064e-06
1520, 0.0
1521, 0.0
1522, 0.0
1523, 0.0
1524, 0.0
1525, 0.0
1526, 0.0
1527, 0.0
1528, 0.0
1529, 0.0
1530, 0.0
1531, 0.0
1532, 0.0
1533, 0.0
1534, 0.0
1535, 0.0
1536, 0.0
1537, 0.0
1538, 0.0
1539, 0.0
1540, 0.0
1541, 0.0
1542, 0.0
1543, 0.0
1544, 0.0
1545, 0.0
1546, 0.0
1547, 0.0
1548, 0.0
1549, 0.0
1550, 0.0
1551, 0.0
1552, 0.0
1553, 0.0
1554, 0.0
1555, 0.0
1556, 0.0
1557, 0.0
1558, 0.0
1559, 0.0
1560, 0.0
1561, 0.0
1562, 0.0
1563, 0.0
1564, 0.0
1565, 0.0
1566, 0.0
1567, 0.0
1568, 0.0
1569, 0.0
1570, 0.0
1571, 0.0
1572, 0.0
1573, 0.0
1574, 0.0
1575, 0.0
1576, 0.0
1577, 0.0
1578, 0.0
1579, 0.0
1580, 0.0
1581, 0.0
1582, 0.0
1583, 0.0
1584, 0.0
1585, 0.0
1586, 0.0
1587, 0.0
1588, 0.0
1589, 0.0
1590, 0.0
1591, 0.0
1592, 0.0
1593, 0.0
1594, 0.0
1595, 0.0
1596, 0.0
1597, 0.0
1598, 0.0
1599, 0.0
