30, 0.0
31, 0.0
32, 0.0
33, 0.0
34, 0.0
35, 0.0
36, 0.0
37, 0.0
38, 0.0
39, 0.0
40, 0.0
41, 0.0
42, 0.0
43, 0.0
44, 0.0
45, 0.0
46, 0.0
47, 0.0
48, 0.0
49, 0.0
50, 0.0
51, 0.0
52, 0.0
53, 0.0
54, 0.0
55, 0.0
56, 0.0
57, 0.0
58, 0.0
59, 0.0
60, 0.0
61, 0.0
62, 0.0
63, 0.0
64, 0.0
65, 0.0
66, 0.0
67, 0.0
68, 0.0
69, 0.0
70, 0.0
71, 0.0
72, 0.0
73, 0.0
74, 0.0
75, 0.0
76, 0.0
77, 0.0
78, 0.0
79, 0.0
80, 0.0
81, 0.0
82, 0.0
83, 0.0
84, 0.0
85, 0.0
86, 0.0
87, 0.0
88, 0.0
89, 0.0
90, 0.0
91, 0.0
92, 0.0
93, 0.0
94, 0.0
95, 0.0
96, 0.0
97, 0.0
98, 0.0
99, 0.0
100, 0.0
101, 0.0
102, 0.0
103, 0.0
104, 0.0
105, 0.0
106, 0.0
107, 0.0
108, 0.0
109, 0.0
110, 0.0
111, 0.0
112, 0.0
113, 0.0
114, 0.0
115, 0.0
116, 0.0
117, 0.0
118, 0.0
119, 0.0
120, 0.0
121, 0.0
122, 0.0
123, 0.0
124.0, 0.00011925149456171814
125.0, 0.0016311760200782015
126.0, 0.0027848522759934707
127.0, 0.0039756443207844975
128.0, 0.004939185371300055
129.0, 0.00530823864131881
130.0, 0.005898318959315818
131.0, 0.006845503071892337
132.0, 0.007685441458857161
133.0, 0.008204898242086985
134.0, 0.009954436850012101
135.0, 0.01171947308964718
136.0, 0.013645506135153649
137.0, 0.016021542638982065
138.0, 0.017894948198749705
139.0, 0.01981362332307438
140.0, 0.02122718048797071
141.0, 0.02161754109988786
142.0, 0.02099420572123013
143.0, 0.020804482696118013
144.0, 0.02133300426345429
145.0, 0.02199886690568967
146.0, 0.021824105697636178
147.0, 0.022150441894605667
148.0, 0.022140661156613322
149.0, 0.021656107176755594
150.0, 0.020934136313212563
151.0, 0.02133758966934247
152.0, 0.02106902674394154
153.0, 0.02054415379459462
154.0, 0.020603422477326664
155.0, 0.021123437296691593
156.0, 0.020031965450058805
157.0, 0.018816602046368806
158.0, 0.018695733690388374
159.0, 0.019114870658173903
160.0, 0.020229927569456855
161.0, 0.020230988203079506
162.0, 0.01911410426793752
163.0, 0.01855889031400387
164.0, 0.0190572727349028
165.0, 0.01845570478780198
166.0, 0.017441049948120957
167.0, 0.017719948362104675
168.0, 0.017338616599042077
169.0, 0.016370522321765776
170.0, 0.01565923746229379
171.0, 0.015855913356265565
172.0, 0.016786566180717458
173.0, 0.01709718782456263
174.0, 0.016965388706066058
175.0, 0.01699841471149551
176.0, 0.017709212031785392
177.0, 0.01765938013768715
178.0, 0.017970947101118056
179.0, 0.018575652724918578
180.0, 0.018337689514707187
181.0, 0.017880387942068095
182.0, 0.018423882265769333
183.0, 0.018809736422986386
184.0, 0.017953179084659238
185.0, 0.018688201698492335
186.0, 0.01970142300994727
187.0, 0.01993318323421122
188.0, 0.019293737060521333
189.0, 0.018928942015312044
190.0, 0.019294288098135548
191.0, 0.019708527639839858
192.0, 0.019877244252756256
193.0, 0.0199681170706386
194.0, 0.019470570987657566
195.0, 0.01905131918897918
196.0, 0.01924311717704531
197.0, 0.01960561800218042
198.0, 0.018909246393088875
199.0, 0.01947215722700336
200.0, 0.020076874536524344
201.0, 0.01956164079290323
202.0, 0.01925485952430439
203.0, 0.0198435934292814
204.0, 0.02026397212811152
205.0, 0.020238752595348835
206.0, 0.020277957073097642
207.0, 0.019457366845643576
208.0, 0.019367961731338545
209.0, 0.020077430125528803
210.0, 0.020375017426155325
211.0, 0.018776532604852993
212.0, 0.018535394440632503
213.0, 0.019088012545077714
214.0, 0.019127842679285904
215.0, 0.018366717523060072
216.0, 0.019216543525838802
217.0, 0.019046103703115404
218.0, 0.018043766442540007
219.0, 0.01844539285465985
220.0, 0.018741906686812717
221.0, 0.01917167911486162
222.0, 0.018760899537583663
223.0, 0.01729040927178633
224.0, 0.017488210306918463
225.0, 0.017811557307470794
226.0, 0.017936529300690604
227.0, 0.018227489377890413
228.0, 0.019330473606802
229.0, 0.018958122295615422
230.0, 0.018766928293118976
231.0, 0.01879039925361748
232.0, 0.018356091844210585
233.0, 0.018185616667578657
234.0, 0.018929379467792776
235.0, 0.019308580062340142
236.0, 0.018739278677291155
237.0, 0.01852559170425403
238.0, 0.01904803361234842
239.0, 0.019188955433628106
240.0, 0.01899086407870206
241.0, 0.019131164380293195
242.0, 0.018931206571500738
243.0, 0.019050991177587087
244.0, 0.019511820876147713
245.0, 0.020057461260193647
246.0, 0.020255496641004702
247.0, 0.021208743484845385
248.0, 0.021736367510042424
249.0, 0.021698518356572334
250.0, 0.021975849407386668
251.0, 0.02256205281924204
252.0, 0.022356104487187386
253.0, 0.02182423446696531
254.0, 0.021826666573283856
255.0, 0.022700999936026946
256.0, 0.0229968531170495
257.0, 0.023358217985210993
258.0, 0.02412447617722407
259.0, 0.02511294702858184
260.0, 0.025863387037666295
261.0, 0.026641725791307216
262.0, 0.027389502278916858
263.0, 0.027736911851842974
264.0, 0.027078941519897207
265.0, 0.027706284095206077
266.0, 0.027626014713528668
267.0, 0.026719453475550724
268.0, 0.026720131872242568
269.0, 0.026890576326205146
270.0, 0.027318095277975307
271.0, 0.027401360646702445
272.0, 0.02686577747764338
273.0, 0.02685840686047831
274.0, 0.02701626791817578
275.0, 0.02681670422843323
276.0, 0.02642748434715095
277.0, 0.026443355204597806
278.0, 0.026411216331765106
279.0, 0.026170807576970743
280.0, 0.025532773611836885
281.0, 0.024865571423591318
282.0, 0.025138476958107513
283.0, 0.025167864262853543
284.0, 0.02442789556541835
285.0, 0.023862127815868578
286.0, 0.02422843130464823
287.0, 0.02241684414730377
288.0, 0.02176113393992989
289.0, 0.02208807080063695
290.0, 0.02218537157888756
291.0, 0.02145582895867065
292.0, 0.020888701141930137
293.0, 0.020329508155045913
294.0, 0.020201894230648127
295.0, 0.0207359541301042
296.0, 0.02061498767968686
297.0, 0.020265095243538676
298.0, 0.02004420884758731
299.0, 0.020530802970056737
300.0, 0.022026802141216963
301.0, 0.0218010211661384
302.0, 0.022097002704350485
303.0, 0.022465137654474807
304.0, 0.022098321130312983
305.0, 0.02211840445912011
306.0, 0.02319965839475117
307.0, 0.023849722767940097
308.0, 0.023706516023285575
309.0, 0.023456707780063486
310.0, 0.0238602949630361
311.0, 0.023969744599557818
312.0, 0.023860552795300447
313.0, 0.02369938451380574
314.0, 0.023443341704375887
315.0, 0.0225485126315105
316.0, 0.022108826337842172
317.0, 0.021683068694243947
318.0, 0.020731649672751828
319.0, 0.020151319710221105
320.0, 0.019708851956771405
321.0, 0.019733641383156888
322.0, 0.019780129283015757
323.0, 0.019141178651918816
324.0, 0.018591320805953132
325.0, 0.018196349724090923
326.0, 0.018059943680413727
327.0, 0.017874345796458767
328.0, 0.016843618216631735
329.0, 0.015173355136687891
330.0, 0.015202649281596061
331.0, 0.015539505817471063
332.0, 0.014532602611089686
333.0, 0.01347074544611833
334.0, 0.013358663948231042
335.0, 0.012221086997612877
336.0, 0.010645390337017844
337.0, 0.010459845978642026
338.0, 0.010085565596636436
339.0, 0.009590676247969337
340.0, 0.008945852047774318
341.0, 0.008326239994313941
342.0, 0.007905393620174958
343.0, 0.006213431308192724
344.0, 0.004690579990041681
345.0, 0.00407491337568931
346.0, 0.004015332802952751
347.0, 0.0035674057367653007
348.0, 0.0030291520594481615
349.0, 0.002223870832293797
350.0, 0.0013968088073970924
351.0, 0.0008875369058899331
352.0, 0.0006125576874081698
353.0, 0.0003492698937979024
354.0, 0.0003152234986173631
355.0, 0.00022314783612979
356.0, 0.0009650214634669694
357.0, 0.0011557393931238352
358.0, 0.000985456313892213
359.0, 0.0015487854764635446
360.0, 0.002678911721418332
361.0, 0.0030417879749972294
362.0, 0.0016766494789328527
363.0, 0.0018956764703742307
364.0, 0.0022463714683338123
365.0, 0.0017017148957798327
366.0, 0.0020148285929158247
367.0, 0.0018049235856170136
368.0, 0.002445676527322486
369.0, 0.0024708677935563472
370.0, 0.0009140279533561287
371.0, 0.0014747189065702796
372.0, 0.0015325235587767784
373.0, 0.0014140049481451418
374.0, 0.0011203781252591334
375.0, 0.0003122248111686734
376.0, 0.0006036182286282236
377.0, 0.00010433894430614905
378.0, 0.00014271554812593444
379.0, 0.001058718964541888
380.0, 0.0017445061958688442
381.0, 0.002592715921961259
382.0, 0.0033573559233929643
383.0, 0.004047660169981162
384.0, 0.005059931438611285
385.0, 0.00685748145265202
386.0, 0.008950335845871732
387.0, 0.010053462645086195
388.0, 0.012029066438695089
389.0, 0.014702050453426225
390.0, 0.01564003844797751
391.0, 0.018232769549505482
392.0, 0.02062813197491169
393.0, 0.022629111485832364
394.0, 0.024994112168407814
395.0, 0.028477292769490247
396.0, 0.031213154360089385
397.0, 0.033395232051551586
398.0, 0.03481726949449181
399.0, 0.03580071664906668
400.0, 0.0379480996916357
401.0, 0.03961295775612878
402.0, 0.0406559214597904
403.0, 0.041712508162646884
404.0, 0.04292420837591393
405.0, 0.04303545141988609
406.0, 0.04281905606481148
407.0, 0.04244383848111421
408.0, 0.04255989981044161
409.0, 0.0433962190436802
410.0, 0.04357443615427859
411.0, 0.043468084936545956
412.0, 0.043876471400823326
413.0, 0.044308863933347584
414.0, 0.04422368442555534
415.0, 0.04464201966994344
416.0, 0.04496277218943322
417.0, 0.04495584146014189
418.0, 0.04561248130893347
419.0, 0.04716244571524127
420.0, 0.046440360907244474
421.0, 0.04738585417834878
422.0, 0.04886253529305293
423.0, 0.0499802766116017
424.0, 0.05063982295693729
425.0, 0.05100595595117771
426.0, 0.05171901738848705
427.0, 0.0518391224683402
428.0, 0.05191914600956139
429.0, 0.05274132575016827
430.0, 0.052500711474918485
431.0, 0.05239598398908608
432.0, 0.05279331260776931
433.0, 0.053088360791587436
434.0, 0.052645029032558154
435.0, 0.05218730211695338
436.0, 0.052584526803299024
437.0, 0.05250093880488338
438.0, 0.051712399587236633
439.0, 0.051026345780185126
440.0, 0.050790676790047895
441.0, 0.051428073999718105
442.0, 0.051929616842116964
443.0, 0.05197805768763133
444.0, 0.05201554106115526
445.0, 0.052692947985325554
446.0, 0.05395006664151967
447.0, 0.05508617586310147
448.0, 0.05678893178256031
449.0, 0.059837618887990184
450.0, 0.06313841364689818
451.0, 0.06648501040317173
452.0, 0.07061156526122944
453.0, 0.0758166495858793
454.0, 0.08205092206927773
455.0, 0.08926139673241111
456.0, 0.0968299075591354
457.0, 0.10491574837854536
458.0, 0.11474097868574222
459.0, 0.12497396229495569
460.0, 0.13018472576791407
461.0, 0.13619361735940533
462.0, 0.13907306676807643
463.0, 0.13994514791129384
464.0, 0.1396042775208034
465.0, 0.1352513702675749
466.0, 0.12966911689391886
467.0, 0.12253742416073546
468.0, 0.1162574935278576
469.0, 0.11160466617936282
470.0, 0.10640536230852657
471.0, 0.10054000216174755
472.0, 0.09416034737486587
473.0, 0.08879416338748791
474.0, 0.0840354829589443
475.0, 0.07765851876233197
476.0, 0.07139537941055897
477.0, 0.06362211703580024
478.0, 0.05733126642001463
479.0, 0.05258596903506082
480.0, 0.04686578402366041
481.0, 0.04154224398100053
482.0, 0.03709047164780701
483.0, 0.03234066419445075
484.0, 0.027595611426759835
485.0, 0.02373324366393892
486.0, 0.020313335069317626
487.0, 0.016515480108298407
488.0, 0.013009052540467591
489.0, 0.010378283548503286
490.0, 0.008591875976549094
491.0, 0.006655945493807691
492.0, 0.005861146118364212
493.0, 0.004233900503225134
494.0, 0.0024845238806357655
495.0, 0.0015817748711487545
496.0, 0.0007940951076913464
497.0, 0.0007542325947333209
498.0, 0.0009208723260064176
499.0, 0.0014003959416937879
500.0, 0.002487776647448127
501.0, 0.003879472005195652
502.0, 0.0014378639043700894
503.0, 0.0014596350403892934
504.0, 0.0018509780254427077
505.0, 0.0017775014993764643
506.0, 0.002210606963264099
507.0, 0.002376907017097559
508.0, 0.0026263453201274055
509.0, 0.003460763669226866
510.0, 0.004123561379223872
511.0, 0.003888208002151842
512.0, 0.0035473291152700996
513.0, 0.0053295228584318965
514.0, 0.005967671965753752
515.0, 0.006809028390248144
516.0, 0.008295026080989563
517.0, 0.008258609529382005
518.0, 0.009341062219880635
519.0, 0.009975062512897708
520.0, 0.011892955995836419
521.0, 0.014148588864581929
522.0, 0.014130990714616477
523.0, 0.014477283080937842
524.0, 0.01527395235912726
525.0, 0.016928288647433783
526.0, 0.018318795536032464
527.0, 0.018747702382352995
528.0, 0.0198329983517573
529.0, 0.020037052387211308
530.0, 0.020523197517125346
531.0, 0.021550725684614296
532.0, 0.022133470758531736
533.0, 0.021314246626864257
534.0, 0.021213994032499472
535.0, 0.020615226182305504
536.0, 0.019919791846405993
537.0, 0.019169397750468616
538.0, 0.018066366290902282
539.0, 0.017119486083435054
540.0, 0.01637870675944441
541.0, 0.015299317656150968
542.0, 0.014143013730940035
543.0, 0.013091511634407157
544.0, 0.011764123824830159
545.0, 0.010971609287209073
546.0, 0.009925339971938542
547.0, 0.00945078471771071
548.0, 0.009632426549838456
549.0, 0.009520770327466808
550.0, 0.00878943346138549
551.0, 0.009885990057507796
552.0, 0.009897113008266978
553.0, 0.00993571163209632
554.0, 0.01136841350137507
555.0, 0.011058587065550416
556.0, 0.012636652241949346
557.0, 0.01369913883934273
558.0, 0.014146592161701011
559.0, 0.014554441042912468
560.0, 0.015249008185473735
561.0, 0.01751665408942414
562.0, 0.01863485453415373
563.0, 0.01956745703045418
564.0, 0.02084363425566873
565.0, 0.02194260581356437
566.0, 0.02217461788142134
567.0, 0.023440405994853225
568.0, 0.024276622205916646
569.0, 0.025092986906706836
570.0, 0.02629635268603989
571.0, 0.027334203087185698
572.0, 0.02753031941822114
573.0, 0.028339163266044104
574.0, 0.02910782959679535
575.0, 0.029134047041829262
576.0, 0.028785503653716505
577.0, 0.029311955097060926
578.0, 0.03052423457454656
579.0, 0.03004487640588672
580.0, 0.028269144017230657
581.0, 0.02750916008486821
582.0, 0.02885345974267261
583.0, 0.027859907463740032
584.0, 0.02559430064518802
585.0, 0.024651062285825184
586.0, 0.023298057774800936
587.0, 0.020671401842252086
588.0, 0.01936808290212245
589.0, 0.019384056485245386
590.0, 0.017048619979290906
591.0, 0.015282722888109865
592.0, 0.014747659775271814
593.0, 0.013985955838136761
594.0, 0.012929338094537658
595.0, 0.013248357692157748
596.0, 0.012463962195923987
597.0, 0.012341951880163904
598.0, 0.013826771239928193
599.0, 0.015651917770244116
600.0, 0.017563222277403614
601.0, 0.019986232242564943
602.0, 0.022043271586328662
603.0, 0.024374341272899582
604.0, 0.026828892611935346
605.0, 0.027943402158655817
606.0, 0.03096506199098595
607.0, 0.033080400531437036
608.0, 0.0349623941653332
609.0, 0.03634159212678147
610.0, 0.037419744649287615
611.0, 0.04123621970707812
612.0, 0.04267791392572652
613.0, 0.04669319113917836
614.0, 0.05234340137498632
615.0, 0.05722491719850577
616.0, 0.061657732299346873
617.0, 0.06949013495492944
618.0, 0.07686108668710931
619.0, 0.08373649690431005
620.0, 0.09199154237574288
621.0, 0.10055172023492527
622.0, 0.10591561846621764
623.0, 0.11034044364142612
624.0, 0.11321503432124799
625.0, 0.1145800594930519
626.0, 0.114326424009736
627.0, 0.11242533589644801
628.0, 0.10965323976992622
629.0, 0.10757128543730082
630.0, 0.10477560636212592
631.0, 0.1002999579680869
632.0, 0.09506768238910787
633.0, 0.09022008887549858
634.0, 0.08570737607538402
635.0, 0.08016850016553025
636.0, 0.07540207363012745
637.0, 0.07117719969154758
638.0, 0.06903334465512681
639.0, 0.07035812036595375
640.0, 0.07212328755786926
641.0, 0.07495263366585607
642.0, 0.0779647493127125
643.0, 0.07903566588331033
644.0, 0.07786180676686984
645.0, 0.07537653322435311
646.0, 0.07144196731643562
647.0, 0.0647926276200016
648.0, 0.058495687070993445
649.0, 0.05090279190434354
650.0, 0.042231835762011
651.0, 0.034877069691769146
652.0, 0.026853337689717455
653.0, 0.021386178834284425
654.0, 0.016123010414614967
655.0, 0.011475053772312142
656.0, 0.008058203992143962
657.0, 0.005186034412379989
658.0, 0.0036361311304445748
659.0, 0.0021793074119392172
660.0, 0.0015699389009940557
661.0, 0.0007550463353979031
662.0, 0.00018656923107518124
663.0, 0.00014879508759439163
664.0, 0.0004916711165263016
665.0, 0.0006050543918696954
666.0, 0.0006790746094466267
667.0, 0.000719589221017901
668.0, 0.0008706886972768594
669.0, 0.0007833930724967338
670.0, 0.0009527887104815126
671.0, 0.0007744119419046083
672.0, 0.0012183050390628242
673.0, 0.0012867125141417138
674.0, 0.0007551628350181682
675.0, 0.0012759386548152828
676.0, 0.0018151695635251998
677.0, 0.002138272556675469
678.0, 0.0019894372252095287
679.0, 0.0014899216678400556
680.0, 0.001331431440329308
681.0, 0.001861358668607577
682.0, 0.0014278167104266328
683.0, 0.000733269769650026
684.0, 0.0003784607206103079
685.0, 0.0005811940878837412
686.0, 0.0009481023355941553
687.0, 0.0009688662968637729
688.0, 0.0010430195827183615
689.0, 0.0010529151035784555
690.0, 0.0012065934336500928
691.0, 0.0008940433178530779
692.0, 0.00027614330576154826
693.0, 0.00025617539861380394
694.0, 0.0007440288169960023
695.0, 0.0009346615212879601
696.0, 0.0011946897334821267
697.0, 0.00040413662360773737
698.0, 0.00021211977766626554
699.0, 0.0006084432612198447
700.0, 0.0003068923384903667
701.0, 0.0007483063652516883
702.0, 0.00023299293237704185
703.0, 7.426870751390857e-05
704.0, 0.0006306333617117569
705.0, 0.0003062503529203916
706.0, 9.040993351056352e-05
707.0, 0.00024603050947820875
708.0, 0.0001054532364241911
709.0, 9.511239796164128e-05
710.0, 0.000155953186775074
711.0, 0.00019934238837352106
712.0, 0.0006827320108206123
713.0, 0.00030278385980901917
714.0, 0.0008481423876365999
715.0, 9.90197265538506e-05
716.0, 0.0006064315698806383
717.0, 0.0003084620890276787
718.0, 0.00014517797001643715
719.0, 0.0007764040534708259
720.0, 0.0006393502351746722
721.0, 0.0008251838977087463
722.0, 0.00040954878553973285
723.0, 0.0003874271126234871
724.0, 0.0015134405776338962
725.0, 0.001350209318628546
726.0, 0.000554512760366124
727.0, 0.0006796692845128247
728.0, 6.204758594173271e-05
729.0, 0.00018752071118109323
730.0, 0.001845145977799371
731.0, 0.0010741915753432036
732.0, 0.0004056040077892931
733.0, 0.00022449413284806582
734.0, 0.0007343381086964499
735.0, 0.001500588729193914
736.0, 0.0015472645136356067
737.0, 0.0007323965015920518
738.0, 0.0008446568212062064
739.0, 0.0014442486664555903
740.0, 0.0007388017848580924
741.0, 0.0011903229322009939
742.0, 0.0018728513143085755
743.0, 0.0008237327228643789
744.0, 0.0008101714963393309
745.0, 0.0006090959864737683
746.0, 0.00020775180047294923
747.0, 0.00021357877770790005
748.0, 0.0004693239501710624
749.0, 0.00027975407534787226
750.0, 9.248073621846967e-05
751.0, 0.0005278280392681067
752.0, 0.0011416050108250162
753.0, 0.0018213658820851765
754.0, 0.001760127285795425
755.0, 0.0008078733636665387
756.0, 4.8248249843358184e-05
757.0, 0.0004843252525361893
758.0, 0.0010075579447216265
759.0, 0.0016136731299118635
760.0, 0.001694505101842402
761.0, 0.00163099576107021
762.0, 0.001713057566551578
763.0, 0.0013783038128895955
764.0, 0.0008527459192367602
765.0, 0.00034926673976432704
766.0, 0.0006003255772646414
767.0, 0.0007372941672201413
768.0, 0.0002433341700843684
769.0, 0.00031111678719334724
770.0, 0.00014576869255952368
771.0, 0.0002360271126846436
772.0, 0.00015282171052005534
773.0, 0.00011090875633675642
774.0, 0.0001266021894134082
775.0, 0.0001314098947825383
776.0, 0.0005524435147127954
777.0, 0.0015081441567571599
778.0, 0.001605516160272521
779.0, 0.0012224330701569185
780.0, 0.0010002246968658665
781.0, 0.0009309606022354072
782.0, 0.0010034174571911325
783.0, 0.0015487818034117798
784.0, 0.0013726328605058935
785.0, 0.0014779765441686485
786.0, 0.0018490487949257848
787.0, 0.00169302077397788
788.0, 0.0015701149679320972
789.0, 0.002183897648689001
790.0, 0.0021992840625471807
791.0, 0.0017752511563011385
792.0, 0.0019586083036047556
793.0, 0.0018961076946367352
794.0, 0.0021160323879151903
795.0, 0.0025390133241498785
796.0, 0.002179992554049004
797.0, 0.0014495295567112615
798.0, 0.0018190529374318932
799.0, 0.0024349015501107037
800.0, 0.0021583289364614498
801.0, 0.0016085513786165205
802.0, 0.0018512563389631426
803.0, 0.0024343367385523396
804.0, 0.0020861706766598293
805.0, 0.0013224693537121092
806.0, 0.0013721052984833981
807.0, 0.002187855601516417
808.0, 0.002318741727101671
809.0, 0.0016344943828041534
810.0, 0.0017140682147305832
811.0, 0.000680634338940519
812.0, 0.0006510514602237434
813.0, 0.000498093687090362
814.0, 0.0002799530589350118
815.0, 0.0009865194228323296
816.0, 0.0013858249111072165
817.0, 0.002444254696967811
818.0, 0.0033657616624406497
819.0, 0.00397759954213513
820.0, 0.004887299602471592
821.0, 0.006066494385548464
822.0, 0.0071418539913539825
823.0, 0.007969347599833532
824.0, 0.009073927689889516
825.0, 0.011454478094870007
826.0, 0.01374370844799107
827.0, 0.015019983067269642
828.0, 0.016700212134773375
829.0, 0.019775759908465817
830.0, 0.023506920393962447
831.0, 0.02656159625060295
832.0, 0.029985669246771728
833.0, 0.033960193969864036
834.0, 0.03930076025330141
835.0, 0.04564137353414467
836.0, 0.0514047346702161
837.0, 0.057071497898432445
838.0, 0.06606765941688436
839.0, 0.07422161356056498
840.0, 0.0839646591747448
841.0, 0.09580365436704996
842.0, 0.10876461663882495
843.0, 0.12159500112174051
844.0, 0.1354683180721685
845.0, 0.15221745580601787
846.0, 0.1664461100221696
847.0, 0.18147787332502674
848.0, 0.1965869743298466
849.0, 0.21341982295907183
850.0, 0.2277069131437418
851.0, 0.23936911429346155
852.0, 0.2541620691051067
853.0, 0.2619375784644903
854.0, 0.26727879081017564
855.0, 0.2729603367542526
856.0, 0.27538554799530846
857.0, 0.27297888470749593
858.0, 0.2680729685615316
859.0, 0.2615214481291238
860.0, 0.2493681217502344
861.0, 0.2375833503040573
862.0, 0.22347368325044725
863.0, 0.20650024784763255
864.0, 0.1903692893083099
865.0, 0.1761005350191463
866.0, 0.16032586056391332
867.0, 0.14121873054294634
868.0, 0.12592411143864868
869.0, 0.11088927894171874
870.0, 0.09822969088694417
871.0, 0.08615524289553766
872.0, 0.07511996544799175
873.0, 0.06615306849041219
874.0, 0.057360857882493496
875.0, 0.0503258698551383
876.0, 0.04448764936885804
877.0, 0.03978449162926108
878.0, 0.03599969217143273
879.0, 0.032752262223481404
880.0, 0.029995959061754406
881.0, 0.027925424566472883
882.0, 0.026345589489460627
883.0, 0.025448555445496096
884.0, 0.02463605603282506
885.0, 0.023471435200525047
886.0, 0.02253539396920429
887.0, 0.021829882522538178
888.0, 0.021440694069009676
889.0, 0.02219803686025242
890.0, 0.02123804525532842
891.0, 0.022580090976854678
892.0, 0.02214248067467095
893.0, 0.021640069474924608
894.0, 0.021573967119301794
895.0, 0.02121849400000957
896.0, 0.02120802412564141
897.0, 0.0214351151026181
898.0, 0.02058226394246327
899.0, 0.018964236649226775
900.0, 0.018553908937165256
901.0, 0.01911746866358399
902.0, 0.01886131985467101
903.0, 0.017708052668653926
904.0, 0.017507883839912936
905.0, 0.015681088189201938
906.0, 0.01607133388996398
907.0, 0.015851084174917516
908.0, 0.014655629746460038
909.0, 0.014219847466247161
910.0, 0.01466299565253696
911.0, 0.014130568353587579
912.0, 0.012925065776388233
913.0, 0.013201085555821836
914.0, 0.01276301368677397
915.0, 0.013296796980617535
916.0, 0.01313485300449982
917.0, 0.012312350955584047
918.0, 0.013038609947368883
919.0, 0.012680618072750937
920.0, 0.012925526345140435
921.0, 0.013211841768530025
922.0, 0.013351607616539031
923.0, 0.013436497272637371
924.0, 0.014154699664914932
925.0, 0.015309824979677282
926.0, 0.015623784828712866
927.0, 0.015200770954785727
928.0, 0.016530714489752973
929.0, 0.01618247452765587
930.0, 0.01841029397044964
931.0, 0.018829459604008846
932.0, 0.01998395123749222
933.0, 0.021632389922166192
934.0, 0.021846630128663728
935.0, 0.024709515471215738
936.0, 0.027004662138909445
937.0, 0.02932585931475704
938.0, 0.03310277788069613
939.0, 0.03681696854762634
940.0, 0.04131287773476764
941.0, 0.04794575366875582
942.0, 0.055626316676072575
943.0, 0.06284039144895753
944.0, 0.0723568262179049
945.0, 0.08448285283914887
946.0, 0.09729168034093263
947.0, 0.11227428383831592
948.0, 0.12846964534794997
949.0, 0.14546371823278328
950.0, 0.1642694873715271
951.0, 0.18451825466229507
952.0, 0.20488584394011697
953.0, 0.22280220627022315
954.0, 0.23906219129297415
955.0, 0.2544542993395778
956.0, 0.2657654700059686
957.0, 0.27266134534973885
958.0, 0.2774349096627642
959.0, 0.27989807143363465
960.0, 0.2763762932242759
961.0, 0.265432717067409
962.0, 0.2567411691580698
963.0, 0.24541007721631905
964.0, 0.2277727043279995
965.0, 0.2072775556784037
966.0, 0.18688967449937113
967.0, 0.16533184756802927
968.0, 0.144250436810655
969.0, 0.12423761059532476
970.0, 0.10703038025577616
971.0, 0.09014693677572128
972.0, 0.07463810672956693
973.0, 0.06183905761023142
974.0, 0.05167713677312882
975.0, 0.04347614217484503
976.0, 0.036813134560296196
977.0, 0.03212578036547978
978.0, 0.028540885752039037
979.0, 0.02624399968107176
980.0, 0.025389565834849505
981.0, 0.026805209732319632
982.0, 0.029587492309356207
983.0, 0.03337745336310657
984.0, 0.040073138043166937
985.0, 0.0471883748355473
986.0, 0.0589204802989557
987.0, 0.07286474392111927
988.0, 0.09022626287627689
989.0, 0.11233469236482954
990.0, 0.14067379510536734
991.0, 0.1750592197113707
992.0, 0.21517757198376905
993.0, 0.2645002734305986
994.0, 0.32356691960294703
995.0, 0.3924402598427437
996.0, 0.46804741464531485
997.0, 0.5506947846670714
998.0, 0.6376543396630433
999.0, 0.7250557263756349
1000.0, 0.8078161016278813
1001.0, 0.879031689421495
1002.0, 0.940679021497906
1003.0, 0.9823344832308445
1004.0, 0.9987884770913296
1005.0, 0.9946973937040965
1006.0, 0.9646830427938005
1007.0, 0.9117915551016861
1008.0, 0.8410591049272246
1009.0, 0.7539062882401646
1010.0, 0.6597032592451805
1011.0, 0.5645638762297084
1012.0, 0.473098469036439
1013.0, 0.3885251818300053
1014.0, 0.31494680922462204
1015.0, 0.2507021369429349
1016.0, 0.19686721268908705
1017.0, 0.15381164999325816
1018.0, 0.11860132846668152
1019.0, 0.09500534428722215
1020.0, 0.07476041320508818
1021.0, 0.05956926309076966
1022.0, 0.048510340851557705
1023.0, 0.03994677557568058
1024.0, 0.03379013110965986
1025.0, 0.02934407733213304
1026.0, 0.025779028017774947
1027.0, 0.022929612235152236
1028.0, 0.01953335094818243
1029.0, 0.01841630140631497
1030.0, 0.016510342147665846
1031.0, 0.01618940334057234
1032.0, 0.01592540458123854
1033.0, 0.0142097528021019
1034.0, 0.01243923493194729
1035.0, 0.0118126829266417
1036.0, 0.011560961262995058
1037.0, 0.011535844455908462
1038.0, 0.011337374537103428
1039.0, 0.011097829740690143
1040.0, 0.009477916952257267
1041.0, 0.009230204264918083
1042.0, 0.009398098023974366
1043.0, 0.00907453713701176
1044.0, 0.008747408079878468
1045.0, 0.00828587547099794
1046.0, 0.0077942382902759875
1047.0, 0.008023444226430754
1048.0, 0.007422842710532088
1049.0, 0.007916107832334643
1050.0, 0.007760148577039241
1051.0, 0.0070129957895896135
1052.0, 0.007228072325739142
1053.0, 0.008432801933429572
1054.0, 0.00949693182224471
1055.0, 0.010546216034300948
1056.0, 0.010786516463246916
1057.0, 0.011655433671610541
1058.0, 0.01139766672369563
1059.0, 0.011477740929076514
1060.0, 0.013287530350099415
1061.0, 0.015150014090433546
1062.0, 0.01573318092651263
1063.0, 0.016024380550566906
1064.0, 0.017035690437821164
1065.0, 0.018220244403050406
1066.0, 0.019765231225344855
1067.0, 0.020334631263773436
1068.0, 0.02026906593938258
1069.0, 0.021898019037391428
1070.0, 0.022253853592962655
1071.0, 0.02134968119606642
1072.0, 0.021470102038598223
1073.0, 0.0214594250360499
1074.0, 0.02088572441294307
1075.0, 0.019546197207195637
1076.0, 0.018127922326698732
1077.0, 0.0162810682129376
1078.0, 0.01576317267178553
1079.0, 0.013756080723628642
1080.0, 0.011740084659192882
1081.0, 0.01079232846979527
1082.0, 0.009521946103277387
1083.0, 0.00867406685786051
1084.0, 0.009132192990697164
1085.0, 0.008788846875778524
1086.0, 0.009762856697986173
1087.0, 0.01006338259972545
1088.0, 0.007973847487494485
1089.0, 0.00508676403996761
1090.0, 0.0035891490055004593
1091.0, 0.002933538210071139
1092.0, 0.002807017865833094
1093.0, 0.004801230497510682
1094.0, 0.006235667005411679
1095.0, 0.00560144395126113
1096.0, 0.007812878788453964
1097.0, 0.009333898628563344
1098.0, 0.011472825148151677
1099.0, 0.01300499186196414
1100.0, 0.01412696768489351
1101.0, 0.015951162735103483
1102.0, 0.01799256769409034
1103.0, 0.020196512300388703
1104.0, 0.02248586334519995
1105.0, 0.024477889393190295
1106.0, 0.024978737649728938
1107.0, 0.026574937812662368
1108.0, 0.02719097454947093
1109.0, 0.02800207432979588
1110.0, 0.028372902027681765
1111.0, 0.02811857167432277
1112.0, 0.028981234354240812
1113.0, 0.029892137458804834
1114.0, 0.029122350578455913
1115.0, 0.02937470040314083
1116.0, 0.03081419099035071
1117.0, 0.029670976344437182
1118.0, 0.029657163833261634
1119.0, 0.030764779900226795
1120.0, 0.031438359704076616
1121.0, 0.03173245385262236
1122.0, 0.03215005237065957
1123.0, 0.032560532314747065
1124.0, 0.032819019500204334
1125.0, 0.03383020310634177
1126.0, 0.03620934952720839
1127.0, 0.035823758421450996
1128.0, 0.03706787655045729
1129.0, 0.038142184066478124
1130.0, 0.03933624137444254
1131.0, 0.040576891024693994
1132.0, 0.04105715364242743
1133.0, 0.04153621800687035
1134.0, 0.042904442486613154
1135.0, 0.04514428794006658
1136.0, 0.044055252444641604
1137.0, 0.04482624996553164
1138.0, 0.045254144287222686
1139.0, 0.04551803895592626
1140.0, 0.046677428851011914
1141.0, 0.04643862059934691
1142.0, 0.04546377062168081
1143.0, 0.045195535110210024
1144.0, 0.0442134470314095
1145.0, 0.04343412374019668
1146.0, 0.04345105970280742
1147.0, 0.042549339398603996
1148.0, 0.04086107779481045
1149.0, 0.04032662780214637
1150.0, 0.039214795750467095
1151.0, 0.03853514043952083
1152.0, 0.03835665188241186
1153.0, 0.03755517505855113
1154.0, 0.035830866654961206
1155.0, 0.03394155031327128
1156.0, 0.03310483375164996
1157.0, 0.03331329784469467
1158.0, 0.032160990838599635
1159.0, 0.030102591866814434
1160.0, 0.029515854704642748
1161.0, 0.027812325154151885
1162.0, 0.026338930342819887
1163.0, 0.02577371538756119
1164.0, 0.025020976766710112
1165.0, 0.02410609730413541
1166.0, 0.023655767902393498
1167.0, 0.02186714563992069
1168.0, 0.019240297928293064
1169.0, 0.01834586544847252
1170.0, 0.017880995472815485
1171.0, 0.017266357130694368
1172.0, 0.016703178591680395
1173.0, 0.01643273236039933
1174.0, 0.015457761571269718
1175.0, 0.014833167023085386
1176.0, 0.014133381196486692
1177.0, 0.013817108159365946
1178.0, 0.01326564582856879
1179.0, 0.010852360347813854
1180.0, 0.010493944435338938
1181.0, 0.009521709351136252
1182.0, 0.00871071752659388
1183.0, 0.008315947224920194
1184.0, 0.007801678615575696
1185.0, 0.006202783849756215
1186.0, 0.005129356907972716
1187.0, 0.004857699755852631
1188.0, 0.003967069019512478
1189.0, 0.0030461833617069574
1190.0, 0.003043994143004069
1191.0, 0.0013273580259180178
1192.0, 0.0004715524146336526
1193.0, 0.0008779242100159781
1194.0, 0.0007102866063961585
1195.0, 0.0010183944056261776
1196.0, 0.0012048864227651374
1197.0, 0.001343150461114157
1198.0, 0.0015368703360734842
1199.0, 0.0020585952405079203
1200.0, 0.002458589819530646
1201.0, 0.003271740556214026
1202.0, 0.0034970612458967015
1203.0, 0.003005652193629298
1204.0, 0.0020155569750513057
1205.0, 0.0023901348678027337
1206.0, 0.0027521811193044064
1207.0, 0.0027457683302369363
1208.0, 0.0028372583805142864
1209.0, 0.002006684359184132
1210.0, 0.0019354203277902682
1211.0, 0.0024441364805951296
1212.0, 0.002159441591675962
1213.0, 0.0022393160948291726
1214.0, 0.0027842138037774003
1215.0, 0.0014740442627791562
1216.0, 0.0017851739855026378
1217.0, 0.0017561060127495051
1218.0, 0.002254895822998953
1219.0, 0.0022580136051587856
1220.0, 0.0029382363626787667
1221.0, 0.0022064088247906555
1222.0, 0.002402150903790553
1223.0, 0.0023542357039237263
1224.0, 0.001970184445271404
1225.0, 0.0020308345947130674
1226.0, 0.0018539364916685184
1227.0, 0.001559766064725457
1228.0, 0.0013112934549148823
1229.0, 0.0017176661685601694
1230.0, 0.0013057632990466162
1231.0, 0.0004418953163164749
1232.0, 0.0009196139065309672
1233.0, 0.0011302475355120705
1234.0, 0.00027779571004818567
1235.0, 0.0001613815979686079
1236.0, 3.0507809046355387e-05
1237.0, 9.387561755201917e-05
1238.0, 0.00014839400631106147
1239.0, 0.0004987504846408155
1240.0, 0.00013748220792089266
1241.0, 0.00020128307721498532
1242.0, 0.00033403838690560254
1243.0, 0.0011058058513103359
1244.0, 0.0006413452612276476
1245.0, 0.0007197901487533967
1246.0, 0.00030487120183026383
1247.0, 0.0012282335375399293
1248.0, 0.0012649173435882028
1249.0, 0.00046581945953915127
1250.0, 0.0009643340304528821
1251.0, 0.0011483992782583075
1252.0, 0.0004628567440431119
1253.0, 0.001265969832617722
1254.0, 0.0012981444885263715
1255.0, 0.0009249039794160887
1256.0, 0.0002432823481148133
1257.0, 0.0006364735169994782
1258.0, 0.0014145835832432357
1259.0, 0.0009532755780562343
1260.0, 0.00032272806239853164
1261.0, 0.00010424304571543011
1262.0, 0.0003629525306536739
1263.0, 0.0007814459517643916
1264.0, 0.0007091512341548695
1265.0, 0.000469548964516293
1266.0, 0.0008283684735164898
1267.0, 0.00033168332193042344
1268.0, 0.0005937575219110449
1269.0, 0.00013921249477517127
1270.0, 0.000623806838277886
1271.0, 0.0007749799873455126
1272.0, 0.0010024969185539198
1273.0, 0.0002578734264916893
1274.0, 0.00025524172482409594
1275.0, 0.0007152942136153536
1276.0, 0.00020925950837499553
1277.0, 0.000157723877198812
1278.0, 0.000531317238825807
1279.0, 0.00018484752798321127
1280.0, 0.0006007339647270079
1281.0, 0.00026502589632131784
1282.0, 0.0005119891214019159
1283.0, 0.0006604908838729366
1284.0, 0.0004248050456069292
1285.0, 0.0001524052183891044
1286.0, 0.0005414259563863403
1287.0, 0.0008327531790651131
1288.0, 0.0006490915572943367
1289.0, 0.00026153138680828393
1290.0, 0.0005003431119027212
1291.0, 0.0005457252235568318
1292.0, 2.841191640921225e-05
1293, 0.0
1294, 0.0
1295, 0.0
1296, 0.0
1297, 0.0
1298, 0.0
1299, 0.0
1300, 0.0
1301, 0.0
1302, 0.0
1303, 0.0
1304, 0.0
1305, 0.0
1306, 0.0
1307, 0.0
1308, 0.0
1309, 0.0
1310, 0.0
1311, 0.0
1312, 0.0
1313, 0.0
1314, 0.0
1315, 0.0
1316, 0.0
1317, 0.0
1318, 0.0
1319, 0.0
1320, 0.0
1321, 0.0
1322, 0.0
1323, 0.0
1324, 0.0
1325, 0.0
1326, 0.0
1327, 0.0
1328, 0.0
1329, 0.0
1330, 0.0
1331, 0.0
1332, 0.0
1333, 0.0
1334, 0.0
1335, 0.0
1336, 0.0
1337, 0.0
1338, 0.0
1339, 0.0
1340, 0.0
1341, 0.0
1342, 0.0
1343, 0.0
1344, 0.0
1345, 0.0
1346, 0.0
1347, 0.0
1348, 0.0
1349, 0.0
1350, 0.0
1351, 0.0
1352, 0.0
1353, 0.0
1354, 0.0
1355, 0.0
1356, 0.0
1357, 0.0
1358, 0.0
1359, 0.0
1360, 0.0
1361, 0.0
1362, 0.0
1363, 0.0
1364, 0.0
1365, 0.0
1366, 0.0
1367, 0.0
1368, 0.0
1369, 0.0
1370, 0.0
1371, 0.0
1372, 0.0
1373, 0.0
1374, 0.0
1375, 0.0
1376, 0.0
1377, 0.0
1378, 0.0
1379, 0.0
1380, 0.0
1381, 0.0
1382, 0.0
1383, 0.0
1384, 0.0
1385, 0.0
1386, 0.0
1387, 0.0
1388, 0.0
1389, 0.0
1390, 0.0
1391, 0.0
1392, 0.0
1393, 0.0
1394, 0.0
1395, 0.0
1396, 0.0
1397, 0.0
1398, 0.0
1399, 0.0
1400, 0.0
1401, 0.0
1402, 0.0
1403, 0.0
1404, 0.0
1405, 0.0
1406, 0.0
1407, 0.0
1408, 0.0
1409, 0.0
1410, 0.0
1411, 0.0
1412, 0.0
1413, 0.0
1414, 0.0
1415, 0.0
1416, 0.0
1417, 0.0
1418, 0.0
1419, 0.0
1420, 0.0
1421, 0.0
1422, 0.0
1423, 0.0
1424, 0.0
1425, 0.0
1426, 0.0
1427, 0.0
1428, 0.0
1429, 0.0
1430, 0.0
1431, 0.0
1432, 0.0
1433, 0.0
1434, 0.0
1435, 0.0
1436, 0.0
1437, 0.0
1438, 0.0
1439, 0.0
1440, 0.0
1441, 0.0
1442, 0.0
1443, 0.0
1444, 0.0
1445, 0.0
1446, 0.0
1447, 0.0
1448, 0.0
1449, 0.0
1450, 0.0
1451, 0.0
1452, 0.0
1453, 0.0
1454, 0.0
1455, 0.0
1456, 0.0
1457, 0.0
1458, 0.0
1459, 0.0
1460, 0.0
1461, 0.0
1462, 0.0
1463, 0.0
1464, 0.0
1465, 0.0
1466, 0.0
1467, 0.0
1468, 0.0
1469, 0.0
1470, 0.0
1471, 0.0
1472, 0.0
1473, 0.0
1474, 0.0
1475, 0.0
1476, 0.0
1477, 0.0
1478, 0.0
1479, 0.0
1480, 0.0
1481, 0.0
1482, 0.0
1483, 0.0
1484, 0.0
1485, 0.0
1486, 0.0
1487, 0.0
1488, 0.0
1489, 0.0
1490, 0.0
1491, 0.0
1492, 0.0
1493, 0.0
1494, 0.0
1495, 0.0
1496, 0.0
1497, 0.0
1498, 0.0
1499, 0.0
1500, 0.0
1501, 0.0
1502, 0.0
1503, 0.0
1504, 0.0
1505, 0.0
1506, 0.0
1507, 0.0
1508, 0.0
1509, 0.0
1510, 0.0
1511, 0.0
1512, 0.0
1513, 0.0
1514, 0.0
1515, 0.0
1516, 0.0
1517, 0.0
1518, 0.0
1519, 0.0
1520, 0.0
1521, 0.0
1522, 0.0
1523, 0.0
1524, 0.0
1525, 0.0
1526, 0.0
1527, 0.0
1528, 0.0
1529, 0.0
1530, 0.0
1531, 0.0
1532, 0.0
1533, 0.0
1534, 0.0
1535, 0.0
1536, 0.0
1537, 0.0
1538, 0.0
1539, 0.0
1540, 0.0
1541, 0.0
1542, 0.0
1543, 0.0
1544, 0.0
1545, 0.0
1546, 0.0
1547, 0.0
1548, 0.0
1549, 0.0
1550, 0.0
1551, 0.0
1552, 0.0
1553, 0.0
1554, 0.0
1555, 0.0
1556, 0.0
1557, 0.0
1558, 0.0
1559, 0.0
1560, 0.0
1561, 0.0
1562, 0.0
1563, 0.0
1564, 0.0
1565, 0.0
1566, 0.0
1567, 0.0
1568, 0.0
1569, 0.0
1570, 0.0
1571, 0.0
1572, 0.0
1573, 0.0
1574, 0.0
1575, 0.0
1576, 0.0
1577, 0.0
1578, 0.0
1579, 0.0
1580, 0.0
1581, 0.0
1582, 0.0
1583, 0.0
1584, 0.0
1585, 0.0
1586, 0.0
1587, 0.0
1588, 0.0
1589, 0.0
1590, 0.0
1591, 0.0
1592, 0.0
1593, 0.0
1594, 0.0
1595, 0.0
1596, 0.0
1597, 0.0
1598, 0.0
1599, 0.0
