30, 0.0
31, 0.0
32, 0.0
33, 0.0
34, 0.0
35, 0.0
36, 0.0
37, 0.0
38, 0.0
39, 0.0
40, 0.0
41, 0.0
42, 0.0
43, 0.0
44, 0.0
45, 0.0
46, 0.0
47, 0.0
48, 0.0
49, 0.0
50, 0.0
51, 0.0
52, 0.0
53, 0.0
54, 0.0
55, 0.0
56, 0.0
57, 0.0
58, 0.0
59, 0.0
60, 0.0
61, 0.0
62, 0.0
63, 0.0
64, 0.0
65, 0.0
66, 0.0
67, 0.0
68, 0.0
69, 0.0
70, 0.0
71, 0.0
72, 0.0
73, 0.0
74, 0.0
75, 0.0
76, 0.0
77, 0.0
78, 0.0
79, 0.0
80, 0.0
81, 0.0
82, 0.0
83, 0.0
84, 0.0
85, 0.0
86, 0.0
87, 0.0
88, 0.0
89, 0.0
90, 0.0
91, 0.0
92, 0.0
93, 0.0
94, 0.0
95, 0.0
96, 0.0
97, 0.0
98, 0.0
99, 0.0
100, 0.0
101, 0.0
102, 0.0
103, 0.0
104, 0.0
105, 0.0
106, 0.0
107, 0.0
108, 0.0
109, 0.0
110, 0.0
111, 0.0
112, 0.0
113, 0.0
114, 0.0
115, 0.0
116, 0.0
117, 0.0
118, 0.0
119, 0.0
120, 0.0
121, 0.0
122, 0.0
123, 0.0
124, 0.0
125, 0.0
126, 0.0
127, 0.0
128, 0.0
129, 0.0
130, 0.0
131, 0.0
132, 0.0
133, 0.0
134, 0.0
135, 0.0
136, 0.0
137, 0.0
138.0, 1.410441266519338e-06
139.0, 0.00023306726849629247
140.0, 0.0003253635117783525
141.0, 0.0001336772880308919
142.0, 6.67229708740005e-05
143.0, 0.0003043788727116958
144.0, 0.0011027467765769795
145.0, 0.0021699759905065914
146.0, 0.0030601623946494632
147.0, 0.004541873790848096
148.0, 0.005573362523432957
149.0, 0.006741396101265686
150.0, 0.008981761402821826
151.0, 0.010614610696270671
152.0, 0.013534441212372775
153.0, 0.016063301703194973
154.0, 0.017334431751444813
155.0, 0.020669796150642974
156.0, 0.02301064161001133
157.0, 0.025085006041908258
158.0, 0.02718385752313539
159.0, 0.02852255512168265
160.0, 0.029049436508591604
161.0, 0.029665345681350718
162.0, 0.029984717044694284
163.0, 0.02910036985189461
164.0, 0.02769544228691344
165.0, 0.025579264079673845
166.0, 0.023610915079996977
167.0, 0.02259880683276275
168.0, 0.022409187631156603
169.0, 0.021724939477722804
170.0, 0.021065512965644018
171.0, 0.020785633691426015
172.0, 0.020500868151580726
173.0, 0.021087390815528725
174.0, 0.021959913572325688
175.0, 0.022669796148625007
176.0, 0.02315539758246118
177.0, 0.0231527112394949
178.0, 0.02375951913398514
179.0, 0.024504120646377185
180.0, 0.02448366337251597
181.0, 0.02379238937171631
182.0, 0.023126867620000595
183.0, 0.02257764654109475
184.0, 0.02188633272944975
185.0, 0.02061158999873874
186.0, 0.019814692283884182
187.0, 0.018734316583924097
188.0, 0.01798965461828503
189.0, 0.018962772644242794
190.0, 0.019000058601733844
191.0, 0.01930311735900301
192.0, 0.020213877817514936
193.0, 0.02155763389803976
194.0, 0.02225428914107825
195.0, 0.023572833455702564
196.0, 0.02572388768681279
197.0, 0.028541239956906817
198.0, 0.030295089445740185
199.0, 0.03195108016769034
200.0, 0.0345464470956077
201.0, 0.03791178030690931
202.0, 0.04103749971658633
203.0, 0.04351827884300059
204.0, 0.04717953372388912
205.0, 0.05091580240803491
206.0, 0.05341372367923684
207.0, 0.05551980263700778
208.0, 0.05631087274475095
209.0, 0.05606849303379373
210.0, 0.05501259256233057
211.0, 0.0529618754359716
212.0, 0.04956097798655086
213.0, 0.046546493286873054
214.0, 0.04391981865699851
215.0, 0.04094076674019234
216.0, 0.0380947234116197
217.0, 0.036209866160480476
218.0, 0.03431374939918602
219.0, 0.031774291621800926
220.0, 0.029074096106567065
221.0, 0.026467322152598255
222.0, 0.023641419377432735
223.0, 0.020965008667349547
224.0, 0.018968401813420754
225.0, 0.01644730192383355
226.0, 0.014535185976062268
227.0, 0.012952690950304114
228.0, 0.011186626861431357
229.0, 0.009317295836182616
230.0, 0.008180323252265689
231.0, 0.006812742562465401
232.0, 0.005273668369828438
233.0, 0.004332455751340672
234.0, 0.0019384048497947727
235.0, 0.001025157054021944
236.0, 0.0009382468831937772
237.0, 0.00046474402082013317
238.0, 7.519186413230857e-05
239.0, 0.00015273574020465883
240.0, 0.0002300120838770154
241.0, 0.00017318502427270693
242.0, 7.366493978750584e-05
243.0, 0.0010760468936039695
244.0, 0.0013999042619395735
245.0, 0.0011259938340995865
246.0, 0.0010868372431632547
247.0, 0.001469012846511596
248.0, 0.0007529511605794229
249.0, 0.0006822424133043799
250.0, 0.0013869177162795527
251.0, 0.0013527062815432696
252.0, 0.0007615589277239785
253.0, 0.00029171895424822195
254.0, 0.00016753701637593256
255.0, 0.00016525030104302835
256.0, 0.00041485255835147514
257.0, 0.0007719622876955574
258.0, 0.0012402931029898917
259.0, 0.001724772879713319
260.0, 0.0017412291240706858
261.0, 0.002705194538088034
262.0, 0.0032933085830066738
263.0, 0.0036724771198805295
264.0, 0.004329590938509176
265.0, 0.005162049902440565
266.0, 0.005753934203922957
267.0, 0.0062587321444244615
268.0, 0.00691188945316072
269.0, 0.007751650235062111
270.0, 0.008127630211393502
271.0, 0.009058171769645447
272.0, 0.010243964046992656
273.0, 0.010883692275738568
274.0, 0.01050404866519869
275.0, 0.010778101355585011
276.0, 0.011479793219496158
277.0, 0.011979484875691256
278.0, 0.011837162259939762
279.0, 0.011543110271368659
280.0, 0.01125954690965755
281.0, 0.010985828234431935
282.0, 0.010718431196571074
283.0, 0.010474159504652096
284.0, 0.010054713936876424
285.0, 0.009730623250397174
286.0, 0.009333384055837378
287.0, 0.008669606904056095
288.0, 0.008140487483498384
289.0, 0.007717887421146828
290.0, 0.007348848110936793
291.0, 0.006473833358418426
292.0, 0.004666523858981358
293.0, 0.0043862248239575595
294.0, 0.0041269331858071875
295.0, 0.003718572286344142
296.0, 0.0034993823467820693
297.0, 0.003288703607557273
298.0, 0.0025521453372480134
299.0, 0.0027758638710521405
300.0, 0.004158852156223622
301.0, 0.0057590945495438715
302.0, 0.00697369482351763
303.0, 0.006965375304490136
304.0, 0.007062613998288562
305.0, 0.008566554820651454
306.0, 0.011949810358319997
307.0, 0.014537742219551616
308.0, 0.017855202064220584
309.0, 0.022416278090426647
310.0, 0.02749698249545761
311.0, 0.03213214171247948
312.0, 0.03818091537998085
313.0, 0.04436240268402621
314.0, 0.0507109790595651
315.0, 0.05803060362476848
316.0, 0.06586824780540348
317.0, 0.07426228945413284
318.0, 0.08299283791127653
319.0, 0.09155079743440842
320.0, 0.09927664204988014
321.0, 0.10544606680668486
322.0, 0.11212392418735237
323.0, 0.11601257511758177
324.0, 0.11534102923911957
325.0, 0.11370698679639353
326.0, 0.10876201855906825
327.0, 0.10313563236263217
328.0, 0.0968110049365135
329.0, 0.08900506980763014
330.0, 0.08217101707844005
331.0, 0.07735724004058055
332.0, 0.07228281321421436
333.0, 0.06660887486733555
334.0, 0.061910808238589174
335.0, 0.058326984269329
336.0, 0.05399512591389115
337.0, 0.050069495809820314
338.0, 0.04705827065181027
339.0, 0.04355934907731664
340.0, 0.04135234288282771
341.0, 0.03840814095786138
342.0, 0.035318636103510354
343.0, 0.03306413410038671
344.0, 0.030521879408863084
345.0, 0.029509952162944785
346.0, 0.0284756748364331
347.0, 0.02699987517641204
348.0, 0.025928186386943573
349.0, 0.025993052085269752
350.0, 0.02532982545307672
351.0, 0.02492408995528895
352.0, 0.025410881889561254
353.0, 0.025977971677325993
354.0, 0.024724917377739443
355.0, 0.02485191784080785
356.0, 0.02501756872199106
357.0, 0.024181170524153053
358.0, 0.023160980492803063
359.0, 0.02339845769116488
360.0, 0.02170688903300074
361.0, 0.019164646773699223
362.0, 0.017286885162441326
363.0, 0.015809758682095217
364.0, 0.01478469842679922
365.0, 0.014361738922589152
366.0, 0.01349920631940018
367.0, 0.012027977254506952
368.0, 0.012231585124957341
369.0, 0.012398382013225996
370.0, 0.011202312183546323
371.0, 0.009831017561301853
372.0, 0.009788950312407433
373.0, 0.009434022913254323
374.0, 0.009027285848691287
375.0, 0.007979035984194336
376.0, 0.00667254703767763
377.0, 0.005965532826326844
378.0, 0.005087135417636726
379.0, 0.004245743396034225
380.0, 0.0037377559073874644
381.0, 0.0032508239284575135
382.0, 0.002397873189132839
383.0, 0.0022472492517524073
384.0, 0.001837368591508486
385.0, 0.0013647759535859133
386.0, 0.0010180758614687312
387.0, 0.0006212194623193501
388.0, 9.972066649341019e-05
389.0, 0.0002191646078896937
390.0, 0.0006937085710060058
391.0, 0.0005404676459204441
392.0, 0.0007020356262124993
393.0, 0.0005084386533927818
394.0, 0.0002968465976524636
395.0, 0.0006452540835737945
396.0, 0.0013016683035367233
397.0, 0.0017056902717423892
398.0, 0.00199176169646919
399.0, 0.001824505533999598
400.0, 0.0016702573001591374
401.0, 0.0018269046513313338
402.0, 0.0018562861222566466
403.0, 0.0016005408103557405
404.0, 0.001110239944462891
405.0, 0.0003065592304533112
406.0, 0.00048731103286493753
407.0, 0.0006221829201248443
408.0, 0.0018595279498635283
409.0, 0.0032784047226817794
410.0, 0.0044183572602557435
411.0, 0.005540715773310076
412.0, 0.007365834006228526
413.0, 0.009596290857073874
414.0, 0.01082682510172317
415.0, 0.012934721711944817
416.0, 0.016322003443718907
417.0, 0.017602961228265587
418.0, 0.020913829553423472
419.0, 0.023908689777427005
420.0, 0.02662662474972922
421.0, 0.029958748272081274
422.0, 0.033566490485009634
423.0, 0.03685882306502543
424.0, 0.03998568413867663
425.0, 0.04326208239556092
426.0, 0.04643740868943558
427.0, 0.04820963793019942
428.0, 0.05111907365014156
429.0, 0.05451452218383428
430.0, 0.05704893668552721
431.0, 0.05807664072648449
432.0, 0.05838983965315318
433.0, 0.05918352945497101
434.0, 0.05934969741704246
435.0, 0.05837754485009406
436.0, 0.05674078905852196
437.0, 0.05537194435429
438.0, 0.053005007965894614
439.0, 0.04953703893500983
440.0, 0.04594345476633007
441.0, 0.0429347255190103
442.0, 0.04045091510998428
443.0, 0.0397411482934848
444.0, 0.038834411457656315
445.0, 0.03693536657499164
446.0, 0.0356032017004623
447.0, 0.03740341835442536
448.0, 0.03751571833042738
449.0, 0.03761720431977095
450.0, 0.038647873830844115
451.0, 0.04001201123150559
452.0, 0.04020002453529
453.0, 0.04148185349960651
454.0, 0.04198153842879119
455.0, 0.042752952444220914
456.0, 0.04367121457445586
457.0, 0.043479640242217066
458.0, 0.044308074374081206
459.0, 0.045364439087725146
460.0, 0.047309443199812326
461.0, 0.04961534820771891
462.0, 0.05121757747056961
463.0, 0.05311236328071986
464.0, 0.05534882312018716
465.0, 0.05864358030337727
466.0, 0.061778528641101754
467.0, 0.06339746890436336
468.0, 0.06586905519792173
469.0, 0.06720094522263688
470.0, 0.06729826679354778
471.0, 0.06670557923338609
472.0, 0.06628812812955902
473.0, 0.06660714070677523
474.0, 0.06533122985241265
475.0, 0.06499705291075956
476.0, 0.06417716245456863
477.0, 0.06177385564940432
478.0, 0.06039076980990355
479.0, 0.05889534390763104
480.0, 0.057556802767643196
481.0, 0.05587497996101185
482.0, 0.05382975648133924
483.0, 0.052075473871980055
484.0, 0.05011099497562937
485.0, 0.046905437034527354
486.0, 0.04339729631145885
487.0, 0.04016341443510636
488.0, 0.03705659679827992
489.0, 0.03385626275122395
490.0, 0.030192531622840763
491.0, 0.0268287592638577
492.0, 0.02382208165132783
493.0, 0.020795959798944635
494.0, 0.018090724281596866
495.0, 0.01687691366720138
496.0, 0.015009905361490172
497.0, 0.012663824867708328
498.0, 0.010940203119545277
499.0, 0.009828634309907708
500.0, 0.009423923240815665
501.0, 0.008632407463060515
502.0, 0.007769381385019601
503.0, 0.0070883038901630125
504.0, 0.005994719081716193
505.0, 0.006120163963412305
506.0, 0.005288435490150938
507.0, 0.004806927213413553
508.0, 0.004974113935582088
509.0, 0.005150381486547541
510.0, 0.005973179061787385
511.0, 0.005569626794624882
512.0, 0.006027829178544
513.0, 0.0070547337935919375
514.0, 0.007372934533235198
515.0, 0.007296589987897094
516.0, 0.007737407579845511
517.0, 0.007826217655583815
518.0, 0.008224006289309459
519.0, 0.009141533700526849
520.0, 0.010009678294982139
521.0, 0.010685523388119874
522.0, 0.01101145155757345
523.0, 0.012378673364058424
524.0, 0.013725215680936181
525.0, 0.012983003080647676
526.0, 0.012186655131207858
527.0, 0.013950913129967312
528.0, 0.014494061342162048
529.0, 0.013893971098797404
530.0, 0.013541140495539852
531.0, 0.012751501328818641
532.0, 0.011070846756187538
533.0, 0.010304106443593872
534.0, 0.009624643308785263
535.0, 0.008161031506590186
536.0, 0.006013765444906064
537.0, 0.004727841687742054
538.0, 0.0026545463678129765
539.0, 0.001489498976626886
540.0, 0.0014198530196626578
541.0, 0.0013572511949224346
542.0, 0.0010367313240058312
543.0, 0.00014781221916428003
544.0, 0.00014753917707486353
545.0, 0.0005477475594902863
546.0, 0.0013992975434459411
547.0, 0.001060311433672875
548.0, 0.0005324365044839922
549.0, 0.00035227569766733204
550.0, 0.0005883621319868641
551.0, 0.0009709249301945746
552.0, 0.0010791688939969957
553.0, 0.0007564583030240003
554.0, 0.0003608157550960379
555.0, 0.00016709046453700934
556.0, 0.00011995401744544033
557.0, 0.0010423373433628338
558.0, 0.0017483439511781786
559.0, 0.00018163430261369605
560.0, 0.0007030043563786345
561.0, 0.00022010103873482963
562.0, 0.00048275190260672256
563.0, 0.000959785404570201
564.0, 0.00010630920924349204
565.0, 0.0006602139550216828
566.0, 0.0011045975448786096
567.0, 0.0012139577660791154
568.0, 0.0008010407920339796
569.0, 8.869018326274323e-05
570.0, 0.0018864387359558397
571.0, 0.0016263429129179173
572.0, 0.0018180010823815288
573.0, 0.0025689682361235006
574.0, 0.002125934320235725
575.0, 0.00015535619649719194
576.0, 0.0008454149016515858
577.0, 0.001248122199300952
578.0, 0.0012795220682591387
579.0, 0.001180035663305575
580.0, 0.0010389655945313352
581.0, 0.0022591737717336607
582.0, 0.0017334550354126477
583.0, 0.0014928793783844153
584.0, 0.001829709950718685
585.0, 0.0018841048925893385
586.0, 0.0014481420351837694
587.0, 0.0019370343133122464
588.0, 0.0017211479357966317
589.0, 0.0015118414922313979
590.0, 0.001953758091737954
591.0, 0.002731261502720754
592.0, 0.0027380928811297934
593.0, 0.0033550927500703483
594.0, 0.0032610479896079477
595.0, 0.0024792453393359193
596.0, 0.001960286565286257
597.0, 0.0023515290402182074
598.0, 0.003886850944850208
599.0, 0.0033180137640771608
600.0, 0.0027419362047416394
601.0, 0.002704100972024222
602.0, 0.002957332722278816
603.0, 0.0032911268486063737
604.0, 0.0029827945665020974
605.0, 0.003187240063474682
606.0, 0.003570590208986332
607.0, 0.003725439161949742
608.0, 0.0036538765678967304
609.0, 0.003421372610004365
610.0, 0.003339348261288419
611.0, 0.0029320136930056162
612.0, 0.002417333369081923
613.0, 0.0028965206010324626
614.0, 0.004801254323742475
615.0, 0.004024415068817852
616.0, 0.004071980801655719
617.0, 0.003784601131729199
618.0, 0.0034879097357532218
619.0, 0.0035035736530812625
620.0, 0.003187261392788905
621.0, 0.0031753288764942663
622.0, 0.003561172311019886
623.0, 0.0036606450545336082
624.0, 0.003609800399736365
625.0, 0.0035947966861914846
626.0, 0.0032733539752503983
627.0, 0.0027485078313283567
628.0, 0.003423564800334247
629.0, 0.0043239852797645325
630.0, 0.0045093451978935025
631.0, 0.004429564854716967
632.0, 0.005096329835486443
633.0, 0.004134123566908848
634.0, 0.0049303890920778335
635.0, 0.004802548330916364
636.0, 0.004308885123722225
637.0, 0.004733215747457144
638.0, 0.0033338836938441698
639.0, 0.004478734608648816
640.0, 0.005377798897894024
641.0, 0.006192358139736853
642.0, 0.006222369343287212
643.0, 0.0049439144974435184
644.0, 0.00530827540129368
645.0, 0.005651814833474359
646.0, 0.005794356525918409
647.0, 0.0059181236351894375
648.0, 0.005774952153656999
649.0, 0.005413202040523363
650.0, 0.006417410461571137
651.0, 0.006615091010245071
652.0, 0.006996590805888077
653.0, 0.006509020084465511
654.0, 0.005572169090023229
655.0, 0.005451701861005288
656.0, 0.005613790163227467
657.0, 0.006057001262786574
658.0, 0.006774160949948834
659.0, 0.0073042361478849295
660.0, 0.007143290245509368
661.0, 0.006539452822579896
662.0, 0.006755276734881313
663.0, 0.006592867635416007
664.0, 0.006961769445571824
665.0, 0.006929605716428952
666.0, 0.006543591437518987
667.0, 0.00665676673295582
668.0, 0.006078109035135014
669.0, 0.006159494261538152
670.0, 0.0074507378659580984
671.0, 0.007860170176410518
672.0, 0.00717144519071587
673.0, 0.007139983045096143
674.0, 0.007323609529114494
675.0, 0.006947975817514026
676.0, 0.006682181193232562
677.0, 0.0066169021676031605
678.0, 0.00659771956706041
679.0, 0.006233308854244295
680.0, 0.004891503121214768
681.0, 0.005384728078441195
682.0, 0.00588247803264626
683.0, 0.005997794244678592
684.0, 0.006066762480482314
685.0, 0.005704747040414579
686.0, 0.0035097787908300393
687.0, 0.0036451342233052944
688.0, 0.004283639871646052
689.0, 0.004379860246679109
690.0, 0.0041283700223378175
691.0, 0.003809849044319312
692.0, 0.0032363865274162686
693.0, 0.003217737225308812
694.0, 0.0029811340151378657
695.0, 0.002081573914464454
696.0, 0.0011112507117174925
697.0, 0.0011399588570209767
698.0, 0.00240016445038561
699.0, 0.0019534158297068436
700.0, 0.0012838811659303
701.0, 0.0015675970227202966
702.0, 0.0017408333144273366
703.0, 0.0011276207578917417
704.0, 0.00046784905990606535
705.0, 0.0007009986789278783
706.0, 0.0002504545389039111
707.0, 0.0007347169167236523
708.0, 0.0002009875006204809
709.0, 0.00027789856503543527
710.0, 0.0010586565948698964
711.0, 0.0003773642027733918
712.0, 0.0006369445886943497
713.0, 0.0004689005280655163
714.0, 0.001093921753246536
715.0, 0.0006542364957555959
716.0, 0.0006898649296295732
717.0, 0.001044446318575776
718.0, 0.00037416132772161745
719.0, 0.0016685800465630737
720.0, 0.002272556762356437
721.0, 0.0012585052772738818
722.0, 0.0002156536938835685
723.0, 0.0007386491357849158
724.0, 0.0017826120176820275
725.0, 0.0016267824739699408
726.0, 0.0018316975799404101
727.0, 0.0025062389156431763
728.0, 0.0022764692082943073
729.0, 0.0013219027380426491
730.0, 0.0025350851844713543
731.0, 0.0019979967812241155
732.0, 0.0018432833594721745
733.0, 0.0014390661363902066
734.0, 0.00032774084151104604
735.0, 0.0004506330871307286
736.0, 0.0004952502832504225
737.0, 0.00042083335351972577
738.0, 0.002105747063539766
739.0, 0.00284394379790686
740.0, 0.0027842735357730785
741.0, 0.004276737838672899
742.0, 0.005817924614562258
743.0, 0.0058051035308461785
744.0, 0.008739741823015554
745.0, 0.0112214597068402
746.0, 0.011706824652870733
747.0, 0.012672131553550106
748.0, 0.016016732831664077
749.0, 0.01792254361451591
750.0, 0.02041524263915653
751.0, 0.021149052539694225
752.0, 0.022904144001356763
753.0, 0.024596337807643125
754.0, 0.02531816010263477
755.0, 0.027544529555025805
756.0, 0.02712529698044576
757.0, 0.02904916307560848
758.0, 0.03073334626479513
759.0, 0.032109210447626275
760.0, 0.03364660254687711
761.0, 0.03496556961725483
762.0, 0.03632170783295853
763.0, 0.038711796005233
764.0, 0.04052660129840087
765.0, 0.04313602542611825
766.0, 0.04641532248887954
767.0, 0.04987766874490369
768.0, 0.05391046878090696
769.0, 0.05799964182952515
770.0, 0.06298061394359292
771.0, 0.06907761497523926
772.0, 0.07347928747994716
773.0, 0.07937032310766008
774.0, 0.08856074662939921
775.0, 0.09313504919065532
776.0, 0.09651026164242305
777.0, 0.10287115121667642
778.0, 0.10756959578543122
779.0, 0.11264590842458044
780.0, 0.11869885160632555
781.0, 0.12255330284685882
782.0, 0.1273686028263055
783.0, 0.13329468617053536
784.0, 0.13692338928198958
785.0, 0.1410711300411869
786.0, 0.14649882524356644
787.0, 0.15186788569985446
788.0, 0.15667820955368533
789.0, 0.16161677696665172
790.0, 0.16655029384678963
791.0, 0.1727706551716402
792.0, 0.17799370762831043
793.0, 0.1829595942127837
794.0, 0.1900621295764979
795.0, 0.19754972722533223
796.0, 0.2028237822906873
797.0, 0.207377875290402
798.0, 0.21301815941904106
799.0, 0.2187096125918515
800.0, 0.22326192092432204
801.0, 0.22728778987358783
802.0, 0.23308722366823928
803.0, 0.24198996176197438
804.0, 0.24987231622840927
805.0, 0.2585478206545272
806.0, 0.26970491260572615
807.0, 0.2841702626108345
808.0, 0.29999908054463387
809.0, 0.3131320037478268
810.0, 0.3275207596592174
811.0, 0.3418191248748213
812.0, 0.3605949121198351
813.0, 0.38043759664271604
814.0, 0.3997708540775443
815.0, 0.4224144819408369
816.0, 0.44697056437292537
817.0, 0.4746277956220451
818.0, 0.5075726116506922
819.0, 0.5476565098591676
820.0, 0.5926121775679095
821.0, 0.6388889604298864
822.0, 0.6851085687590762
823.0, 0.7339104157118893
824.0, 0.7822997363811898
825.0, 0.8380137225873021
826.0, 0.8933654977841841
827.0, 0.9446154278344532
828.0, 0.9852125014808354
829.0, 0.9994959125547288
830.0, 0.9724214414226692
831.0, 0.9017938570555997
832.0, 0.7971036234444906
833.0, 0.6728414818619745
834.0, 0.5469685081451854
835.0, 0.43423486756167434
836.0, 0.341725701566433
837.0, 0.27011118289460273
838.0, 0.21502314222569963
839.0, 0.1746227463322986
840.0, 0.14470069234516716
841.0, 0.12187887736369393
842.0, 0.10344799457543404
843.0, 0.08812303203938568
844.0, 0.07635323184742089
845.0, 0.06685523122392954
846.0, 0.056567799953674724
847.0, 0.04939838334247396
848.0, 0.04390669328282402
849.0, 0.038930446640220696
850.0, 0.035738039859129635
851.0, 0.032287891873744014
852.0, 0.029639424308821567
853.0, 0.027374518788954683
854.0, 0.026192143919127893
855.0, 0.023976211617761135
856.0, 0.02211258000343068
857.0, 0.022692499457643327
858.0, 0.022565942258802617
859.0, 0.022020813401739926
860.0, 0.020904785319607943
861.0, 0.020072505274614807
862.0, 0.02003094067095644
863.0, 0.019353750045264725
864.0, 0.017996907668889835
865.0, 0.01771717255615281
866.0, 0.01571805014878428
867.0, 0.01434599002420971
868.0, 0.012363053547412156
869.0, 0.009391534506460261
870.0, 0.0072048759967388055
871.0, 0.006165676115705569
872.0, 0.004284730319516461
873.0, 0.0018725444879108797
874.0, 0.0014107436712220516
875.0, 0.0005459455419983951
876.0, 0.0006828961880638183
877.0, 0.0012689013393365853
878.0, 0.0014542677109050518
879.0, 0.0014390990630136701
880.0, 0.0004171358696960267
881.0, 0.0009977600883132574
882.0, 0.0002731675773280922
883.0, 0.00022640176577000862
884.0, 4.959110487202657e-05
885.0, 0.00017797065482282707
886.0, 0.000694321990918146
887.0, 0.000981316290005304
888.0, 0.00021268107039275496
889.0, 0.0005909605122878411
890.0, 0.000743622396949144
891.0, 0.001332256633601953
892.0, 0.0016367986580128884
893.0, 0.0017024251025251115
894.0, 0.0022353660358425133
895.0, 0.0024996825398881876
896.0, 0.0026304418691951866
897.0, 0.0026228902498750648
898.0, 0.002050791683610048
899.0, 0.0018590752314159046
900.0, 0.0023477239604655356
901.0, 0.0020888091878240303
902.0, 0.00046149506463418404
903.0, 0.0008281707401795401
904.0, 0.00019146323982867987
905.0, 0.00034917543720848954
906.0, 0.0008242544451334817
907.0, 0.001331299117633113
908.0, 0.0017390114076163109
909.0, 0.002573182930066487
910.0, 0.003806516573059857
911.0, 0.002183078398468821
912.0, 0.004350876274331129
913.0, 0.004594435580958348
914.0, 0.004727175856367552
915.0, 0.0057074561652106295
916.0, 0.0067252607680746476
917.0, 0.006975912433754877
918.0, 0.006152230877290629
919.0, 0.007249675370636611
920.0, 0.006056029816771669
921.0, 0.006767525018499472
922.0, 0.006899199642890588
923.0, 0.005698941058454315
924.0, 0.005916604993102734
925.0, 0.0076822371166941706
926.0, 0.005273688993250826
927.0, 0.00523994570134068
928.0, 0.005679724949436487
929.0, 0.0050169944150305875
930.0, 0.004128709448539613
931.0, 0.004137436254228385
932.0, 0.004789669396003012
933.0, 0.005170808333212681
934.0, 0.005004004019963077
935.0, 0.0043315863203118735
936.0, 0.0035680456171425026
937.0, 0.0040230335195160765
938.0, 0.0038425065749317206
939.0, 0.003555901778471729
940.0, 0.003994751141684977
941.0, 0.0034948405871935303
942.0, 0.004432629123007416
943.0, 0.004033317059962955
944.0, 0.00370072841042829
945.0, 0.0038798475019819986
946.0, 0.00430068743861333
947.0, 0.0043019642786717004
948.0, 0.004152330598534287
949.0, 0.004520355452294071
950.0, 0.003596757859887654
951.0, 0.003764734498807727
952.0, 0.004185396094255191
953.0, 0.003346276906665474
954.0, 0.0035589053420842067
955.0, 0.004058993129659691
956.0, 0.0029056437550862343
957.0, 0.0020481799156228664
958.0, 0.0027537794790160625
959.0, 0.0016679972785873316
960.0, 0.0007260232542496813
961.0, 0.0007697115231542215
962.0, 0.001473966081093145
963.0, 0.0015279934676462226
964.0, 0.0013298136704217073
965.0, 0.002424665678169888
966.0, 0.002965367400707362
967.0, 0.0019948951175379377
968.0, 0.0020095890817997913
969.0, 0.001597735303932463
970.0, 0.0020065753104831674
971.0, 0.002087224575445487
972.0, 0.0020165450986145152
973.0, 0.0025265182913353206
974.0, 0.0008090245641340498
975.0, 0.0021404770117177366
976.0, 0.0013014807638472995
977.0, 0.0018607370246896695
978.0, 0.001701276505192056
979.0, 0.000980832906955416
980.0, 0.0014118511141340798
981.0, 0.0027124444219546475
982.0, 0.0026746077647209665
983.0, 0.0018883702548906256
984.0, 0.0024381917486641157
985.0, 0.003160403038677798
986.0, 0.0020240468630960224
987.0, 0.001985657598637795
988.0, 0.002783079552059026
989.0, 0.00195975341358546
990.0, 0.00045085779177089146
991.0, 0.0015563552402246147
992.0, 0.0005385678741491707
993.0, 0.0023187612298510526
994.0, 0.0016635660077360742
995.0, 0.001482545566645995
996.0, 0.0023372635676238095
997.0, 0.0027177365162891157
998.0, 0.002444616107143878
999.0, 0.0015697034433768912
1000.0, 0.0013841126774378914
1001.0, 0.0008572713114713351
1002.0, 0.0012477771838507387
1003.0, 0.001559950879274983
1004.0, 0.0020938043971651544
1005.0, 0.0021025568891138717
1006.0, 0.0013230896452423964
1007.0, 0.0007229310106759923
1008.0, 0.00037401584613869075
1009.0, 0.0017342328860957177
1010.0, 0.001332352600030328
1011.0, 0.0017498713458205459
1012.0, 0.0012193158186460092
1013.0, 0.00036372560083241536
1014.0, 0.001333718801025953
1015.0, 0.0022140278015585326
1016.0, 0.0007248679808356878
1017.0, 0.0019446448602301646
1018.0, 0.0012732014505796522
1019.0, 0.002298383016958029
1020.0, 0.0020942891604537168
1021.0, 0.001713279137394826
1022.0, 0.0021936289674460646
1023.0, 0.002478872894886258
1024.0, 0.0019912715424172858
1025.0, 0.002067200512061442
1026.0, 0.00268662066168701
1027.0, 0.003257976191055277
1028.0, 0.001552999768266773
1029.0, 0.001916019689707835
1030.0, 0.0028301640013048955
1031.0, 0.0030480162333092723
1032.0, 0.0032340355655573905
1033.0, 0.003464491274907202
1034.0, 0.002701175489120719
1035.0, 0.0032152991875385468
1036.0, 0.003796701448974993
1037.0, 0.0026714887922885
1038.0, 0.0035025623759475546
1039.0, 0.003739774229631557
1040.0, 0.003356260897245459
1041.0, 0.003633279979473618
1042.0, 0.004050874533750849
1043.0, 0.004128094612841267
1044.0, 0.004457748173509498
1045.0, 0.004353334604794305
1046.0, 0.005855170193268631
1047.0, 0.0054111567632228194
1048.0, 0.005663647771114108
1049.0, 0.005560147203931957
1050.0, 0.005164099104762472
1051.0, 0.005966912100072846
1052.0, 0.0062928270448259814
1053.0, 0.006341302457326054
1054.0, 0.007280352123767301
1055.0, 0.006105116397714467
1056.0, 0.005589061709872377
1057.0, 0.006714034484499198
1058.0, 0.00563763294556203
1059.0, 0.004458170205964392
1060.0, 0.004890037511461727
1061.0, 0.0038567759479205444
1062.0, 0.0022330304278472706
1063.0, 0.0019546124290951805
1064.0, 0.001999500000458239
1065.0, 0.0017577815010183797
1066.0, 0.001571579691990096
1067.0, 0.0015289176306252032
1068.0, 0.001662026742783687
1069.0, 0.0017324450022330603
1070.0, 0.0016907279236337142
1071.0, 0.0017514980309344614
1072.0, 0.0007234897463928445
1073.0, 0.001155511648955168
1074.0, 0.0004243855919995181
1075.0, 0.0005795275917755221
1076.0, 0.0006146642924171212
1077.0, 0.0005881184070170104
1078.0, 0.0007339748079169164
1079.0, 0.000958156317719397
1080.0, 0.0010604538300123276
1081.0, 0.00025296831141632497
1082.0, 0.0005861940438184004
1083.0, 3.601560429334098e-05
1084.0, 0.00010662602652826847
1085.0, 0.0006088942966458959
1086.0, 0.0006523549769046942
1087.0, 0.0005386264273836217
1088.0, 0.0008848781681321988
1089.0, 0.0010265087164743193
1090.0, 0.0006141063748574582
1091.0, 0.0009006373386014848
1092.0, 0.00038118896803299585
1093.0, 0.0002370607836503984
1094.0, 0.0003242075730697587
1095.0, 0.0005326035726141405
1096.0, 0.000811125877317632
1097.0, 0.0010671153835947332
1098.0, 0.0005338900565208902
1099.0, 0.0003718316281608044
1100.0, 0.0004910927605303037
1101.0, 0.00103519116571337
1102.0, 0.0006925570770274374
1103.0, 0.0005366338711422051
1104.0, 0.0003342629432224684
1105.0, 0.00026950083787297265
1106.0, 0.001045921120266731
1107.0, 0.002084226722894371
1108.0, 0.0015552642594446732
1109.0, 0.00032061368086991554
1110.0, 4.6618380767639105e-05
1111.0, 0.0013905180538607074
1112.0, 0.0011227165986831178
1113.0, 0.00048442300729864194
1114.0, 0.0016655734567720317
1115.0, 0.0005060258734968781
1116.0, 0.0012255956220945442
1117.0, 0.00047908147074519935
1118.0, 0.0005730572464020137
1119.0, 0.0013043653893745199
1120.0, 0.0014935222805835208
1121.0, 0.0015937812848067837
1122.0, 0.0019496826609054013
1123.0, 0.0014714718352597067
1124.0, 0.00029554448316574023
1125.0, 0.00018883438148807385
1126.0, 0.0020799329130433155
1127.0, 0.0024582337534449473
1128.0, 0.0009509622354906444
1129.0, 0.0003194106566606259
1130.0, 0.000969592100218994
1131.0, 0.0010033954998880993
1132.0, 0.000567223267969314
1133.0, 0.00032459221900213783
1134.0, 0.0017200937127012463
1135.0, 0.001210070919303108
1136.0, 0.0008907531072798422
1137.0, 0.0011243571825375427
1138.0, 0.0008668791625199239
1139.0, 0.0006620089775853854
1140.0, 0.0009712916743979991
1141.0, 0.0009919304178097484
1142.0, 0.001303049760130381
1143.0, 0.00257108064848224
1144.0, 0.0012895570312298358
1145.0, 0.00015691579738815964
1146.0, 0.0018839361787849702
1147.0, 0.0015274106276763817
1148.0, 0.0008121006981725402
1149.0, 0.0015535356694750342
1150.0, 0.0017531669269636543
1151.0, 0.001165553680545526
1152.0, 0.0016315774418715864
1153.0, 0.001499415108859514
1154.0, 0.0009141775175981188
1155.0, 0.0012179830933102692
1156.0, 0.0011166178708376694
1157.0, 0.001478878211366471
1158.0, 0.0010167477289960464
1159.0, 0.0016300947720128418
1160.0, 0.0022594360893779947
1161.0, 0.0016025314862688994
1162.0, 0.001230249643463792
1163.0, 0.0010289547350999012
1164.0, 0.000467460526294839
1165.0, 0.00028309236928255596
1166.0, 0.0010279112766240109
1167.0, 0.0017923128276095583
1168.0, 0.001320748065504622
1169.0, 0.0012164347917652408
1170.0, 0.0008351825769940366
1171.0, 0.0009441108785047984
1172.0, 0.0012767904122183518
1173.0, 0.0015953235610076625
1174.0, 0.0025351607923428925
1175.0, 0.0011297987401838242
1176.0, 0.00025377497930778467
1177.0, 0.0007019944071192534
1178.0, 0.0008680699406590755
1179.0, 0.0009416946867248558
1180.0, 0.000188630427500102
1181.0, 0.00029017332270541644
1182.0, 0.0011115643944943697
1183.0, 0.001282904028630497
1184.0, 0.0015767673809997705
1185.0, 0.002070176533988777
1186.0, 0.0005012961303108131
1187.0, 0.00025145470989585816
1188.0, 0.0009920614962960516
1189.0, 0.0009454680120362371
1190.0, 0.0008766180621825201
1191.0, 0.0016900896024723041
1192.0, 0.0013408776269573817
1193.0, 0.0002595344425669326
1194.0, 0.0001644148114071958
1195.0, 0.0004191962788191237
1196.0, 0.0004983330572332098
1197.0, 0.0012164032186543858
1198.0, 0.00043626460868954577
1199.0, 0.0010990035612142154
1200.0, 0.00013766353554122757
1201.0, 0.0008847922409744906
1202.0, 0.001238242355889427
1203.0, 0.0008580191678691122
1204.0, 0.0006374728557527381
1205.0, 0.0001463857616666737
1206.0, 0.00021431281979995736
1207.0, 0.0007496905455280158
1208.0, 0.000814216978599304
1209.0, 5.441940388531604e-05
1210.0, 0.0003963532767209926
1211.0, 0.001796803829367497
1212.0, 0.0014923160208701104
1213.0, 0.0012296001274179076
1214.0, 0.0003616614497274949
1215.0, 0.001165436407438231
1216.0, 0.0011056564875178377
1217.0, 0.0004012676357933232
1218.0, 0.00041940730166688695
1219.0, 0.0005772454573108419
1220.0, 0.0007233734625325486
1221.0, 0.0008330902953708543
1222.0, 0.0011436953796496003
1223.0, 0.001719912388281007
1224.0, 0.001322848140595339
1225.0, 0.001107730926026308
1226.0, 0.0008570660848383957
1227.0, 0.0011011189406632583
1228.0, 0.0009662343041466844
1229.0, 0.0005662706771571318
1230.0, 0.0001348590933520098
1231.0, 0.00011754869489189043
1232.0, 0.0008452062930575715
1233.0, 0.0009043646417571576
1234.0, 0.0006056529758957857
1235.0, 0.0010688585373620474
1236.0, 0.0012456672666108705
1237.0, 0.0004247631576108976
1238.0, 0.00046934762407528104
1239.0, 0.00042493133495304916
1240.0, 0.00022962185515005624
1241.0, 0.0010058674330074321
1242.0, 0.001561782740965283
1243.0, 0.001940846275467466
1244.0, 0.001858224390061565
1245.0, 0.0014546892346745043
1246.0, 0.0018364784514921363
1247.0, 0.0019023853609727859
1248.0, 0.0013398039268362842
1249.0, 0.0017144530396450558
1250.0, 0.0010390432309570765
1251.0, 0.0007293868154559891
1252.0, 0.0009163104260920892
1253.0, 0.0013150282093369956
1254.0, 0.0004559601527989749
1255.0, 0.001426481647233795
1256.0, 0.0020271331594826137
1257.0, 0.0009321887353715139
1258.0, 0.0010190945174312419
1259.0, 0.0020294223583668604
1260.0, 0.0014765685551347946
1261.0, 0.000584738370941208
1262.0, 0.001576348340629444
1263.0, 0.0014227647727758327
1264.0, 0.0008046145401455348
1265.0, 0.0017918229990733388
1266.0, 0.0014178440984734203
1267.0, 0.0009133738890216603
1268.0, 0.001023775082852012
1269.0, 0.0014270685212557596
1270.0, 0.0015722596042884581
1271.0, 0.0016988287253100712
1272.0, 0.001799710470218454
1273.0, 0.001311076578165498
1274.0, 0.0009234624918917651
1275.0, 0.0013752602835896094
1276.0, 0.00017519483324142816
1277.0, 0.0018141159655132501
1278.0, 0.0010755040767049457
1279.0, 0.00040713125451150955
1280.0, 0.000775656162352623
1281.0, 0.00029241667471840933
1282.0, 0.0006114559092324531
1283.0, 0.0007392443295468601
1284.0, 0.0010215512480133571
1285.0, 0.002202375261275
1286.0, 0.0021653879979994166
1287.0, 0.0014910520258766301
1288.0, 0.0019233419701579898
1289.0, 0.0020348193689507525
1290.0, 0.0020561760051261025
1291.0, 0.0019745486470758872
1292.0, 0.0018192662506423328
1293.0, 0.0019158370889973749
1294.0, 0.0016478661160106605
1295.0, 0.00028056684350676086
1296.0, 0.0008670862678848063
1297.0, 0.0014252476667382372
1298.0, 0.00011402602738018095
1299, 0.0
1300, 0.0
1301, 0.0
1302, 0.0
1303, 0.0
1304, 0.0
1305, 0.0
1306, 0.0
1307, 0.0
1308, 0.0
1309, 0.0
1310, 0.0
1311, 0.0
1312, 0.0
1313, 0.0
1314, 0.0
1315, 0.0
1316, 0.0
1317, 0.0
1318, 0.0
1319, 0.0
1320, 0.0
1321, 0.0
1322, 0.0
1323, 0.0
1324, 0.0
1325, 0.0
1326, 0.0
1327, 0.0
1328, 0.0
1329, 0.0
1330, 0.0
1331, 0.0
1332, 0.0
1333, 0.0
1334, 0.0
1335, 0.0
1336, 0.0
1337, 0.0
1338, 0.0
1339, 0.0
1340, 0.0
1341, 0.0
1342, 0.0
1343, 0.0
1344, 0.0
1345, 0.0
1346, 0.0
1347, 0.0
1348, 0.0
1349, 0.0
1350, 0.0
1351, 0.0
1352, 0.0
1353, 0.0
1354, 0.0
1355, 0.0
1356, 0.0
1357, 0.0
1358, 0.0
1359, 0.0
1360, 0.0
1361, 0.0
1362, 0.0
1363, 0.0
1364, 0.0
1365, 0.0
1366, 0.0
1367, 0.0
1368, 0.0
1369, 0.0
1370, 0.0
1371, 0.0
1372, 0.0
1373, 0.0
1374, 0.0
1375, 0.0
1376, 0.0
1377, 0.0
1378, 0.0
1379, 0.0
1380, 0.0
1381, 0.0
1382, 0.0
1383, 0.0
1384, 0.0
1385, 0.0
1386, 0.0
1387, 0.0
1388, 0.0
1389, 0.0
1390, 0.0
1391, 0.0
1392, 0.0
1393, 0.0
1394, 0.0
1395, 0.0
1396, 0.0
1397, 0.0
1398, 0.0
1399, 0.0
1400, 0.0
1401, 0.0
1402, 0.0
1403, 0.0
1404, 0.0
1405, 0.0
1406, 0.0
1407, 0.0
1408, 0.0
1409, 0.0
1410, 0.0
1411, 0.0
1412, 0.0
1413, 0.0
1414, 0.0
1415, 0.0
1416, 0.0
1417, 0.0
1418, 0.0
1419, 0.0
1420, 0.0
1421, 0.0
1422, 0.0
1423, 0.0
1424, 0.0
1425, 0.0
1426, 0.0
1427, 0.0
1428, 0.0
1429, 0.0
1430, 0.0
1431, 0.0
1432, 0.0
1433, 0.0
1434, 0.0
1435, 0.0
1436, 0.0
1437, 0.0
1438, 0.0
1439, 0.0
1440, 0.0
1441, 0.0
1442, 0.0
1443, 0.0
1444, 0.0
1445, 0.0
1446, 0.0
1447, 0.0
1448, 0.0
1449, 0.0
1450, 0.0
1451, 0.0
1452, 0.0
1453, 0.0
1454, 0.0
1455, 0.0
1456, 0.0
1457, 0.0
1458, 0.0
1459, 0.0
1460, 0.0
1461, 0.0
1462, 0.0
1463, 0.0
1464, 0.0
1465, 0.0
1466, 0.0
1467, 0.0
1468, 0.0
1469, 0.0
1470, 0.0
1471, 0.0
1472, 0.0
1473, 0.0
1474, 0.0
1475, 0.0
1476, 0.0
1477, 0.0
1478, 0.0
1479, 0.0
1480, 0.0
1481, 0.0
1482, 0.0
1483, 0.0
1484, 0.0
1485, 0.0
1486, 0.0
1487, 0.0
1488, 0.0
1489, 0.0
1490, 0.0
1491, 0.0
1492, 0.0
1493, 0.0
1494, 0.0
1495, 0.0
1496, 0.0
1497, 0.0
1498, 0.0
1499, 0.0
1500, 0.0
1501, 0.0
1502, 0.0
1503, 0.0
1504, 0.0
1505, 0.0
1506, 0.0
1507, 0.0
1508, 0.0
1509, 0.0
1510, 0.0
1511, 0.0
1512, 0.0
1513, 0.0
1514, 0.0
1515, 0.0
1516, 0.0
1517, 0.0
1518, 0.0
1519, 0.0
1520, 0.0
1521, 0.0
1522, 0.0
1523, 0.0
1524, 0.0
1525, 0.0
1526, 0.0
1527, 0.0
1528, 0.0
1529, 0.0
1530, 0.0
1531, 0.0
1532, 0.0
1533, 0.0
1534, 0.0
1535, 0.0
1536, 0.0
1537, 0.0
1538, 0.0
1539, 0.0
1540, 0.0
1541, 0.0
1542, 0.0
1543, 0.0
1544, 0.0
1545, 0.0
1546, 0.0
1547, 0.0
1548, 0.0
1549, 0.0
1550, 0.0
1551, 0.0
1552, 0.0
1553, 0.0
1554, 0.0
1555, 0.0
1556, 0.0
1557, 0.0
1558, 0.0
1559, 0.0
1560, 0.0
1561, 0.0
1562, 0.0
1563, 0.0
1564, 0.0
1565, 0.0
1566, 0.0
1567, 0.0
1568, 0.0
1569, 0.0
1570, 0.0
1571, 0.0
1572, 0.0
1573, 0.0
1574, 0.0
1575, 0.0
1576, 0.0
1577, 0.0
1578, 0.0
1579, 0.0
1580, 0.0
1581, 0.0
1582, 0.0
1583, 0.0
1584, 0.0
1585, 0.0
1586, 0.0
1587, 0.0
1588, 0.0
1589, 0.0
1590, 0.0
1591, 0.0
1592, 0.0
1593, 0.0
1594, 0.0
1595, 0.0
1596, 0.0
1597, 0.0
1598, 0.0
1599, 0.0
