30, 0.0
31, 0.0
32, 0.0
33, 0.0
34, 0.0
35, 0.0
36, 0.0
37, 0.0
38, 0.0
39, 0.0
40, 0.0
41, 0.0
42, 0.0
43, 0.0
44, 0.0
45, 0.0
46, 0.0
47, 0.0
48, 0.0
49, 0.0
50, 0.0
51, 0.0
52, 0.0
53, 0.0
54, 0.0
55, 0.0
56, 0.0
57, 0.0
58, 0.0
59, 0.0
60, 0.0
61, 0.0
62, 0.0
63, 0.0
64, 0.0
65, 0.0
66, 0.0
67, 0.0
68, 0.0
69, 0.0
70, 0.0
71, 0.0
72, 0.0
73, 0.0
74, 0.0
75, 0.0
76, 0.0
77, 0.0
78, 0.0
79, 0.0
80, 0.0
81, 0.0
82, 0.0
83, 0.0
84, 0.0
85, 0.0
86, 0.0
87, 0.0
88, 0.0
89, 0.0
90, 0.0
91, 0.0
92, 0.0
93, 0.0
94, 0.0
95, 0.0
96, 0.0
97, 0.0
98, 0.0
99, 0.0
100, 0.0
101, 0.0
102, 0.0
103, 0.0
104, 0.0
105, 0.0
106, 0.0
107, 0.0
108, 0.0
109, 0.0
110, 0.0
111, 0.0
112, 0.0
113, 0.0
114, 0.0
115, 0.0
116, 0.0
117, 0.0
118, 0.0
119, 0.0
120, 0.0
121, 0.0
122, 0.0
123, 0.0
124, 0.0
125, 0.0
126, 0.0
127, 0.0
128, 0.0
129, 0.0
130, 0.0
131, 0.0
132, 0.0
133, 0.0
134, 0.0
135, 0.0
136, 0.0
137, 0.0
138, 0.0
139, 0.0
140, 0.0
141, 0.0
142, 0.0
143, 0.0
144, 0.0
145, 0.0
146, 0.0
147, 0.0
148, 0.0
149, 0.0
150, 0.0
151, 0.0
152, 0.0
153, 0.0
154, 0.0
155, 0.0
156, 0.0
157, 0.0
158, 0.0
159, 0.0
160.0, 0.0003980662434241173
161.0, 0.001969378956737815
162.0, 0.0051327390185081
163.0, 0.006771984290926293
164.0, 0.004549710633662865
165.0, 0.0012981198324430409
166.0, 0.00050493752581415
167.0, 0.0011038692492293303
168.0, 0.003009133757879725
169.0, 0.0026027060718156873
170.0, 0.0006757528529649741
171.0, 0.0016106987140494457
172.0, 0.0023428802554073605
173.0, 0.0030242101608781153
174.0, 0.0036734410862289068
175.0, 0.004534128565668565
176.0, 0.008433106701683079
177.0, 0.011094316365394992
178.0, 0.011639350951222973
179.0, 0.012166632752755828
180.0, 0.015574363622128001
181.0, 0.019849922073209705
182.0, 0.021331689808395626
183.0, 0.020397978633581882
184.0, 0.018866250203103656
185.0, 0.017680528175192566
186.0, 0.01784160341329923
187.0, 0.02067625079844436
188.0, 0.023904813179328674
189.0, 0.019768859100307727
190.0, 0.020124523798114566
191.0, 0.023390269665315305
192.0, 0.027503174002854062
193.0, 0.030700224339032696
194.0, 0.03258421835896132
195.0, 0.03644769860287998
196.0, 0.040229713732395915
197.0, 0.04273635183102913
198.0, 0.04556020848590746
199.0, 0.04879978892491711
200.0, 0.05363848040431527
201.0, 0.05987363670440576
202.0, 0.06551310734197266
203.0, 0.06990766264569212
204.0, 0.0720085372759467
205.0, 0.0757426845186687
206.0, 0.07784659080341842
207.0, 0.07403856213785465
208.0, 0.0683586398597094
209.0, 0.06112670445897215
210.0, 0.05363011433136229
211.0, 0.04655153853261332
212.0, 0.039559652822917055
213.0, 0.03319506700846774
214.0, 0.029460076495347626
215.0, 0.026313298356857168
216.0, 0.021368854657475643
217.0, 0.01841783768805332
218.0, 0.018080878706863274
219.0, 0.016893428992171836
220.0, 0.014365195189853614
221.0, 0.013100099590520671
222.0, 0.009144628793786143
223.0, 0.008579090942274752
224.0, 0.009458039203692042
225.0, 0.008637304546779889
226.0, 0.007741364687940021
227.0, 0.00593404055826386
228.0, 0.005406305990921339
229.0, 0.004206935546662834
230.0, 0.0018883989808661109
231.0, 0.003864068658527487
232.0, 0.0036837266399671956
233.0, 0.0014301214781227561
234.0, 0.00021283383260285683
235.0, 0.0002544510365637159
236.0, 0.0004325505566246462
237.0, 0.00018570271362918777
238.0, 0.00016071318155334857
239.0, 0.0005155432172956898
240.0, 0.00027498797635547013
241.0, 0.00018837096132267228
242.0, 0.001237173960444193
243.0, 0.001463277529848969
244.0, 0.0018008806616881443
245.0, 0.0011884780605380028
246.0, 0.0012413157664733848
247.0, 0.0004959905478689543
248.0, 0.0011766712534716647
249.0, 0.0028206439456297783
250.0, 0.0011696571542718494
251.0, 0.0018792203373225846
252.0, 0.0015321563051249986
253.0, 6.982979393509728e-05
254.0, 0.00031539882485964765
255.0, 0.0013984968637687735
256.0, 0.0015399494349878165
257.0, 0.0012957655060772952
258.0, 0.0016723599907489729
259.0, 0.0018427513007204304
260.0, 0.003358953215227888
261.0, 0.0041526364329630945
262.0, 0.0047614569153898775
263.0, 0.005686980263561034
264.0, 0.0060187727698114
265.0, 0.0077916855612186675
266.0, 0.01095933110950806
267.0, 0.013607346935752452
268.0, 0.015070032251088087
269.0, 0.018223876223018062
270.0, 0.0196306210693941
271.0, 0.020230196717551042
272.0, 0.021538000542856185
273.0, 0.023913095941774112
274.0, 0.024279370600165787
275.0, 0.025721342930952466
276.0, 0.026429930288853726
277.0, 0.025547061947502114
278.0, 0.02426982794942255
279.0, 0.023924132970243036
280.0, 0.024078958758004167
281.0, 0.025254972599628972
282.0, 0.0263579412423575
283.0, 0.02528014188022352
284.0, 0.023240125884128243
285.0, 0.02238035121149659
286.0, 0.021398733112708762
287.0, 0.01972045069201499
288.0, 0.018825810021777814
289.0, 0.01889637805047124
290.0, 0.017625993796639264
291.0, 0.01630137814811723
292.0, 0.015654525416734538
293.0, 0.013675319967930755
294.0, 0.010478776783697415
295.0, 0.008588839146009273
296.0, 0.009136468219910394
297.0, 0.00945557393109175
298.0, 0.006086733680260668
299.0, 0.005697751344033964
300.0, 0.007600055965649419
301.0, 0.010182558641993826
302.0, 0.011786330082651581
303.0, 0.01078271890496933
304.0, 0.013707689260333314
305.0, 0.016987069600233908
306.0, 0.02058526910275321
307.0, 0.02490317651640073
308.0, 0.02874183788557018
309.0, 0.03343432781345096
310.0, 0.036197872904435865
311.0, 0.040819176235980074
312.0, 0.048837729018079375
313.0, 0.053133464152297735
314.0, 0.056572296505886785
315.0, 0.061893565531069915
316.0, 0.07003614203724143
317.0, 0.07898959413760075
318.0, 0.08509805880039388
319.0, 0.09262628073105984
320.0, 0.09974481608410729
321.0, 0.10663491161953598
322.0, 0.11251792979051028
323.0, 0.11403804052119344
324.0, 0.11302393084693958
325.0, 0.11078387852373421
326.0, 0.10766402921394037
327.0, 0.10388838063977901
328.0, 0.0996746161156459
329.0, 0.09128127383326266
330.0, 0.08777965275774706
331.0, 0.08723999988943909
332.0, 0.08446756601424724
333.0, 0.08047981523291704
334.0, 0.07709295958714554
335.0, 0.07172912916449581
336.0, 0.06806223326207085
337.0, 0.06647810210116974
338.0, 0.06221182958517828
339.0, 0.052311538131379995
340.0, 0.04697848819795818
341.0, 0.04296982674709709
342.0, 0.03915460208697496
343.0, 0.037601955339653895
344.0, 0.031029644200698314
345.0, 0.029114276182150033
346.0, 0.028909721385213746
347.0, 0.02716433508997379
348.0, 0.024186200256042793
349.0, 0.022500196991891697
350.0, 0.021689990772601385
351.0, 0.022053153850481084
352.0, 0.023555782862751572
353.0, 0.025059410351458675
354.0, 0.024811022019579864
355.0, 0.025733091746948378
356.0, 0.02441433674897485
357.0, 0.023110366360265127
358.0, 0.023606862948232162
359.0, 0.02103307774077821
360.0, 0.021082999270681493
361.0, 0.02097464490010745
362.0, 0.01987364594715252
363.0, 0.018217615044933935
364.0, 0.015945169428459076
365.0, 0.016992461844176795
366.0, 0.014122382290450578
367.0, 0.011452020797382256
368.0, 0.012385938734831915
369.0, 0.012331157136196771
370.0, 0.010381928002321327
371.0, 0.009418694248060308
372.0, 0.010204028397569094
373.0, 0.010623860615640508
374.0, 0.009093867740313528
375.0, 0.009455393755495846
376.0, 0.00914417282814823
377.0, 0.008288516080703632
378.0, 0.007299966301372641
379.0, 0.006259144888147179
380.0, 0.005478106662340253
381.0, 0.0035849991311413154
382.0, 0.0039736857808073695
383.0, 0.005024805634168597
384.0, 0.00391863880280974
385.0, 0.003777380335332438
386.0, 0.006988440271517795
387.0, 0.005091737291382934
388.0, 0.0029513340425728588
389.0, 0.0031474600566767466
390.0, 0.001561395715289441
391.0, 0.0038764019533795886
392.0, 0.0027744407553299223
393.0, 0.0004597044829298396
394.0, 0.0014653205999743217
395.0, 0.0008802269030464853
396.0, 0.0016625084964896819
397.0, 0.0005518421897568081
398.0, 0.0021993621295577997
399.0, 0.00302716351183325
400.0, 0.0018272106157039667
401.0, 0.0038096814298960455
402.0, 0.0028725476667564595
403.0, 0.0013378228934899684
404.0, 0.0004495185898325269
405.0, 0.002864436254177859
406.0, 0.00010720161866581428
407.0, 0.00035456229489596637
408.0, 0.002369810509335581
409.0, 0.0041714851313044456
410.0, 0.0039052915447562783
411.0, 0.004740046493165081
412.0, 0.00968335107295403
413.0, 0.007775720610543016
414.0, 0.010247114650072258
415.0, 0.013459672684667913
416.0, 0.014135256807323861
417.0, 0.01633309591416681
418.0, 0.019118488152321398
419.0, 0.021478481334551623
420.0, 0.02313381516575905
421.0, 0.02701554864185222
422.0, 0.03285809685831829
423.0, 0.033874303440433864
424.0, 0.03723455432614696
425.0, 0.040616816710851926
426.0, 0.04326462872174707
427.0, 0.045548388913737435
428.0, 0.047602508183585655
429.0, 0.05026489265950947
430.0, 0.052581120833307494
431.0, 0.05467707969809623
432.0, 0.05590469829018324
433.0, 0.056747972413848984
434.0, 0.0609997964712778
435.0, 0.06440404128997886
436.0, 0.06816328636851059
437.0, 0.06995562568544565
438.0, 0.07240585756949583
439.0, 0.07951309474472552
440.0, 0.08005390310187575
441.0, 0.08094345418378088
442.0, 0.08262809755123986
443.0, 0.08482287317241541
444.0, 0.08744552632717119
445.0, 0.08951045802042869
446.0, 0.08929598033170734
447.0, 0.09071241806082812
448.0, 0.08692743368496443
449.0, 0.07809846829668282
450.0, 0.07105664918133389
451.0, 0.062024213492848805
452.0, 0.054456663533195115
453.0, 0.045446062244307535
454.0, 0.03741247569193205
455.0, 0.032333829779049035
456.0, 0.027982526914511863
457.0, 0.024840046138820196
458.0, 0.01948412609894334
459.0, 0.01700226707162263
460.0, 0.016918224841674514
461.0, 0.015057788473573308
462.0, 0.012397010316375504
463.0, 0.012887930745269132
464.0, 0.015037996224173227
465.0, 0.01596095441773539
466.0, 0.016937853050127214
467.0, 0.01983617862125448
468.0, 0.01955555359973052
469.0, 0.023353832769503
470.0, 0.029137919475040575
471.0, 0.033137023147615664
472.0, 0.03616094587485029
473.0, 0.043969439621942295
474.0, 0.04803710045100594
475.0, 0.054445471083565025
476.0, 0.061464945675141575
477.0, 0.06777578161823143
478.0, 0.07606259490057035
479.0, 0.08925192403411028
480.0, 0.0959106525286147
481.0, 0.10317836117861895
482.0, 0.11490414134616404
483.0, 0.12341734563924252
484.0, 0.12258946822102174
485.0, 0.12243477827717386
486.0, 0.11552390928425481
487.0, 0.10199893827894867
488.0, 0.08751976259774086
489.0, 0.07377788846054484
490.0, 0.05908031783010887
491.0, 0.04736398054122123
492.0, 0.03735796391529613
493.0, 0.02886683085070429
494.0, 0.02228772168330261
495.0, 0.017066699200074073
496.0, 0.012312103953150843
497.0, 0.009177366229394955
498.0, 0.007181137720729296
499.0, 0.005244173940322929
500.0, 0.004944569486643262
501.0, 0.004804965045858908
502.0, 0.0010384094338272082
503.0, 0.0019293896648922026
504.0, 0.003863110380254435
505.0, 0.0020600991638461135
506.0, 4.854763500004239e-05
507.0, 9.785658956981577e-05
508.0, 0.0005635844473422832
509.0, 0.00013878741748252847
510.0, 0.0006209997818996504
511.0, 0.0012415697425229174
512.0, 0.00046353833614019775
513.0, 8.431843998874639e-05
514.0, 0.0030654310598647156
515.0, 0.0005073504750665935
516.0, 0.00028893792884762833
517.0, 0.0014384668013442054
518.0, 0.0026153484734840536
519.0, 0.0019152120445060704
520.0, 0.002069862790066485
521.0, 0.002207931577862235
522.0, 0.0016760059797725488
523.0, 0.0031236557663663228
524.0, 0.004855571406873396
525.0, 0.00531665480834955
526.0, 0.006092282554470968
527.0, 0.010091763657564439
528.0, 0.011681539958870973
529.0, 0.011758412845554341
530.0, 0.013321646731907224
531.0, 0.016008753371843303
532.0, 0.01722338993440654
533.0, 0.018872883450924
534.0, 0.016473948143657175
535.0, 0.015444211451236537
536.0, 0.016733133014928573
537.0, 0.016390817629601952
538.0, 0.012146998578492161
539.0, 0.011588456906193197
540.0, 0.010457572461318202
541.0, 0.006908386627805217
542.0, 0.004722323292923306
543.0, 0.0045668245484554145
544.0, 0.003840579648271946
545.0, 0.0018454652477699243
546.0, 0.0010661615464019746
547.0, 0.0030281200484135397
548.0, 0.004137833864883323
549.0, 0.003756980072425997
550.0, 0.0032549368766987357
551.0, 0.0020128602797654304
552.0, 0.0005233767746318522
553.0, 0.0004340884516861771
554.0, 0.0014592762361984053
555.0, 0.0011895033368973633
556.0, 0.0017772984791246417
557.0, 0.000163379442342603
558.0, 0.0015858583392485046
559.0, 0.003766849228894289
560.0, 0.0015283331059508809
561.0, 0.0011462761581141816
562.0, 0.0033449227263256573
563.0, 0.003308490749827918
564.0, 0.002381411183866388
565.0, 0.002072997297463279
566.0, 0.0032026656476419504
567.0, 0.0026431605529295783
568.0, 0.0015074102871626188
569.0, 0.0023215159457871805
570.0, 0.0015421951942961032
571.0, 0.00010413979275507411
572.0, 0.0010673583396872798
573.0, 0.0021494564260251974
574.0, 0.0013753393216030213
575.0, 0.0003572222724546171
576.0, 0.00026925696573756414
577.0, 0.0039827233310091095
578.0, 0.005239341510714566
579.0, 0.003713899588782596
580.0, 0.0026649225125621305
581.0, 0.0028022461762897384
582.0, 0.0025326666887129667
583.0, 0.003537694756137347
584.0, 0.003922543094575466
585.0, 0.004620299898325009
586.0, 0.005159120814793501
587.0, 0.004068017690771272
588.0, 0.0019257466456440303
589.0, 0.0019292043835062167
590.0, 0.0022087501041265817
591.0, 0.0029922474181764626
592.0, 0.002236531813305347
593.0, 0.0011629396766421765
594.0, 0.00182616419148985
595.0, 0.00428791968244005
596.0, 0.0047683656362405005
597.0, 0.0026827164285474834
598.0, 0.0042828136120708245
599.0, 0.004541893675555592
600.0, 0.00305669717196089
601.0, 0.0029216082766239425
602.0, 0.0008099910487160118
603.0, 0.0010035180999973029
604.0, 0.003588912052802111
605.0, 0.0027634283884072235
606.0, 0.002084247698431851
607.0, 0.003484921443107742
608.0, 0.0028846070553124725
609.0, 0.001573252985616622
610.0, 0.0035423585917291984
611.0, 0.004542004884364154
612.0, 0.004754066887680314
613.0, 0.0036474423765661167
614.0, 0.002197175972547764
615.0, 0.0025540392457072203
616.0, 0.001857544770946102
617.0, 0.0016848383689301674
618.0, 0.002606474723278641
619.0, 0.003565151826148292
620.0, 0.0036056479314257343
621.0, 0.002437261395598292
622.0, 0.0013654792546506115
623.0, 0.0015713383572385242
624.0, 0.001973139943037089
625.0, 0.0010532850790625494
626.0, 0.0021380912497518394
627.0, 0.0046937040395193105
628.0, 0.00448571428584998
629.0, 0.004380058590209571
630.0, 0.005467021645220234
631.0, 0.004787267497906454
632.0, 0.0042736020727816215
633.0, 0.004391228293351719
634.0, 0.00462391727911241
635.0, 0.005126563703265613
636.0, 0.0032207443683554843
637.0, 0.004616571433185568
638.0, 0.0052192039025928455
639.0, 0.004155657454534744
640.0, 0.0030817188645913996
641.0, 0.00281212131727876
642.0, 0.002388061596442265
643.0, 0.002626559092927002
644.0, 0.0024162745146707704
645.0, 0.0038118170242421407
646.0, 0.0024005715324949654
647.0, 0.0007322584888668394
648.0, 0.0023623962476661355
649.0, 0.0027222528587782374
650.0, 0.003594141459435878
651.0, 0.00544675473865463
652.0, 0.005490388153391127
653.0, 0.004181702074444008
654.0, 0.004073441436662721
655.0, 0.004952991215962127
656.0, 0.004132198880035848
657.0, 0.0026949803357508894
658.0, 0.0018272240321439677
659.0, 0.004165522080164116
660.0, 0.004778303698595015
661.0, 0.004124052783061392
662.0, 0.004787895903004839
663.0, 0.004561393568505519
664.0, 0.0025225304984344043
665.0, 0.006024331928795062
666.0, 0.004354929179419593
667.0, 0.004287495143115985
668.0, 0.006709734423898248
669.0, 0.006035182540244467
670.0, 0.003293335183268308
671.0, 0.0013415975153735127
672.0, 0.0038963548558840167
673.0, 0.003396263368613585
674.0, 0.004817606750235471
675.0, 0.005828972166761547
676.0, 0.003999952524729284
677.0, 0.004723601779645336
678.0, 0.004385486728612031
679.0, 0.003913668746853091
680.0, 0.0028237550438879426
681.0, 0.002224459396066031
682.0, 0.0026802034621471356
683.0, 0.003176319760342941
684.0, 0.0028234320295103064
685.0, 0.002217606769980753
686.0, 0.00305585607291691
687.0, 0.0010842250731875793
688.0, 0.0009965082666527807
689.0, 0.001251595488215772
690.0, 0.0016192214809648802
691.0, 0.002706419248527107
692.0, 0.0019658512075640083
693.0, 0.002013003943927153
694.0, 0.0010957234289645942
695.0, 0.002326951471961725
696.0, 0.001987468565490589
697.0, 0.001767060992279509
698.0, 0.0021815343946451687
699.0, 0.0002791892897388154
700.0, 0.0005092288835963062
701.0, 0.0006991840009293047
702.0, 0.0007236671919636533
703.0, 0.0009374004755418905
704.0, 0.00044751164694637277
705.0, 0.00047818720544648576
706.0, 0.0014230589705123925
707.0, 0.0010449153475908606
708.0, 0.0021117584426863416
709.0, 0.0012862731368827492
710.0, 0.0003385600754663561
711.0, 0.0006916615019126871
712.0, 0.0002772401475303432
713.0, 0.0007448281936841506
714.0, 0.0002073918679988188
715.0, 0.0010583275677840988
716.0, 0.000402156539041815
717.0, 0.0008997149036247296
718.0, 0.0007852195398807412
719.0, 0.0023398420429897905
720.0, 0.0014844899223460202
721.0, 0.0004046452558269389
722.0, 0.0016527899938619723
723.0, 0.002070660447501801
724.0, 0.0008291269546257759
725.0, 0.0019123235989494311
726.0, 0.0025341908402993518
727.0, 0.0013645960123405791
728.0, 0.0005317761775698529
729.0, 0.0008112428037854343
730.0, 0.00019174119640876647
731.0, 0.0013503869689276905
732.0, 0.0035335033098367326
733.0, 0.0016897195006767818
734.0, 0.0008545277102270235
735.0, 0.0011464633689727013
736.0, 0.002148346140813652
737.0, 0.0007550541880236881
738.0, 0.00019523326766035406
739.0, 0.0008622926026707677
740.0, 0.0007211722187880846
741.0, 0.0035752700112541367
742.0, 0.0042894174531568595
743.0, 0.002550199793294689
744.0, 0.003756422331668326
745.0, 0.006567039778743702
746.0, 0.0041295186868219045
747.0, 0.006363997111118173
748.0, 0.008051044952610222
749.0, 0.009405124223671619
750.0, 0.009510785861516888
751.0, 0.009365089361309926
752.0, 0.009966062063855382
753.0, 0.010267246841751426
754.0, 0.011400573672280824
755.0, 0.012504949505612536
756.0, 0.010767486726581612
757.0, 0.01240073844435352
758.0, 0.01345541580818422
759.0, 0.012938792279429984
760.0, 0.01417424978371984
761.0, 0.01615780785543334
762.0, 0.019208351990007196
763.0, 0.020849141713657485
764.0, 0.02377414348026316
765.0, 0.028619682967530615
766.0, 0.03344642125858597
767.0, 0.03889115454637243
768.0, 0.04585693836317905
769.0, 0.05259948991619707
770.0, 0.05971028510499623
771.0, 0.06736294946720202
772.0, 0.07734544473828636
773.0, 0.08426689362103779
774.0, 0.09399315560249347
775.0, 0.10642477153277699
776.0, 0.1168127874266944
777.0, 0.12507524640767853
778.0, 0.13330076000488458
779.0, 0.13656297750950358
780.0, 0.13603234866027827
781.0, 0.1346160155947548
782.0, 0.12874294451628635
783.0, 0.12026304107026374
784.0, 0.11068725251253254
785.0, 0.09846362792940906
786.0, 0.0859403124917423
787.0, 0.07602031569617276
788.0, 0.06686164139209681
789.0, 0.06113071399710291
790.0, 0.05459541062057969
791.0, 0.047918895760335464
792.0, 0.04542252905792635
793.0, 0.043578960818869784
794.0, 0.03664453510694919
795.0, 0.037437337812539336
796.0, 0.04236326549176149
797.0, 0.0451348344553806
798.0, 0.05022087602682678
799.0, 0.057803372751328214
800.0, 0.06961743051864062
801.0, 0.08276828488309991
802.0, 0.09401507597026383
803.0, 0.10877513974836273
804.0, 0.12807734440869026
805.0, 0.1500383136651061
806.0, 0.17291433498926315
807.0, 0.19729056171248271
808.0, 0.226214859677752
809.0, 0.2535880883477785
810.0, 0.27466804958888624
811.0, 0.2928925260233418
812.0, 0.3026416787756036
813.0, 0.30383794975727957
814.0, 0.3044600277854991
815.0, 0.3112948633809373
816.0, 0.3177083253557545
817.0, 0.3279164795328206
818.0, 0.3459297734123222
819.0, 0.37686260200780536
820.0, 0.4222624970621626
821.0, 0.4649977699336744
822.0, 0.5175915461195838
823.0, 0.5633883973029843
824.0, 0.6039918590505815
825.0, 0.6309672774930304
826.0, 0.6570063049675009
827.0, 0.69113270943683
828.0, 0.734256955957057
829.0, 0.8020890565694425
830.0, 0.8859063769766717
831.0, 0.955716565239582
832.0, 0.9968816477849207
833.0, 0.9751661313838149
834.0, 0.8784540358047586
835.0, 0.7301400571521185
836.0, 0.5741173115144662
837.0, 0.4392174393464198
838.0, 0.32825727372981706
839.0, 0.25086338864671837
840.0, 0.19734300939112198
841.0, 0.15523070199706743
842.0, 0.12557831413165443
843.0, 0.10369475292911792
844.0, 0.08956443200933625
845.0, 0.07794546492387565
846.0, 0.06473490846987828
847.0, 0.054749824391270435
848.0, 0.046044611044810044
849.0, 0.040948599960526987
850.0, 0.03500358366592317
851.0, 0.03042734756021963
852.0, 0.028239436774981547
853.0, 0.024307586288450714
854.0, 0.020129982500766194
855.0, 0.019518184541398486
856.0, 0.020688396939754976
857.0, 0.02031373167616218
858.0, 0.01822597073254275
859.0, 0.018349185740708398
860.0, 0.017441234270421175
861.0, 0.016598944672074727
862.0, 0.0194360847144434
863.0, 0.02028967356454614
864.0, 0.017437574504594072
865.0, 0.015570409031098268
866.0, 0.016676882534954526
867.0, 0.017224871186627307
868.0, 0.016264819134065755
869.0, 0.016690630571267514
870.0, 0.014964475658621327
871.0, 0.013516892027407832
872.0, 0.012699814488613998
873.0, 0.010911453199257666
874.0, 0.009691886200035393
875.0, 0.008697660289131215
876.0, 0.00470570798641573
877.0, 0.003933242995672471
878.0, 0.0056570099714340315
879.0, 0.00413499942982158
880.0, 0.00040399873927480997
881.0, 0.002759706055300202
882.0, 0.0029845143539556362
883.0, 0.0013250827418326363
884.0, 0.002467738583038767
885.0, 0.0018400022072076532
886.0, 0.003227563084761711
887.0, 0.0026518879845992896
888.0, 0.001111317362651223
889.0, 0.006264458185314813
890.0, 0.0026620332012571527
891.0, 0.00017334125333235418
892.0, 0.0012142660053785915
893.0, 0.002451861641790804
894.0, 0.0012632463848510802
895.0, 0.00029944166679575214
896.0, 0.001581081198782024
897.0, 0.000962359029595478
898.0, 0.0005830010177101043
899.0, 0.00016722192404192355
900.0, 0.00023924568770629487
901.0, 0.001219122909269554
902.0, 0.0006608191073792758
903.0, 0.0014465446221183186
904.0, 0.002009039035318546
905.0, 0.001572031332917991
906.0, 0.0022825533169312244
907.0, 0.0029715567240437626
908.0, 0.004063525092598271
909.0, 0.008496096788418133
910.0, 0.004739021510939764
911.0, 0.006612924504801664
912.0, 0.006381362303749938
913.0, 0.004701065936774004
914.0, 0.005178247073786984
915.0, 0.0048074212413750485
916.0, 0.004889582592523774
917.0, 0.005170555698447256
918.0, 0.0019860528667899986
919.0, 0.0008574409505653841
920.0, 0.0030266743612807835
921.0, 0.006027581190404688
922.0, 0.004544585460406245
923.0, 0.006705520706167383
924.0, 0.006380385232683278
925.0, 0.004808757851104429
926.0, 0.006200337975894284
927.0, 0.003777643890925346
928.0, 0.005362461472656627
929.0, 0.004446611215012871
930.0, 0.006135832273948631
931.0, 0.006756048326856743
932.0, 0.0071403175922473625
933.0, 0.0075623959281014164
934.0, 0.006198903164668237
935.0, 0.005793766964117657
936.0, 0.005976481789852349
937.0, 0.005494016723391814
938.0, 0.007210698045001403
939.0, 0.007004836372553384
940.0, 0.00679514844845162
941.0, 0.005267175353846659
942.0, 0.006417691384506567
943.0, 0.006168669059654466
944.0, 0.005959747974153457
945.0, 0.006218141200276943
946.0, 0.005419853490916067
947.0, 0.0038766265822996653
948.0, 0.004345048351975468
949.0, 0.005679135100618843
950.0, 0.005797840684474458
951.0, 0.004113981808414693
952.0, 0.0023486712169509824
953.0, 0.003837923422784273
954.0, 0.003735258509757078
955.0, 0.003489181898659024
956.0, 0.0026839128440913217
957.0, 0.002368662273966923
958.0, 0.0037220789842298293
959.0, 0.0040646388484963675
960.0, 0.0016515535372636924
961.0, 0.0004741296189924822
962.0, 0.0016587451031295343
963.0, 0.0031212668068400676
964.0, 0.0015446305583620434
965.0, 0.0010515761966973837
966.0, 0.0002544841985393396
967.0, 0.000208248127904326
968.0, 0.0012255120096620678
969.0, 0.0011919050299845433
970.0, 0.001871672050990603
971.0, 0.003141277766730865
972.0, 0.0009719806312902248
973.0, 0.0009299139928894381
974.0, 0.004418463330803812
975.0, 0.002007459342584088
976.0, 0.003106750135763914
977.0, 0.0028366618891066016
978.0, 0.0031823346611974303
979.0, 0.0037089055875223252
980.0, 0.002289890721046909
981.0, 0.0028289314312090917
982.0, 0.00446436328413704
983.0, 0.0028713150238912854
984.0, 0.0025712199528600357
985.0, 0.006807441285491855
986.0, 0.0045798602299108315
987.0, 0.0024188680934152506
988.0, 0.00165601198246495
989.0, 0.004447031466104672
990.0, 0.004447033566640024
991.0, 0.0021099864610793556
992.0, 0.0015781257758714512
993.0, 0.001938482242332709
994.0, 0.001525543109098261
995.0, 0.0012979791338942552
996.0, 0.001127628380403263
997.0, 0.0003770452050916668
998.0, 0.0009815234626700947
999.0, 0.0011403863246486367
1000.0, 0.0008816171415202838
1001.0, 0.0007887208879411213
1002.0, 0.0007604322063510365
1003.0, 0.0007898993891586244
1004.0, 0.0002346958739272895
1005.0, 0.0007393727248024343
1006.0, 0.0014576384389967246
1007.0, 0.002740058229468574
1008.0, 0.0005539833134100881
1009.0, 0.0003625595823303809
1010.0, 0.0009500326794766368
1011.0, 0.0020431260889903656
1012.0, 0.0016706287789609031
1013.0, 0.00031902200975635287
1014.0, 0.0020419994033342936
1015.0, 0.0054778749283909784
1016.0, 0.0029845539973180004
1017.0, 0.002106775357431385
1018.0, 0.0018718084727499173
1019.0, 0.003498127332881679
1020.0, 0.004368879709404248
1021.0, 0.003591367119979087
1022.0, 0.005123063427915145
1023.0, 0.006014130283093084
1024.0, 0.003899310051566092
1025.0, 0.0035254608062162637
1026.0, 0.0011056500203693107
1027.0, 0.0037004631238322047
1028.0, 0.0030010703147529045
1029.0, 0.004738873024353582
1030.0, 0.003382106492454107
1031.0, 0.0038680141093611073
1032.0, 0.002716894106368781
1033.0, 0.0022693448061394056
1034.0, 0.0023069391806530984
1035.0, 0.0014197637591873704
1036.0, 0.0014962673642785933
1037.0, 0.0017866735293736796
1038.0, 0.005635331972225709
1039.0, 0.0011791842720450863
1040.0, 0.004859352580431311
1041.0, 0.003841317401092278
1042.0, 0.0037539383499998915
1043.0, 0.0031331020269948807
1044.0, 0.002408093099814695
1045.0, 0.002745302616525279
1046.0, 0.0018296054730403536
1047.0, 0.004195798836917792
1048.0, 0.005074813809065104
1049.0, 0.0034077420377773724
1050.0, 0.0045932941805517736
1051.0, 0.004194917766048251
1052.0, 0.004496689394722717
1053.0, 0.0034853322144844296
1054.0, 0.005003701931363474
1055.0, 0.006020118743963506
1056.0, 0.0038990960146015816
1057.0, 0.00448206243101709
1058.0, 0.003284385971594786
1059.0, 0.004633448778053835
1060.0, 0.003819302573237387
1061.0, 0.004822184059841532
1062.0, 0.005007681029418871
1063.0, 0.004916649668052069
1064.0, 0.00433375342558332
1065.0, 0.0008205547496150735
1066.0, 0.0016083569145622961
1067.0, 0.004263793732320361
1068.0, 0.004695386177282634
1069.0, 0.002927123735085967
1070.0, 0.001495026862309654
1071.0, 0.001722028825201887
1072.0, 0.0031073358660333706
1073.0, 0.0026543504787215327
1074.0, 0.0031218160981660555
1075.0, 0.0013529265173545112
1076.0, 0.0009336780236579665
1077.0, 0.0003706914605373557
1078.0, 0.002204322178352881
1079.0, 0.0014922178674547186
1080.0, 0.001048471674085607
1081.0, 0.0008514598351509657
1082.0, 0.0014929539338693733
1083.0, 0.0027835538456144533
1084.0, 0.0017707938727130152
1085.0, 4.255427404601708e-05
1086.0, 0.001278254393762546
1087.0, 0.00182016680336531
1088.0, 0.0014553927085396445
1089.0, 0.001419192776465949
1090.0, 0.0023039397208423104
1091.0, 0.00037558163259730694
1092.0, 0.003574359264699886
1093.0, 0.002784672596709251
1094.0, 0.0013662900339795202
1095.0, 0.0025958820551040284
1096.0, 0.002369766731954062
1097.0, 0.0012918317154319305
1098.0, 0.001195741161115316
1099.0, 0.0027032937226356617
1100.0, 0.0027674695433503316
1101.0, 0.0027494233492108187
1102.0, 0.0026740744755151063
1103.0, 0.0010604769255465202
1104.0, 0.003047361990501889
1105.0, 0.003865627567221102
1106.0, 0.0017638885596369112
1107.0, 0.00017479893853762938
1108.0, 0.0004576674288505992
1109.0, 0.0017402052130530482
1110.0, 0.0020143136317792
1111.0, 0.000605085215659891
1112.0, 0.0004400341089417946
1113.0, 0.0005835346670922068
1114.0, 0.0007800587869848435
1115.0, 0.0002246982173805681
1116.0, 0.0015062041165245137
1117.0, 0.00494689555980815
1118.0, 0.0018591426286112297
1119.0, 0.001087201892194041
1120.0, 0.0004412859032897581
1121.0, 0.001031397127570376
1122.0, 0.00035748454348546077
1123.0, 0.003287467419298962
1124.0, 0.00284242214478073
1125.0, 0.003845722779189596
1126.0, 0.00195853262940983
1127.0, 0.0013718874688356873
1128.0, 0.0027442601293719143
1129.0, 0.002479699335793562
1130.0, 0.0023417092689641057
1131.0, 0.002184807830055167
1132.0, 0.001994614452757154
1133.0, 0.0027484568912844536
1134.0, 0.002755400459974855
1135.0, 0.0020275792217027975
1136.0, 0.0018863696742838867
1137.0, 0.0015914810541466746
1138.0, 0.0038441204931652447
1139.0, 0.003707930478233069
1140.0, 0.003023195565842546
1141.0, 0.0021487895533464398
1142.0, 0.002921587795609995
1143.0, 0.003799298491334474
1144.0, 0.002824227792913181
1145.0, 0.004120126160372183
1146.0, 0.00221728432285868
1147.0, 0.0014918385604789947
1148.0, 0.004230651036066613
1149.0, 0.005384453480418232
1150.0, 0.003918714679080818
1151.0, 0.0028736865506510893
1152.0, 0.004050506711835809
1153.0, 0.004860891468483248
1154.0, 0.003249399975591846
1155.0, 0.0025559341262178796
1156.0, 0.003179593636746647
1157.0, 0.003050693693801535
1158.0, 0.002916819398526573
1159.0, 0.0016819839677484714
1160.0, 0.0018581553621563637
1161.0, 0.005266261009896507
1162.0, 0.00344929451041459
1163.0, 0.004369469089245426
1164.0, 0.004353557035044588
1165.0, 0.0033962476492398045
1166.0, 0.0017070317832150838
1167.0, 0.003722679656843889
1168.0, 0.005065026611029875
1169.0, 0.002941720827798632
1170.0, 0.0018394079790096675
1171.0, 0.002572131366511389
1172.0, 0.0034699839730463373
1173.0, 0.002711351781240834
1174.0, 0.0008055521898289301
1175.0, 0.001680753422856539
1176.0, 0.004362135247486419
1177.0, 0.003093717684539853
1178.0, 0.0010067478310483934
1179.0, 0.003000318245862179
1180.0, 0.004941058870802129
1181.0, 0.005303916906066705
1182.0, 0.002803852647475306
1183.0, 0.00058393649955807
1184.0, 0.0022961178489537353
1185.0, 0.00395836448498871
1186.0, 0.0005667955462587318
1187.0, 0.002660616143459145
1188.0, 0.0029719842853948796
1189.0, 0.0020632577921441465
1190.0, 0.0010326506655091517
1191.0, 0.00029480268820815706
1192.0, 0.003184629791551572
1193.0, 0.003965203101184477
1194.0, 0.0024663051470570014
1195.0, 0.0010820507922681103
1196.0, 0.0001507707594031904
1197.0, 0.00013932363583353817
1198.0, 0.001987508403186282
1199.0, 0.004127327340432585
1200.0, 0.004078842927235768
1201.0, 0.0029352108406104378
1202.0, 0.003769452991207007
1203.0, 0.0053176158739400604
1204.0, 0.0040145793024667625
1205.0, 0.004664635694736839
1206.0, 0.003902417197676738
1207.0, 0.00475965034832073
1208.0, 0.004779862194172651
1209.0, 0.0011078744954591791
1210.0, 0.004214791430701996
1211.0, 0.0047947395137730815
1212.0, 0.003891975123551006
1213.0, 0.005690469028700499
1214.0, 0.003344874972067616
1215.0, 0.003541659746790125
1216.0, 0.0006404939131520134
1217.0, 0.004066279692305677
1218.0, 0.0017883203230713448
1219.0, 0.0027606988751727028
1220.0, 0.0034085308575973862
1221.0, 0.004616553451730439
1222.0, 0.0013977181021856784
1223.0, 0.0016922481757599844
1224.0, 0.001622883254057766
1225.0, 0.002423801099886135
1226.0, 0.0013468766944770478
1227.0, 0.0011782014805275661
1228.0, 0.0035025113856767274
1229.0, 0.004345560281543897
1230.0, 0.004153624945675038
1231.0, 0.0026104869456061983
1232.0, 0.0008658792534551929
1233.0, 0.0013548060340588205
1234.0, 0.0032416376219498535
1235.0, 0.0006329820916892159
1236.0, 0.002894080938519592
1237.0, 0.0027556832053196112
1238.0, 0.002629647775809834
1239.0, 0.004069924417680027
1240.0, 0.0016025180588238432
1241.0, 5.699957931371968e-05
1242.0, 0.002010008002411854
1243, 0.0
1244, 0.0
1245, 0.0
1246, 0.0
1247, 0.0
1248, 0.0
1249, 0.0
1250, 0.0
1251, 0.0
1252, 0.0
1253, 0.0
1254, 0.0
1255, 0.0
1256, 0.0
1257, 0.0
1258, 0.0
1259, 0.0
1260, 0.0
1261, 0.0
1262, 0.0
1263, 0.0
1264, 0.0
1265, 0.0
1266, 0.0
1267, 0.0
1268, 0.0
1269, 0.0
1270, 0.0
1271, 0.0
1272, 0.0
1273, 0.0
1274, 0.0
1275, 0.0
1276, 0.0
1277, 0.0
1278, 0.0
1279, 0.0
1280, 0.0
1281, 0.0
1282, 0.0
1283, 0.0
1284, 0.0
1285, 0.0
1286, 0.0
1287, 0.0
1288, 0.0
1289, 0.0
1290, 0.0
1291, 0.0
1292, 0.0
1293, 0.0
1294, 0.0
1295, 0.0
1296, 0.0
1297, 0.0
1298, 0.0
1299, 0.0
1300, 0.0
1301, 0.0
1302, 0.0
1303, 0.0
1304, 0.0
1305, 0.0
1306, 0.0
1307, 0.0
1308, 0.0
1309, 0.0
1310, 0.0
1311, 0.0
1312, 0.0
1313, 0.0
1314, 0.0
1315, 0.0
1316, 0.0
1317, 0.0
1318, 0.0
1319, 0.0
1320, 0.0
1321, 0.0
1322, 0.0
1323, 0.0
1324, 0.0
1325, 0.0
1326, 0.0
1327, 0.0
1328, 0.0
1329, 0.0
1330, 0.0
1331, 0.0
1332, 0.0
1333, 0.0
1334, 0.0
1335, 0.0
1336, 0.0
1337, 0.0
1338, 0.0
1339, 0.0
1340, 0.0
1341, 0.0
1342, 0.0
1343, 0.0
1344, 0.0
1345, 0.0
1346, 0.0
1347, 0.0
1348, 0.0
1349, 0.0
1350, 0.0
1351, 0.0
1352, 0.0
1353, 0.0
1354, 0.0
1355, 0.0
1356, 0.0
1357, 0.0
1358, 0.0
1359, 0.0
1360, 0.0
1361, 0.0
1362, 0.0
1363, 0.0
1364, 0.0
1365, 0.0
1366, 0.0
1367, 0.0
1368, 0.0
1369, 0.0
1370, 0.0
1371, 0.0
1372, 0.0
1373, 0.0
1374, 0.0
1375, 0.0
1376, 0.0
1377, 0.0
1378, 0.0
1379, 0.0
1380, 0.0
1381, 0.0
1382, 0.0
1383, 0.0
1384, 0.0
1385, 0.0
1386, 0.0
1387, 0.0
1388, 0.0
1389, 0.0
1390, 0.0
1391, 0.0
1392, 0.0
1393, 0.0
1394, 0.0
1395, 0.0
1396, 0.0
1397, 0.0
1398, 0.0
1399, 0.0
1400, 0.0
1401, 0.0
1402, 0.0
1403, 0.0
1404, 0.0
1405, 0.0
1406, 0.0
1407, 0.0
1408, 0.0
1409, 0.0
1410, 0.0
1411, 0.0
1412, 0.0
1413, 0.0
1414, 0.0
1415, 0.0
1416, 0.0
1417, 0.0
1418, 0.0
1419, 0.0
1420, 0.0
1421, 0.0
1422, 0.0
1423, 0.0
1424, 0.0
1425, 0.0
1426, 0.0
1427, 0.0
1428, 0.0
1429, 0.0
1430, 0.0
1431, 0.0
1432, 0.0
1433, 0.0
1434, 0.0
1435, 0.0
1436, 0.0
1437, 0.0
1438, 0.0
1439, 0.0
1440, 0.0
1441, 0.0
1442, 0.0
1443, 0.0
1444, 0.0
1445, 0.0
1446, 0.0
1447, 0.0
1448, 0.0
1449, 0.0
1450, 0.0
1451, 0.0
1452, 0.0
1453, 0.0
1454, 0.0
1455, 0.0
1456, 0.0
1457, 0.0
1458, 0.0
1459, 0.0
1460, 0.0
1461, 0.0
1462, 0.0
1463, 0.0
1464, 0.0
1465, 0.0
1466, 0.0
1467, 0.0
1468, 0.0
1469, 0.0
1470, 0.0
1471, 0.0
1472, 0.0
1473, 0.0
1474, 0.0
1475, 0.0
1476, 0.0
1477, 0.0
1478, 0.0
1479, 0.0
1480, 0.0
1481, 0.0
1482, 0.0
1483, 0.0
1484, 0.0
1485, 0.0
1486, 0.0
1487, 0.0
1488, 0.0
1489, 0.0
1490, 0.0
1491, 0.0
1492, 0.0
1493, 0.0
1494, 0.0
1495, 0.0
1496, 0.0
1497, 0.0
1498, 0.0
1499, 0.0
1500, 0.0
1501, 0.0
1502, 0.0
1503, 0.0
1504, 0.0
1505, 0.0
1506, 0.0
1507, 0.0
1508, 0.0
1509, 0.0
1510, 0.0
1511, 0.0
1512, 0.0
1513, 0.0
1514, 0.0
1515, 0.0
1516, 0.0
1517, 0.0
1518, 0.0
1519, 0.0
1520, 0.0
1521, 0.0
1522, 0.0
1523, 0.0
1524, 0.0
1525, 0.0
1526, 0.0
1527, 0.0
1528, 0.0
1529, 0.0
1530, 0.0
1531, 0.0
1532, 0.0
1533, 0.0
1534, 0.0
1535, 0.0
1536, 0.0
1537, 0.0
1538, 0.0
1539, 0.0
1540, 0.0
1541, 0.0
1542, 0.0
1543, 0.0
1544, 0.0
1545, 0.0
1546, 0.0
1547, 0.0
1548, 0.0
1549, 0.0
1550, 0.0
1551, 0.0
1552, 0.0
1553, 0.0
1554, 0.0
1555, 0.0
1556, 0.0
1557, 0.0
1558, 0.0
1559, 0.0
1560, 0.0
1561, 0.0
1562, 0.0
1563, 0.0
1564, 0.0
1565, 0.0
1566, 0.0
1567, 0.0
1568, 0.0
1569, 0.0
1570, 0.0
1571, 0.0
1572, 0.0
1573, 0.0
1574, 0.0
1575, 0.0
1576, 0.0
1577, 0.0
1578, 0.0
1579, 0.0
1580, 0.0
1581, 0.0
1582, 0.0
1583, 0.0
1584, 0.0
1585, 0.0
1586, 0.0
1587, 0.0
1588, 0.0
1589, 0.0
1590, 0.0
1591, 0.0
1592, 0.0
1593, 0.0
1594, 0.0
1595, 0.0
1596, 0.0
1597, 0.0
1598, 0.0
1599, 0.0
