30, 0.0
31, 0.0
32, 0.0
33, 0.0
34, 0.0
35, 0.0
36, 0.0
37, 0.0
38, 0.0
39, 0.0
40, 0.0
41, 0.0
42, 0.0
43, 0.0
44, 0.0
45, 0.0
46, 0.0
47, 0.0
48, 0.0
49, 0.0
50, 0.0
51, 0.0
52, 0.0
53, 0.0
54, 0.0
55, 0.0
56, 0.0
57, 0.0
58, 0.0
59, 0.0
60, 0.0
61, 0.0
62, 0.0
63, 0.0
64, 0.0
65, 0.0
66, 0.0
67, 0.0
68, 0.0
69, 0.0
70, 0.0
71, 0.0
72, 0.0
73, 0.0
74, 0.0
75, 0.0
76, 0.0
77, 0.0
78, 0.0
79, 0.0
80, 0.0
81, 0.0
82, 0.0
83, 0.0
84, 0.0
85, 0.0
86, 0.0
87, 0.0
88, 0.0
89, 0.0
90, 0.0
91, 0.0
92, 0.0
93, 0.0
94, 0.0
95, 0.0
96, 0.0
97, 0.0
98, 0.0
99, 0.0
100, 0.0
101, 0.0
102, 0.0
103, 0.0
104, 0.0
105, 0.0
106, 0.0
107, 0.0
108, 0.0
109, 0.0
110, 0.0
111, 0.0
112, 0.0
113, 0.0
114, 0.0
115, 0.0
116, 0.0
117, 0.0
118, 0.0
119, 0.0
120, 0.0
121, 0.0
122, 0.0
123, 0.0
124, 0.0
125, 0.0
126, 0.0
127, 0.0
128, 0.0
129, 0.0
130, 0.0
131, 0.0
132, 0.0
133, 0.0
134, 0.0
135, 0.0
136, 0.0
137, 0.0
138, 0.0
139, 0.0
140, 0.0
141, 0.0
142, 0.0
143, 0.0
144, 0.0
145.0, 9.732010355606978e-05
146.0, 0.0012211166792702017
147.0, 0.00540926424189762
148.0, 0.007930269977358646
149.0, 0.00789016626662435
150.0, 0.00794618022658073
151.0, 0.007018907381877271
152.0, 0.006727063181026035
153.0, 0.007853275641379378
154.0, 0.010225702180565227
155.0, 0.012123588362519326
156.0, 0.015425311968176529
157.0, 0.023920113110987885
158.0, 0.03409769740297206
159.0, 0.03382906327517113
160.0, 0.03054575643318628
161.0, 0.030429407286956076
162.0, 0.031472220036492624
163.0, 0.026899846148012135
164.0, 0.017883119914693508
165.0, 0.01091063876691769
166.0, 0.007427975834310283
167.0, 0.005234874603303035
168.0, 0.0010357355689887438
169.0, 0.0004154033362152335
170.0, 0.00020345693654772438
171.0, 0.0007189644803116001
172.0, 0.00015919244883526713
173.0, 0.0009553376090070336
174.0, 0.0035277881095497387
175.0, 0.0071694859598310096
176.0, 0.010001846344713593
177.0, 0.009316578050508692
178.0, 0.01009617747135796
179.0, 0.013968391136534654
180.0, 0.01858341541976127
181.0, 0.015872563794174413
182.0, 0.016506366679064292
183.0, 0.020339908155930838
184.0, 0.02357190493715659
185.0, 0.021909012779386967
186.0, 0.023115956873107458
187.0, 0.024906228556831615
188.0, 0.02632997058540597
189.0, 0.027844370815064485
190.0, 0.03254032484009702
191.0, 0.03544864441811449
192.0, 0.03740003034568298
193.0, 0.04043278160263578
194.0, 0.042758821715328306
195.0, 0.042890975808376086
196.0, 0.04105590337239682
197.0, 0.038247002615773594
198.0, 0.0358570734803895
199.0, 0.03575065027628431
200.0, 0.036652481473464005
201.0, 0.036730992999903914
202.0, 0.03499590343243808
203.0, 0.03796728771578695
204.0, 0.040901801468836874
205.0, 0.041231635575756743
206.0, 0.03798949707306751
207.0, 0.033902150453283326
208.0, 0.032771295135471716
209.0, 0.0280184863955259
210.0, 0.0214279017513951
211.0, 0.020530855998637056
212.0, 0.018658689979810586
213.0, 0.01504714900252784
214.0, 0.010398455671065386
215.0, 0.006670927361799556
216.0, 0.006463321453752817
217.0, 0.006216597040158448
218.0, 0.0049569900141515
219.0, 0.0033537469411259644
220.0, 0.0025466321053404326
221.0, 0.0032088825466236996
222.0, 0.004799032321578337
223.0, 0.004283614969755186
224.0, 0.0017041828912319468
225.0, 0.002563480872028341
226.0, 0.0022490023149036842
227.0, 0.0005292717046444129
228.0, 0.0005607190595061298
229.0, 0.00029921480424684014
230.0, 0.001994501353883488
231.0, 0.002042335012648798
232.0, 0.0007111695563051211
233.0, 0.0006532609285063919
234.0, 0.0030125370090836657
235.0, 0.003791647608038195
236.0, 0.0023069869332355514
237.0, 0.001035799916460086
238.0, 0.0019748743260548426
239.0, 0.0003075315147434896
240.0, 0.00046882151830853077
241.0, 0.002028396434021394
242.0, 0.002334177488959204
243.0, 0.002611526901626611
244.0, 0.0018383893410818892
245.0, 0.0014703244491236303
246.0, 0.0019845864005392402
247.0, 0.00015090109550380384
248.0, 0.0012288805146468207
249.0, 0.0035650362677205763
250.0, 0.004939378812452847
251.0, 0.005404992199369572
252.0, 0.0077374765924114325
253.0, 0.011430450283845813
254.0, 0.015099354948778893
255.0, 0.01678181404653566
256.0, 0.01660841032861133
257.0, 0.01783348032994868
258.0, 0.020503151476485716
259.0, 0.022228385610988468
260.0, 0.024460359569046297
261.0, 0.029624925436860062
262.0, 0.032097934409875274
263.0, 0.03344151529786151
264.0, 0.03715926402302068
265.0, 0.04360859785738165
266.0, 0.048599365018714424
267.0, 0.05234712261823311
268.0, 0.05746727629693074
269.0, 0.06331139118609774
270.0, 0.06763458896351493
271.0, 0.07134442160331751
272.0, 0.07405607493087557
273.0, 0.07399858103481123
274.0, 0.07160653356020562
275.0, 0.07002559609009071
276.0, 0.0657777178159492
277.0, 0.061242508917653427
278.0, 0.056715136501621764
279.0, 0.05144130810930736
280.0, 0.04580348387527254
281.0, 0.040761690913036254
282.0, 0.036914310705269675
283.0, 0.034845427950433265
284.0, 0.03470189372978164
285.0, 0.0347463084262918
286.0, 0.030610246817510227
287.0, 0.028353371350637247
288.0, 0.0281665035047367
289.0, 0.024706646129576786
290.0, 0.024054495727728952
291.0, 0.02264429134145161
292.0, 0.022228559846890702
293.0, 0.02464257507137007
294.0, 0.02716373545860748
295.0, 0.02924987635195478
296.0, 0.031159242800381556
297.0, 0.034217806769677346
298.0, 0.03899303775333878
299.0, 0.04514646529250714
300.0, 0.05381973794195381
301.0, 0.061719387529000906
302.0, 0.0695515757571247
303.0, 0.08051751440889827
304.0, 0.09010171520696035
305.0, 0.10671257293267299
306.0, 0.1238861046947606
307.0, 0.13589381792852087
308.0, 0.14418243129991098
309.0, 0.15886037466003575
310.0, 0.176237080802861
311.0, 0.19368153458529688
312.0, 0.21125362558531516
313.0, 0.23182193208090196
314.0, 0.25325771392241264
315.0, 0.27950864942867365
316.0, 0.3077720402282611
317.0, 0.3343259908225047
318.0, 0.36312952444259927
319.0, 0.3901593564664662
320.0, 0.413413115200873
321.0, 0.4269884888234708
322.0, 0.42555288301438515
323.0, 0.4128684855906329
324.0, 0.3913166998045236
325.0, 0.3598357952073716
326.0, 0.3230621341084687
327.0, 0.28825977274648945
328.0, 0.2568830540240657
329.0, 0.22937125878030332
330.0, 0.20670437348209783
331.0, 0.1883381011143672
332.0, 0.17267483993996663
333.0, 0.1572747608939335
334.0, 0.14375530695440977
335.0, 0.13243318452075836
336.0, 0.12218613668851627
337.0, 0.11071230016694725
338.0, 0.10145585917300685
339.0, 0.0919157076590421
340.0, 0.08407211585290388
341.0, 0.07870089115527902
342.0, 0.0720430469000895
343.0, 0.06706180898330609
344.0, 0.06428433343454187
345.0, 0.06063545901022312
346.0, 0.0561296819566183
347.0, 0.056585976742943016
348.0, 0.056110198876233544
349.0, 0.05574357156442718
350.0, 0.05708375600382274
351.0, 0.05960810475552042
352.0, 0.05898752071702561
353.0, 0.060336055796003624
354.0, 0.06124164244085939
355.0, 0.062249251976682546
356.0, 0.06351674473476426
357.0, 0.059290506008523675
358.0, 0.056220928539631926
359.0, 0.05010440614769224
360.0, 0.042364510614357725
361.0, 0.036444831213084006
362.0, 0.02952279603732701
363.0, 0.029198978188369803
364.0, 0.02563742552295599
365.0, 0.020019436582677443
366.0, 0.017494821565855807
367.0, 0.014568917360246906
368.0, 0.011351001726950357
369.0, 0.009075524435884537
370.0, 0.006845423376224535
371.0, 0.0042421621292180346
372.0, 0.003980533758957554
373.0, 0.003458815441636667
374.0, 0.0015011894187724065
375.0, 0.0005637099754555651
376.0, 0.0008640627620341298
377.0, 0.0017880345279833374
378.0, 0.0011522741667563793
379.0, 0.002587867807953549
380.0, 0.0012691572799186032
381.0, 0.0002068034268762062
382.0, 0.0002880842846137961
383.0, 0.002679401338887967
384.0, 0.0028104429710767488
385.0, 0.0004705002656629099
386.0, 0.000600161871075399
387.0, 0.00026677755499667004
388.0, 7.60881797749367e-05
389.0, 0.0005706617878401349
390.0, 0.00017446350484557734
391.0, 0.0008673234109312789
392.0, 0.0004621169303366847
393.0, 0.0006720903700661632
394.0, 0.0008614908594465603
395.0, 0.0012318143288986478
396.0, 0.001549001781030782
397.0, 0.0005154969432638002
398.0, 0.0009794574016860698
399.0, 0.0014834403468777068
400.0, 0.0019837465397344344
401.0, 0.002945736551921828
402.0, 0.0036251297233030116
403.0, 0.0057661309659424835
404.0, 0.007519908405271633
405.0, 0.008337366319708488
406.0, 0.007862568566713444
407.0, 0.0065543712412042135
408.0, 0.009959767605180811
409.0, 0.01281105032408553
410.0, 0.01298263403391588
411.0, 0.01215068020419471
412.0, 0.012740285736266722
413.0, 0.012595111915101506
414.0, 0.013819441335617404
415.0, 0.01614554896552893
416.0, 0.017667864361353272
417.0, 0.017374538950908833
418.0, 0.02048458835965536
419.0, 0.02388884833522128
420.0, 0.024678796733971234
421.0, 0.026450124441973893
422.0, 0.033419630651770456
423.0, 0.03551565328427937
424.0, 0.036369746724942434
425.0, 0.03820788127010522
426.0, 0.03790830767830395
427.0, 0.03474120726481067
428.0, 0.03426778664756549
429.0, 0.03184538779225933
430.0, 0.028790303367082232
431.0, 0.027796374665142322
432.0, 0.029050342424064117
433.0, 0.030161649945225313
434.0, 0.027521780961049673
435.0, 0.026107799550031015
436.0, 0.027479937041541294
437.0, 0.02858643987531244
438.0, 0.02768900634474452
439.0, 0.03069706473934434
440.0, 0.030856759688486345
441.0, 0.02858591324187683
442.0, 0.02636722929314572
443.0, 0.025944430593176745
444.0, 0.02907179728907428
445.0, 0.029809272075674957
446.0, 0.028226807257522205
447.0, 0.026858180390031527
448.0, 0.025787345953738845
449.0, 0.023070717964814417
450.0, 0.018714860563686174
451.0, 0.013307011450589393
452.0, 0.01095499367517662
453.0, 0.010672989495597597
454.0, 0.00893818961434605
455.0, 0.006302807107117858
456.0, 0.0024105698769300897
457.0, 0.00011577889621741086
458.0, 0.0001317167340089329
459.0, 0.001107386291102146
460.0, 0.00024367799408721075
461.0, 0.0013051664063766222
462.0, 0.0027976462140103992
463.0, 0.0028841130373168577
464.0, 0.003129978091433787
465.0, 0.005710676406273906
466.0, 0.006448761765100316
467.0, 0.006882949432581317
468.0, 0.009086090173297185
469.0, 0.012711875477357361
470.0, 0.015855238224864825
471.0, 0.016343026460436536
472.0, 0.021084333321065175
473.0, 0.02378768724848183
474.0, 0.02650605031824909
475.0, 0.0321655250680247
476.0, 0.0369671638901845
477.0, 0.04100893953789258
478.0, 0.04548430503513732
479.0, 0.04834035046212249
480.0, 0.05104843538511869
481.0, 0.05617533972994123
482.0, 0.05840292961237378
483.0, 0.0561398166681271
484.0, 0.05471701317177929
485.0, 0.0524781167291608
486.0, 0.046761301859938764
487.0, 0.03944149360401034
488.0, 0.03099575841607531
489.0, 0.025302521176494404
490.0, 0.021630604856185967
491.0, 0.017916524643114093
492.0, 0.013418889665561463
493.0, 0.010021283846983309
494.0, 0.00841080639639381
495.0, 0.007552764738492316
496.0, 0.005385486694682251
497.0, 0.003237929028747815
498.0, 0.003144461793984772
499.0, 0.0012081389640818466
500.0, 0.00029544610259641654
501.0, 0.0005405849308743422
502.0, 0.00011396332640927607
503.0, 0.0007185738419815784
504.0, 0.0002667316223497309
505.0, 0.00020583275562442428
506.0, 0.0005250430962330322
507.0, 0.0010441653328564797
508.0, 0.0006454916711794917
509.0, 0.0019803234333096798
510.0, 0.0016302051233615172
511.0, 0.00010472359641477231
512.0, 2.4075322296810553e-05
513.0, 0.0012177056348517254
514.0, 0.0034352361404082436
515.0, 0.0024111593132458706
516.0, 0.0023148857070706855
517.0, 0.002214082585981673
518.0, 0.0034546738762652267
519.0, 0.004020269910070056
520.0, 0.0027363606259571192
521.0, 0.0048598177021371
522.0, 0.005374978187501393
523.0, 0.005402643332324409
524.0, 0.006524218687954077
525.0, 0.008510716113729395
526.0, 0.009903346024429324
527.0, 0.010698900537198443
528.0, 0.013618951339338872
529.0, 0.016812859222940083
530.0, 0.01778430566645562
531.0, 0.01809653096509616
532.0, 0.0212937326340824
533.0, 0.020597079369737318
534.0, 0.021483290854436083
535.0, 0.023019022895654547
536.0, 0.022924428753689385
537.0, 0.020203518650496827
538.0, 0.01566427666461118
539.0, 0.013625955248259899
540.0, 0.010511910252443026
541.0, 0.008302585462170638
542.0, 0.007577303990401597
543.0, 0.006145807239918762
544.0, 0.0030332347554537955
545.0, 0.004890182570575634
546.0, 0.004136345821170341
547.0, 0.003588590772527126
548.0, 0.004516112059506999
549.0, 0.0040225406252217405
550.0, 0.002409238754627318
551.0, 0.003795204672185404
552.0, 0.004278680780744794
553.0, 0.00360947298280166
554.0, 0.00309448864862271
555.0, 0.0032491797267361847
556.0, 0.002628321307268021
557.0, 0.0025546031718112097
558.0, 0.002478487921170654
559.0, 0.002556137135454483
560.0, 0.002407246492338294
561.0, 0.0014598872128329273
562.0, 0.0005397613543706726
563.0, 0.0013827436054928265
564.0, 0.0017903417522529134
565.0, 0.0019616904721936525
566.0, 0.002055995128628989
567.0, 0.00016925266844544754
568.0, 0.0003738937091151569
569.0, 0.0012436773244317776
570.0, 0.0009851235203465537
571.0, 0.0005491542961287297
572.0, 0.00112774347411462
573.0, 0.0015362938930245608
574.0, 0.0009053268911589556
575.0, 0.0010964614094431428
576.0, 0.00032646396028025503
577.0, 0.0008188246303026392
578.0, 0.0003958994721063831
579.0, 0.0025700915450650387
580.0, 0.0008611973323070414
581.0, 0.0013208603773279203
582.0, 0.0009594450152726533
583.0, 0.0008180302646557221
584.0, 0.0012214681448741251
585.0, 0.0007064277342331393
586.0, 0.0014490787443956308
587.0, 0.0014024921887468322
588.0, 0.001198116645445772
589.0, 0.003190081235710883
590.0, 0.00431841692533333
591.0, 0.00035312474932351287
592.0, 0.005340413502857218
593.0, 0.0029721422779987374
594.0, 0.003199600935856033
595.0, 0.0038322771732997906
596.0, 0.0021864991062542946
597.0, 0.0027269808897691034
598.0, 0.0025162987494690573
599.0, 0.001732354321721533
600.0, 0.0021302966266440815
601.0, 0.001997366967716756
602.0, 0.0007683692315555101
603.0, 5.6126420523120074e-05
604.0, 0.0005148984570090454
605.0, 0.0020087880445399885
606.0, 0.0025329676838432673
607.0, 0.0015368315021528826
608.0, 0.00023983981127605864
609.0, 0.0004930138608074976
610.0, 0.0020000899917798614
611.0, 0.0016927089646030804
612.0, 0.00267072730730769
613.0, 0.004360730272739357
614.0, 0.004073740205682175
615.0, 0.0016767919195077522
616.0, 0.00032918917672813996
617.0, 0.0001756919912274307
618.0, 0.0010942513255023886
619.0, 0.0024267017273235936
620.0, 0.00274040689730356
621.0, 0.0015235235179980075
622.0, 0.0006293396074095102
623.0, 0.002689249298537784
624.0, 0.003923197910598915
625.0, 0.0020266729553555505
626.0, 0.00019882428403039592
627.0, 0.00047445672908873703
628.0, 0.0022687665515423814
629.0, 0.0017858051657782324
630.0, 0.0031272597345922393
631.0, 0.0027955355459973043
632.0, 0.0023178504546443827
633.0, 0.0022296422601756852
634.0, 0.002080905657184596
635.0, 0.0028450176826866885
636.0, 0.0028263446424862068
637.0, 0.0016504553583310995
638.0, 0.002461941291901894
639.0, 0.0028786180187021487
640.0, 0.002024097511996746
641.0, 0.002543377062201161
642.0, 0.003528376509286943
643.0, 0.0023784556467707687
644.0, 0.0035223542578945418
645.0, 0.00257075067733456
646.0, 0.0008085533024390635
647.0, 0.0023266020480324657
648.0, 0.003108689072027675
649.0, 0.0016927842797205502
650.0, 0.0016506385413239887
651.0, 0.0020437961562417926
652.0, 0.0015019985521749664
653.0, 0.0013493129108463444
654.0, 0.0029550390678981728
655.0, 0.0018191701572183071
656.0, 0.0024387643712946235
657.0, 0.002264547934696955
658.0, 0.0028730393303902407
659.0, 0.0032453360163073965
660.0, 0.002006444107237254
661.0, 0.002769318564856795
662.0, 0.0031428359055344184
663.0, 0.0030677237558955203
664.0, 0.004281441179036081
665.0, 0.004479533601821782
666.0, 0.0024229022390154595
667.0, 0.0007495630128034483
668.0, 0.0007652559443549213
669.0, 0.0013843198786469557
670.0, 0.0023903989110412634
671.0, 0.00207967629322552
672.0, 0.0011402422770261048
673.0, 0.00173207338166315
674.0, 0.0038041679625623287
675.0, 0.002814328438634931
676.0, 0.0006734753860998368
677.0, 0.0006584416708844499
678.0, 0.0023538328778590118
679.0, 0.0026224924073671445
680.0, 0.0006621033352411875
681.0, 0.0021234304963021716
682.0, 0.00281881510006133
683.0, 0.002839444425281409
684.0, 0.002732524730540372
685.0, 0.002173521694710197
686.0, 0.001489306253858008
687.0, 0.0016802459429999402
688.0, 0.0025167644770504338
689.0, 0.004380619934522501
690.0, 0.00381466615361386
691.0, 0.0017946031995161346
692.0, 0.0010886543201210634
693.0, 0.0018595740390814758
694.0, 0.001647491943127412
695.0, 0.00269599535328384
696.0, 0.0018262056033308545
697.0, 0.0007054745242506789
698.0, 0.0012105498078249157
699.0, 0.0011364587701563475
700.0, 0.00032969861439017666
701.0, 0.0009631412339962382
702.0, 0.0012037356673715886
703.0, 0.001090542168051798
704.0, 0.0005122870396758971
705.0, 0.00025795914844261984
706.0, 0.0002883611406562645
707.0, 0.0018744534917174956
708.0, 0.0024269005087311914
709.0, 0.0005909569061628381
710.0, 0.00020864789141819383
711.0, 0.0003282938321810591
712.0, 0.0009013308737774831
713.0, 0.001191757372398855
714.0, 0.00044852229030227405
715.0, 0.00017115784582648482
716.0, 0.0019174562698605687
717.0, 0.00022925305839707565
718.0, 0.0005304707669017381
719.0, 0.0011575728316940504
720.0, 0.0010601308656292313
721.0, 0.0003659587604571415
722.0, 0.0013349985012034808
723.0, 0.00118168769136723
724.0, 0.0015593667220682042
725.0, 0.0008461631191125862
726.0, 0.0001026489934219064
727.0, 0.0008173370273777873
728.0, 0.0009605492524962727
729.0, 0.0020358154324876965
730.0, 0.0025080394444514697
731.0, 0.0008218240282227001
732.0, 6.870242801906542e-05
733.0, 9.643223761069571e-05
734.0, 0.0004297309670613629
735.0, 0.0008366447165604969
736.0, 0.0007004797700113859
737.0, 0.0012479895419600698
738.0, 0.00024384573031830428
739.0, 0.00025723815494334946
740.0, 5.858529078948728e-05
741.0, 0.000609565898594573
742.0, 0.0005623009067504657
743.0, 0.0016853181457194305
744.0, 0.0004356523731859959
745.0, 0.002769325580375978
746.0, 0.0013280685646646735
747.0, 3.0372400386451048e-05
748.0, 6.072318178986388e-05
749.0, 0.00048280062775957346
750.0, 0.001308062052196942
751.0, 0.00031717271044521774
752.0, 0.0017868002298051916
753.0, 0.00046832766151868043
754.0, 0.0005463400054577257
755.0, 0.0026556274205705842
756.0, 0.0023352882074168814
757.0, 0.0014285966273046408
758.0, 0.005827943237332015
759.0, 0.0046327096329798895
760.0, 0.0047276458144890525
761.0, 0.0058607634621903335
762.0, 0.0073937173129438195
763.0, 0.010223798855503057
764.0, 0.012392420007710922
765.0, 0.012103935718633331
766.0, 0.014194596352268494
767.0, 0.017438048489833994
768.0, 0.018304889962367416
769.0, 0.01953675013107767
770.0, 0.022211330953429448
771.0, 0.02546145424179668
772.0, 0.02869909491000557
773.0, 0.032211652760493786
774.0, 0.03491825654745509
775.0, 0.04024777293820566
776.0, 0.04182259683582575
777.0, 0.045090125563768846
778.0, 0.05111640444944637
779.0, 0.05210486796581942
780.0, 0.04647849534659839
781.0, 0.048943807272081995
782.0, 0.04667703510048549
783.0, 0.04299074231290919
784.0, 0.03997398191856518
785.0, 0.03792568910855802
786.0, 0.03456394002279748
787.0, 0.03179381425322108
788.0, 0.03343923322489379
789.0, 0.03204819420066382
790.0, 0.03177027975752362
791.0, 0.03340997509961647
792.0, 0.03471508931321088
793.0, 0.034962852261695015
794.0, 0.0377068203171079
795.0, 0.044674718584876344
796.0, 0.0520687923674465
797.0, 0.059588857075730105
798.0, 0.0698930216853401
799.0, 0.08246644819885046
800.0, 0.09443666289531356
801.0, 0.1068834725034322
802.0, 0.12193001664486504
803.0, 0.1391196066459233
804.0, 0.15918280518109174
805.0, 0.18632325406255276
806.0, 0.21542937548388336
807.0, 0.2502956837379164
808.0, 0.28799545093130274
809.0, 0.32532648202100545
810.0, 0.36011204924695966
811.0, 0.3874884008921018
812.0, 0.3976534641481073
813.0, 0.40828832935931
814.0, 0.4167873995040204
815.0, 0.4234183211623755
816.0, 0.448294575873016
817.0, 0.49645902864911107
818.0, 0.5609125762633002
819.0, 0.6383372587982299
820.0, 0.7230307956570868
821.0, 0.7864826643368737
822.0, 0.8186665066859332
823.0, 0.794633092328193
824.0, 0.7375004410498204
825.0, 0.6803958179634921
826.0, 0.6445978122227932
827.0, 0.6419938138169159
828.0, 0.6798228096742178
829.0, 0.7586787561088884
830.0, 0.8627835217145817
831.0, 0.9635582907722763
832.0, 0.9997096705650704
833.0, 0.9107542332287266
834.0, 0.7200268749210231
835.0, 0.5120046680535186
836.0, 0.35054659274886135
837.0, 0.24856741398457652
838.0, 0.18489276510333028
839.0, 0.1421523134027937
840.0, 0.11234391188391414
841.0, 0.0920637163011156
842.0, 0.0769087928531306
843.0, 0.06447376430955619
844.0, 0.05665227024002436
845.0, 0.05183183797378111
846.0, 0.046948263627019766
847.0, 0.04172038565739185
848.0, 0.036648859528043774
849.0, 0.030895664207860107
850.0, 0.025487393782996255
851.0, 0.022392199020136172
852.0, 0.021245934820571986
853.0, 0.01951329680437493
854.0, 0.01806313165138506
855.0, 0.01715611872927287
856.0, 0.01731230585127232
857.0, 0.015488820862117612
858.0, 0.01427006393320993
859.0, 0.014354290930971724
860.0, 0.013211326313082047
861.0, 0.012217832397426747
862.0, 0.010678757301925888
863.0, 0.011214243641434517
864.0, 0.011556590470389273
865.0, 0.010782362039075736
866.0, 0.00948738094633029
867.0, 0.007973722402548587
868.0, 0.006895952381654036
869.0, 0.006756316253951762
870.0, 0.006461347442402925
871.0, 0.00561624417335846
872.0, 0.004363649674485953
873.0, 0.0033438390579810665
874.0, 0.0027702781710696447
875.0, 0.002456467643760412
876.0, 0.0019870810727819115
877.0, 0.0012033691064007896
878.0, 0.0004667270240240006
879.0, 0.00032971109121104154
880.0, 0.001170636715877524
881.0, 0.0005524247961999241
882.0, 0.0003763921991194725
883.0, 0.00043393270490655234
884.0, 0.000532311398151281
885.0, 0.0008904214337223925
886.0, 0.002324778305915678
887.0, 0.0031046308465329125
888.0, 0.00265789189993137
889.0, 0.0005679163505513938
890.0, 0.0002457296878594194
891.0, 0.00039372729197751196
892.0, 0.00227434943027798
893.0, 0.0011248963242693809
894.0, 0.0006047843116046481
895.0, 0.0014381281436275288
896.0, 0.0003092246189577679
897.0, 0.001419258768184682
898.0, 0.0003891757294748652
899.0, 0.0008273255167285943
900.0, 0.000453477313990431
901.0, 0.0005317142446409943
902.0, 0.001837530240749058
903.0, 0.0025426667539773028
904.0, 0.0017309080903260654
905.0, 0.0013949202085476186
906.0, 0.002728264133132043
907.0, 0.001168438072349286
908.0, 0.0016409833591273675
909.0, 0.0021144085493596705
910.0, 0.0016871311924592004
911.0, 0.00241719565365063
912.0, 0.0033288839407486937
913.0, 0.0032703176377548117
914.0, 0.0026520962560564127
915.0, 0.001269557895754495
916.0, 0.0022738288579022916
917.0, 0.004076185826290097
918.0, 0.004422511250627195
919.0, 0.00477861733080829
920.0, 0.00390052267578183
921.0, 0.003113998673009925
922.0, 0.0038636155659484885
923.0, 0.003823465901099838
924.0, 0.0018916939401094595
925.0, 0.003242483469647495
926.0, 0.0025322225548098354
927.0, 0.0031184487523711456
928.0, 0.0036057130694610007
929.0, 0.0019938806395921344
930.0, 0.0009861546039227893
931.0, 0.002596575248381788
932.0, 0.004285436875403376
933.0, 0.0038242834702282985
934.0, 0.003745250457471865
935.0, 0.003319374087228252
936.0, 0.0032955048542820326
937.0, 0.0038220512199126826
938.0, 0.0011921123377643802
939.0, 0.002289472368937612
940.0, 0.003467943097788317
941.0, 0.003031758485090914
942.0, 0.0035715852590921687
943.0, 0.0029483068586320335
944.0, 0.0033286425587971155
945.0, 0.005048033816642563
946.0, 0.0032094782294602624
947.0, 0.0016431015663408543
948.0, 0.0014696975232131558
949.0, 0.0013607416075698453
950.0, 0.0011795190356945382
951.0, 0.0006368754803720485
952.0, 0.0008995587513612212
953.0, 0.002172513594571318
954.0, 0.0002089730961810154
955.0, 0.0001726547052110933
956.0, 0.00023256988728256786
957.0, 0.0013948947931746436
958.0, 0.001012342622120073
959.0, 0.0010546989386778724
960.0, 0.0012164287261359488
961.0, 0.0010270852049543999
962.0, 0.0015010765782861378
963.0, 0.0022408524298898553
964.0, 0.0018640190301070314
965.0, 0.001406564852176746
966.0, 0.00018124747717107324
967.0, 0.0012122291385362038
968.0, 0.0006057600859812194
969.0, 0.001356022165305205
970.0, 0.000723171997563466
971.0, 0.0011469696148960853
972.0, 0.0006953133023300508
973.0, 0.0017015856731809058
974.0, 0.0023389182473994336
975.0, 0.002126530473763007
976.0, 0.0030975873132050922
977.0, 0.0026139205685285108
978.0, 0.0011909964896384408
979.0, 0.0022389280880502948
980.0, 0.0019021798844386958
981.0, 0.0006496367405828354
982.0, 9.645935293554236e-05
983.0, 7.746101101572874e-05
984.0, 0.0010228350728023138
985.0, 0.0021089278788083946
986.0, 0.002522436028150935
987.0, 0.0026293923783373974
988.0, 0.001153977328968435
989.0, 0.00023096072681894772
990.0, 0.0008407148915036756
991.0, 0.0024435950049432114
992.0, 0.002236282287235215
993.0, 0.0012266297917666725
994.0, 0.0019310203008029094
995.0, 0.0022768909286939617
996.0, 0.0031307006661561066
997.0, 0.0030811030798713053
998.0, 0.0031283841371097525
999.0, 0.002581094751688501
1000.0, 0.001457122684783464
1001.0, 0.0015714576500262339
1002.0, 0.002748183847235004
1003.0, 0.0032174386181730605
1004.0, 0.0031971862493883076
1005.0, 0.003754910042942779
1006.0, 0.003710357324110256
1007.0, 0.0024006539379095547
1008.0, 0.002770015240623198
1009.0, 0.0026890332330803835
1010.0, 0.001716576950090843
1011.0, 0.0030224308469154852
1012.0, 0.0033217502763239174
1013.0, 0.0015342768224754825
1014.0, 0.00015837494874634583
1015.0, 0.0013861843506280604
1016.0, 0.00321775404607785
1017.0, 0.0034843238321320713
1018.0, 0.0036725752260251213
1019.0, 0.002556237532315671
1020.0, 0.001992972050195435
1021.0, 0.0026096119245333227
1022.0, 0.0026170703211199154
1023.0, 0.002173771288006139
1024.0, 0.002898762608000548
1025.0, 0.004163258031244197
1026.0, 0.003586462823295045
1027.0, 0.002641527324762691
1028.0, 0.0034292020928808815
1029.0, 0.002480100247483942
1030.0, 0.002686709363414224
1031.0, 0.002310775268571385
1032.0, 0.0024059875171922383
1033.0, 0.0029813807104725307
1034.0, 0.0009572479125720674
1035.0, 0.0020107769023243686
1036.0, 0.003148182962643924
1037.0, 0.003675087391149693
1038.0, 0.0032827359733497282
1039.0, 0.0027204542670801806
1040.0, 0.004557398716835152
1041.0, 0.0014378294366196634
1042.0, 0.0036634396109463344
1043.0, 0.004786757540809215
1044.0, 0.0037498015735673886
1045.0, 0.0034553255416877996
1046.0, 0.0032760607979770333
1047.0, 0.0032063825746939775
1048.0, 0.003699868663371198
1049.0, 0.002812456103175358
1050.0, 0.001974577760023193
1051.0, 0.0031492485561799627
1052.0, 0.0033112259125287146
1053.0, 0.0014312394867766229
1054.0, 0.0035792462885774093
1055.0, 0.0031955616512431484
1056.0, 0.004160713370415944
1057.0, 0.0036134952556790547
1058.0, 0.0034727424292469032
1059.0, 0.005351832978495628
1060.0, 0.003593802973678458
1061.0, 0.0018013951759441081
1062.0, 0.0013056712710233496
1063.0, 0.00170150707495989
1064.0, 0.003111482542361163
1065.0, 0.0037620169932863373
1066.0, 0.003271753613787242
1067.0, 0.0026315362988230217
1068.0, 0.00035582133539291394
1069.0, 0.002673933359459335
1070.0, 0.002424701277128411
1071.0, 0.0027458665833695562
1072.0, 0.003301894585860102
1073.0, 0.00153827986728383
1074.0, 0.00022770345208947013
1075.0, 0.0014833764611361603
1076.0, 0.002216408286095845
1077.0, 0.0010471313469722168
1078.0, 0.00039300457109774724
1079.0, 0.0007493327141567942
1080.0, 0.0022615628514593166
1081.0, 0.0016966353488754816
1082.0, 0.0011653500218534447
1083.0, 0.0020017355578713448
1084.0, 0.0028999800115248973
1085.0, 0.001577692253661407
1086.0, 0.0013548175968998905
1087.0, 0.0011355457287185369
1088.0, 0.0015751438094841308
1089.0, 0.0013473444349597883
1090.0, 0.0006894859877347388
1091.0, 0.0012313402135545918
1092.0, 0.0002498409106376321
1093.0, 0.001216933424554025
1094.0, 0.0012538547811083243
1095.0, 0.0007847186822765529
1096.0, 0.0025917439031144136
1097.0, 0.0025032376589056928
1098.0, 0.0010676234786661629
1099.0, 0.00014803132418060293
1100.0, 0.0001552872638213486
1101.0, 0.00037528141225661447
1102.0, 0.001901584008195202
1103.0, 0.0024007911210774447
1104.0, 0.0010969915103526656
1105.0, 8.057369037301143e-05
1106.0, 1.814998073675491e-05
1107.0, 0.0006208093134207695
1108.0, 0.002922178445595623
1109.0, 0.001738516011189439
1110.0, 8.265192189733739e-05
1111.0, 0.002055788117150911
1112.0, 0.002592797384407861
1113.0, 0.003720617514962418
1114.0, 0.0027712968153945855
1115.0, 0.0020066735147182195
1116.0, 0.0016862682483342153
1117.0, 0.00026260443829891165
1118.0, 0.0002625245378089423
1119.0, 0.0015514403052701948
1120.0, 0.00023034025332687857
1121.0, 0.0002303508906831288
1122.0, 0.002103114695520633
1123.0, 0.001264558769867753
1124.0, 0.00197470784680493
1125.0, 0.0015028932601220788
1126.0, 0.0009181448014093489
1127.0, 0.00044699529869208175
1128.0, 0.0017934936035116627
1129.0, 0.0027065610091278136
1130.0, 0.002789006046151541
1131.0, 0.0006383996008994468
1132.0, 0.0008755744969253078
1133.0, 0.002560121267302341
1134.0, 0.0011333933173186532
1135.0, 0.0002241976052920915
1136.0, 0.0007002710859482677
1137.0, 0.0001513148319368639
1138.0, 0.00046510070016878116
1139.0, 0.002266533666397122
1140.0, 0.0016975583745491853
1141.0, 0.0017390229986957407
1142.0, 0.0016990939201435768
1143.0, 0.0003805990884850468
1144.0, 0.0003470208874939013
1145.0, 0.000896890291902925
1146.0, 0.0017865526187069184
1147.0, 0.002948151882221594
1148.0, 0.0022683632407534595
1149.0, 0.001737896670323162
1150.0, 0.0014480527375139052
1151.0, 0.00028921494961153837
1152.0, 0.0022660016027154944
1153.0, 0.003621115471272721
1154.0, 0.0015538131054224948
1155.0, 0.0003147001406785966
1156.0, 0.001629690338239193
1157.0, 0.002490317961277083
1158.0, 0.0012546440480888557
1159.0, 0.0002930068824844993
1160.0, 0.0008772366917412845
1161.0, 0.001212955714166504
1162.0, 0.0015475929889719117
1163.0, 0.0036289782861222315
1164.0, 0.004323476892177371
1165.0, 0.0028928138557224093
1166.0, 0.0018170312120043967
1167.0, 0.0017718166731866003
1168.0, 0.0010273447848166617
1169.0, 0.0002831194548227446
1170.0, 0.002725493127066433
1171.0, 0.0018544071452806842
1172.0, 0.002320430558365657
1173.0, 0.001760979141836495
1174.0, 0.0023144601887640135
1175.0, 0.002624852732093362
1176.0, 0.002044062224644221
1177.0, 0.0016440898668911095
1178.0, 0.002949568484537454
1179.0, 0.002993521207009716
1180.0, 0.0025892914583547626
1181.0, 0.0010564190113600187
1182.0, 0.001085439521866069
1183.0, 0.0026892644839147666
1184.0, 0.0034149577691056747
1185.0, 0.0023597892985233984
1186.0, 0.0008782296922631269
1187.0, 0.0013758178796931838
1188.0, 0.0006816673849811137
1189.0, 0.0027778311903024037
1190.0, 0.0009391678098830038
1191.0, 0.0019160888569353094
1192.0, 0.0009919505500647114
1193.0, 0.0003122375648646488
1194.0, 0.003005978327080755
1195.0, 0.0007641981279827628
1196.0, 0.0020039020092086036
1197.0, 0.004108337755037429
1198.0, 0.002958929134664483
1199.0, 0.0027001297975287717
1200.0, 0.0019893414394915924
1201.0, 0.0009072658681286157
1202.0, 0.0017675903599145592
1203.0, 0.002288680662234464
1204.0, 0.0021392409607411318
1205.0, 0.0031617463974586493
1206.0, 0.001967073048027235
1207.0, 0.0004047740566258617
1208.0, 0.001697452818825848
1209.0, 0.0020065224029075486
1210.0, 0.004427649237718649
1211.0, 0.003782918248316677
1212.0, 0.0004226731916851409
1213.0, 0.0025614751907254577
1214.0, 0.0027574362449278344
1215.0, 0.0005060145014066544
1216.0, 0.0005018160354186502
1217.0, 0.0024007813116823234
1218.0, 0.002134844231048125
1219.0, 0.00154139157495356
1220.0, 0.0005000279602668289
1221.0, 0.0005413470699778846
1222.0, 0.001778177507328807
1223.0, 0.002423304476874172
1224.0, 0.0024039108054260097
1225.0, 0.0012191285989033346
1226.0, 0.0011490497221863527
1227.0, 0.001752344517850892
1228.0, 0.0008036566726258092
1229.0, 0.001990273829471972
1230.0, 0.0012495561554196877
1231.0, 0.0005400659137587395
1232.0, 0.0005447263064630929
1233.0, 0.0011376437695570078
1234.0, 0.0017291704853343982
1235.0, 0.0020523118036928803
1236.0, 0.0017057383452927764
1237.0, 0.0021882504787202398
1238.0, 0.0033575991730449544
1239.0, 0.004755709452784512
1240.0, 0.0038942282640153777
1241.0, 0.0003409780500612909
1242.0, 0.0010945372383156001
1243.0, 0.0020052403743207273
1244.0, 0.00215507998320636
1245.0, 0.0018489026695800589
1246.0, 0.0007960236716551102
1247.0, 0.0018935432627884036
1248.0, 0.0026148001007093714
1249.0, 0.001605424408346235
1250.0, 0.0013391883855254898
1251.0, 0.0011439599028794378
1252.0, 0.0018240332524388741
1253.0, 0.0021039240229748773
1254.0, 0.001008213601957657
1255.0, 0.0026515781845212276
1256.0, 0.0021738177953604183
1257.0, 0.0029440241778060055
1258.0, 0.0015898899571242906
1259.0, 0.0010820411861169996
1260.0, 0.0012809439330202818
1261.0, 0.0018216661860702785
1262.0, 0.0019627947903427005
1263.0, 0.0013572368782244202
1264.0, 0.0004272281575064393
1265.0, 0.0004111624787490875
1266.0, 0.002140552164423711
1267.0, 0.0021269247678151093
1268.0, 0.0007515568548470081
1269.0, 0.0013018098662637765
1270.0, 0.0023520879896032597
1271.0, 0.0020294314770312677
1272.0, 0.0027005576546826394
1273.0, 0.002452550071105657
1274.0, 0.0017933016570396518
1275.0, 0.002085367003906281
1276.0, 0.001242124072502941
1277.0, 0.0025334533970704587
1278.0, 0.0014536357756471544
1279.0, 0.001487907044119929
1280.0, 0.0029079606525685784
1281.0, 7.043015518854588e-05
1282.0, 0.0007022521124767063
1283.0, 0.002087653151492784
1284.0, 0.0010541186907685144
1285.0, 0.00019235728818211138
1286, 0.0
1287, 0.0
1288, 0.0
1289, 0.0
1290, 0.0
1291, 0.0
1292, 0.0
1293, 0.0
1294, 0.0
1295, 0.0
1296, 0.0
1297, 0.0
1298, 0.0
1299, 0.0
1300, 0.0
1301, 0.0
1302, 0.0
1303, 0.0
1304, 0.0
1305, 0.0
1306, 0.0
1307, 0.0
1308, 0.0
1309, 0.0
1310, 0.0
1311, 0.0
1312, 0.0
1313, 0.0
1314, 0.0
1315, 0.0
1316, 0.0
1317, 0.0
1318, 0.0
1319, 0.0
1320, 0.0
1321, 0.0
1322, 0.0
1323, 0.0
1324, 0.0
1325, 0.0
1326, 0.0
1327, 0.0
1328, 0.0
1329, 0.0
1330, 0.0
1331, 0.0
1332, 0.0
1333, 0.0
1334, 0.0
1335, 0.0
1336, 0.0
1337, 0.0
1338, 0.0
1339, 0.0
1340, 0.0
1341, 0.0
1342, 0.0
1343, 0.0
1344, 0.0
1345, 0.0
1346, 0.0
1347, 0.0
1348, 0.0
1349, 0.0
1350, 0.0
1351, 0.0
1352, 0.0
1353, 0.0
1354, 0.0
1355, 0.0
1356, 0.0
1357, 0.0
1358, 0.0
1359, 0.0
1360, 0.0
1361, 0.0
1362, 0.0
1363, 0.0
1364, 0.0
1365, 0.0
1366, 0.0
1367, 0.0
1368, 0.0
1369, 0.0
1370, 0.0
1371, 0.0
1372, 0.0
1373, 0.0
1374, 0.0
1375, 0.0
1376, 0.0
1377, 0.0
1378, 0.0
1379, 0.0
1380, 0.0
1381, 0.0
1382, 0.0
1383, 0.0
1384, 0.0
1385, 0.0
1386, 0.0
1387, 0.0
1388, 0.0
1389, 0.0
1390, 0.0
1391, 0.0
1392, 0.0
1393, 0.0
1394, 0.0
1395, 0.0
1396, 0.0
1397, 0.0
1398, 0.0
1399, 0.0
1400, 0.0
1401, 0.0
1402, 0.0
1403, 0.0
1404, 0.0
1405, 0.0
1406, 0.0
1407, 0.0
1408, 0.0
1409, 0.0
1410, 0.0
1411, 0.0
1412, 0.0
1413, 0.0
1414, 0.0
1415, 0.0
1416, 0.0
1417, 0.0
1418, 0.0
1419, 0.0
1420, 0.0
1421, 0.0
1422, 0.0
1423, 0.0
1424, 0.0
1425, 0.0
1426, 0.0
1427, 0.0
1428, 0.0
1429, 0.0
1430, 0.0
1431, 0.0
1432, 0.0
1433, 0.0
1434, 0.0
1435, 0.0
1436, 0.0
1437, 0.0
1438, 0.0
1439, 0.0
1440, 0.0
1441, 0.0
1442, 0.0
1443, 0.0
1444, 0.0
1445, 0.0
1446, 0.0
1447, 0.0
1448, 0.0
1449, 0.0
1450, 0.0
1451, 0.0
1452, 0.0
1453, 0.0
1454, 0.0
1455, 0.0
1456, 0.0
1457, 0.0
1458, 0.0
1459, 0.0
1460, 0.0
1461, 0.0
1462, 0.0
1463, 0.0
1464, 0.0
1465, 0.0
1466, 0.0
1467, 0.0
1468, 0.0
1469, 0.0
1470, 0.0
1471, 0.0
1472, 0.0
1473, 0.0
1474, 0.0
1475, 0.0
1476, 0.0
1477, 0.0
1478, 0.0
1479, 0.0
1480, 0.0
1481, 0.0
1482, 0.0
1483, 0.0
1484, 0.0
1485, 0.0
1486, 0.0
1487, 0.0
1488, 0.0
1489, 0.0
1490, 0.0
1491, 0.0
1492, 0.0
1493, 0.0
1494, 0.0
1495, 0.0
1496, 0.0
1497, 0.0
1498, 0.0
1499, 0.0
1500, 0.0
1501, 0.0
1502, 0.0
1503, 0.0
1504, 0.0
1505, 0.0
1506, 0.0
1507, 0.0
1508, 0.0
1509, 0.0
1510, 0.0
1511, 0.0
1512, 0.0
1513, 0.0
1514, 0.0
1515, 0.0
1516, 0.0
1517, 0.0
1518, 0.0
1519, 0.0
1520, 0.0
1521, 0.0
1522, 0.0
1523, 0.0
1524, 0.0
1525, 0.0
1526, 0.0
1527, 0.0
1528, 0.0
1529, 0.0
1530, 0.0
1531, 0.0
1532, 0.0
1533, 0.0
1534, 0.0
1535, 0.0
1536, 0.0
1537, 0.0
1538, 0.0
1539, 0.0
1540, 0.0
1541, 0.0
1542, 0.0
1543, 0.0
1544, 0.0
1545, 0.0
1546, 0.0
1547, 0.0
1548, 0.0
1549, 0.0
1550, 0.0
1551, 0.0
1552, 0.0
1553, 0.0
1554, 0.0
1555, 0.0
1556, 0.0
1557, 0.0
1558, 0.0
1559, 0.0
1560, 0.0
1561, 0.0
1562, 0.0
1563, 0.0
1564, 0.0
1565, 0.0
1566, 0.0
1567, 0.0
1568, 0.0
1569, 0.0
1570, 0.0
1571, 0.0
1572, 0.0
1573, 0.0
1574, 0.0
1575, 0.0
1576, 0.0
1577, 0.0
1578, 0.0
1579, 0.0
1580, 0.0
1581, 0.0
1582, 0.0
1583, 0.0
1584, 0.0
1585, 0.0
1586, 0.0
1587, 0.0
1588, 0.0
1589, 0.0
1590, 0.0
1591, 0.0
1592, 0.0
1593, 0.0
1594, 0.0
1595, 0.0
1596, 0.0
1597, 0.0
1598, 0.0
1599, 0.0
