30, 0.0
31, 0.0
32, 0.0
33, 0.0
34, 0.0
35, 0.0
36, 0.0
37, 0.0
38, 0.0
39, 0.0
40, 0.0
41, 0.0
42, 0.0
43, 0.0
44, 0.0
45, 0.0
46, 0.0
47, 0.0
48, 0.0
49, 0.0
50, 0.0
51, 0.0
52, 0.0
53, 0.0
54, 0.0
55, 0.0
56, 0.0
57, 0.0
58, 0.0
59, 0.0
60, 0.0
61, 0.0
62, 0.0
63, 0.0
64, 0.0
65, 0.0
66, 0.0
67, 0.0
68, 0.0
69, 0.0
70, 0.0
71, 0.0
72, 0.0
73, 0.0
74, 0.0
75, 0.0
76, 0.0
77, 0.0
78, 0.0
79, 0.0
80, 0.0
81, 0.0
82, 0.0
83, 0.0
84, 0.0
85, 0.0
86, 0.0
87, 0.0
88, 0.0
89, 0.0
90, 0.0
91, 0.0
92, 0.0
93, 0.0
94, 0.0
95, 0.0
96, 0.0
97, 0.0
98, 0.0
99, 0.0
100, 0.0
101, 0.0
102, 0.0
103, 0.0
104, 0.0
105, 0.0
106, 0.0
107, 0.0
108, 0.0
109, 0.0
110, 0.0
111, 0.0
112, 0.0
113, 0.0
114, 0.0
115, 0.0
116, 0.0
117, 0.0
118, 0.0
119, 0.0
120, 0.0
121, 0.0
122, 0.0
123, 0.0
124, 0.0
125, 0.0
126, 0.0
127, 0.0
128, 0.0
129, 0.0
130, 0.0
131, 0.0
132, 0.0
133, 0.0
134, 0.0
135, 0.0
136, 0.0
137, 0.0
138, 0.0
139, 0.0
140, 0.0
141, 0.0
142, 0.0
143, 0.0
144.0, 5.5897786460194844e-05
145.0, 0.0017773575099483516
146.0, 0.0071326680204683995
147.0, 0.01054778124677016
148.0, 0.0248820196806266
149.0, 0.03840318132796655
150.0, 0.05044864182023011
151.0, 0.06312329876610606
152.0, 0.07734818903870284
153.0, 0.0911870263375213
154.0, 0.10225838964252298
155.0, 0.10973399812966993
156.0, 0.1141999387056641
157.0, 0.10925028627791712
158.0, 0.10310409666790454
159.0, 0.10046237215692448
160.0, 0.10024590684039354
161.0, 0.10444656591285027
162.0, 0.11132152740244637
163.0, 0.11486992286621492
164.0, 0.11159547121609238
165.0, 0.10384443068831396
166.0, 0.096038699760341
167.0, 0.0860342666985763
168.0, 0.07531699390850695
169.0, 0.06753404464844623
170.0, 0.058269352689101474
171.0, 0.05193301804465697
172.0, 0.04805522230979886
173.0, 0.04132234144686618
174.0, 0.03592514410487252
175.0, 0.03613325053266051
176.0, 0.03525714929443408
177.0, 0.028820261093996265
178.0, 0.02457995643890213
179.0, 0.020896574627692534
180.0, 0.018045548555745146
181.0, 0.017092780349908035
182.0, 0.018532920560118935
183.0, 0.014924457966690285
184.0, 0.010640582825727808
185.0, 0.008339811252028791
186.0, 0.008205579674214014
187.0, 0.007603959980657168
188.0, 0.0059325672724998444
189.0, 0.004476401266919221
190.0, 0.0036462209524567592
191.0, 0.0013013418832941376
192.0, 0.001352668023268686
193.0, 0.0011603242798388287
194.0, 0.0006843424901543886
195.0, 0.0004276348970534868
196.0, 0.0037536099201424225
197.0, 0.0062346629705791
198.0, 0.007774271708008451
199.0, 0.010235926404073559
200.0, 0.011850048374997984
201.0, 0.0085841333318048
202.0, 0.005239714967845613
203.0, 0.005724872724452605
204.0, 0.0031598992035738044
205.0, 0.00047515949440015906
206.0, 0.0021200328676324112
207.0, 0.002718141329487765
208.0, 0.0047917241010148074
209.0, 0.007126551639645828
210.0, 0.01069240752224439
211.0, 0.014847179062004032
212.0, 0.019601568519337864
213.0, 0.026347002431160803
214.0, 0.032600426308178304
215.0, 0.03894316411519751
216.0, 0.0453409331862857
217.0, 0.05184813392667433
218.0, 0.061567995972011506
219.0, 0.06859338141780068
220.0, 0.07563049111841363
221.0, 0.08419509839641397
222.0, 0.08959059690753729
223.0, 0.09456931540819806
224.0, 0.09730766874048269
225.0, 0.0974315678394083
226.0, 0.09718636053323675
227.0, 0.10156159554869099
228.0, 0.1014928851998965
229.0, 0.10143420867230933
230.0, 0.10563491598825168
231.0, 0.11099079841104527
232.0, 0.1145459195250126
233.0, 0.11979599040944641
234.0, 0.12480334657874972
235.0, 0.12604356683416387
236.0, 0.1280534345454778
237.0, 0.13130630338756535
238.0, 0.13000143255780408
239.0, 0.1228867247112976
240.0, 0.11694979328677466
241.0, 0.11437982451078367
242.0, 0.10413298229862829
243.0, 0.09102243314600475
244.0, 0.08876765334645823
245.0, 0.08406444269638812
246.0, 0.07776512823774348
247.0, 0.07221364532410568
248.0, 0.06837227073802966
249.0, 0.06438851995755572
250.0, 0.06278112565606149
251.0, 0.0619241170642317
252.0, 0.061391337340751105
253.0, 0.060525163805995576
254.0, 0.056561199757516015
255.0, 0.056208110750221196
256.0, 0.05665764810027977
257.0, 0.05643197970786906
258.0, 0.05747219304338663
259.0, 0.060517701304087755
260.0, 0.060998360580752614
261.0, 0.06343383468470083
262.0, 0.07031826219515247
263.0, 0.07409138115267452
264.0, 0.07913683473760454
265.0, 0.08648465009860266
266.0, 0.094791529156549
267.0, 0.10192651511021533
268.0, 0.1074943572172037
269.0, 0.11424711420168854
270.0, 0.1194475770441144
271.0, 0.12191942668895892
272.0, 0.12484008676511679
273.0, 0.12725147453020538
274.0, 0.13097483207230956
275.0, 0.13207484432005437
276.0, 0.12943662699435615
277.0, 0.13370739381581495
278.0, 0.13578185695636982
279.0, 0.13734054718363148
280.0, 0.140329385549964
281.0, 0.14370985798332458
282.0, 0.1440096551785481
283.0, 0.14380475121132838
284.0, 0.14398924019946457
285.0, 0.14397132265053966
286.0, 0.14258579492282508
287.0, 0.14309606569025038
288.0, 0.13966546047286882
289.0, 0.13381559328923423
290.0, 0.13000273783460412
291.0, 0.12732344832352283
292.0, 0.12019929381245062
293.0, 0.11606595617791443
294.0, 0.11298585254043507
295.0, 0.10564994341031497
296.0, 0.10393156796940768
297.0, 0.10156020370196492
298.0, 0.09840716036457017
299.0, 0.0969402540558029
300.0, 0.09827725781091534
301.0, 0.09492764050619429
302.0, 0.09573165577211998
303.0, 0.09688673991293695
304.0, 0.09574893914607589
305.0, 0.0975795520198426
306.0, 0.1000782814329315
307.0, 0.10252866560940813
308.0, 0.10181234966471492
309.0, 0.0969801528393228
310.0, 0.09977943437337437
311.0, 0.09919750750950848
312.0, 0.09614422092998343
313.0, 0.0931622842503647
314.0, 0.09142681585065189
315.0, 0.08855057473710228
316.0, 0.08740546965653871
317.0, 0.08637884549865511
318.0, 0.08373127197806571
319.0, 0.08025682333297504
320.0, 0.07886733913318791
321.0, 0.07794807340015432
322.0, 0.07604897180556491
323.0, 0.07480761636165842
324.0, 0.07642601427572805
325.0, 0.07279791844977458
326.0, 0.06764572860397293
327.0, 0.06591176533963253
328.0, 0.06680160131335341
329.0, 0.0641766413575154
330.0, 0.060121415161055694
331.0, 0.060335112041972325
332.0, 0.059943560977137704
333.0, 0.054951886668794726
334.0, 0.05182882960599675
335.0, 0.05031703362468757
336.0, 0.04736735338078257
337.0, 0.04404415007460172
338.0, 0.041978748984344685
339.0, 0.03674313528320056
340.0, 0.03280429376509844
341.0, 0.03003358681027324
342.0, 0.0264534480675614
343.0, 0.021315843434420653
344.0, 0.018292705978677732
345.0, 0.01770617928403887
346.0, 0.013698119395489355
347.0, 0.006439409152172089
348.0, 0.0017579423426340004
349.0, 0.0034575236795849284
350.0, 0.00400351912759276
351.0, 0.0029762815369978866
352.0, 0.0010072569021874781
353.0, 0.002668629405093316
354.0, 0.0045080360037954275
355.0, 0.003484600221289757
356.0, 0.0015128230699630245
357.0, 0.0016216566112355665
358.0, 0.004575273721278971
359.0, 0.0038696994319960235
360.0, 0.0018527993830805218
361.0, 0.001719399573069057
362.0, 0.0026284476464818116
363.0, 0.0011112257330969971
364.0, 0.0017613388957000687
365.0, 0.0003909402622250551
366.0, 0.0017825069561280735
367.0, 0.0016701642426311051
368.0, 0.002821401438304237
369.0, 0.0009172436487975375
370.0, 0.00011733522008589192
371.0, 0.0018473188549096705
372.0, 0.0041679795554534944
373.0, 0.0024191508717883916
374.0, 0.0010097286727210062
375.0, 0.0010190698425057217
376.0, 0.0011707524934363544
377.0, 0.0005204891571516304
378.0, 0.0006208142260853551
379.0, 0.0032110332166145586
380.0, 0.0063829223860378615
381.0, 0.0076251856631536176
382.0, 0.007095714224444225
383.0, 0.006196711370983923
384.0, 0.008085937478493387
385.0, 0.012092475306065617
386.0, 0.014324618410264547
387.0, 0.016075177381473446
388.0, 0.021587531938410984
389.0, 0.027821522799183655
390.0, 0.03214608192292025
391.0, 0.038833266403099684
392.0, 0.04667228159657191
393.0, 0.05284030309005079
394.0, 0.06105172278772493
395.0, 0.07022638974172696
396.0, 0.07910293027922151
397.0, 0.08821629186988852
398.0, 0.09920637235103769
399.0, 0.1137693085962103
400.0, 0.12690457384415071
401.0, 0.14088950715276574
402.0, 0.15581975612303547
403.0, 0.1706386784874564
404.0, 0.18707920153318588
405.0, 0.20256321184396187
406.0, 0.21943267963102894
407.0, 0.23584157216138854
408.0, 0.2474258442099742
409.0, 0.2526496752796879
410.0, 0.2546773758364119
411.0, 0.250155986119932
412.0, 0.2404968748146079
413.0, 0.2245571732424306
414.0, 0.19621657032236106
415.0, 0.17298927399799216
416.0, 0.1489327977449909
417.0, 0.1268689475412791
418.0, 0.10935283606671586
419.0, 0.09226252354098456
420.0, 0.0782380386257037
421.0, 0.06749462764809834
422.0, 0.05810035734817148
423.0, 0.04959955729763796
424.0, 0.043692496746764085
425.0, 0.0387144877390124
426.0, 0.031504543824458976
427.0, 0.027718675292300855
428.0, 0.027306379661799
429.0, 0.025756674711879222
430.0, 0.023667807983120622
431.0, 0.021278886857428115
432.0, 0.01905079473033826
433.0, 0.01655558177642865
434.0, 0.01451783770225068
435.0, 0.014857993892746144
436.0, 0.014709669437339786
437.0, 0.012847549843276976
438.0, 0.013731559786566264
439.0, 0.015070520068022366
440.0, 0.00885361101314369
441.0, 0.006837388113703872
442.0, 0.010432387393636515
443.0, 0.01385851909068261
444.0, 0.0127353257567981
445.0, 0.006829482295915698
446.0, 0.004394787981615379
447.0, 0.0037669216180575525
448.0, 0.004889936909314031
449.0, 0.004432225980580832
450.0, 0.0020294437297673747
451.0, 0.004644737456773347
452.0, 0.0015392841103018763
453.0, 0.001968321325628507
454.0, 0.0033765176821579034
455.0, 0.001754792121888663
456.0, 0.001354479502775985
457.0, 0.0007638870476101526
458.0, 0.0009735310664374245
459.0, 0.0008311511837689309
460.0, 0.00042335902434648695
461.0, 0.0014977855483414694
462.0, 0.0004900836567895201
463.0, 0.0005254816547543413
464.0, 0.0010376105907157547
465.0, 0.0006142811877424984
466.0, 0.0001782886153395279
467.0, 0.0007969861620656881
468.0, 0.00029459640692070324
469.0, 0.0001680682947024452
470.0, 2.8486758099258036e-05
471.0, 0.0010869145672622097
472.0, 0.002664943970660231
473.0, 0.0003178695222306988
474.0, 0.0007088229142508894
475.0, 0.00021248291561860158
476.0, 0.0007992451152044194
477.0, 0.0022999888125099224
478.0, 0.002898897623622467
479.0, 0.0014172294068517126
480.0, 0.0025640539103668793
481.0, 0.0045814110171234525
482.0, 0.004561708985987627
483.0, 0.0034231015496448015
484.0, 0.002168306275809946
485.0, 0.002287515114266015
486.0, 0.0020296188456120716
487.0, 0.0005881875129242135
488.0, 0.0020441059393042334
489.0, 0.0013611407877015913
490.0, 0.00048268031021728207
491.0, 0.0008419871095841718
492.0, 0.0012032662677210423
493.0, 0.002021878090244944
494.0, 0.0014623933479278638
495.0, 0.0007428359471606215
496.0, 0.0018975175059738455
497.0, 0.0018238145877839133
498.0, 0.0013159454522269232
499.0, 0.0022557070148359485
500.0, 0.0031978099623713296
501.0, 0.0004214523026732652
502.0, 0.0005851657011270839
503.0, 0.001690091186615049
504.0, 0.004235178055971497
505.0, 0.005599567693372742
506.0, 0.0044824181587909875
507.0, 0.005227309658962378
508.0, 0.004874574386379319
509.0, 0.004672003181383888
510.0, 0.005545688940299909
511.0, 0.00568254997675847
512.0, 0.008074182558065518
513.0, 0.0073604523259682125
514.0, 0.00688468161474911
515.0, 0.007207568874494449
516.0, 0.007091746733360903
517.0, 0.008822124891498369
518.0, 0.010374537444173998
519.0, 0.010226743656235507
520.0, 0.010222265113684764
521.0, 0.01033345067031707
522.0, 0.009145403398160917
523.0, 0.008384631880660885
524.0, 0.007724458597586301
525.0, 0.007993226084998419
526.0, 0.009868864712353957
527.0, 0.013309909507226242
528.0, 0.017439161264075017
529.0, 0.019910580413026176
530.0, 0.024481173234182016
531.0, 0.027468005239791888
532.0, 0.029749769640857546
533.0, 0.03514160480252554
534.0, 0.04424211933841308
535.0, 0.05554731201747828
536.0, 0.06794117538120457
537.0, 0.08078591129343404
538.0, 0.0937316171937817
539.0, 0.10679673267193525
540.0, 0.12255167841269801
541.0, 0.13914042599159349
542.0, 0.16039608010254108
543.0, 0.18433525940886475
544.0, 0.2108940657227583
545.0, 0.24143140589091613
546.0, 0.2686267764126013
547.0, 0.3024426458583092
548.0, 0.34120309996266235
549.0, 0.38038278830831374
550.0, 0.4163587424488568
551.0, 0.4460373843045396
552.0, 0.4628728721368385
553.0, 0.4474905036182754
554.0, 0.41320713617737925
555.0, 0.36298949936126174
556.0, 0.2981688767168897
557.0, 0.2350840815990887
558.0, 0.18552899363463213
559.0, 0.14475066033221107
560.0, 0.11464951568777354
561.0, 0.0933607929774605
562.0, 0.07553980582178216
563.0, 0.05830947134553738
564.0, 0.04806633913157782
565.0, 0.03740589582527722
566.0, 0.02872225202255883
567.0, 0.02404157977430242
568.0, 0.021380793740476398
569.0, 0.013750882495473809
570.0, 0.008847729054222342
571.0, 0.008330931023551483
572.0, 0.006366110937196079
573.0, 0.0036276413110788936
574.0, 0.0029407984735157363
575.0, 0.0015764273489377771
576.0, 0.003395066283724585
577.0, 0.00412870962367104
578.0, 0.003740128907719519
579.0, 0.003933473770112121
580.0, 0.005149746343547792
581.0, 0.004954966218361711
582.0, 0.006498197787345932
583.0, 0.006559558211606965
584.0, 0.007776915612977704
585.0, 0.009286379598258867
586.0, 0.009832914182585653
587.0, 0.0127453496713211
588.0, 0.015108925924218386
589.0, 0.015561015071550076
590.0, 0.016953979261522464
591.0, 0.019676605689907745
592.0, 0.021557426919693756
593.0, 0.01918107210086339
594.0, 0.023819882151818135
595.0, 0.02539957007004724
596.0, 0.02714403289043316
597.0, 0.02905328296905902
598.0, 0.02999335978427224
599.0, 0.03159197518580879
600.0, 0.03129639885206618
601.0, 0.031218947560862423
602.0, 0.032028543007709666
603.0, 0.03232044211316438
604.0, 0.030498888644665285
605.0, 0.02658842480472681
606.0, 0.026254338637665155
607.0, 0.027403992807501526
608.0, 0.024982819904405543
609.0, 0.022024795498161234
610.0, 0.020313379391133785
611.0, 0.017948697968899502
612.0, 0.016751935300144988
613.0, 0.012850624059191058
614.0, 0.011144739493398607
615.0, 0.010653753578999156
616.0, 0.008917677913481926
617.0, 0.0063372394622708
618.0, 0.006126849636090521
619.0, 0.006827311214987681
620.0, 0.0045889520524654975
621.0, 0.0034251657670458188
622.0, 0.00443557617039082
623.0, 0.0047192122352689376
624.0, 0.0028201316935379333
625.0, 0.006806235397882085
626.0, 0.005866804946078484
627.0, 0.006716986260095829
628.0, 0.007579174594177549
629.0, 0.007086898132712941
630.0, 0.008623148163527187
631.0, 0.008447374458674203
632.0, 0.007615684613094914
633.0, 0.007183710182558251
634.0, 0.007091712897232882
635.0, 0.0059556853594859216
636.0, 0.004116379783144212
637.0, 0.004940759244374387
638.0, 0.0033380492053541604
639.0, 0.0034153336729694805
640.0, 0.003301457243692906
641.0, 0.002143890096235412
642.0, 0.0012801110150434183
643.0, 0.0016623919300767507
644.0, 0.00015031070104560011
645.0, 0.00021702683954720993
646.0, 0.0033522287285295328
647.0, 0.004288438310930589
648.0, 0.003954617597074063
649.0, 0.006097348323922814
650.0, 0.00776885894435786
651.0, 0.008632871398986419
652.0, 0.01117236455061446
653.0, 0.014941756715399936
654.0, 0.01706219195338367
655.0, 0.018086765693949226
656.0, 0.021382890842616773
657.0, 0.0249738779633895
658.0, 0.028337062499409368
659.0, 0.030580188560032227
660.0, 0.03478578564530554
661.0, 0.03910225580709665
662.0, 0.04056298522354418
663.0, 0.04067169104732759
664.0, 0.03865761183480921
665.0, 0.041789766855588446
666.0, 0.03907000115088226
667.0, 0.035483780338828715
668.0, 0.0336824970738922
669.0, 0.027605470332116626
670.0, 0.0212812539647929
671.0, 0.01884573433542097
672.0, 0.016010852149241313
673.0, 0.011110329919689878
674.0, 0.007939579302020607
675.0, 0.006940346155558056
676.0, 0.00426475123772691
677.0, 0.0016552610569593117
678.0, 0.0013532494693986547
679.0, 0.0005741974616254546
680.0, 0.00030069469992523773
681.0, 0.00017469269544039
682.0, 0.0005850599955096529
683.0, 0.00235873464946822
684.0, 0.0007524229803425243
685.0, 0.001773298184471739
686.0, 0.0001413196890179487
687.0, 0.0007649084508867716
688.0, 0.003561965526412714
689.0, 0.0012611783878485484
690.0, 0.0029092786100165064
691.0, 0.0019005654252004774
692.0, 0.00037036188301991504
693.0, 0.00044449522911751835
694.0, 0.0014962571151468703
695.0, 0.0013846682323824925
696.0, 0.0007624354091096714
697.0, 0.0006784971675674157
698.0, 6.220259800050549e-05
699.0, 0.0009676011825552862
700.0, 0.0009799431817814261
701.0, 0.0008070703920899428
702.0, 0.001021503215156912
703.0, 0.000662336119846536
704.0, 0.0018159455739845515
705.0, 0.0013288593778706128
706.0, 0.0014463878747266407
707.0, 0.0027185912673104652
708.0, 0.0026763064520022905
709.0, 0.001722616188381593
710.0, 0.0028113460896116967
711.0, 0.004486798871481386
712.0, 0.005478048103463388
713.0, 0.006772352025591976
714.0, 0.005112414557661805
715.0, 0.0039203494476601946
716.0, 0.005750421777907764
717.0, 0.0057552758150556035
718.0, 0.0036643774302329664
719.0, 0.004507757378149178
720.0, 0.006059031911067683
721.0, 0.00740838479153795
722.0, 0.007439660150287496
723.0, 0.0061082893621256
724.0, 0.005102245120695982
725.0, 0.005421908572276233
726.0, 0.006883228273744385
727.0, 0.00928386074475214
728.0, 0.0066753064120392055
729.0, 0.005816836767414327
730.0, 0.005069862797217777
731.0, 0.00790709673046549
732.0, 0.007430269403732635
733.0, 0.009790764723693118
734.0, 0.00943835438107426
735.0, 0.006627027731475319
736.0, 0.008863374192869375
737.0, 0.010283340775063135
738.0, 0.006121909172266737
739.0, 0.006372618456748866
740.0, 0.010216439459403539
741.0, 0.009101988362452403
742.0, 0.007670902046071698
743.0, 0.007053993803618343
744.0, 0.006962839921531022
745.0, 0.0074970471006538504
746.0, 0.00811904339577508
747.0, 0.009656335918402002
748.0, 0.00732756571915763
749.0, 0.007075597818839266
750.0, 0.006918393155919382
751.0, 0.005436621437013843
752.0, 0.00464875181298587
753.0, 0.005296187084250746
754.0, 0.003596426327536434
755.0, 0.005150793376782556
756.0, 0.00641567350289533
757.0, 0.006310883837401065
758.0, 0.005051554148753716
759.0, 0.004199361271642232
760.0, 0.005059709113782663
761.0, 0.006287024824784669
762.0, 0.005534164069924425
763.0, 0.002221446534092637
764.0, 0.0028304032255212328
765.0, 0.004689297614153098
766.0, 0.00459601495262292
767.0, 0.004252823309811692
768.0, 0.005570795083154638
769.0, 0.004127203461130997
770.0, 0.0026703532133541047
771.0, 0.004682089591450399
772.0, 0.0029562431879964044
773.0, 0.0018056655295087647
774.0, 0.0030771225372543953
775.0, 0.0027106648607165243
776.0, 0.00648307015362288
777.0, 0.003070481381870143
778.0, 0.0011531264827774389
779.0, 0.002391689060365695
780.0, 0.0027143206765176497
781.0, 0.002023222170548398
782.0, 0.0020841772161599237
783.0, 0.0017858415533826136
784.0, 0.0005538250705105518
785.0, 0.003446543874670656
786.0, 0.0040776322542899115
787.0, 0.002353755795333108
788.0, 0.0020994127771722473
789.0, 0.0028445972700074126
790.0, 0.0020957619059028443
791.0, 0.0011190102044607414
792.0, 0.00023039763849659706
793.0, 0.0026003001373690704
794.0, 0.0020547070501795734
795.0, 0.0016036924005700284
796.0, 0.0020166550395888804
797.0, 0.0022406104784246633
798.0, 0.0016682638233250736
799.0, 0.000228975508450381
800.0, 0.0021559520418823527
801.0, 0.0016561300452338451
802.0, 0.0022135078831683735
803.0, 0.0020055934970216603
804.0, 0.0014066385535935863
805.0, 0.0013995146093251894
806.0, 0.0018437840027089795
807.0, 0.003933367597018177
808.0, 0.0025116994037864427
809.0, 0.002450004049239134
810.0, 0.003209719839873111
811.0, 0.0029643350382881862
812.0, 0.0018872877556850255
813.0, 0.0024922626404159398
814.0, 0.004637361532162133
815.0, 0.002274962507875154
816.0, 0.0015820411420609162
817.0, 0.003893897292130818
818.0, 0.0027291700070771877
819.0, 0.002244815982790105
820.0, 0.0028439644786687817
821.0, 0.002354475843913591
822.0, 0.0025288046733012216
823.0, 0.004684836611862607
824.0, 0.0044500531583808785
825.0, 0.003452728029235326
826.0, 0.0030747608622639635
827.0, 0.0036388745209703995
828.0, 0.00370456912926995
829.0, 0.0034760001849102216
830.0, 0.0037961104775537046
831.0, 0.003280367616847068
832.0, 0.0016506565929339302
833.0, 0.003910107475717093
834.0, 0.004897920058556554
835.0, 0.004445375453339512
836.0, 0.006079129855650174
837.0, 0.006621992841995182
838.0, 0.007406046105787835
839.0, 0.007776179862406454
840.0, 0.006370792051509374
841.0, 0.00659308297244569
842.0, 0.00573199696806073
843.0, 0.007952104992355507
844.0, 0.006726146428550655
845.0, 0.009275965080358732
846.0, 0.008956718765832572
847.0, 0.0057258600387828755
848.0, 0.0070548124234813036
849.0, 0.008448475527189392
850.0, 0.008083424187993599
851.0, 0.006737067755774052
852.0, 0.007708400161970553
853.0, 0.006389945568577046
854.0, 0.00456138781273279
855.0, 0.0036624527511056187
856.0, 0.0026369382155129227
857.0, 0.003679431770268735
858.0, 0.0053106451401128615
859.0, 0.005629745644002498
860.0, 0.005387386690207499
861.0, 0.004074094761850852
862.0, 0.002775363631045075
863.0, 0.0035657643991763143
864.0, 0.005275684770771643
865.0, 0.002819341386346416
866.0, 0.0027187895961689724
867.0, 0.0029202002188170734
868.0, 0.0013330598413454962
869.0, 0.0029185836906602397
870.0, 0.0034668426471011157
871.0, 0.0029840755694657706
872.0, 0.005004078194564196
873.0, 0.003940530680189218
874.0, 0.00030726414672353167
875.0, 0.00040458263489890966
876.0, 0.001821755748610761
877.0, 0.0005078204401701618
878.0, 0.000160546034028077
879.0, 0.00013020850217413868
880.0, 0.000496624642201855
881.0, 0.0008591926990518642
882.0, 0.0020773594360179856
883.0, 0.0006892872047139451
884.0, 0.0017739853848455509
885.0, 0.0004696141371173908
886.0, 0.0018308258700836504
887.0, 0.0010239046567310588
888.0, 0.00041682418008015293
889.0, 0.0003350012545046974
890.0, 0.0005269674641306327
891.0, 0.001060577840940598
892.0, 0.0012159393552313657
893.0, 0.0017599279095478187
894.0, 0.0008902105909582106
895.0, 0.0007716702268296912
896.0, 0.0012319357045120286
897.0, 0.00047094869997452133
898.0, 0.0004890978905012243
899.0, 0.0004120436015392564
900.0, 0.001079921475773431
901.0, 0.002334373000638472
902.0, 0.00283021427262346
903.0, 0.00233412395380763
904.0, 0.0037653691689320725
905.0, 0.005575718313074165
906.0, 0.00951125092475528
907.0, 0.01291830141995167
908.0, 0.013139663929105866
909.0, 0.016876598046365068
910.0, 0.021146645084704777
911.0, 0.023043388308722084
912.0, 0.026944615229291875
913.0, 0.0340574464145712
914.0, 0.04094372278215599
915.0, 0.049809042370679756
916.0, 0.05920028372348149
917.0, 0.06763625337314483
918.0, 0.07830284645578216
919.0, 0.08716908676093149
920.0, 0.09831463132864786
921.0, 0.10908922407274553
922.0, 0.1158851509800302
923.0, 0.11914760192749357
924.0, 0.11995516662330166
925.0, 0.11708453757754753
926.0, 0.11104427264366555
927.0, 0.10375376367522106
928.0, 0.09463039746125368
929.0, 0.08407502282144212
930.0, 0.07455986693242478
931.0, 0.06453442674000212
932.0, 0.05629655023451633
933.0, 0.04907739218043611
934.0, 0.041752343898352
935.0, 0.03553187102004746
936.0, 0.030902212862905953
937.0, 0.025591490399268328
938.0, 0.019654338176548276
939.0, 0.017574507014080563
940.0, 0.0157444634945355
941.0, 0.012724194719899285
942.0, 0.010252769988113806
943.0, 0.00966223468332683
944.0, 0.007443868827622852
945.0, 0.005052271087028054
946.0, 0.004888855405395761
947.0, 0.004410787613467366
948.0, 0.0016462727038116913
949.0, 0.0011294584364316311
950.0, 0.0010810091210795303
951.0, 0.0009709162016113781
952.0, 0.001104359603826671
953.0, 0.0015826122954663861
954.0, 0.0015053858209047796
955.0, 0.0021135862690081497
956.0, 0.003389226441157177
957.0, 0.006225301039997619
958.0, 0.008085604002015478
959.0, 0.012799694505046007
960.0, 0.016160711092964953
961.0, 0.021008978378796905
962.0, 0.027883150667609574
963.0, 0.03066230390175114
964.0, 0.03605989323049232
965.0, 0.038170379898017845
966.0, 0.03332343220474789
967.0, 0.030989918030038147
968.0, 0.028056293271930516
969.0, 0.02392942565509813
970.0, 0.025774621218842404
971.0, 0.02804157651631553
972.0, 0.03472424128220375
973.0, 0.03830758449669095
974.0, 0.043934070756273126
975.0, 0.0506345708784332
976.0, 0.058287482407090925
977.0, 0.06785895977751277
978.0, 0.07701739510031357
979.0, 0.08918963528657697
980.0, 0.10283764986614195
981.0, 0.12217231727558965
982.0, 0.1447991993040356
983.0, 0.16748908084797864
984.0, 0.19953096503629933
985.0, 0.23698927025700067
986.0, 0.2749701439140707
987.0, 0.31680123431064
988.0, 0.36620615583465005
989.0, 0.42017082580906984
990.0, 0.47768792598187004
991.0, 0.5375334489483838
992.0, 0.5973614885536669
993.0, 0.6541271076053929
994.0, 0.7155357729022743
995.0, 0.7763563217058406
996.0, 0.8318635793957385
997.0, 0.8895206060194675
998.0, 0.941111950173107
999.0, 0.9756347314705844
1000.0, 0.9983228396236162
1001.0, 0.9925646112511035
1002.0, 0.9602857089211593
1003.0, 0.8986405202424155
1004.0, 0.8141568906729856
1005.0, 0.7214320491733937
1006.0, 0.6201893410476441
1007.0, 0.5189798890938493
1008.0, 0.42731501983918535
1009.0, 0.3467451790685844
1010.0, 0.27736386355071296
1011.0, 0.22344452881348748
1012.0, 0.18440754511873064
1013.0, 0.14651851459743864
1014.0, 0.11947343965289632
1015.0, 0.0999747943915082
1016.0, 0.08398148490507817
1017.0, 0.07222644455644416
1018.0, 0.06293412110542372
1019.0, 0.05684214384972065
1020.0, 0.05501386159653216
1021.0, 0.053979690454969614
1022.0, 0.051555358030505635
1023.0, 0.05019157134727636
1024.0, 0.04798081266733199
1025.0, 0.046603350019017754
1026.0, 0.03971289481710235
1027.0, 0.03360937444808066
1028.0, 0.026787078097346387
1029.0, 0.01883915430744805
1030.0, 0.011912353328846376
1031.0, 0.007746177460186301
1032.0, 0.004342305049007371
1033.0, 0.00225025468440994
1034.0, 0.0013776022888657966
1035.0, 0.004013277377002537
1036.0, 0.001526847010906027
1037.0, 0.0029786973545222178
1038.0, 0.0013347273099054426
1039.0, 0.00247314247525398
1040.0, 0.0019542899948047712
1041.0, 0.0023345574340296383
1042.0, 0.0021373393671392607
1043.0, 0.002183816493381719
1044.0, 0.0011021887431506528
1045.0, 0.0018558611339050523
1046.0, 0.0033814070280557313
1047.0, 0.0018926937737772692
1048.0, 0.004210311826427183
1049.0, 0.006128649980736679
1050.0, 0.009806294140296299
1051.0, 0.011808704793640637
1052.0, 0.015750614120801535
1053.0, 0.020694712465063488
1054.0, 0.02599589646952076
1055.0, 0.028700093175560926
1056.0, 0.02870300228327546
1057.0, 0.029671741621100388
1058.0, 0.030849643274080983
1059.0, 0.030301144953413142
1060.0, 0.032743333597143515
1061.0, 0.03215417881665518
1062.0, 0.03256841070488694
1063.0, 0.03484231983069994
1064.0, 0.03706826317159007
1065.0, 0.03907023890817167
1066.0, 0.041319760158571923
1067.0, 0.04377040195385251
1068.0, 0.048637568526570904
1069.0, 0.05015912217271362
1070.0, 0.05397262388387275
1071.0, 0.05393899196303618
1072.0, 0.0554914671753095
1073.0, 0.05716136510977911
1074.0, 0.06041807106403909
1075.0, 0.0635870092697382
1076.0, 0.06588205901466246
1077.0, 0.06773420689239269
1078.0, 0.07292894940140499
1079.0, 0.0762602689699798
1080.0, 0.08148762043851464
1081.0, 0.08822785369059408
1082.0, 0.09482663516196382
1083.0, 0.10039611973797014
1084.0, 0.10485451895891618
1085.0, 0.11065965835669758
1086.0, 0.11683421328256621
1087.0, 0.12039157752834515
1088.0, 0.12236750907206836
1089.0, 0.12119637976539463
1090.0, 0.11862316993258844
1091.0, 0.11590613124184802
1092.0, 0.10963447127212836
1093.0, 0.1044813476522563
1094.0, 0.0985123859453832
1095.0, 0.09032084504526801
1096.0, 0.08251643265342921
1097.0, 0.07624007543933164
1098.0, 0.07049571441248066
1099.0, 0.06298020435673962
1100.0, 0.055965030002905286
1101.0, 0.05190393187631474
1102.0, 0.048186442869715504
1103.0, 0.04527318936158529
1104.0, 0.04153360646480817
1105.0, 0.04097498473131989
1106.0, 0.03851177163407236
1107.0, 0.036868223482832904
1108.0, 0.03994760985171256
1109.0, 0.043576025813748365
1110.0, 0.04706192293929029
1111.0, 0.05209048309398538
1112.0, 0.05700505697983434
1113.0, 0.06311198749168799
1114.0, 0.06976514309024102
1115.0, 0.06711539608803925
1116.0, 0.06260364565478382
1117.0, 0.05471872978498569
1118.0, 0.04841099999526699
1119.0, 0.03803195772570587
1120.0, 0.02929919916661033
1121.0, 0.022795634227094335
1122.0, 0.01724314371839206
1123.0, 0.012279782397077289
1124.0, 0.008645848888689666
1125.0, 0.005200294275976421
1126.0, 0.0033431087470985137
1127.0, 0.002751816300576279
1128.0, 0.0016807025646677052
1129.0, 0.003941638596260393
1130.0, 0.00425108745607064
1131.0, 0.0001432183114401951
1132.0, 0.0016666852959509623
1133.0, 0.0008844845407604081
1134.0, 0.0035470346215916784
1135.0, 0.0052094699526023525
1136.0, 0.004850337995412634
1137.0, 0.004777886748786239
1138.0, 0.0041951503917529295
1139.0, 0.0038672405210283425
1140.0, 0.003619122872756457
1141.0, 0.004018871304857554
1142.0, 0.004530213448616286
1143.0, 0.00422045646403043
1144.0, 0.0034069336909572784
1145.0, 0.0011769690193459991
1146.0, 0.0017424698904228446
1147.0, 0.0019287990622307
1148.0, 0.0009959527839251746
1149.0, 0.0011759359064359885
1150.0, 0.0006004370718604801
1151.0, 0.0010485950721696687
1152.0, 0.0024392214161968887
1153.0, 0.0029517065650339525
1154.0, 0.0022478338887218182
1155.0, 0.002918997078934046
1156.0, 0.0006839770512603324
1157.0, 0.0016522370039721438
1158.0, 0.002802815205097807
1159.0, 0.004590486347405634
1160.0, 0.005592790074188455
1161.0, 0.007472785213378368
1162.0, 0.010832867649154674
1163.0, 0.013976972429458914
1164.0, 0.017658572333753102
1165.0, 0.01879870174411268
1166.0, 0.022266319693444347
1167.0, 0.02579694031485381
1168.0, 0.029432428065794655
1169.0, 0.031403704691067055
1170.0, 0.032751250971054344
1171.0, 0.038170900458353786
1172.0, 0.03578465090146663
1173.0, 0.033224917033737346
1174.0, 0.031096972639418283
1175.0, 0.025927791074974536
1176.0, 0.022048195535768717
1177.0, 0.020487016094373135
1178.0, 0.016359750718533093
1179.0, 0.01123792847543062
1180.0, 0.012301507027714646
1181.0, 0.011024195574422491
1182.0, 0.01036855119624169
1183.0, 0.010283460332523656
1184.0, 0.008950063528303655
1185.0, 0.007423400921910221
1186.0, 0.011888656687585536
1187.0, 0.010648324205348534
1188.0, 0.009218972994858687
1189.0, 0.00915009893535027
1190.0, 0.009924262623358769
1191.0, 0.0089588988365913
1192.0, 0.008437263033180004
1193.0, 0.009107684287105459
1194.0, 0.006826204310281373
1195.0, 0.0058468569140358575
1196.0, 0.0066395528194212235
1197.0, 0.004677485160508899
1198.0, 0.0038526316336549866
1199.0, 0.0043496045892004905
1200.0, 0.0057690264004782305
1201.0, 0.002842696994386217
1202.0, 0.002168503092333666
1203.0, 0.004415503959215151
1204.0, 0.004320836263096205
1205.0, 0.0038584756233939047
1206.0, 0.0034917720121298125
1207.0, 0.004802802460309457
1208.0, 0.005566369891001697
1209.0, 0.004593683161212296
1210.0, 0.0033917076083888414
1211.0, 0.004784087765091233
1212.0, 0.003979894135783049
1213.0, 0.0029034183160081056
1214.0, 0.002259198868810232
1215.0, 0.0026152280468146488
1216.0, 0.003448951540719859
1217.0, 0.0027920965975008713
1218.0, 0.003732981803772333
1219.0, 0.001838462254699651
1220.0, 0.0021483921209992348
1221.0, 0.0008446246781443774
1222.0, 0.00036277425376133156
1223.0, 0.0008080455968731522
1224.0, 0.0002475897152156328
1225.0, 0.0003537090485078014
1226.0, 0.0026729384828788954
1227.0, 0.0026612304833661176
1228.0, 0.0034927433373546516
1229.0, 0.0030176903108009505
1230.0, 0.0006729107531868908
1231.0, 0.0026258692502150187
1232.0, 0.0023992610120001407
1233.0, 0.003282503602075336
1234.0, 0.0024199159927946836
1235.0, 0.00014679770540670988
1236, 0.0
1237, 0.0
1238, 0.0
1239, 0.0
1240, 0.0
1241, 0.0
1242, 0.0
1243, 0.0
1244, 0.0
1245, 0.0
1246, 0.0
1247, 0.0
1248, 0.0
1249, 0.0
1250, 0.0
1251, 0.0
1252, 0.0
1253, 0.0
1254, 0.0
1255, 0.0
1256, 0.0
1257, 0.0
1258, 0.0
1259, 0.0
1260, 0.0
1261, 0.0
1262, 0.0
1263, 0.0
1264, 0.0
1265, 0.0
1266, 0.0
1267, 0.0
1268, 0.0
1269, 0.0
1270, 0.0
1271, 0.0
1272, 0.0
1273, 0.0
1274, 0.0
1275, 0.0
1276, 0.0
1277, 0.0
1278, 0.0
1279, 0.0
1280, 0.0
1281, 0.0
1282, 0.0
1283, 0.0
1284, 0.0
1285, 0.0
1286, 0.0
1287, 0.0
1288, 0.0
1289, 0.0
1290, 0.0
1291, 0.0
1292, 0.0
1293, 0.0
1294, 0.0
1295, 0.0
1296, 0.0
1297, 0.0
1298, 0.0
1299, 0.0
1300, 0.0
1301, 0.0
1302, 0.0
1303, 0.0
1304, 0.0
1305, 0.0
1306, 0.0
1307, 0.0
1308, 0.0
1309, 0.0
1310, 0.0
1311, 0.0
1312, 0.0
1313, 0.0
1314, 0.0
1315, 0.0
1316, 0.0
1317, 0.0
1318, 0.0
1319, 0.0
1320, 0.0
1321, 0.0
1322, 0.0
1323, 0.0
1324, 0.0
1325, 0.0
1326, 0.0
1327, 0.0
1328, 0.0
1329, 0.0
1330, 0.0
1331, 0.0
1332, 0.0
1333, 0.0
1334, 0.0
1335, 0.0
1336, 0.0
1337, 0.0
1338, 0.0
1339, 0.0
1340, 0.0
1341, 0.0
1342, 0.0
1343, 0.0
1344, 0.0
1345, 0.0
1346, 0.0
1347, 0.0
1348, 0.0
1349, 0.0
1350, 0.0
1351, 0.0
1352, 0.0
1353, 0.0
1354, 0.0
1355, 0.0
1356, 0.0
1357, 0.0
1358, 0.0
1359, 0.0
1360, 0.0
1361, 0.0
1362, 0.0
1363, 0.0
1364, 0.0
1365, 0.0
1366, 0.0
1367, 0.0
1368, 0.0
1369, 0.0
1370, 0.0
1371, 0.0
1372, 0.0
1373, 0.0
1374, 0.0
1375, 0.0
1376, 0.0
1377, 0.0
1378, 0.0
1379, 0.0
1380, 0.0
1381, 0.0
1382, 0.0
1383, 0.0
1384, 0.0
1385, 0.0
1386, 0.0
1387, 0.0
1388, 0.0
1389, 0.0
1390, 0.0
1391, 0.0
1392, 0.0
1393, 0.0
1394, 0.0
1395, 0.0
1396, 0.0
1397, 0.0
1398, 0.0
1399, 0.0
1400, 0.0
1401, 0.0
1402, 0.0
1403, 0.0
1404, 0.0
1405, 0.0
1406, 0.0
1407, 0.0
1408, 0.0
1409, 0.0
1410, 0.0
1411, 0.0
1412, 0.0
1413, 0.0
1414, 0.0
1415, 0.0
1416, 0.0
1417, 0.0
1418, 0.0
1419, 0.0
1420, 0.0
1421, 0.0
1422, 0.0
1423, 0.0
1424, 0.0
1425, 0.0
1426, 0.0
1427, 0.0
1428, 0.0
1429, 0.0
1430, 0.0
1431, 0.0
1432, 0.0
1433, 0.0
1434, 0.0
1435, 0.0
1436, 0.0
1437, 0.0
1438, 0.0
1439, 0.0
1440, 0.0
1441, 0.0
1442, 0.0
1443, 0.0
1444, 0.0
1445, 0.0
1446, 0.0
1447, 0.0
1448, 0.0
1449, 0.0
1450, 0.0
1451, 0.0
1452, 0.0
1453, 0.0
1454, 0.0
1455, 0.0
1456, 0.0
1457, 0.0
1458, 0.0
1459, 0.0
1460, 0.0
1461, 0.0
1462, 0.0
1463, 0.0
1464, 0.0
1465, 0.0
1466, 0.0
1467, 0.0
1468, 0.0
1469, 0.0
1470, 0.0
1471, 0.0
1472, 0.0
1473, 0.0
1474, 0.0
1475, 0.0
1476, 0.0
1477, 0.0
1478, 0.0
1479, 0.0
1480, 0.0
1481, 0.0
1482, 0.0
1483, 0.0
1484, 0.0
1485, 0.0
1486, 0.0
1487, 0.0
1488, 0.0
1489, 0.0
1490, 0.0
1491, 0.0
1492, 0.0
1493, 0.0
1494, 0.0
1495, 0.0
1496, 0.0
1497, 0.0
1498, 0.0
1499, 0.0
1500, 0.0
1501, 0.0
1502, 0.0
1503, 0.0
1504, 0.0
1505, 0.0
1506, 0.0
1507, 0.0
1508, 0.0
1509, 0.0
1510, 0.0
1511, 0.0
1512, 0.0
1513, 0.0
1514, 0.0
1515, 0.0
1516, 0.0
1517, 0.0
1518, 0.0
1519, 0.0
1520, 0.0
1521, 0.0
1522, 0.0
1523, 0.0
1524, 0.0
1525, 0.0
1526, 0.0
1527, 0.0
1528, 0.0
1529, 0.0
1530, 0.0
1531, 0.0
1532, 0.0
1533, 0.0
1534, 0.0
1535, 0.0
1536, 0.0
1537, 0.0
1538, 0.0
1539, 0.0
1540, 0.0
1541, 0.0
1542, 0.0
1543, 0.0
1544, 0.0
1545, 0.0
1546, 0.0
1547, 0.0
1548, 0.0
1549, 0.0
1550, 0.0
1551, 0.0
1552, 0.0
1553, 0.0
1554, 0.0
1555, 0.0
1556, 0.0
1557, 0.0
1558, 0.0
1559, 0.0
1560, 0.0
1561, 0.0
1562, 0.0
1563, 0.0
1564, 0.0
1565, 0.0
1566, 0.0
1567, 0.0
1568, 0.0
1569, 0.0
1570, 0.0
1571, 0.0
1572, 0.0
1573, 0.0
1574, 0.0
1575, 0.0
1576, 0.0
1577, 0.0
1578, 0.0
1579, 0.0
1580, 0.0
1581, 0.0
1582, 0.0
1583, 0.0
1584, 0.0
1585, 0.0
1586, 0.0
1587, 0.0
1588, 0.0
1589, 0.0
1590, 0.0
1591, 0.0
1592, 0.0
1593, 0.0
1594, 0.0
1595, 0.0
1596, 0.0
1597, 0.0
1598, 0.0
1599, 0.0
