30, 0.0
31, 0.0
32, 0.0
33, 0.0
34, 0.0
35, 0.0
36, 0.0
37, 0.0
38, 0.0
39, 0.0
40, 0.0
41, 0.0
42, 0.0
43, 0.0
44, 0.0
45, 0.0
46, 0.0
47, 0.0
48, 0.0
49, 0.0
50, 0.0
51, 0.0
52, 0.0
53, 0.0
54, 0.0
55, 0.0
56, 0.0
57, 0.0
58, 0.0
59, 0.0
60, 0.0
61, 0.0
62, 0.0
63, 0.0
64, 0.0
65, 0.0
66, 0.0
67, 0.0
68, 0.0
69, 0.0
70, 0.0
71, 0.0
72, 0.0
73, 0.0
74, 0.0
75, 0.0
76, 0.0
77, 0.0
78, 0.0
79, 0.0
80, 0.0
81, 0.0
82, 0.0
83, 0.0
84, 0.0
85, 0.0
86, 0.0
87, 0.0
88, 0.0
89, 0.0
90, 0.0
91, 0.0
92, 0.0
93, 0.0
94, 0.0
95, 0.0
96, 0.0
97, 0.0
98, 0.0
99, 0.0
100, 0.0
101, 0.0
102, 0.0
103, 0.0
104, 0.0
105, 0.0
106, 0.0
107, 0.0
108, 0.0
109, 0.0
110, 0.0
111, 0.0
112, 0.0
113, 0.0
114, 0.0
115, 0.0
116, 0.0
117, 0.0
118, 0.0
119, 0.0
120, 0.0
121, 0.0
122, 0.0
123, 0.0
124, 0.0
125, 0.0
126, 0.0
127, 0.0
128, 0.0
129, 0.0
130, 0.0
131, 0.0
132, 0.0
133, 0.0
134, 0.0
135, 0.0
136, 0.0
137, 0.0
138, 0.0
139, 0.0
140, 0.0
141, 0.0
142, 0.0
143, 0.0
144, 0.0
145, 0.0
146, 0.0
147, 0.0
148, 0.0
149, 0.0
150, 0.0
151, 0.0
152, 0.0
153, 0.0
154, 0.0
155, 0.0
156, 0.0
157.0, 1.6269933372406602e-05
158.0, 0.0016205552883386287
159.0, 0.002783713812121674
160.0, 0.0005748750785395993
161.0, 0.002228629304643327
162.0, 0.005502630267144317
163.0, 0.011239277824223494
164.0, 0.018828039370388714
165.0, 0.026047458963471028
166.0, 0.02797238044312508
167.0, 0.03298476389733423
168.0, 0.035603479514409564
169.0, 0.038432026574072936
170.0, 0.04303776797113952
171.0, 0.049258681988793934
172.0, 0.05244181141443402
173.0, 0.055492493064399885
174.0, 0.05722415196697664
175.0, 0.05973519489119553
176.0, 0.06397736747156534
177.0, 0.06442862538830813
178.0, 0.06975875809798093
179.0, 0.0671132357255921
180.0, 0.060615005198073425
181.0, 0.05399721189599179
182.0, 0.04908381466866374
183.0, 0.05157399241051112
184.0, 0.048230122458738485
185.0, 0.04767020413254867
186.0, 0.049482878283425985
187.0, 0.051027761243644755
188.0, 0.05383029436904807
189.0, 0.051205862368727297
190.0, 0.055422090910110716
191.0, 0.06072797044652156
192.0, 0.06588988424337384
193.0, 0.07576978411133399
194.0, 0.07956426834780683
195.0, 0.08789862492133409
196.0, 0.09450483333022376
197.0, 0.09993221305980989
198.0, 0.1065147596934948
199.0, 0.11374541318289327
200.0, 0.12824161580931384
201.0, 0.14938583012534495
202.0, 0.16298929253611955
203.0, 0.16370725940000422
204.0, 0.1583486098213183
205.0, 0.16827473260656248
206.0, 0.13990812321211923
207.0, 0.10923415247180508
208.0, 0.08962300348702933
209.0, 0.08245267550756373
210.0, 0.07840594399833734
211.0, 0.0692683486066729
212.0, 0.06367193119011735
213.0, 0.05955370378468152
214.0, 0.05390273651747676
215.0, 0.044363857932681806
216.0, 0.034963078657317403
217.0, 0.028081429976576575
218.0, 0.02194725137091411
219.0, 0.018470587412051587
220.0, 0.01701371044652748
221.0, 0.009559353176141011
222.0, 0.010505197794531877
223.0, 0.010425288733322166
224.0, 0.008071140911393118
225.0, 0.005076425006462537
226.0, 0.003931188879317396
227.0, 0.001336805957180052
228.0, 0.0009396878282840397
229.0, 0.0024461443636206496
230.0, 0.003217192219760716
231.0, 0.0026035882329545415
232.0, 0.0035266914426314655
233.0, 0.0033638811834144993
234.0, 0.004017547417597505
235.0, 0.003041376765419297
236.0, 0.0045942047216370645
237.0, 0.010157009594993657
238.0, 0.0010804608824742474
239.0, 0.00500556672775457
240.0, 0.008075550282138461
241.0, 0.006968160562856383
242.0, 0.0037321737371056466
243.0, 0.0037576074038838383
244.0, 0.003187815906603037
245.0, 0.002381371078235862
246.0, 0.0075393712536517745
247.0, 0.008763662773869191
248.0, 0.003567573938916611
249.0, 0.011976268228364745
250.0, 0.013576135551250187
251.0, 0.01756925598128319
252.0, 0.01843135036570303
253.0, 0.017055755695745176
254.0, 0.017959476198730895
255.0, 0.024753577608316882
256.0, 0.02808144855001722
257.0, 0.02692817929503203
258.0, 0.027863691461479944
259.0, 0.028886811545304283
260.0, 0.020649848625363357
261.0, 0.023836452361590044
262.0, 0.031506076420711224
263.0, 0.0329459756130444
264.0, 0.0335987571069286
265.0, 0.03706598623345634
266.0, 0.03474982923150809
267.0, 0.037990673492780694
268.0, 0.03970746985988062
269.0, 0.04257489229325393
270.0, 0.04548568666590018
271.0, 0.046600011478117924
272.0, 0.04891063317916006
273.0, 0.05000264809321231
274.0, 0.04631573286239454
275.0, 0.045159191204464405
276.0, 0.047604851516793445
277.0, 0.04813451444823743
278.0, 0.04127780372489988
279.0, 0.03744066769130315
280.0, 0.03182329125160621
281.0, 0.025042552814423406
282.0, 0.019499143879863404
283.0, 0.01795890738689667
284.0, 0.015057425263153377
285.0, 0.01456639252290002
286.0, 0.013519565262861409
287.0, 0.012654470405544882
288.0, 0.013046289886522972
289.0, 0.013311638653271264
290.0, 0.013971183365769184
291.0, 0.014888140959917716
292.0, 0.015579718992415852
293.0, 0.016383004697624066
294.0, 0.017717112199447493
295.0, 0.01842422627822703
296.0, 0.018729368320876447
297.0, 0.02088812783973097
298.0, 0.024188627207358527
299.0, 0.026352763646406523
300.0, 0.024864963049588792
301.0, 0.021672484809540826
302.0, 0.01775610930033313
303.0, 0.014013307431067684
304.0, 0.011196905690149446
305.0, 0.00936928814512545
306.0, 0.007840027447417587
307.0, 0.006915868224487145
308.0, 0.007495652269087538
309.0, 0.00809304809404998
310.0, 0.00874354156432024
311.0, 0.009365475379438574
312.0, 0.009120210697648042
313.0, 0.013023308052679344
314.0, 0.01488212824364943
315.0, 0.017420673308184583
316.0, 0.01990697788918023
317.0, 0.021127168926684994
318.0, 0.02209116491636936
319.0, 0.024306593111498156
320.0, 0.027136932263996962
321.0, 0.030039965603346045
322.0, 0.03092288749794825
323.0, 0.029114499474878427
324.0, 0.030598562050832282
325.0, 0.03538655124621565
326.0, 0.04040289504256519
327.0, 0.04195422019310715
328.0, 0.04141690478151707
329.0, 0.041765223229881396
330.0, 0.03774073438456202
331.0, 0.03960139622476728
332.0, 0.03734413016148132
333.0, 0.0349827078765704
334.0, 0.03306105365053076
335.0, 0.029619393943827173
336.0, 0.03150766273168698
337.0, 0.02556556404096217
338.0, 0.027472233307955445
339.0, 0.02865049224345335
340.0, 0.026549215314538223
341.0, 0.026690776477881865
342.0, 0.025742966270061795
343.0, 0.028315086990039026
344.0, 0.02489615145188823
345.0, 0.025194731154523108
346.0, 0.03149498569512315
347.0, 0.03501388581444363
348.0, 0.03549402122804074
349.0, 0.024391351866354046
350.0, 0.023192254252759826
351.0, 0.02428402632488037
352.0, 0.021704282182410092
353.0, 0.019576664789317445
354.0, 0.02630339263843099
355.0, 0.0178226465248829
356.0, 0.019410653497643024
357.0, 0.023473009812337155
358.0, 0.022159724774497118
359.0, 0.018051654860222036
360.0, 0.017382728297461795
361.0, 0.015525612317043792
362.0, 0.0167307937071629
363.0, 0.017688771874971088
364.0, 0.015775154164249777
365.0, 0.012448344097604527
366.0, 0.01457644602672914
367.0, 0.00992827711684844
368.0, 0.012254681558293961
369.0, 0.015153864981000737
370.0, 0.013528208878367438
371.0, 0.011447118150502512
372.0, 0.014235529986465779
373.0, 0.014205471181396423
374.0, 0.012810823541124455
375.0, 0.012141150194184543
376.0, 0.013128918518745793
377.0, 0.014738542868531317
378.0, 0.014284700015025478
379.0, 0.016929435173580892
380.0, 0.012775673761148527
381.0, 0.010319583948818815
382.0, 0.011871354111795813
383.0, 0.008514758432237592
384.0, 0.012650803364936892
385.0, 0.01724789664736406
386.0, 0.020818053701452028
387.0, 0.02447846549147463
388.0, 0.02878024104436122
389.0, 0.03295325263452796
390.0, 0.036394415093373836
391.0, 0.04228670844933159
392.0, 0.04666763297429165
393.0, 0.0519252446096441
394.0, 0.0584264870422088
395.0, 0.06370046949906978
396.0, 0.06844360217102888
397.0, 0.07651478863277718
398.0, 0.0810429140179178
399.0, 0.0817948495450445
400.0, 0.07726395488780229
401.0, 0.0669892902938152
402.0, 0.0656321433929455
403.0, 0.0587092274190878
404.0, 0.05274561011209365
405.0, 0.044597755362394007
406.0, 0.03642329409856948
407.0, 0.03205257891640725
408.0, 0.023204354376767447
409.0, 0.023681953651999557
410.0, 0.019245029512873282
411.0, 0.015490405954112902
412.0, 0.014146039167510317
413.0, 0.013233291362605861
414.0, 0.010284418973703363
415.0, 0.007529111304596437
416.0, 0.00937931827617867
417.0, 0.009782146726953019
418.0, 0.008125430539021193
419.0, 0.007180725910396929
420.0, 0.009981851915609468
421.0, 0.004845429309381825
422.0, 0.004378137353803024
423.0, 0.005897571686410412
424.0, 0.004714494069828733
425.0, 0.0013124939845591936
426.0, 0.004519394264258245
427.0, 0.006288517236691937
428.0, 0.004631030709840213
429.0, 0.0028608041345275347
430.0, 0.0028628428094443032
431.0, 0.0038952031588280946
432.0, 0.0030841468742921637
433.0, 0.0018873322603213337
434.0, 0.0013897905875337438
435.0, 0.0005555033267318518
436.0, 0.0011526954059713956
437.0, 0.003704352371827441
438.0, 0.00601961162188961
439.0, 0.0007867199183095278
440.0, 0.001132984773042015
441.0, 0.002541672141306023
442.0, 0.003628237371158552
443.0, 0.0029761363302805532
444.0, 0.0010404431490128579
445.0, 0.0034690355668386885
446.0, 0.003977223631751789
447.0, 0.004613815002402395
448.0, 0.004800569575150636
449.0, 0.0035013944757389427
450.0, 0.0010760839363267451
451.0, 0.0004921186998182632
452.0, 0.0039556565280263615
453.0, 0.002797485760374106
454.0, 0.0017745068006775938
455.0, 0.0011012057449052769
456.0, 0.0004961160757043059
457.0, 0.0006943514635047083
458.0, 0.003399472882204998
459.0, 0.005088179181312668
460.0, 0.002298524097110872
461.0, 0.0015824775846983614
462.0, 0.002816373377823339
463.0, 0.0017887462133703924
464.0, 0.0024632443462350843
465.0, 0.003898034763232614
466.0, 0.003448877951146724
467.0, 0.003321712449680112
468.0, 0.0038507460113443616
469.0, 0.0041913369796554535
470.0, 0.003438201565688847
471.0, 0.001431282916555604
472.0, 0.0025638778812061974
473.0, 0.0016658654296505464
474.0, 0.00369460336260845
475.0, 0.0074984589820501005
476.0, 0.004803087977258363
477.0, 0.008137838718840378
478.0, 0.009050435756274499
479.0, 0.0044985544573124606
480.0, 0.004404424684840394
481.0, 0.006500211320196097
482.0, 0.005690640150173807
483.0, 0.0170883530272563
484.0, 0.004889270944394775
485.0, 0.005166684907678388
486.0, 0.00790011420080939
487.0, 0.00670521634426961
488.0, 0.002849926814923607
489.0, 0.004853853329340503
490.0, 0.008983172152407437
491.0, 0.007844460254494355
492.0, 0.008086350537063651
493.0, 0.007499301189129022
494.0, 0.006973540969216115
495.0, 0.009782884498547289
496.0, 0.012589765565487382
497.0, 0.013581147993575241
498.0, 0.015354383752344823
499.0, 0.013541049451540197
500.0, 0.011942271197557272
501.0, 0.0130507083517838
502.0, 0.010841090490354135
503.0, 0.0156924795697753
504.0, 0.013573062129847761
505.0, 0.015345045689405219
506.0, 0.01675925003024984
507.0, 0.0166134266444073
508.0, 0.018304849985120886
509.0, 0.01882757016156501
510.0, 0.01869163513844626
511.0, 0.0185935893748472
512.0, 0.01664345796460412
513.0, 0.014770054860740647
514.0, 0.015872491518942634
515.0, 0.020000823050221744
516.0, 0.014341860215487428
517.0, 0.016089929761280406
518.0, 0.018786131039980166
519.0, 0.019618606223778107
520.0, 0.019860747863775077
521.0, 0.02252748651874556
522.0, 0.026179420261417227
523.0, 0.018965691273304205
524.0, 0.022874717895771467
525.0, 0.02412379335825643
526.0, 0.023432367206202474
527.0, 0.024143763301860056
528.0, 0.023373792419903044
529.0, 0.027392078540070364
530.0, 0.02859695711324956
531.0, 0.027806287330335445
532.0, 0.026817374334280098
533.0, 0.027379704283740924
534.0, 0.029098013168129558
535.0, 0.02687887937993301
536.0, 0.02989329627961737
537.0, 0.02655050366126731
538.0, 0.025179051771483055
539.0, 0.02546571063143677
540.0, 0.025221240101861615
541.0, 0.02416883878916775
542.0, 0.02428699294250197
543.0, 0.020808365696236623
544.0, 0.021376110089096453
545.0, 0.02295619601717714
546.0, 0.023214355612150288
547.0, 0.021457849120304108
548.0, 0.018762505831197207
549.0, 0.023468158112351686
550.0, 0.018241162667228274
551.0, 0.018229389910017813
552.0, 0.01989606501999214
553.0, 0.01899273678873704
554.0, 0.016135476330996653
555.0, 0.01797136909530216
556.0, 0.015344305301783035
557.0, 0.014080063666832112
558.0, 0.015890834530058434
559.0, 0.01576710788861329
560.0, 0.012205931756824648
561.0, 0.010113068982678518
562.0, 0.013088050893120252
563.0, 0.013135521086313561
564.0, 0.013856091478908065
565.0, 0.014202979442667168
566.0, 0.015387141683212388
567.0, 0.01638702272417448
568.0, 0.01249840161931114
569.0, 0.013091629831645349
570.0, 0.015110821435468713
571.0, 0.012307254946907603
572.0, 0.008792082660634477
573.0, 0.007443805461417841
574.0, 0.007045939437744593
575.0, 0.00274724977346057
576.0, 0.004037503020492137
577.0, 0.005382662294990883
578.0, 0.006951936252131658
579.0, 0.005522292087419587
580.0, 0.002783037382269487
581.0, 0.0028722992663027173
582.0, 0.0035784569453462083
583.0, 0.00612682794812046
584.0, 0.002212796033891782
585.0, 0.002036684187946725
586.0, 0.0034243132438132253
587.0, 0.002707274483404867
588.0, 0.0006103261920407403
589.0, 0.004314237070131729
590.0, 0.0009973272615041249
591.0, 0.004301228047023783
592.0, 0.004301634922730741
593.0, 0.0030839766756153757
594.0, 0.003371050739649062
595.0, 0.0033519175896660892
596.0, 0.004222106400477822
597.0, 0.001287079506447876
598.0, 0.0016805039437731001
599.0, 0.00245348642370568
600.0, 0.0024034878472749973
601.0, 0.0016724314133194904
602.0, 0.0007761351062264162
603.0, 0.0002166620264921544
604.0, 0.0013973635729155214
605.0, 0.0009503321139247944
606.0, 0.0009690330309571116
607.0, 0.001339237484759165
608.0, 0.0010671972680128825
609.0, 0.000378838881937708
610.0, 0.0028555901529734523
611.0, 0.0029575576488274926
612.0, 0.0018604940016073359
613.0, 0.0009650715076698609
614.0, 0.0022628440289071032
615.0, 0.004434313795551963
616.0, 0.002515593098922244
617.0, 0.003606620456434301
618.0, 0.004399734167970272
619.0, 0.0018792512932462682
620.0, 0.0012393150485752722
621.0, 0.0027067451535233065
622.0, 0.003891206264776243
623.0, 0.003760842877224309
624.0, 0.002907299276665316
625.0, 0.004054623690746102
626.0, 0.002945351818740805
627.0, 0.004402627788850217
628.0, 0.004215400176953405
629.0, 0.0007361143588546498
630.0, 0.0024908107074984153
631.0, 0.005823610894216361
632.0, 0.0033802108555743937
633.0, 0.0031954920853333353
634.0, 0.003412075908006754
635.0, 0.0025128037916906398
636.0, 0.002809096215283694
637.0, 0.008121426157720742
638.0, 0.005519013829462188
639.0, 0.007770597263363814
640.0, 0.0080962377974167
641.0, 0.0073345335380129335
642.0, 0.007389614677436051
643.0, 0.009286160445387808
644.0, 0.012405193095902097
645.0, 0.015420242417991102
646.0, 0.012345750804522715
647.0, 0.015515811208861315
648.0, 0.017186305945119752
649.0, 0.021584703233595938
650.0, 0.025327550317345113
651.0, 0.019145670687878293
652.0, 0.026070838116570773
653.0, 0.025594311884013593
654.0, 0.027316896949636675
655.0, 0.02944068563040821
656.0, 0.03271011753456317
657.0, 0.035258384076469404
658.0, 0.034690824505552886
659.0, 0.03677547181448236
660.0, 0.041267562924562844
661.0, 0.04757531550183599
662.0, 0.05288484764803605
663.0, 0.05537926770520754
664.0, 0.05783499128307942
665.0, 0.06283741002053701
666.0, 0.06537531382751403
667.0, 0.06868945809775623
668.0, 0.07262294744172355
669.0, 0.08221911681326839
670.0, 0.0876972513636644
671.0, 0.09291918722623141
672.0, 0.10169384168904945
673.0, 0.1030737615584407
674.0, 0.10945154322764038
675.0, 0.12124739049362478
676.0, 0.13463420851577226
677.0, 0.13980445243337214
678.0, 0.14713780858384806
679.0, 0.16114707016859195
680.0, 0.17006170031035925
681.0, 0.18118645642661735
682.0, 0.1952462304943536
683.0, 0.20264398740902645
684.0, 0.2099711314050324
685.0, 0.21181300675130385
686.0, 0.20985035368722385
687.0, 0.21234011072456133
688.0, 0.21570090045835835
689.0, 0.21166500473517016
690.0, 0.21006818114966344
691.0, 0.2013435078895984
692.0, 0.1904345300821859
693.0, 0.18250294178255103
694.0, 0.1774616793178854
695.0, 0.16991708685079462
696.0, 0.15684197480519002
697.0, 0.1472801180133264
698.0, 0.1348678259838785
699.0, 0.1256611503722906
700.0, 0.11766811868718902
701.0, 0.10755410938207917
702.0, 0.09732988341251432
703.0, 0.09468975769617366
704.0, 0.09074384223579941
705.0, 0.08689951859126883
706.0, 0.07984960849252903
707.0, 0.07189629661178194
708.0, 0.06779330988270223
709.0, 0.06648008052807934
710.0, 0.05667322015125424
711.0, 0.05654044273513353
712.0, 0.053775331010590115
713.0, 0.048268014382058876
714.0, 0.04680643742333942
715.0, 0.04493001186495355
716.0, 0.041017687449471214
717.0, 0.04125302260946818
718.0, 0.03648697170132503
719.0, 0.038341418070336766
720.0, 0.031153902974519854
721.0, 0.030171726433366776
722.0, 0.023755037097243602
723.0, 0.017949392425601937
724.0, 0.02481673557924383
725.0, 0.028524021084634466
726.0, 0.02923817832401459
727.0, 0.017177112869643556
728.0, 0.017877945402298718
729.0, 0.018169022625158997
730.0, 0.015471678342380519
731.0, 0.015664035362024757
732.0, 0.020712357561386934
733.0, 0.01571016293877195
734.0, 0.012249927148724875
735.0, 0.01109243951851871
736.0, 0.008902404570825471
737.0, 0.009516622832281088
738.0, 0.009959809401169646
739.0, 0.008133263008042686
740.0, 0.010539578988937634
741.0, 0.008573576223231207
742.0, 0.004302358111572294
743.0, 0.00131652564466351
744.0, 0.0006248868249706192
745.0, 0.0007998155204581007
746.0, 0.0037308394206780667
747.0, 0.009100704970416965
748.0, 0.005177146262963718
749.0, 0.00880309342469059
750.0, 0.009644650094170249
751.0, 0.006189431916379785
752.0, 0.0040109992704032245
753.0, 0.005919045486583109
754.0, 0.00929643042852026
755.0, 0.01037825467534438
756.0, 0.014566852862534094
757.0, 0.014972303097653648
758.0, 0.013592357089217064
759.0, 0.011191385506219377
760.0, 0.011476790247713564
761.0, 0.012871184221364134
762.0, 0.013169825518249238
763.0, 0.013922678041192148
764.0, 0.013468054521920778
765.0, 0.015287119443034108
766.0, 0.016052717057914955
767.0, 0.016709676434125912
768.0, 0.01829921531960758
769.0, 0.01803899558893541
770.0, 0.015792735083814513
771.0, 0.018746934333934245
772.0, 0.022141854491575377
773.0, 0.016063253912733957
774.0, 0.01639149769505718
775.0, 0.014824286921744532
776.0, 0.012968186632851647
777.0, 0.012739596695475301
778.0, 0.012710093997834007
779.0, 0.011590055315436132
780.0, 0.016153316972713737
781.0, 0.01214421400869128
782.0, 0.015364013227914829
783.0, 0.014485021991751511
784.0, 0.012415001824057536
785.0, 0.011504314510731604
786.0, 0.010728017722538175
787.0, 0.012778161292050207
788.0, 0.0069228082688290345
789.0, 0.005629369878962242
790.0, 0.00898371506921515
791.0, 0.010645117324277305
792.0, 0.010115599826096906
793.0, 0.00992435879758525
794.0, 0.010940582913066975
795.0, 0.010346511636505226
796.0, 0.01244759966399615
797.0, 0.007294505036003301
798.0, 0.005265304723301382
799.0, 0.00656159194576161
800.0, 0.007672573604061016
801.0, 0.008530611698016229
802.0, 0.010907259281594856
803.0, 0.011837154792358175
804.0, 0.010050544287466791
805.0, 0.011890104492708092
806.0, 0.011456952217737435
807.0, 0.012730445199356621
808.0, 0.012183800186365045
809.0, 0.010621813648436252
810.0, 0.011512406225999089
811.0, 0.011579020740411268
812.0, 0.010752614964853953
813.0, 0.013407168553508427
814.0, 0.011889343670622303
815.0, 0.012765314030248867
816.0, 0.012949166572117029
817.0, 0.012949579125554578
818.0, 0.014552771478712536
819.0, 0.014309578592561618
820.0, 0.018687070289835666
821.0, 0.01712217505462499
822.0, 0.019276784887955308
823.0, 0.018528527511782203
824.0, 0.019803120375960322
825.0, 0.021305392977982774
826.0, 0.021662092027417847
827.0, 0.025644558237407147
828.0, 0.02241428465476165
829.0, 0.027803565746299035
830.0, 0.034813400151206104
831.0, 0.03840092845853793
832.0, 0.039643435157117435
833.0, 0.04180608872123926
834.0, 0.04529434573527674
835.0, 0.047940823973476654
836.0, 0.05160714553988749
837.0, 0.05459382911768495
838.0, 0.057559218613562654
839.0, 0.06068471003941892
840.0, 0.06530545938247714
841.0, 0.06998314930124339
842.0, 0.07551284706713254
843.0, 0.08493117023935307
844.0, 0.10011547776067733
845.0, 0.1306642128359975
846.0, 0.12563577010951893
847.0, 0.13375162586966313
848.0, 0.13106574734337179
849.0, 0.13189391497693562
850.0, 0.14085014835237158
851.0, 0.1519456964513288
852.0, 0.16635996858410293
853.0, 0.18063384753150388
854.0, 0.19416743532396274
855.0, 0.2094265035123566
856.0, 0.23251916993822333
857.0, 0.25706529005453077
858.0, 0.28021092536609654
859.0, 0.3054633292656284
860.0, 0.33545899687503467
861.0, 0.3642393830912734
862.0, 0.4054606074042158
863.0, 0.4431096607806717
864.0, 0.4867860634334874
865.0, 0.5425827466116502
866.0, 0.6033300799422723
867.0, 0.6612219166351802
868.0, 0.718457884905476
869.0, 0.7824002343080317
870.0, 0.838148157582862
871.0, 0.8923436019196223
872.0, 0.9476637389213151
873.0, 0.9772123187731986
874.0, 0.9933819985961427
875.0, 0.990690567950487
876.0, 0.9656739922000124
877.0, 0.9264311029385001
878.0, 0.8737618692941379
879.0, 0.8007429726737939
880.0, 0.7269704556961145
881.0, 0.6597453957274955
882.0, 0.5957753050235883
883.0, 0.5297359610161443
884.0, 0.469504144239499
885.0, 0.41982837911266596
886.0, 0.3732667631897697
887.0, 0.3321691502699171
888.0, 0.2962614095735587
889.0, 0.2661062413699857
890.0, 0.23906711700491284
891.0, 0.21472639904826551
892.0, 0.19243114578605597
893.0, 0.1721695297146226
894.0, 0.15413974747325945
895.0, 0.13807075697384372
896.0, 0.12437941260483033
897.0, 0.1113693987052081
898.0, 0.10132212897429685
899.0, 0.09252513785908559
900.0, 0.08525436002022509
901.0, 0.07737853301293024
902.0, 0.0675188262654231
903.0, 0.06050939770672382
904.0, 0.06352128822198536
905.0, 0.057318600255559245
906.0, 0.04402570698929327
907.0, 0.04645047756490464
908.0, 0.04163978405509219
909.0, 0.039986645753186334
910.0, 0.040099243232064305
911.0, 0.03665941681794206
912.0, 0.031134976363078628
913.0, 0.028350034826131302
914.0, 0.03162098936154035
915.0, 0.021523043971732145
916.0, 0.02767916307782052
917.0, 0.024686695176727887
918.0, 0.02118125369035358
919.0, 0.018225253832404066
920.0, 0.013255581182517767
921.0, 0.011073600204131869
922.0, 0.01923940074741649
923.0, 0.02412870562127769
924.0, 0.02550061142007092
925.0, 0.01457222748873512
926.0, 0.015433116449350982
927.0, 0.016355452618091317
928.0, 0.014376855356658148
929.0, 0.016063188113893803
930.0, 0.01938558970145707
931.0, 0.011071490468022853
932.0, 0.018918491012602172
933.0, 0.019384807931038996
934.0, 0.02284648042429544
935.0, 0.021129149069128154
936.0, 0.019084260747743963
937.0, 0.021647166921595382
938.0, 0.021239741209818513
939.0, 0.013583239501298095
940.0, 0.014708049306715924
941.0, 0.020080133623688705
942.0, 0.015578576100737785
943.0, 0.010692681713945327
944.0, 0.016462045362176672
945.0, 0.016521077678380888
946.0, 0.013741891024774924
947.0, 0.012930334382460535
948.0, 0.013821968291291729
949.0, 0.015648063637440715
950.0, 0.01196665884543379
951.0, 0.012916985138812037
952.0, 0.006482007928365339
953.0, 0.005551921495115307
954.0, 0.0076699330925237945
955.0, 0.007783827254755823
956.0, 0.006861433967627738
957.0, 0.005468866861901385
958.0, 0.002905454565881152
959.0, 0.007092624390902147
960.0, 0.0010543475362359014
961.0, 0.005023132321192643
962.0, 0.00490828328512787
963.0, 0.0022654871960273043
964.0, 0.0005563156370126601
965.0, 0.000774779610281454
966.0, 0.0018575463563104866
967.0, 0.002162755662363073
968.0, 0.001434350015097768
969.0, 0.004606956476790181
970.0, 0.002496731938955749
971.0, 0.002274897758687501
972.0, 0.004404387234111236
973.0, 0.003540305965795612
974.0, 0.003292669313167909
975.0, 0.002591712553460541
976.0, 0.0002038844796254367
977.0, 0.0005803778374133792
978.0, 0.0020714807512876286
979.0, 0.004219919025275661
980.0, 0.0016607959677513871
981.0, 0.0007535226740160866
982.0, 0.0034664394639366074
983.0, 0.002690767576878167
984.0, 0.0034112659559133902
985.0, 0.004385473349049234
986.0, 0.0009782042839765878
987.0, 0.0015812615317959077
988.0, 0.002938476994215719
989.0, 0.0015982935993776092
990.0, 0.007494803558969899
991.0, 0.0076686942228907685
992.0, 0.006735429618622516
993.0, 0.0069684788795199605
994.0, 0.007832076728927355
995.0, 0.007004186390146871
996.0, 0.0046609426058870015
997.0, 0.005557633515195766
998.0, 0.002291408246439437
999.0, 0.006106822166482874
1000.0, 0.0070350096983287065
1001.0, 0.006348244762198981
1002.0, 0.006273090476117084
1003.0, 0.01449807845431159
1004.0, 0.01833029861522802
1005.0, 0.012736407267416688
1006.0, 0.011836480101050234
1007.0, 0.0066019748061347805
1008.0, 0.0002059086395574299
1009.0, 0.005188353991206231
1010.0, 0.0034949583569765094
1011.0, 0.002185484116701813
1012.0, 0.0030051725389815386
1013.0, 0.0035601647504499567
1014.0, 0.005775840881790558
1015.0, 0.008516454034692995
1016.0, 0.005686237537564762
1017.0, 0.0027399244914014706
1018.0, 0.004182846239593956
1019.0, 0.003984233388500969
1020.0, 0.001294274850865713
1021.0, 0.002366859007858197
1022.0, 0.004157611157234825
1023.0, 0.004684863617550585
1024.0, 0.008213918572430466
1025.0, 0.010701709341217846
1026.0, 0.005113851900837195
1027.0, 0.008555795765497531
1028.0, 0.0017481839781957284
1029.0, 0.008791110052813095
1030.0, 0.008208875225085522
1031.0, 0.009729299193094766
1032.0, 0.00861163420271586
1033.0, 0.007375750578127143
1034.0, 0.008517973537127858
1035.0, 0.009524927772834141
1036.0, 0.007089909465883667
1037.0, 0.004687668327811799
1038.0, 0.011859830115345216
1039.0, 0.01160277046806914
1040.0, 0.009405170971493479
1041.0, 0.01374453457336864
1042.0, 0.013351043594674133
1043.0, 0.012975427656853677
1044.0, 0.010332119819573925
1045.0, 0.005828158326198042
1046.0, 0.0062335631131684565
1047.0, 0.010425561349386136
1048.0, 0.013127908405102673
1049.0, 0.011963214079244807
1050.0, 0.014825275441718345
1051.0, 0.012352265894901931
1052.0, 0.01284181822281853
1053.0, 0.01374308965957347
1054.0, 0.016143317906498887
1055.0, 0.014420811297151016
1056.0, 0.009985942249829885
1057.0, 0.013496530930773284
1058.0, 0.011847958058893415
1059.0, 0.016901232493948613
1060.0, 0.016025425975649266
1061.0, 0.015246107329436126
1062.0, 0.012781769396798313
1063.0, 0.01635801833892511
1064.0, 0.015921723861722064
1065.0, 0.015884549237567956
1066.0, 0.017423342324820533
1067.0, 0.01611956587789194
1068.0, 0.019508069244273722
1069.0, 0.015400900878769469
1070.0, 0.01600353584683948
1071.0, 0.01960500653957108
1072.0, 0.016221345830600656
1073.0, 0.018137479241775833
1074.0, 0.01714356028884077
1075.0, 0.019148354941573197
1076.0, 0.020120911902329983
1077.0, 0.016676393207210403
1078.0, 0.01646629433194232
1079.0, 0.01718751834577258
1080.0, 0.016200728192659858
1081.0, 0.014497180165350856
1082.0, 0.014541789892574212
1083.0, 0.014230881023708015
1084.0, 0.015015915291885725
1085.0, 0.014185870101828724
1086.0, 0.01608946584062161
1087.0, 0.0180333899739807
1088.0, 0.01623619724787922
1089.0, 0.01478836642108981
1090.0, 0.01396304418093368
1091.0, 0.01265407107475202
1092.0, 0.017559841015359234
1093.0, 0.008650713732129313
1094.0, 0.015006371808572132
1095.0, 0.015242271880368233
1096.0, 0.016475712063638424
1097.0, 0.01781965487954504
1098.0, 0.014463066862732035
1099.0, 0.011712597876892536
1100.0, 0.014991083381508332
1101.0, 0.012696165036139549
1102.0, 0.010591220067380095
1103.0, 0.012349998439989013
1104.0, 0.009548881562550472
1105.0, 0.01043986187551113
1106.0, 0.008974483853539387
1107.0, 0.009671610531199318
1108.0, 0.009392249135703022
1109.0, 0.012179862658404577
1110.0, 0.019257076831439644
1111.0, 0.022930421293788368
1112.0, 0.021408488268355445
1113.0, 0.00944194480815802
1114.0, 0.014698637688882563
1115.0, 0.012380085073041659
1116.0, 0.009819854475069395
1117.0, 0.015512794144546791
1118.0, 0.01007295866563823
1119.0, 0.010106096204304905
1120.0, 0.013984548118606539
1121.0, 0.015495407690548078
1122.0, 0.016705242765005734
1123.0, 0.013273140569509097
1124.0, 0.012579450765097613
1125.0, 0.018407079853082715
1126.0, 0.020167087697210682
1127.0, 0.015816067859490787
1128.0, 0.018309899154415728
1129.0, 0.010728265541118292
1130.0, 0.007886323776585285
1131.0, 0.013057293264099743
1132.0, 0.01523501818772242
1133.0, 0.013871301607380138
1134.0, 0.016989009725314773
1135.0, 0.015215412847029266
1136.0, 0.003575128870268871
1137.0, 0.015098970182618885
1138.0, 0.01577626536523452
1139.0, 0.011445207514973745
1140.0, 0.0073946522882449486
1141.0, 0.006401616184321525
1142.0, 0.003875093809268014
1143.0, 0.0030753197140032528
1144.0, 0.0028232189774783727
1145.0, 0.0004615966834243661
1146.0, 0.0006030369426257851
1147.0, 0.0020278719388930585
1148.0, 0.004247269572171732
1149.0, 0.0047109864015266
1150.0, 0.0011917505698267965
1151.0, 0.003674388773097874
1152.0, 0.0031520077024962466
1153.0, 0.0018858948079598175
1154.0, 0.005258589648821879
1155.0, 0.006340643526553517
1156.0, 0.003233858065704479
1157.0, 0.0032078448375409173
1158.0, 0.0056396565469382
1159.0, 0.002476289609255782
1160.0, 0.002702300973078168
1161.0, 0.0067253843963608305
1162.0, 0.0012782606601217093
1163.0, 0.0018163209290014898
1164.0, 0.001494714234626393
1165.0, 0.0011057810459393024
1166.0, 0.0009226604649688422
1167.0, 0.0007049438478381552
1168.0, 0.0004380195353350991
1169.0, 0.0016015967938365272
1170.0, 0.003822659794625634
1171.0, 0.002211801223827695
1172.0, 0.0014563397503254598
1173.0, 0.0033225185710137025
1174.0, 0.002637837777285771
1175.0, 0.0010113267516603489
1176.0, 0.0065340802593373245
1177.0, 0.008082370863338717
1178.0, 0.006775544083413302
1179.0, 0.003209995873195769
1180.0, 0.000681457770920788
1181.0, 0.002068125094953681
1182.0, 0.00373001953259708
1183.0, 0.0020998229901669
1184.0, 0.0034739016456383732
1185.0, 0.005698941071955224
1186.0, 0.0010387956916845013
1187.0, 0.006675480887918098
1188.0, 0.006953749673308454
1189.0, 0.004357229365460211
1190.0, 0.0018994900269364563
1191.0, 0.0022453404022550316
1192.0, 0.005131799541870838
1193.0, 0.0050382746245873486
1194.0, 0.0037329600460056897
1195.0, 0.006293181768246679
1196.0, 0.004028466770738803
1197.0, 0.0033157643363002356
1198.0, 0.0018125630457199783
1199.0, 0.0008071329338884634
1200.0, 0.0026954029199116993
1201.0, 0.0006512751916098069
1202.0, 0.0009941798088494188
1203.0, 0.001602222059797608
1204.0, 0.002024069726464597
1205.0, 0.0035178420085187475
1206.0, 0.00432103607585347
1207.0, 0.004467801516680143
1208.0, 0.0056277168470110425
1209.0, 0.00447343544646165
1210.0, 0.006546844857683333
1211.0, 0.0002021465941461592
1212.0, 0.005270426868707478
1213.0, 0.007088733051993541
1214.0, 0.0029557530681825306
1215.0, 0.001727960319421752
1216.0, 0.003505035190185931
1217.0, 0.00488195139750496
1218.0, 0.0031661454939082016
1219.0, 0.0026376603214048606
1220.0, 0.0034392690255656867
1221.0, 0.0023176476174314765
1222.0, 0.004560321310957467
1223.0, 0.004499930363688971
1224.0, 0.008541956131824492
1225.0, 0.010237951403822814
1226.0, 0.006515141636184766
1227.0, 0.006479454412864874
1228.0, 0.007941027025107333
1229.0, 0.007977030495756135
1230.0, 0.008017674883235824
1231.0, 0.006921189046932346
1232.0, 0.004953628758400385
1233.0, 0.0030820011672321626
1234.0, 0.0042572129729406116
1235.0, 0.007376718213998896
1236.0, 0.0018321926322484286
1237.0, 0.00517984475602321
1238.0, 0.008731896434995265
1239.0, 0.002566910051353732
1240.0, 0.009502718320778064
1241.0, 0.00770916953226971
1242.0, 0.006764154281336832
1243.0, 0.00806818394932891
1244.0, 0.005655552211367822
1245.0, 0.005399205969365439
1246.0, 0.007055881459452148
1247.0, 0.007692661978384057
1248.0, 0.008143009043057509
1249.0, 0.0071560471641100645
1250.0, 0.007005264431976647
1251.0, 0.005008640903687485
1252.0, 0.006443349543724272
1253.0, 0.005411965228607704
1254.0, 0.004590234739991117
1255.0, 0.004205371334658164
1256.0, 0.00810651671771942
1257.0, 0.0035053721637737
1258.0, 0.004626253079481601
1259.0, 0.007654269448323842
1260.0, 0.006007776694763843
1261.0, 0.004721594340443778
1262.0, 0.005347484561872857
1263.0, 0.0025225614524806293
1264.0, 0.002142702829761235
1265.0, 0.009772015176125375
1266.0, 0.004233697830984968
1267.0, 0.01716864283953825
1268.0, 0.0026790634480990862
1269.0, 0.004465748143605108
1270.0, 0.004706722681516253
1271.0, 0.0027393910576652943
1272.0, 0.004029722403251293
1273.0, 0.004015059711130239
1274.0, 0.004028533473475709
1275.0, 0.00382758581113394
1276.0, 0.002449021955812758
1277.0, 0.001940827460940954
1278.0, 0.0020837340765188523
1279.0, 0.0035599799380171045
1280.0, 0.0005798076201648405
1281.0, 0.000721320322285121
1282.0, 0.005694965891095239
1283.0, 0.004746795754891811
1284.0, 0.00449455848506524
1285.0, 0.006315375887979973
1286.0, 0.004890166463049917
1287.0, 0.0040748772770232405
1288.0, 0.0057685728285938355
1289.0, 0.005153576803463411
1290.0, 0.00449944026616109
1291.0, 0.004950787977350257
1292.0, 0.005289466487753404
1293.0, 0.009356439806992446
1294.0, 0.00959439433329137
1295.0, 0.0064789202408041344
1296.0, 0.006042654239041905
1297.0, 0.005970069844706632
1298.0, 0.004653262973821059
1299.0, 0.006770652554898298
1300.0, 0.006089950375674733
1301.0, 0.005208547325715348
1302.0, 0.007544237571213256
1303.0, 0.006902597684213163
1304.0, 0.005101357384734971
1305.0, 0.004967831281249008
1306.0, 0.0039022327492101855
1307.0, 0.0015072159663162192
1308.0, 0.004148821942840289
1309.0, 0.010147498763519763
1310.0, 0.004572303745015955
1311.0, 0.01004869420544782
1312.0, 0.008112463989609539
1313.0, 0.0020673788580305528
1314.0, 0.004850739930554008
1315.0, 0.005122229057495606
1316.0, 0.006246653137222775
1317.0, 0.006675888169301088
1318.0, 0.0064859124615799305
1319.0, 0.005958837886868772
1320.0, 0.005899014092693215
1321.0, 0.005497830954459837
1322.0, 0.005610691894301719
1323.0, 0.007473957872023329
1324.0, 0.007887993959630637
1325.0, 0.005850639903676336
1326.0, 0.008185077190496721
1327.0, 0.009757897211155431
1328.0, 0.00770896697334815
1329.0, 0.009759451685074045
1330.0, 0.007508449699482367
1331.0, 0.00867680850266588
1332.0, 0.0076307062933215365
1333.0, 0.007210830918875387
1334.0, 0.007813775622194475
1335.0, 0.007742304710993018
1336.0, 0.007873784011370002
1337.0, 0.0086542156174902
1338.0, 0.008623142112896857
1339.0, 0.00796508495841454
1340.0, 0.008118456954385121
1341.0, 0.009081512227879503
1342.0, 0.00944800185530639
1343.0, 0.007210124321606849
1344.0, 0.012192514039117908
1345.0, 0.0121505343334741
1346.0, 0.010943403817533507
1347.0, 0.0007868569171364742
1348.0, 0.008154011244682608
1349.0, 0.008177215972442751
1350.0, 0.009286402142351744
1351.0, 0.011863410871908307
1352.0, 0.010330353069195195
1353.0, 0.009230143651917301
1354.0, 0.01156898983161846
1355.0, 0.013200431543162024
1356.0, 0.00926091910942804
1357.0, 0.0057024410717132
1358.0, 0.00710779443092951
1359.0, 0.006555134685537527
1360.0, 0.010011484118864999
1361.0, 0.006505064783265737
1362.0, 0.007663243859963072
1363.0, 0.01743056559303676
1364.0, 0.005660330171634857
1365.0, 0.010543456570860539
1366.0, 0.01383143550689202
1367.0, 0.009960767003772004
1368.0, 0.004259399195311554
1369.0, 0.0068343131980325746
1370.0, 0.009118270900818709
1371.0, 0.010260671920586332
1372.0, 0.010610464892481039
1373.0, 0.011935529841249607
1374.0, 0.010819576597007236
1375.0, 0.008775793797596661
1376.0, 0.009888310086912419
1377.0, 0.008295205615353567
1378.0, 0.01076121343410306
1379.0, 0.007399090365640139
1380.0, 0.007846698644170749
1381.0, 0.011746909872545726
1382.0, 0.009809696211018178
1383.0, 0.009921969015414277
1384.0, 0.014593975399795078
1385.0, 0.008261161534363437
1386.0, 0.007987251118072716
1387.0, 0.006633468410342034
1388.0, 0.005014428777860233
1389.0, 0.0036452750446054547
1390.0, 0.005097634376256676
1391.0, 0.004931865828254496
1392.0, 0.005393293032231917
1393.0, 0.010329286246333074
1394.0, 0.010592454566807769
1395.0, 0.003898223678745725
1396.0, 0.004178646485163515
1397.0, 0.008559794548842455
1398.0, 0.008277055814277956
1399.0, 0.007150054977117966
1400.0, 0.00868094128488329
1401.0, 0.0075544841215133265
1402.0, 0.008306064489576319
1403.0, 0.007589711753164521
1404.0, 0.007739779396835417
1405.0, 0.009269412449699985
1406.0, 0.006348284836995801
1407.0, 0.006930456000555511
1408.0, 0.009885526791529714
1409.0, 0.00869267708973431
1410.0, 0.0039524112532692965
1411.0, 0.0038622003651571104
1412.0, 0.005728211887984582
1413.0, 0.007488344861308059
1414.0, 0.00905834450325345
1415.0, 0.008013142194092524
1416.0, 0.008731511253837983
1417.0, 0.007459243581092897
1418.0, 0.005489984661928191
1419.0, 0.006268377834034319
1420.0, 0.004997033985581912
1421.0, 0.006480193143583106
1422.0, 0.005362012575260618
1423.0, 0.0038409744709367857
1424.0, 0.007107435102991368
1425.0, 0.004330346074534295
1426.0, 0.006566283349014861
1427.0, 0.004698770351163028
1428.0, 0.0023068823238793436
1429.0, 0.003226305356885187
1430.0, 0.005883853972810008
1431.0, 0.005394303648483911
1432.0, 0.003986538942755725
1433.0, 0.0022988954737849384
1434.0, 0.0008320183311108576
1435.0, 0.0027454791760514424
1436.0, 0.005527881648440017
1437.0, 0.00624408226089665
1438.0, 0.00690920691354507
1439.0, 0.0037588946198736477
1440.0, 0.0026842401382004546
1441.0, 0.0059897313695145915
1442.0, 0.005437110977766268
1443.0, 0.0024001866411374126
1444.0, 0.0036633766621306896
1445.0, 0.0018275532238391896
1446.0, 0.004821661379269366
1447.0, 0.0007376430059130748
1448.0, 0.007443554712652917
1449.0, 0.006777238562088989
1450.0, 0.003871422668710875
1451.0, 0.004273804487198534
1452.0, 0.003852663431789504
1453.0, 0.0015441653598429622
1454.0, 0.006154846969756303
1455.0, 0.005110428382034154
1456.0, 0.0026137883240750595
1457.0, 0.004979292901461735
1458.0, 0.0030773723242906318
1459.0, 0.0015156174908429966
1460.0, 0.002428045977919565
1461.0, 0.0005500223863331857
1462.0, 0.00234504820257124
1463.0, 0.0064323615914744295
1464.0, 0.0034092358828323446
1465.0, 0.0026958830207326687
1466.0, 0.012183178935132788
1467.0, 0.006816910062198896
1468.0, 0.008019649728280802
1469.0, 0.0015379096301176378
1470.0, 0.005504510817684034
1471.0, 0.0015319253665946912
1472.0, 0.0027082580548619516
1473.0, 0.0042324566886698355
1474.0, 0.0046614459214762635
1475.0, 0.007094868941487644
1476.0, 0.007838704119192704
1477.0, 0.007834396972867448
1478.0, 0.007906841185916074
1479.0, 0.006382234818003255
1480.0, 0.004540707613633632
1481.0, 0.002624724412015709
1482.0, 0.004889208827892279
1483.0, 0.009552942913000417
1484.0, 0.007608085368707193
1485.0, 0.0046916553528138175
1486.0, 0.003299289928847683
1487.0, 0.0020392503140674646
1488.0, 0.00702357357196749
1489.0, 0.0032580209364525305
1490.0, 0.00432198262445023
1491.0, 0.010387304827963803
1492.0, 0.004587294969161258
1493.0, 0.0012988083249529888
1494.0, 0.0008499912431843425
1495.0, 0.0023673578760009927
1496.0, 0.006745909459502307
1497.0, 0.004255443423245776
1498.0, 0.004890283970294187
1499.0, 0.003181869551979388
1500.0, 0.003854650644639854
1501.0, 0.005922997196123684
1502.0, 0.006761534816144659
1503.0, 0.00792222930610233
1504.0, 0.01002036351490504
1505.0, 0.005897499970634674
1506.0, 0.0037712663798558275
1507.0, 0.005142629405010884
1508.0, 0.004212105871224212
1509.0, 0.006715772041888296
1510.0, 0.009525398752615466
1511.0, 0.006993442251296829
1512.0, 0.005710349647238489
1513.0, 0.004722519790568332
1514.0, 0.007180951645701403
1515.0, 0.0068937775350794055
1516.0, 0.00877756804399029
1517.0, 0.00740754422323504
1518.0, 0.009861096812567036
1519.0, 0.012735170469413935
1520.0, 0.010949409557392868
1521.0, 0.010150832461946027
1522.0, 0.009427104296339198
1523.0, 0.0063739399031735155
1524.0, 0.004042222533005635
1525.0, 0.006193178097440245
1526.0, 0.0021001449050306537
1527.0, 0.00644119799083559
1528.0, 0.005780333873906694
1529.0, 0.006133510373402806
1530.0, 0.005310178886567745
1531.0, 0.0030335649224460673
1532.0, 0.005498321832106263
1533.0, 0.002589461729182372
1534.0, 0.0050460171807853085
1535.0, 0.0037203223123988835
1536.0, 0.0018661594793326955
1537.0, 0.0058240442382692555
1538.0, 0.007604743191539126
1539.0, 0.007024541212309144
1540.0, 0.007316917637488773
1541.0, 0.007361011801868178
1542.0, 0.004816109945477322
1543.0, 0.003582969093465038
1544.0, 0.011078861191723553
1545.0, 0.015122279078432572
1546.0, 0.012158721443353063
1547.0, 0.0032445985814951025
1548.0, 0.007359854423777479
1549.0, 0.005228767040974527
1550.0, 0.004664153451442951
1551.0, 0.010578829124535769
1552.0, 0.0009968556799629029
1553.0, 0.008621296699029642
1554.0, 0.00872029370552746
1555.0, 0.012658265362089405
1556.0, 0.008750169458031781
1557.0, 0.007301777441413647
1558.0, 0.013304713676815131
1559.0, 0.01568281335692879
1560.0, 0.01139819578363331
1561.0, 0.014615045718210795
1562.0, 0.004635938284309373
1563.0, 0.00438302784603561
1564.0, 0.011643702087275831
1565.0, 0.010075991949640985
1566.0, 0.01227375760073625
1567.0, 0.014297349256003542
1568.0, 0.0047968597058500526
1569.0, 0.008422554052464639
1570.0, 0.012637578158060528
1571.0, 0.004984273141167569
1572, 0.0
1573, 0.0
1574, 0.0
1575, 0.0
1576, 0.0
1577, 0.0
1578, 0.0
1579, 0.0
1580, 0.0
1581, 0.0
1582, 0.0
1583, 0.0
1584, 0.0
1585, 0.0
1586, 0.0
1587, 0.0
1588, 0.0
1589, 0.0
1590, 0.0
1591, 0.0
1592, 0.0
1593, 0.0
1594, 0.0
1595, 0.0
1596, 0.0
1597, 0.0
1598, 0.0
1599, 0.0
