30, 0.0
31, 0.0
32, 0.0
33, 0.0
34, 0.0
35, 0.0
36, 0.0
37, 0.0
38, 0.0
39, 0.0
40, 0.0
41, 0.0
42, 0.0
43, 0.0
44, 0.0
45, 0.0
46, 0.0
47, 0.0
48, 0.0
49, 0.0
50, 0.0
51, 0.0
52, 0.0
53, 0.0
54, 0.0
55, 0.0
56, 0.0
57, 0.0
58, 0.0
59, 0.0
60, 0.0
61, 0.0
62, 0.0
63, 0.0
64, 0.0
65, 0.0
66, 0.0
67, 0.0
68, 0.0
69, 0.0
70, 0.0
71, 0.0
72, 0.0
73, 0.0
74, 0.0
75, 0.0
76, 0.0
77, 0.0
78, 0.0
79, 0.0
80, 0.0
81, 0.0
82, 0.0
83, 0.0
84, 0.0
85, 0.0
86, 0.0
87, 0.0
88, 0.0
89, 0.0
90, 0.0
91, 0.0
92, 0.0
93, 0.0
94, 0.0
95, 0.0
96, 0.0
97, 0.0
98, 0.0
99, 0.0
100, 0.0
101, 0.0
102, 0.0
103, 0.0
104, 0.0
105, 0.0
106, 0.0
107, 0.0
108, 0.0
109, 0.0
110, 0.0
111, 0.0
112, 0.0
113, 0.0
114, 0.0
115, 0.0
116, 0.0
117, 0.0
118, 0.0
119, 0.0
120, 0.0
121, 0.0
122, 0.0
123, 0.0
124, 0.0
125, 0.0
126, 0.0
127, 0.0
128, 0.0
129, 0.0
130, 0.0
131, 0.0
132, 0.0
133, 0.0
134, 0.0
135, 0.0
136, 0.0
137, 0.0
138, 0.0
139, 0.0
140.0, 0.0011045163879872988
141.0, 0.0037855921570429996
142.0, 0.003312756261835341
143.0, 0.0020008136567056796
144.0, 0.0015220926084675457
145.0, 0.0010935656696582454
146.0, 0.012276307166604473
147.0, 0.014433440746163108
148.0, 0.004222348643534512
149.0, 0.005585594550232993
150.0, 0.018749533867077936
151.0, 0.014743100677659618
152.0, 0.0029047208204255213
153.0, 0.005274936979581233
154.0, 0.0013942129175865629
155.0, 0.00845666949006855
156.0, 0.017011533366071932
157.0, 0.005225530632432911
158.0, 0.004307067757118144
159.0, 0.0067799430254126426
160.0, 0.00849307972562466
161.0, 0.00983202830842931
162.0, 0.017417791306910152
163.0, 0.017379003188486675
164.0, 0.011311520855996562
165.0, 0.006615390293524222
166.0, 0.012605363093397893
167.0, 0.013930029689389329
168.0, 0.010449016263013734
169.0, 0.01011444657708764
170.0, 0.01958589543355708
171.0, 0.024566160477475476
172.0, 0.024834398651853083
173.0, 0.022633076859262746
174.0, 0.019714137424240323
175.0, 0.0167156583320915
176.0, 0.013461317135242403
177.0, 0.01574507702877238
178.0, 0.022056501935061784
179.0, 0.01688664685090473
180.0, 0.01699877430430801
181.0, 0.017593276461523828
182.0, 0.014891224816063371
183.0, 0.015015571527365741
184.0, 0.013635699751313037
185.0, 0.016926488423553085
186.0, 0.02014519054450332
187.0, 0.016836585428451158
188.0, 0.022043125555491788
189.0, 0.02232448799561947
190.0, 0.023159893815298694
191.0, 0.028931995670318806
192.0, 0.026883124603438807
193.0, 0.030735345310847494
194.0, 0.033648904840613766
195.0, 0.03399353691591515
196.0, 0.04123605454047377
197.0, 0.04340025289549964
198.0, 0.041891369376370176
199.0, 0.044137515785191976
200.0, 0.05586554110207288
201.0, 0.06906491452367539
202.0, 0.07193402130773414
203.0, 0.07625911857823436
204.0, 0.0877701365521329
205.0, 0.08390971642327029
206.0, 0.08828656382460541
207.0, 0.09687461506432238
208.0, 0.10015234562725807
209.0, 0.0921651562719515
210.0, 0.0853243460012884
211.0, 0.08293936464449737
212.0, 0.07798914205601043
213.0, 0.06420908084800099
214.0, 0.04650097293072179
215.0, 0.03770736328902714
216.0, 0.03218858728979568
217.0, 0.026739155203111407
218.0, 0.02689331623293339
219.0, 0.02155398439095731
220.0, 0.007140459638079657
221.0, 0.006547435873327958
222.0, 0.007199994355200495
223.0, 0.010464858407585783
224.0, 0.009759847120786778
225.0, 0.010022292857931473
226.0, 0.01247376733573171
227.0, 0.0159947331770672
228.0, 0.011410669441337161
229.0, 0.006479834722495149
230.0, 0.004785255071119556
231.0, 0.0044714482469687625
232.0, 0.003929936998015836
233.0, 0.007640581631247721
234.0, 0.009339691953139651
235.0, 0.0056306701353783
236.0, 0.011693963244566749
237.0, 0.004716115163514264
238.0, 0.0014820858025974756
239.0, 0.006627738903057109
240.0, 0.008609587864682224
241.0, 0.012198202699392518
242.0, 0.008312319579612669
243.0, 0.0023468582036212863
244.0, 0.0033298080521379095
245.0, 0.011039831137478553
246.0, 0.003137119019834732
247.0, 0.0051522878211011204
248.0, 0.009176682948644575
249.0, 0.004047567295751998
250.0, 0.0063842935997426905
251.0, 0.0066995561837187734
252.0, 0.008432645196505092
253.0, 0.017145449549931798
254.0, 0.015237879538635942
255.0, 0.020467078277028653
256.0, 0.02563662446151909
257.0, 0.024839395260620154
258.0, 0.02075665056852424
259.0, 0.020014273479833592
260.0, 0.027435552448557093
261.0, 0.033358999852900494
262.0, 0.02914540224119073
263.0, 0.03190011536917657
264.0, 0.033772209026115274
265.0, 0.036008865896970964
266.0, 0.04010537489732014
267.0, 0.0440680302732961
268.0, 0.0275193875454361
269.0, 0.018838453913434045
270.0, 0.018029264877387846
271.0, 0.015440679756387844
272.0, 0.020518795778718308
273.0, 0.009889374380756702
274.0, 0.0031189536324721435
275.0, 0.007558515776823471
276.0, 0.008423688879363612
277.0, 0.013253172003402517
278.0, 0.007079714654741758
279.0, 0.0036105089942348374
280.0, 0.005899494546973282
281.0, 0.00380683953765084
282.0, 0.0021886696072690925
283.0, 0.0052888768495967
284.0, 0.005937049692809288
285.0, 0.008197472817674165
286.0, 0.0057187983417875485
287.0, 0.0013040390320337792
288.0, 0.0037230649762181184
289.0, 0.0015790638962846191
290.0, 0.006836257920579964
291.0, 0.00711755552481221
292.0, 0.0018081854688283658
293.0, 0.0011134958217939085
294.0, 0.008317107481064673
295.0, 0.006695358730853039
296.0, 0.0045041327949353486
297.0, 0.005786313647391572
298.0, 0.00916208773172973
299.0, 0.010827450428839402
300.0, 0.012808536652652159
301.0, 0.009316204654098654
302.0, 0.010728304092542896
303.0, 0.022293433752280645
304.0, 0.025308459761225584
305.0, 0.026491996625661405
306.0, 0.02160554758488562
307.0, 0.0194679264691003
308.0, 0.031489138452564486
309.0, 0.034600556537323586
310.0, 0.0400043022628848
311.0, 0.043599533829401654
312.0, 0.04463108946787403
313.0, 0.05115410697688102
314.0, 0.05298532347413346
315.0, 0.06890187754294216
316.0, 0.08662467147143213
317.0, 0.09373146134300632
318.0, 0.1136801098691908
319.0, 0.12375576774684216
320.0, 0.1334680048836277
321.0, 0.1481472054490953
322.0, 0.16356476470387737
323.0, 0.17267745187663125
324.0, 0.18830381751718156
325.0, 0.20554038213361367
326.0, 0.21784241223514045
327.0, 0.2221745204328284
328.0, 0.22701822582054146
329.0, 0.22452550955603204
330.0, 0.21366934203281313
331.0, 0.19809723293454587
332.0, 0.18313911719851617
333.0, 0.17069179956023237
334.0, 0.15527992452687805
335.0, 0.13513632712089
336.0, 0.1133582282088964
337.0, 0.10988978733497008
338.0, 0.09783369417307773
339.0, 0.0875544379836761
340.0, 0.07988706516872271
341.0, 0.060442169914367384
342.0, 0.06145943448642037
343.0, 0.05784081866658819
344.0, 0.049713668132445155
345.0, 0.04467745252647569
346.0, 0.038115559202830274
347.0, 0.035650598558354334
348.0, 0.029804974985247874
349.0, 0.02335617358135125
350.0, 0.02337664327554831
351.0, 0.030846395382045002
352.0, 0.027112048684888385
353.0, 0.022650587589249822
354.0, 0.022563633266257353
355.0, 0.02363923486010892
356.0, 0.024176592335137467
357.0, 0.019364297942779066
358.0, 0.008354936283240596
359.0, 0.0032972505203471476
360.0, 0.015450361953568569
361.0, 0.014781248173084285
362.0, 0.019576968238205775
363.0, 0.019979199309028934
364.0, 0.01134518673449576
365.0, 0.0076780308609717945
366.0, 0.006504746256294626
367.0, 0.0047415294713068
368.0, 0.005295096040613937
369.0, 0.009407452988338427
370.0, 0.008549678167620325
371.0, 0.008185078472599047
372.0, 0.008469110468879132
373.0, 0.008841811711786714
374.0, 0.005726096083126583
375.0, 0.0009064811191635764
376.0, 0.006697198927417396
377.0, 0.011450849514557588
378.0, 0.009292847576700389
379.0, 0.00350458018234437
380.0, 0.004950287935145802
381.0, 0.004644544491781416
382.0, 0.009150331518508113
383.0, 0.017070504753256194
384.0, 0.019735939982128033
385.0, 0.024160234327134364
386.0, 0.021510566949975156
387.0, 0.01847975649081799
388.0, 0.01904045983120721
389.0, 0.019377556792850994
390.0, 0.018968389242936645
391.0, 0.031303377498756564
392.0, 0.0363077123504005
393.0, 0.03135008489915809
394.0, 0.039173643833474533
395.0, 0.04770694410120648
396.0, 0.0466687018357429
397.0, 0.048061391220319896
398.0, 0.058276804475264204
399.0, 0.06372332894810025
400.0, 0.057278993719363805
401.0, 0.039155137233283725
402.0, 0.030574134275644264
403.0, 0.0368630103456876
404.0, 0.028073424743219888
405.0, 0.04801966325746776
406.0, 0.03280052596373294
407.0, 0.0183944686699092
408.0, 0.037722039330621376
409.0, 0.026343106616377853
410.0, 0.006400651487189369
411.0, 0.004957009511331584
412.0, 0.008956483733595746
413.0, 0.0035609833887314192
414.0, 0.00740783171805554
415.0, 0.011431761829309012
416.0, 0.013751998394609256
417.0, 0.011058425761250273
418.0, 0.004730859328545034
419.0, 0.007932128764276299
420.0, 0.005970440602278864
421.0, 0.003942487256810197
422.0, 0.004315985606096713
423.0, 0.005340043495722749
424.0, 0.002662247094658311
425.0, 0.0010992290250185326
426.0, 0.005300372491703857
427.0, 0.009841972328855008
428.0, 0.0101033448580264
429.0, 0.00654321952996182
430.0, 0.005745395220937068
431.0, 0.002077953248924527
432.0, 0.010946068496774606
433.0, 0.010562381161788075
434.0, 0.006337893947246722
435.0, 0.00778884009801303
436.0, 0.006445712605186725
437.0, 0.0074972280466654795
438.0, 0.012583857370762836
439.0, 0.004936851705512201
440.0, 0.005634683598667486
441.0, 0.006168304194309996
442.0, 0.002970235871574708
443.0, 0.0007037438002983569
444.0, 0.005796295332025005
445.0, 0.008104826721823903
446.0, 0.01019492310126591
447.0, 0.006800649102371852
448.0, 0.00130006615953121
449.0, 0.00704790617764141
450.0, 0.014226452626434247
451.0, 0.011035268571774393
452.0, 0.009586911623943904
453.0, 0.016665033926314105
454.0, 0.018860190689931014
455.0, 0.0126475254718221
456.0, 0.011653903982603932
457.0, 0.01704978300887828
458.0, 0.02065883808654395
459.0, 0.01482853888584636
460.0, 0.02651831776172791
461.0, 0.013901711726248244
462.0, 0.0019398546594087112
463.0, 0.004581557704462667
464.0, 0.0027191614262729318
465.0, 0.011113170445738046
466.0, 0.014071029607221302
467.0, 0.010980058903967017
468.0, 0.00986766406745573
469.0, 0.015235937215299084
470.0, 0.007539119316628283
471.0, 0.007991191607453133
472.0, 0.006109740208918783
473.0, 0.004836637499322102
474.0, 0.012761624287616187
475.0, 0.00747062444923619
476.0, 0.0024878379584799036
477.0, 0.002588144299936033
478.0, 0.006036122642815179
479.0, 0.01063073364382064
480.0, 0.016282849867299148
481.0, 0.005332098183874836
482.0, 0.009456289887575603
483.0, 0.017109552227985755
484.0, 0.011368243935438671
485.0, 0.004353585119976323
486.0, 0.005146083586707578
487.0, 0.006981703887038663
488.0, 0.0100977415965237
489.0, 0.012847584596979112
490.0, 0.005457088119795106
491.0, 0.005691736211491533
492.0, 0.0050045379574102525
493.0, 0.010748902255507092
494.0, 0.014318419574873873
495.0, 0.0011523040074626026
496.0, 0.008341457514838297
497.0, 0.008894195769602653
498.0, 0.0057010855391027414
499.0, 0.007999252845338728
500.0, 0.015663612789380357
501.0, 0.014546823086431945
502.0, 0.012416699830981502
503.0, 0.011826639923316824
504.0, 0.01287581940775575
505.0, 0.013828022870592678
506.0, 0.011817230399112116
507.0, 0.015870221300867866
508.0, 0.011770487694310855
509.0, 0.010803692456771968
510.0, 0.013722891544671326
511.0, 0.004179716957243614
512.0, 0.014900180006388061
513.0, 0.01895227724133577
514.0, 0.013880353250061171
515.0, 0.01093109205996505
516.0, 0.016362430276002527
517.0, 0.012138541069067331
518.0, 0.019124109604080265
519.0, 0.02423638614337725
520.0, 0.016299881696240234
521.0, 0.005876581084798628
522.0, 0.024100236180117016
523.0, 0.023332374982599755
524.0, 0.024200106252349547
525.0, 0.028739712207849395
526.0, 0.029589947047461745
527.0, 0.022513967007324172
528.0, 0.020543386483124496
529.0, 0.02271925853663394
530.0, 0.025934850859812487
531.0, 0.02925749863826183
532.0, 0.03402270873514469
533.0, 0.04038008895282273
534.0, 0.03401564009336122
535.0, 0.03463740234086617
536.0, 0.036685151239159886
537.0, 0.03194365285249114
538.0, 0.03272242771950068
539.0, 0.03138401133529306
540.0, 0.02928640922142087
541.0, 0.03314587910750529
542.0, 0.03814025963360897
543.0, 0.03269419619048339
544.0, 0.03217331999757341
545.0, 0.029647241522853467
546.0, 0.03267888860832047
547.0, 0.03231863999913271
548.0, 0.024209792336900626
549.0, 0.028540310526517034
550.0, 0.029896298931180086
551.0, 0.030907692287159897
552.0, 0.029625067392815414
553.0, 0.023791268209647543
554.0, 0.015075240879477435
555.0, 0.01179975839362237
556.0, 0.011486917483183055
557.0, 0.013277284516620956
558.0, 0.01119327873550299
559.0, 0.00469401055120854
560.0, 0.006417285077778013
561.0, 0.0023664251325616003
562.0, 0.00013236896973296171
563.0, 0.003971220014053452
564.0, 0.007926784504836859
565.0, 0.0032348668652211906
566.0, 0.007931337140149012
567.0, 0.0037855669077763413
568.0, 0.002274300516299035
569.0, 0.002133836339609174
570.0, 0.008953073670026034
571.0, 0.008136076828499945
572.0, 0.0021783042429137935
573.0, 0.004760097481501556
574.0, 0.01640404051409594
575.0, 0.01948661099357368
576.0, 0.0018908468456650632
577.0, 0.00012497103728068085
578.0, 0.004523227789202009
579.0, 0.0006728020700076448
580.0, 0.007527621168410961
581.0, 0.009548871573421254
582.0, 0.003213791667931978
583.0, 0.005270672061404488
584.0, 0.002700416641496619
585.0, 0.013297773590663486
586.0, 0.01826895120017371
587.0, 0.01647879347534408
588.0, 0.007275321512085409
589.0, 0.008240520821049398
590.0, 0.008932687212785518
591.0, 0.007263285168429807
592.0, 0.005966395893191852
593.0, 0.006111504361175544
594.0, 0.009565788637307587
595.0, 0.0016917731079069348
596.0, 0.003035840477991402
597.0, 0.0015324981664845264
598.0, 0.003602757827518693
599.0, 0.005029015073466026
600.0, 0.0066539277477040285
601.0, 0.007027357778417806
602.0, 0.002024400816343593
603.0, 0.0028396969906293985
604.0, 0.0012168916636910276
605.0, 0.00489665998793716
606.0, 0.004722066353655204
607.0, 0.004210283581138286
608.0, 0.0035621461158555374
609.0, 0.0020189766434609343
610.0, 0.0005835402693006323
611.0, 0.0013437456446601082
612.0, 0.012894638281557194
613.0, 0.01323481214424886
614.0, 0.003846327284908638
615.0, 0.003449537238548621
616.0, 0.019490316688784703
617.0, 0.012394236997219843
618.0, 0.008434332038168024
619.0, 0.006398486238325642
620.0, 0.005013667347772893
621.0, 0.007168504624062779
622.0, 0.004839031252557062
623.0, 0.008994528230652951
624.0, 0.002935756480829132
625.0, 0.0029118985722481655
626.0, 0.007691075781762071
627.0, 0.009209810716271392
628.0, 0.011855618085123963
629.0, 0.009807748443897295
630.0, 0.007218594150850434
631.0, 0.010907193851248971
632.0, 0.016992715095263646
633.0, 0.01595285358196884
634.0, 0.02145327558173474
635.0, 0.013668591414126472
636.0, 0.011616626610353521
637.0, 0.007347426586773077
638.0, 0.0032887583365086032
639.0, 0.01673283056415567
640.0, 0.014495130704408523
641.0, 0.015672595607970283
642.0, 0.015001382692196745
643.0, 0.009325102573059204
644.0, 0.004089783187385703
645.0, 0.0035145125785608234
646.0, 0.014304789568229729
647.0, 0.007313276978354521
648.0, 0.0017657931778917093
649.0, 0.0049064571361831545
650.0, 0.010147025479624346
651.0, 0.009158645335347108
652.0, 0.006286305983952088
653.0, 0.006923666430437715
654.0, 0.002991733926649968
655.0, 0.004296207168199799
656.0, 0.0168739447546707
657.0, 0.020642875829178262
658.0, 0.01936925915279348
659.0, 0.015269064928644379
660.0, 0.020099079176021207
661.0, 0.026447279556571394
662.0, 0.024735404296187983
663.0, 0.028343689043204258
664.0, 0.027203120844423192
665.0, 0.031861800834079655
666.0, 0.03356225643112276
667.0, 0.03344336707766212
668.0, 0.03896924063824822
669.0, 0.04292039461895217
670.0, 0.04181802096863235
671.0, 0.04623442527601001
672.0, 0.04756044538842442
673.0, 0.04936161416197982
674.0, 0.05908059403892737
675.0, 0.06530237587825308
676.0, 0.06692846052775599
677.0, 0.07181059892541657
678.0, 0.0767428643536055
679.0, 0.08553299992514914
680.0, 0.09766205121765606
681.0, 0.09644330142465042
682.0, 0.10246807964006688
683.0, 0.11603942072507721
684.0, 0.12183604663752864
685.0, 0.12127181319778385
686.0, 0.12421839380649101
687.0, 0.1304078172599401
688.0, 0.14152761328437996
689.0, 0.13815029433080234
690.0, 0.14230253822319974
691.0, 0.15087569844227938
692.0, 0.1519606760345501
693.0, 0.15073628800030373
694.0, 0.1385385109868952
695.0, 0.14436234989649713
696.0, 0.14204788756206807
697.0, 0.1378333740486229
698.0, 0.13623925893013286
699.0, 0.11825509073511715
700.0, 0.12167437246539167
701.0, 0.11754691287259143
702.0, 0.10313379149956184
703.0, 0.09615048683624706
704.0, 0.0961286835905664
705.0, 0.08571741739458448
706.0, 0.08077254093301896
707.0, 0.07794459145692463
708.0, 0.07718789516175796
709.0, 0.0686250839159206
710.0, 0.05066288668331202
711.0, 0.0380527999463081
712.0, 0.04653018150618006
713.0, 0.04479002434050768
714.0, 0.04925099306873296
715.0, 0.04356157273306369
716.0, 0.03351038923039831
717.0, 0.03310181315573474
718.0, 0.0250239543554324
719.0, 0.019353133557876982
720.0, 0.01643584955124256
721.0, 0.01072114581917888
722.0, 0.008677111725137262
723.0, 0.011714426636614615
724.0, 0.009791597860612353
725.0, 0.018594238728530037
726.0, 0.008576331505502731
727.0, 0.011615922928917673
728.0, 0.016470302748322133
729.0, 0.01088248026089742
730.0, 0.007735952334600908
731.0, 0.008186711340924965
732.0, 0.0015840473657590306
733.0, 0.002302879890660219
734.0, 0.0020452708350777275
735.0, 0.005368956936593609
736.0, 0.004455856385600821
737.0, 0.0032774699534856284
738.0, 0.002051237867245119
739.0, 0.002433472824221941
740.0, 0.002584329867977216
741.0, 0.00674062619589137
742.0, 0.0013701481829223208
743.0, 0.004156350661648283
744.0, 0.0036567619104420574
745.0, 0.007835210846950335
746.0, 0.0031446684961341257
747.0, 0.0017326727403785677
748.0, 0.001320765728607942
749.0, 0.0004045371278681631
750.0, 0.0004180306532687591
751.0, 0.00919502712024011
752.0, 0.006306804166458508
753.0, 0.0003999711735941314
754.0, 0.0008258969269245841
755.0, 0.006991814898693894
756.0, 0.009260336547801668
757.0, 0.0060886465005430355
758.0, 0.0034469010280431603
759.0, 0.0069642998094128225
760.0, 0.007816374104587093
761.0, 0.005651791012188203
762.0, 0.007690366852331133
763.0, 0.003978341423512246
764.0, 0.008047435449713963
765.0, 0.015703362332863235
766.0, 0.01574228054575099
767.0, 0.01454442300219948
768.0, 0.017188000134676678
769.0, 0.01567456063477439
770.0, 0.014099787425892008
771.0, 0.018252935086598986
772.0, 0.017253637721199037
773.0, 0.019561207964968786
774.0, 0.018843183672651736
775.0, 0.008274754844191
776.0, 0.01334333963018593
777.0, 0.014165340639587303
778.0, 0.01797809874667189
779.0, 0.008697764824631565
780.0, 0.006338919512229313
781.0, 0.01455455639480506
782.0, 0.011084824635821779
783.0, 0.02241601350512908
784.0, 0.018068438678162324
785.0, 0.024854968701080005
786.0, 0.020254692470037684
787.0, 0.007689103081072659
788.0, 0.009373135873651203
789.0, 0.01592904843921973
790.0, 0.0066380292731639525
791.0, 0.006397971668001935
792.0, 0.007135199578651061
793.0, 0.004328103050177091
794.0, 0.0034961768804890195
795.0, 0.006855398885795541
796.0, 0.004987400176119477
797.0, 0.004027655662673542
798.0, 0.0040418424085183
799.0, 0.0020751573980700316
800.0, 0.002839015799005928
801.0, 0.0034607753201646367
802.0, 0.0021670488617064575
803.0, 0.0039490454104052905
804.0, 0.009988444364203779
805.0, 0.00625653990490886
806.0, 0.0027050540255871684
807.0, 0.004840682794671209
808.0, 0.005242830443248953
809.0, 0.006084332613983166
810.0, 0.004014331723470576
811.0, 0.0029145795693338757
812.0, 0.0017987964793708263
813.0, 0.0030363350719877138
814.0, 0.0022140436792653278
815.0, 0.0025955096334796066
816.0, 0.0014318091842507377
817.0, 0.004011581503278222
818.0, 0.0050911136686651055
819.0, 0.002487629212881468
820.0, 0.002169962990486889
821.0, 0.002293520451786181
822.0, 0.0031938917408217745
823.0, 0.006222884628683431
824.0, 0.006272168747558373
825.0, 0.007940862351251498
826.0, 0.005510710189227332
827.0, 0.0036137968225436385
828.0, 0.005193703828647323
829.0, 0.007745648667872013
830.0, 0.008922658277442569
831.0, 0.011343956523727444
832.0, 0.00981105637273876
833.0, 0.010331750806727533
834.0, 0.01036447448603256
835.0, 0.01133241008723013
836.0, 0.015320054928487507
837.0, 0.018390936983860226
838.0, 0.01896541595052035
839.0, 0.03265426842013727
840.0, 0.02965119729441803
841.0, 0.020360536058121426
842.0, 0.025436427453665915
843.0, 0.037809626666356864
844.0, 0.03503313690574171
845.0, 0.03524288888285868
846.0, 0.03770745587997404
847.0, 0.03821865109317111
848.0, 0.03948926671666541
849.0, 0.04852561039519181
850.0, 0.058792717079171206
851.0, 0.057799555010870016
852.0, 0.06887587570587118
853.0, 0.08015912661303583
854.0, 0.0877558202836233
855.0, 0.09595634764816671
856.0, 0.11598963808994958
857.0, 0.13466525446770097
858.0, 0.13804323646464225
859.0, 0.1586106258813171
860.0, 0.16593834010748543
861.0, 0.18712180413537735
862.0, 0.20428461063471962
863.0, 0.22845096989764627
864.0, 0.2616082011280912
865.0, 0.2931379047543642
866.0, 0.3320074590520673
867.0, 0.36856931775781504
868.0, 0.4070497020515835
869.0, 0.4585919022097162
870.0, 0.5052470227641572
871.0, 0.5528386767080201
872.0, 0.6208051355101302
873.0, 0.6980440449812604
874.0, 0.7520176556952991
875.0, 0.8093559081954695
876.0, 0.8731721026632903
877.0, 0.9187437638519605
878.0, 0.9608792855332318
879.0, 0.9971719698899828
880.0, 0.9966309486615269
881.0, 0.9790899568159551
882.0, 0.9445589093766827
883.0, 0.897451357196053
884.0, 0.8439767819217048
885.0, 0.769502598865149
886.0, 0.6919404691631773
887.0, 0.6253483800668178
888.0, 0.5375779779372796
889.0, 0.4585862762974147
890.0, 0.4055975539125299
891.0, 0.349300465499975
892.0, 0.3067901303732196
893.0, 0.26260934045126033
894.0, 0.21387240978623645
895.0, 0.19143995355508425
896.0, 0.17317875237496225
897.0, 0.13469484353020497
898.0, 0.11897110933666492
899.0, 0.1085178662499877
900.0, 0.09835166175763439
901.0, 0.0835886002674301
902.0, 0.06507394662126097
903.0, 0.06164272315222494
904.0, 0.054975173629265794
905.0, 0.05490855154025716
906.0, 0.0396336226699346
907.0, 0.03604131344237165
908.0, 0.03671992655404335
909.0, 0.02777754489250692
910.0, 0.03537269899578109
911.0, 0.028030373078502493
912.0, 0.024749682029419743
913.0, 0.026403966172378345
914.0, 0.021457815022769815
915.0, 0.024997638761789526
916.0, 0.01754405812370054
917.0, 0.024247967575086765
918.0, 0.02060287418671155
919.0, 0.011749665371491356
920.0, 0.013342055890733727
921.0, 0.010345351232195685
922.0, 0.0014791292099548526
923.0, 0.0017956435755922093
924.0, 0.0049226164893356435
925.0, 0.009119497891677144
926.0, 0.015627994778125175
927.0, 0.005343313386197223
928.0, 0.004824187461945068
929.0, 0.010556263625323236
930.0, 0.004515236057812237
931.0, 0.0024074734233098206
932.0, 0.0036589645901993705
933.0, 0.0020744783523871644
934.0, 0.011064701375465683
935.0, 0.0019508799952387273
936.0, 0.00036779179717033855
937.0, 0.0030625116994015752
938.0, 0.0022791863815225873
939.0, 0.004210766083380613
940.0, 0.003013772584772387
941.0, 0.005440964758740929
942.0, 0.008048296149127963
943.0, 0.0071496427978893886
944.0, 0.002472624483966209
945.0, 0.0012766533096848457
946.0, 0.003066961184657389
947.0, 0.0017535385283979472
948.0, 0.0029178397820886766
949.0, 0.010937806678432853
950.0, 0.005886463753025919
951.0, 0.0007613471034533385
952.0, 0.010509489499790794
953.0, 0.007615622922970837
954.0, 0.001279469178403892
955.0, 0.004808127837403347
956.0, 0.005782433055879775
957.0, 0.001559064091572394
958.0, 0.013281717511302745
959.0, 0.0007218455243282135
960.0, 0.0037473984460011742
961.0, 0.005975665959692286
962.0, 0.008899320715115738
963.0, 0.005672092772924113
964.0, 0.0046239008319951405
965.0, 0.010753097466446952
966.0, 0.003627660062530041
967.0, 0.01004659932292892
968.0, 0.004866216382733539
969.0, 0.003942754492990902
970.0, 0.0004290431081972986
971.0, 0.001195629213003931
972.0, 0.004288572459149839
973.0, 0.0017567104419788974
974.0, 0.0030187701210213193
975.0, 0.003512903386404384
976.0, 0.011667822440278518
977.0, 0.0041946790229621745
978.0, 0.0011593865528001688
979.0, 0.0010713699123272317
980.0, 0.0034518875149792748
981.0, 0.007434487681407857
982.0, 0.002035175729869381
983.0, 0.007893522648222335
984.0, 0.007390454474266107
985.0, 0.0005950529576857092
986.0, 0.001747706935719
987.0, 0.002298167125811129
988.0, 0.005212019464063962
989.0, 0.006822016268389691
990.0, 0.0009446472441632064
991.0, 0.008517428088478336
992.0, 0.014888617358476484
993.0, 0.00894071651422889
994.0, 0.003685297996271738
995.0, 0.008195499558348113
996.0, 0.005199524868391717
997.0, 0.0016132730907599709
998.0, 0.0022290645552825146
999.0, 0.00977139130256575
1000.0, 0.0060266877568791125
1001.0, 0.013581540611864524
1002.0, 0.017717281759661446
1003.0, 0.00889865333258018
1004.0, 0.001002298946935022
1005.0, 0.0012885696336955848
1006.0, 0.0028357026419309245
1007.0, 0.0018550329269758175
1008.0, 0.004742159637698742
1009.0, 0.0064794046705205855
1010.0, 0.002998976383057357
1011.0, 0.0033319632330939142
1012.0, 0.008839389818096973
1013.0, 0.010889158645356138
1014.0, 0.005917799318260441
1015.0, 0.0018586258420023385
1016.0, 0.009221836973130717
1017.0, 0.007874723679495984
1018.0, 0.006440866164685137
1019.0, 0.001740234896299839
1020.0, 0.002308976653506061
1021.0, 0.002326463375416946
1022.0, 0.0065560755816377134
1023.0, 0.015493804013842191
1024.0, 0.017640879492303616
1025.0, 0.013113863117478773
1026.0, 0.014947263128678437
1027.0, 0.01210983779334286
1028.0, 0.006692607548036415
1029.0, 0.0074758249470856415
1030.0, 0.017170091413942073
1031.0, 0.01802820260877826
1032.0, 0.011921925720941855
1033.0, 0.008513288016596022
1034.0, 0.006370830475426371
1035.0, 0.012796855139799753
1036.0, 0.02038690459170257
1037.0, 0.023895241091698008
1038.0, 0.015031803721685517
1039.0, 0.00632452616944854
1040.0, 0.003949725159522811
1041.0, 0.008749570245483474
1042.0, 0.014947361840529015
1043.0, 0.013883197041845114
1044.0, 0.014362507977327618
1045.0, 0.02112974851839171
1046.0, 0.01617635765090327
1047.0, 0.013564371594587666
1048.0, 0.007527094591492025
1049.0, 0.00599717515971446
1050.0, 0.013064094283710047
1051.0, 0.021393215763165597
1052.0, 0.020726693387912942
1053.0, 0.0071784436297318375
1054.0, 0.010532581197917137
1055.0, 0.0032233933227451303
1056.0, 0.017843487252545562
1057.0, 0.02449901850481432
1058.0, 0.02684176344325883
1059.0, 0.017943216372357743
1060.0, 0.007273257553933313
1061.0, 0.015584376130386003
1062.0, 0.02109570238888152
1063.0, 0.018060007472074736
1064.0, 0.02159147207190922
1065.0, 0.01413853882605234
1066.0, 0.012643877729175568
1067.0, 0.012408328343575933
1068.0, 0.012712055303437936
1069.0, 0.01133032110613548
1070.0, 0.006112157782393241
1071.0, 0.005497081314032161
1072.0, 0.009075693904608734
1073.0, 0.009155715729430535
1074.0, 0.021978608842562232
1075.0, 0.01856244797180407
1076.0, 0.015259712365295532
1077.0, 0.016809116169147573
1078.0, 0.01614393677404882
1079.0, 0.013060966972958601
1080.0, 0.01167320333649342
1081.0, 0.011687571692464238
1082.0, 0.015548278519127176
1083.0, 0.011330854822671776
1084.0, 0.014292550541617417
1085.0, 0.010684266805136858
1086.0, 0.009875772177248809
1087.0, 0.013521563605955498
1088.0, 0.012808750037131198
1089.0, 0.008151391980165413
1090.0, 0.004217047308168242
1091.0, 0.001579877133858116
1092.0, 0.006101834174877771
1093.0, 0.002327884973471507
1094.0, 0.005220796580597086
1095.0, 0.0021666609037749884
1096.0, 0.013616199872137084
1097.0, 0.016191658637440196
1098.0, 0.004507887466295406
1099.0, 0.00487114941233096
1100.0, 0.01471289239511851
1101.0, 0.012553488575663574
1102.0, 0.009119880366270275
1103.0, 0.00970830960524625
1104.0, 0.011592735778852815
1105.0, 0.009662780280351361
1106.0, 0.011769529950915406
1107.0, 0.011200545124154585
1108.0, 0.010675417527915268
1109.0, 0.014647257171689328
1110.0, 0.015338944820735105
1111.0, 0.018890638212337232
1112.0, 0.017678155213229886
1113.0, 0.014772351489235603
1114.0, 0.010497373945855829
1115.0, 0.0021108560095574533
1116.0, 0.008315631436581475
1117.0, 0.016169269760361798
1118.0, 0.011617395423475018
1119.0, 0.007333490029898607
1120.0, 0.013087829808550847
1121.0, 0.008976600895995028
1122.0, 0.014878930758521845
1123.0, 0.010158814947440621
1124.0, 0.006597594441228896
1125.0, 0.010212439921690117
1126.0, 0.010583964152492287
1127.0, 0.0082945080388371
1128.0, 0.0035446779295248724
1129.0, 0.006564267365720029
1130.0, 0.014777187623444233
1131.0, 0.006230409396618307
1132.0, 0.015775909478706777
1133.0, 0.006216675966118771
1134.0, 0.004112631291146022
1135.0, 0.008594431652787338
1136.0, 0.01720870378010621
1137.0, 0.016555013468158287
1138.0, 0.009600020991129074
1139.0, 0.01092032710746921
1140.0, 0.013612005323567314
1141.0, 0.0068738643201576586
1142.0, 0.012042487277084474
1143.0, 0.02037471921034377
1144.0, 0.008275101028650422
1145.0, 0.02255406081418979
1146.0, 0.01447379537069071
1147.0, 0.0057081063586304145
1148.0, 0.00904642315070702
1149.0, 0.01171958517140938
1150.0, 0.012597200930232297
1151.0, 0.014890525532547353
1152.0, 0.011667516557622104
1153.0, 0.010585526416328692
1154.0, 0.0031016655001892663
1155.0, 0.0031930608448479227
1156.0, 0.0038356048727241497
1157.0, 0.0008453039726657856
1158.0, 0.009887241219724098
1159.0, 0.013019733210547816
1160.0, 0.009451438980573183
1161.0, 0.007674815715388356
1162.0, 0.005231867190585384
1163.0, 0.006089748653427959
1164.0, 0.010873536356000116
1165.0, 0.0031603525927862844
1166.0, 0.009862012732380061
1167.0, 0.00945621058126676
1168.0, 0.007511311944192086
1169.0, 0.004919481710976199
1170.0, 0.003040406199135541
1171.0, 0.0006024304736423864
1172.0, 0.0014427536415756589
1173.0, 0.0031095797933278872
1174.0, 0.004181142792475997
1175.0, 0.00842813968401162
1176.0, 0.001108493231851144
1177.0, 0.0033281092447477135
1178.0, 0.004176570178602338
1179.0, 0.003553896017465801
1180.0, 0.0007507906199386768
1181.0, 0.0056090744765155565
1182.0, 0.0106067373150781
1183.0, 0.0050670767548893336
1184.0, 0.0033089762064514006
1185.0, 0.011120339413257171
1186.0, 0.00757560929878947
1187.0, 0.00274054027200477
1188.0, 0.004488044421998889
1189.0, 0.005017278216448484
1190.0, 0.011623023785494811
1191.0, 0.004355293569652386
1192.0, 0.006593869012323954
1193.0, 0.008640187090501204
1194.0, 0.008454782327091811
1195.0, 0.009460395790177038
1196.0, 0.005236051108648592
1197.0, 0.0034355751530809656
1198.0, 0.008170849056684588
1199.0, 0.007184150574024405
1200.0, 0.006314777527268819
1201.0, 0.01134308010097462
1202.0, 0.0037953387782472155
1203.0, 0.012003162666950902
1204.0, 0.0060958315475874054
1205.0, 0.0012476897858124615
1206.0, 0.004791291610809137
1207.0, 0.006006373502029823
1208.0, 0.0006211409144341328
1209.0, 0.002793641697766067
1210.0, 0.00448747487414593
1211.0, 0.0068425995109396105
1212.0, 0.00782905556380299
1213.0, 0.0033425045273593897
1214.0, 0.006206255290141664
1215.0, 0.002593152603201798
1216.0, 0.004587930470773893
1217.0, 0.016279257140345126
1218.0, 0.012428427898750637
1219.0, 0.004500173984517668
1220.0, 0.015426535165183528
1221.0, 0.019501837030240603
1222.0, 0.013406732326984035
1223.0, 0.014817868684271533
1224.0, 0.008474512363674191
1225.0, 0.004375921247329415
1226.0, 0.0035380272999403157
1227.0, 0.016816971831785994
1228.0, 0.014216820436877343
1229.0, 0.007504112145970922
1230.0, 0.011802058749110748
1231.0, 0.013661949289513215
1232.0, 0.008183733350489077
1233.0, 0.008355425378175489
1234.0, 0.00908566260830938
1235.0, 0.009601117018095786
1236.0, 0.010224287187841265
1237.0, 0.011177930358481272
1238.0, 0.004013257383379022
1239.0, 0.006093282462437403
1240.0, 0.013136212532680477
1241.0, 0.00786033666768783
1242.0, 0.0037555222142842716
1243.0, 0.01048452210764006
1244.0, 0.013467622634461574
1245.0, 0.00710514841007809
1246.0, 0.005658261335584921
1247.0, 0.008803680101021184
1248.0, 0.009777966175913528
1249.0, 0.008111761238448466
1250.0, 0.012664799027662144
1251.0, 0.012190731671415647
1252.0, 0.004682653136943575
1253.0, 0.013466277723460693
1254.0, 0.003969853189270563
1255.0, 0.003227236651296813
1256.0, 0.0106170786288967
1257.0, 0.012182699195242898
1258.0, 0.010598275474896984
1259.0, 0.006778214101031083
1260.0, 0.001493188693556119
1261.0, 0.0018251848334929926
1262.0, 0.00963946717577784
1263.0, 0.007090013138959645
1264.0, 0.007978331854940755
1265.0, 0.004489187320823245
1266.0, 0.009390915848638208
1267.0, 0.007545930103453362
1268.0, 0.008942024542829415
1269.0, 0.007901891957757435
1270.0, 0.009163719961588983
1271.0, 0.015126871792553589
1272.0, 0.011507284010377757
1273.0, 0.001465877636737808
1274.0, 0.0042950131853428854
1275.0, 0.008651842226510343
1276.0, 0.00810780331628599
1277.0, 0.009257612339010655
1278.0, 0.012544752720565778
1279.0, 0.013398536277595819
1280.0, 0.003054510854534343
1281.0, 0.004976740140449776
1282.0, 0.005336720278670971
1283.0, 0.010685463725842469
1284.0, 0.014886546217786815
1285.0, 0.0118593682896281
1286.0, 0.0053022519336258555
1287.0, 0.0022555814804446385
1288.0, 0.006877511375922514
1289.0, 0.00569348343998283
1290.0, 0.007634768892473932
1291.0, 0.0010968784958926333
1292.0, 0.010941811806858968
1293.0, 0.001532923296309442
1294.0, 0.007366250171790759
1295.0, 0.006201973138998164
1296.0, 0.010532159513907737
1297.0, 0.006774246698192303
1298.0, 0.0010719336545544492
1299.0, 0.007440102906670824
1300.0, 0.0074801672271594755
1301.0, 9.019336698714824e-05
1302, 0.0
1303, 0.0
1304, 0.0
1305, 0.0
1306, 0.0
1307, 0.0
1308, 0.0
1309, 0.0
1310, 0.0
1311, 0.0
1312, 0.0
1313, 0.0
1314, 0.0
1315, 0.0
1316, 0.0
1317, 0.0
1318, 0.0
1319, 0.0
1320, 0.0
1321, 0.0
1322, 0.0
1323, 0.0
1324, 0.0
1325, 0.0
1326, 0.0
1327, 0.0
1328, 0.0
1329, 0.0
1330, 0.0
1331, 0.0
1332, 0.0
1333, 0.0
1334, 0.0
1335, 0.0
1336, 0.0
1337, 0.0
1338, 0.0
1339, 0.0
1340, 0.0
1341, 0.0
1342, 0.0
1343, 0.0
1344, 0.0
1345, 0.0
1346, 0.0
1347, 0.0
1348, 0.0
1349, 0.0
1350, 0.0
1351, 0.0
1352, 0.0
1353, 0.0
1354, 0.0
1355, 0.0
1356, 0.0
1357, 0.0
1358, 0.0
1359, 0.0
1360, 0.0
1361, 0.0
1362, 0.0
1363, 0.0
1364, 0.0
1365, 0.0
1366, 0.0
1367, 0.0
1368, 0.0
1369, 0.0
1370, 0.0
1371, 0.0
1372, 0.0
1373, 0.0
1374, 0.0
1375, 0.0
1376, 0.0
1377, 0.0
1378, 0.0
1379, 0.0
1380, 0.0
1381, 0.0
1382, 0.0
1383, 0.0
1384, 0.0
1385, 0.0
1386, 0.0
1387, 0.0
1388, 0.0
1389, 0.0
1390, 0.0
1391, 0.0
1392, 0.0
1393, 0.0
1394, 0.0
1395, 0.0
1396, 0.0
1397, 0.0
1398, 0.0
1399, 0.0
1400, 0.0
1401, 0.0
1402, 0.0
1403, 0.0
1404, 0.0
1405, 0.0
1406, 0.0
1407, 0.0
1408, 0.0
1409, 0.0
1410, 0.0
1411, 0.0
1412, 0.0
1413, 0.0
1414, 0.0
1415, 0.0
1416, 0.0
1417, 0.0
1418, 0.0
1419, 0.0
1420, 0.0
1421, 0.0
1422, 0.0
1423, 0.0
1424, 0.0
1425, 0.0
1426, 0.0
1427, 0.0
1428, 0.0
1429, 0.0
1430, 0.0
1431, 0.0
1432, 0.0
1433, 0.0
1434, 0.0
1435, 0.0
1436, 0.0
1437, 0.0
1438, 0.0
1439, 0.0
1440, 0.0
1441, 0.0
1442, 0.0
1443, 0.0
1444, 0.0
1445, 0.0
1446, 0.0
1447, 0.0
1448, 0.0
1449, 0.0
1450, 0.0
1451, 0.0
1452, 0.0
1453, 0.0
1454, 0.0
1455, 0.0
1456, 0.0
1457, 0.0
1458, 0.0
1459, 0.0
1460, 0.0
1461, 0.0
1462, 0.0
1463, 0.0
1464, 0.0
1465, 0.0
1466, 0.0
1467, 0.0
1468, 0.0
1469, 0.0
1470, 0.0
1471, 0.0
1472, 0.0
1473, 0.0
1474, 0.0
1475, 0.0
1476, 0.0
1477, 0.0
1478, 0.0
1479, 0.0
1480, 0.0
1481, 0.0
1482, 0.0
1483, 0.0
1484, 0.0
1485, 0.0
1486, 0.0
1487, 0.0
1488, 0.0
1489, 0.0
1490, 0.0
1491, 0.0
1492, 0.0
1493, 0.0
1494, 0.0
1495, 0.0
1496, 0.0
1497, 0.0
1498, 0.0
1499, 0.0
1500, 0.0
1501, 0.0
1502, 0.0
1503, 0.0
1504, 0.0
1505, 0.0
1506, 0.0
1507, 0.0
1508, 0.0
1509, 0.0
1510, 0.0
1511, 0.0
1512, 0.0
1513, 0.0
1514, 0.0
1515, 0.0
1516, 0.0
1517, 0.0
1518, 0.0
1519, 0.0
1520, 0.0
1521, 0.0
1522, 0.0
1523, 0.0
1524, 0.0
1525, 0.0
1526, 0.0
1527, 0.0
1528, 0.0
1529, 0.0
1530, 0.0
1531, 0.0
1532, 0.0
1533, 0.0
1534, 0.0
1535, 0.0
1536, 0.0
1537, 0.0
1538, 0.0
1539, 0.0
1540, 0.0
1541, 0.0
1542, 0.0
1543, 0.0
1544, 0.0
1545, 0.0
1546, 0.0
1547, 0.0
1548, 0.0
1549, 0.0
1550, 0.0
1551, 0.0
1552, 0.0
1553, 0.0
1554, 0.0
1555, 0.0
1556, 0.0
1557, 0.0
1558, 0.0
1559, 0.0
1560, 0.0
1561, 0.0
1562, 0.0
1563, 0.0
1564, 0.0
1565, 0.0
1566, 0.0
1567, 0.0
1568, 0.0
1569, 0.0
1570, 0.0
1571, 0.0
1572, 0.0
1573, 0.0
1574, 0.0
1575, 0.0
1576, 0.0
1577, 0.0
1578, 0.0
1579, 0.0
1580, 0.0
1581, 0.0
1582, 0.0
1583, 0.0
1584, 0.0
1585, 0.0
1586, 0.0
1587, 0.0
1588, 0.0
1589, 0.0
1590, 0.0
1591, 0.0
1592, 0.0
1593, 0.0
1594, 0.0
1595, 0.0
1596, 0.0
1597, 0.0
1598, 0.0
1599, 0.0
