30, 0.0
31, 0.0
32, 0.0
33, 0.0
34, 0.0
35, 0.0
36, 0.0
37, 0.0
38, 0.0
39, 0.0
40, 0.0
41, 0.0
42, 0.0
43, 0.0
44, 0.0
45, 0.0
46, 0.0
47, 0.0
48, 0.0
49, 0.0
50, 0.0
51, 0.0
52, 0.0
53, 0.0
54, 0.0
55, 0.0
56, 0.0
57, 0.0
58, 0.0
59, 0.0
60, 0.0
61, 0.0
62, 0.0
63, 0.0
64, 0.0
65, 0.0
66, 0.0
67, 0.0
68, 0.0
69, 0.0
70, 0.0
71, 0.0
72, 0.0
73, 0.0
74, 0.0
75, 0.0
76, 0.0
77, 0.0
78, 0.0
79, 0.0
80, 0.0
81, 0.0
82, 0.0
83, 0.0
84, 0.0
85, 0.0
86, 0.0
87, 0.0
88, 0.0
89, 0.0
90, 0.0
91, 0.0
92, 0.0
93, 0.0
94, 0.0
95, 0.0
96, 0.0
97, 0.0
98, 0.0
99, 0.0
100, 0.0
101, 0.0
102, 0.0
103, 0.0
104, 0.0
105, 0.0
106, 0.0
107, 0.0
108, 0.0
109, 0.0
110, 0.0
111, 0.0
112, 0.0
113, 0.0
114, 0.0
115, 0.0
116, 0.0
117, 0.0
118, 0.0
119, 0.0
120, 0.0
121, 0.0
122, 0.0
123, 0.0
124, 0.0
125, 0.0
126, 0.0
127, 0.0
128, 0.0
129, 0.0
130, 0.0
131, 0.0
132, 0.0
133, 0.0
134, 0.0
135, 0.0
136, 0.0
137, 0.0
138, 0.0
139, 0.0
140, 0.0
141, 0.0
142, 0.0
143, 0.0
144, 0.0
145, 0.0
146, 0.0
147, 0.0
148, 0.0
149, 0.0
150, 0.0
151, 0.0
152, 0.0
153, 0.0
154, 0.0
155, 0.0
156, 0.0
157, 0.0
158, 0.0
159, 0.0
160, 0.0
161, 0.0
162, 0.0
163, 0.0
164, 0.0
165, 0.0
166, 0.0
167, 0.0
168, 0.0
169, 0.0
170, 0.0
171, 0.0
172, 0.0
173, 0.0
174, 0.0
175, 0.0
176, 0.0
177, 0.0
178.0, 0.0006280829239431638
179.0, 0.0034960414807613405
180.0, 0.0007138553396804732
181.0, 0.0004903940152138698
182.0, 0.000738783708087874
183.0, 0.0010705622129532893
184.0, 0.002386319933246701
185.0, 0.0052625924131948516
186.0, 0.00587837284862687
187.0, 0.007875304849681445
188.0, 0.00879730517210344
189.0, 0.0073796367802835255
190.0, 0.010025464114311915
191.0, 0.012015168416788903
192.0, 0.01225898412251064
193.0, 0.011293668176462346
194.0, 0.010572263443246105
195.0, 0.011876724558849146
196.0, 0.009450520329918504
197.0, 0.00855545257410775
198.0, 0.0073563976822942955
199.0, 0.006795887779600026
200.0, 0.007668482347185794
201.0, 0.005808337064511995
202.0, 0.006287370065618391
203.0, 0.006994779590212381
204.0, 0.00512241533550319
205.0, 0.0013061151114393066
206.0, 0.0006868502999476391
207.0, 0.0002894183625113461
208.0, 0.0001691660941193301
209.0, 0.0007224929117969644
210.0, 0.0011765374103151582
211.0, 0.0006765718642195502
212.0, 0.0008356710811519693
213.0, 0.0032570408265858927
214.0, 0.004529793717930998
215.0, 0.005634283598277384
216.0, 0.007470927241228658
217.0, 0.00974114489390054
218.0, 0.01487363943739742
219.0, 0.015123721111102719
220.0, 0.01424742956705735
221.0, 0.015305622138973105
222.0, 0.019838055395431372
223.0, 0.024654913821358898
224.0, 0.029873866445319766
225.0, 0.029427435874428056
226.0, 0.028977555000384316
227.0, 0.030985693673706273
228.0, 0.030093207066875793
229.0, 0.028441936025680545
230.0, 0.02507091479118268
231.0, 0.023856066465018172
232.0, 0.0244800806219814
233.0, 0.02454972203682004
234.0, 0.02266455986220499
235.0, 0.02610468683540275
236.0, 0.025853230480672198
237.0, 0.025670143430884543
238.0, 0.028579824872106474
239.0, 0.03388817155272081
240.0, 0.03661528095355548
241.0, 0.03886469283583687
242.0, 0.040522152082225794
243.0, 0.04238095691688953
244.0, 0.04406250913100871
245.0, 0.03962375272068191
246.0, 0.03391779716979664
247.0, 0.02863589275418077
248.0, 0.024862378654988727
249.0, 0.022470923481734722
250.0, 0.020409918789310234
251.0, 0.02113951380267551
252.0, 0.020332685116918294
253.0, 0.0187960325707505
254.0, 0.018221216883381724
255.0, 0.018979281264272976
256.0, 0.017756358909547666
257.0, 0.018961266812377156
258.0, 0.024130435323109885
259.0, 0.03383483192337909
260.0, 0.044788110137978204
261.0, 0.05187559089823904
262.0, 0.05414737794921922
263.0, 0.053156279821440784
264.0, 0.04725061464326957
265.0, 0.03989047237933051
266.0, 0.03250244672901797
267.0, 0.022304308160656136
268.0, 0.01548758762425821
269.0, 0.010206349510485734
270.0, 0.012437183481465882
271.0, 0.013598620893760585
272.0, 0.006377234234595027
273.0, 0.006172265362399251
274.0, 0.00459006019296656
275.0, 0.0019491127783146697
276.0, 0.0020085033658002295
277.0, 0.004022317961829099
278.0, 0.003965433006585288
279.0, 0.0028543963434181706
280.0, 0.0010038962217743504
281.0, 0.0011458086300853672
282.0, 0.0018287970611747875
283.0, 0.0017751629520868348
284.0, 0.0013899354534218625
285.0, 0.001226492686044148
286.0, 0.0017841490425000996
287.0, 0.0022531972639040013
288.0, 0.0019838273307532304
289.0, 0.0009248981078520632
290.0, 0.0004127607328715074
291.0, 0.0008932765663428981
292.0, 0.002183748462388165
293.0, 0.002394090862880489
294.0, 0.0014074455368408658
295.0, 0.0006571755772514604
296.0, 0.0023813252620190776
297.0, 0.0015408899265840436
298.0, 0.003692386651310621
299.0, 0.005705866888448635
300.0, 0.005508645961917154
301.0, 0.0040952094089235285
302.0, 0.0033837390258144896
303.0, 0.005034745842632969
304.0, 0.006701701710757587
305.0, 0.008331743636116714
306.0, 0.010114633469875699
307.0, 0.011474715693705895
308.0, 0.014329223213279622
309.0, 0.01543774607272803
310.0, 0.018781498295675568
311.0, 0.023593660773777805
312.0, 0.027524713588297164
313.0, 0.030610542823293625
314.0, 0.0402112765035589
315.0, 0.050574889860786586
316.0, 0.06047289405757437
317.0, 0.0715408427137323
318.0, 0.08661093957856
319.0, 0.10578796881141074
320.0, 0.12307594596119067
321.0, 0.13570254254735656
322.0, 0.1397195128613463
323.0, 0.13470706075126024
324.0, 0.12390640743809897
325.0, 0.1098145149235289
326.0, 0.09568784349120571
327.0, 0.0815644032882501
328.0, 0.06958740003077292
329.0, 0.06022174676782397
330.0, 0.0513152483782498
331.0, 0.04476376934070429
332.0, 0.03886463866179008
333.0, 0.035010024451030575
334.0, 0.03186083384437866
335.0, 0.028746122570680717
336.0, 0.027608185519470384
337.0, 0.02672096929068431
338.0, 0.02570087866244564
339.0, 0.02498169229412423
340.0, 0.024500088193876987
341.0, 0.0244166218416978
342.0, 0.02583187638838461
343.0, 0.02574365504119179
344.0, 0.026158785055384638
345.0, 0.025258854184387492
346.0, 0.024942584925692964
347.0, 0.027061821637190772
348.0, 0.027910263833478974
349.0, 0.025819191253886632
350.0, 0.026775215840179004
351.0, 0.02727854896065185
352.0, 0.027799697728561078
353.0, 0.03041852600382204
354.0, 0.0333166630360271
355.0, 0.03122569758065454
356.0, 0.032004218581758004
357.0, 0.03331574838504159
358.0, 0.033654363142299595
359.0, 0.033119366955470936
360.0, 0.03353144065748036
361.0, 0.03323013046102795
362.0, 0.03230326589054672
363.0, 0.03194158097857267
364.0, 0.03165620867157516
365.0, 0.030279161332078832
366.0, 0.029829673023599724
367.0, 0.02942928620922688
368.0, 0.03028233068113634
369.0, 0.030629054500222682
370.0, 0.03002738042175507
371.0, 0.029057972940930314
372.0, 0.02631579541126636
373.0, 0.026685569864236914
374.0, 0.026181346955126972
375.0, 0.02527532574676248
376.0, 0.0244570292652878
377.0, 0.023666125838469065
378.0, 0.02231172450489111
379.0, 0.02176555739991649
380.0, 0.021625206086068587
381.0, 0.021803520988311235
382.0, 0.021189924522278466
383.0, 0.018801760000641772
384.0, 0.018331502057507863
385.0, 0.01842054333397575
386.0, 0.019058229526192245
387.0, 0.01921197801705859
388.0, 0.01870608950980632
389.0, 0.0181485100671017
390.0, 0.017920884843357875
391.0, 0.01701332824615465
392.0, 0.015147357165629843
393.0, 0.01625254310799851
394.0, 0.018053752846064905
395.0, 0.015401040457097705
396.0, 0.011806753609083672
397.0, 0.014282988907605187
398.0, 0.012417320124328605
399.0, 0.009951314691403666
400.0, 0.00850344390181167
401.0, 0.007986680884909714
402.0, 0.010736565819830391
403.0, 0.007544564252368444
404.0, 0.007633681091261302
405.0, 0.00885733165065143
406.0, 0.007695527869383685
407.0, 0.0036778068359005515
408.0, 0.005647803923420774
409.0, 0.005298965457905966
410.0, 0.004396726229368418
411.0, 0.002622764302196317
412.0, 0.0017068053686285357
413.0, 0.002826814762180097
414.0, 0.0035626450896921354
415.0, 0.0029887880106284717
416.0, 0.0034838430538184488
417.0, 0.0035003946199136525
418.0, 0.003154807121490044
419.0, 0.002907554132938383
420.0, 0.0025498270449513054
421.0, 0.0031265671234864687
422.0, 0.0014214385172866793
423.0, 0.000668369189279779
424.0, 0.0010223010438797846
425.0, 0.001762893985077935
426.0, 0.0022802487413479213
427.0, 0.00032475984933597794
428.0, 0.0009549014348507784
429.0, 0.0005955377518274659
430.0, 0.0015185751310753377
431.0, 0.0037795658921957417
432.0, 0.00415643009722097
433.0, 0.0031387383307506854
434.0, 0.005596134003578852
435.0, 0.005593318268549114
436.0, 0.004463095191258845
437.0, 0.0038809401925474192
438.0, 0.004477368661875731
439.0, 0.005353434085676041
440.0, 0.0041437083663769265
441.0, 0.005479911325085349
442.0, 0.0058373624442225455
443.0, 0.0054675891161450624
444.0, 0.006128187326132875
445.0, 0.006626599887879483
446.0, 0.00723125591468862
447.0, 0.00944941325239634
448.0, 0.009013790936741754
449.0, 0.006818775094932062
450.0, 0.005695709198045243
451.0, 0.007339000809977321
452.0, 0.006320015051316848
453.0, 0.007540562984004795
454.0, 0.008176777814425608
455.0, 0.00744379599303488
456.0, 0.005769099636995792
457.0, 0.0043150942927336535
458.0, 0.004166660613862034
459.0, 0.006865056839535788
460.0, 0.007748753496088745
461.0, 0.006757629936943809
462.0, 0.006098397895587403
463.0, 0.007299191228360237
464.0, 0.005860687054955319
465.0, 0.008982776905881
466.0, 0.008170084518069646
467.0, 0.010007898159634872
468.0, 0.011631403189164384
469.0, 0.010127964385887025
470.0, 0.011214589789876434
471.0, 0.011032873082932554
472.0, 0.012519611712057156
473.0, 0.013739009858625183
474.0, 0.01365948268287067
475.0, 0.012307748714199502
476.0, 0.010881754885066312
477.0, 0.012131946045883732
478.0, 0.010824218565710642
479.0, 0.00980878708712844
480.0, 0.010503626997813726
481.0, 0.011539957579174785
482.0, 0.011325832489410471
483.0, 0.01267733752305901
484.0, 0.014434672896420846
485.0, 0.01596847022894398
486.0, 0.016195766037768143
487.0, 0.016674402906306854
488.0, 0.017924337734362722
489.0, 0.017670665830241964
490.0, 0.017122624009009494
491.0, 0.016710969150636506
492.0, 0.018540058031447523
493.0, 0.01920891907683207
494.0, 0.018585468868011774
495.0, 0.019175426968587882
496.0, 0.01949513151177885
497.0, 0.018004913887629065
498.0, 0.015899918292719972
499.0, 0.015636425117903755
500.0, 0.016148413434830443
501.0, 0.014874635605757663
502.0, 0.010532698805961764
503.0, 0.011187785936066022
504.0, 0.010010307382778015
505.0, 0.009324123962608176
506.0, 0.00877231254961781
507.0, 0.007779323157253444
508.0, 0.006626364194762045
509.0, 0.0074937112128976
510.0, 0.007147675936021888
511.0, 0.00818248928412199
512.0, 0.007986920030195601
513.0, 0.006399227102536297
514.0, 0.004816490526552728
515.0, 0.00477554113089877
516.0, 0.0062874649777275955
517.0, 0.0048625439035300914
518.0, 0.005464316871528818
519.0, 0.006448058458421977
520.0, 0.006544616499082578
521.0, 0.005830329560536432
522.0, 0.0038821957941073456
523.0, 0.004907472255396983
524.0, 0.0038785976326971626
525.0, 0.0034924932207032458
526.0, 0.002490228292143287
527.0, 0.0005322472197859158
528.0, 0.0004441717119595659
529.0, 0.0007450211795890007
530.0, 0.0004727782330767689
531.0, 0.0009577790323481758
532.0, 0.0006995628390147072
533.0, 0.0001279666475482748
534.0, 0.0006165624677263947
535.0, 0.0018160524743780413
536.0, 0.0005973976175753111
537.0, 0.0003312881558430243
538.0, 0.0007529478172868667
539.0, 0.0011984930800805072
540.0, 0.0010493911866851463
541.0, 0.00041877508000066714
542.0, 0.0016684596151135733
543.0, 0.0005765216398172824
544.0, 0.0009732914432280017
545.0, 0.0022788624645515474
546.0, 0.002386558288011753
547.0, 0.0010300869025693892
548.0, 0.001182598438533193
549.0, 0.0009375777690975278
550.0, 0.0017581406486710197
551.0, 0.0019471866410310393
552.0, 0.0022278992638134656
553.0, 0.0018125651890443886
554.0, 0.00020440292332222625
555.0, 0.00047945578792708246
556.0, 0.0036956157848815454
557.0, 0.001243219889986991
558.0, 0.0024132995952155178
559.0, 0.004064747868288598
560.0, 0.004965696876552314
561.0, 0.007201339125207034
562.0, 0.006600393037167902
563.0, 0.005614338486718811
564.0, 0.005553053025753841
565.0, 0.0059706096698489905
566.0, 0.006254570101835425
567.0, 0.006444314623887399
568.0, 0.007214519985100463
569.0, 0.00802235500003116
570.0, 0.008820780646067195
571.0, 0.00851469701806444
572.0, 0.007500804211240811
573.0, 0.006981539192699254
574.0, 0.006949993990128248
575.0, 0.005615533168955273
576.0, 0.006840008466068491
577.0, 0.006522414993140058
578.0, 0.006648439705120198
579.0, 0.007113593714996402
580.0, 0.007199523191929058
581.0, 0.006718506487439531
582.0, 0.0067250936409262285
583.0, 0.00555779151924373
584.0, 0.005969335166323241
585.0, 0.005420338734795508
586.0, 0.0054230512316057805
587.0, 0.00587828766778553
588.0, 0.005861605567282003
589.0, 0.006630041318741196
590.0, 0.005758950139325056
591.0, 0.0042537571162443305
592.0, 0.0037300948733104827
593.0, 0.0037249688002858146
594.0, 0.003801949836677198
595.0, 0.0037882520791127643
596.0, 0.0030557857246374213
597.0, 0.0051192727731941366
598.0, 0.003410712151192933
599.0, 0.0025221242585082917
600.0, 0.004047398568284422
601.0, 0.005116658217366982
602.0, 0.003210432668838209
603.0, 0.0061142940532552615
604.0, 0.00513901643789031
605.0, 0.0027799454876780982
606.0, 0.0026981119680701974
607.0, 0.00203040822909173
608.0, 0.0009170926544357531
609.0, 0.0020261813883377874
610.0, 0.0009459359764239252
611.0, 0.0010152869820904754
612.0, 0.00029947733690696536
613.0, 0.0008614620990802823
614.0, 0.0014002287414659792
615.0, 0.0011864136174459159
616.0, 0.0008926352309962017
617.0, 0.0005324141307880772
618.0, 0.0017876332516623173
619.0, 0.0031540999908265224
620.0, 0.006590254127218929
621.0, 0.006831632224986395
622.0, 0.006741007058683197
623.0, 0.012860333762309592
624.0, 0.014695316966005805
625.0, 0.013376289398036891
626.0, 0.014191049222225827
627.0, 0.014493798542077867
628.0, 0.012644791785722694
629.0, 0.009284886097725027
630.0, 0.00636448998080942
631.0, 0.004507242194097172
632.0, 0.0017001622553840963
633.0, 0.0024681921531097507
634.0, 0.003569605867463453
635.0, 0.0028801059260514603
636.0, 0.002408521617392942
637.0, 0.004135774734430691
638.0, 0.0034642356927123545
639.0, 0.0020191273285021256
640.0, 0.0025180819109655588
641.0, 0.0013110861152577204
642.0, 0.0009972166486883057
643.0, 0.0020284533408150163
644.0, 0.002610903610801741
645.0, 0.001844199769993312
646.0, 0.005310979456076126
647.0, 0.004615030792462975
648.0, 0.0036678989457088517
649.0, 0.003954818852834938
650.0, 0.004454171722057092
651.0, 0.004737349483094205
652.0, 0.0061907607699319
653.0, 0.0032632767015694595
654.0, 0.003641377994999447
655.0, 0.00433302953419829
656.0, 0.005841628130097659
657.0, 0.0054212826910126155
658.0, 0.0032273777968015137
659.0, 0.0039153562209301935
660.0, 0.007890795852147777
661.0, 0.005478594490388469
662.0, 0.008863848911836012
663.0, 0.012961030734335327
664.0, 0.01610451475900396
665.0, 0.019237065836885482
666.0, 0.0232554896719403
667.0, 0.025767989606018914
668.0, 0.028044162709449386
669.0, 0.029065277241232677
670.0, 0.02500305030837197
671.0, 0.020995448613053243
672.0, 0.01857028160414108
673.0, 0.016968512649439885
674.0, 0.0182001019735998
675.0, 0.01755110707143797
676.0, 0.016303969984639472
677.0, 0.01750533697895976
678.0, 0.01657889561397156
679.0, 0.0155256705525702
680.0, 0.017107494576937176
681.0, 0.020165719456152264
682.0, 0.025109485765681897
683.0, 0.02743147693009144
684.0, 0.030383775765557782
685.0, 0.03654418830668695
686.0, 0.042362309143588614
687.0, 0.04711562576575411
688.0, 0.0526020491650995
689.0, 0.05544740242237159
690.0, 0.054946725656367705
691.0, 0.07179389912702228
692.0, 0.07789275770951187
693.0, 0.079279173590862
694.0, 0.07622886926348775
695.0, 0.06862333232431495
696.0, 0.06526792970987119
697.0, 0.06179351269905069
698.0, 0.05500608996961808
699.0, 0.04968745613408277
700.0, 0.04693237837908051
701.0, 0.04662882017797485
702.0, 0.047817917657745505
703.0, 0.05008115801965818
704.0, 0.055114940238995005
705.0, 0.05311128145209216
706.0, 0.057130436673510816
707.0, 0.05907212692381711
708.0, 0.05897877793706988
709.0, 0.057897236954535504
710.0, 0.05658917871169793
711.0, 0.0555781442053383
712.0, 0.05353820073572304
713.0, 0.0501888823163495
714.0, 0.048996984262923586
715.0, 0.044562914127030444
716.0, 0.04211823573297368
717.0, 0.04079138269924208
718.0, 0.03587128614664204
719.0, 0.03522861861254679
720.0, 0.02912073045393449
721.0, 0.02645156279742232
722.0, 0.024595813514770068
723.0, 0.023359485756971266
724.0, 0.022883193643666856
725.0, 0.02206827186043555
726.0, 0.019443937104318198
727.0, 0.018251661875171153
728.0, 0.0171370460676329
729.0, 0.018116900659820846
730.0, 0.014105595636550344
731.0, 0.013380265734098331
732.0, 0.014538928594330817
733.0, 0.012592110568092283
734.0, 0.013024427164613155
735.0, 0.009814549427752842
736.0, 0.010935691045879808
737.0, 0.010237659935778715
738.0, 0.006982877101382546
739.0, 0.007000700439007541
740.0, 0.008720286291065277
741.0, 0.005874235208198659
742.0, 0.0035661686142133015
743.0, 0.008661516078642779
744.0, 0.0038552807364819683
745.0, 0.001654835297120494
746.0, 0.0033558994557380275
747.0, 0.003211887801923474
748.0, 0.001257398415747911
749.0, 0.0033729726389503368
750.0, 0.003004445946249965
751.0, 0.004232472584233822
752.0, 0.005408667255839708
753.0, 0.006685434461165438
754.0, 0.007542793779622722
755.0, 0.0074135460885200455
756.0, 0.007307619138897375
757.0, 0.00903088175988276
758.0, 0.00964987521040825
759.0, 0.010154765697206369
760.0, 0.007953797250293075
761.0, 0.008530683560447208
762.0, 0.008787739235494724
763.0, 0.007362346729520885
764.0, 0.006075639565561696
765.0, 0.006656054737014779
766.0, 0.006337253777155812
767.0, 0.0037683473570252583
768.0, 0.0031628043908955086
769.0, 0.0028597224952102017
770.0, 0.0038759587749708163
771.0, 0.004924678113234196
772.0, 0.004918549080622872
773.0, 0.005809962260965622
774.0, 0.005303265374078038
775.0, 0.007024958764853876
776.0, 0.008658116587684474
777.0, 0.008533562870728383
778.0, 0.010736312374487808
779.0, 0.014054898461713625
780.0, 0.01473288607660852
781.0, 0.013709130217536345
782.0, 0.013364934022564827
783.0, 0.016141145793399543
784.0, 0.01377879035935483
785.0, 0.014245878332768303
786.0, 0.015739300667055214
787.0, 0.016000809673905336
788.0, 0.015822322882882017
789.0, 0.017286952944834077
790.0, 0.018975431951882556
791.0, 0.020136331437139894
792.0, 0.02203220133113103
793.0, 0.023157571587618254
794.0, 0.02443594509774382
795.0, 0.026198527435627988
796.0, 0.027797570331263885
797.0, 0.02882799616659674
798.0, 0.030585526417697347
799.0, 0.03181147269887109
800.0, 0.03329245730378078
801.0, 0.03512739221659685
802.0, 0.03692149493886915
803.0, 0.03858678567879313
804.0, 0.04118922411722249
805.0, 0.0451785568724112
806.0, 0.04555778107249431
807.0, 0.04632969272879252
808.0, 0.04959039804240084
809.0, 0.050767181447178726
810.0, 0.05157612108618053
811.0, 0.052905615668402003
812.0, 0.0547051791732074
813.0, 0.056364300798287276
814.0, 0.05601008240560505
815.0, 0.05422283259108092
816.0, 0.0545716359116416
817.0, 0.05623469369774814
818.0, 0.05937836185282765
819.0, 0.05912847665291218
820.0, 0.05791854027589683
821.0, 0.06127003060801042
822.0, 0.06403089240666499
823.0, 0.06411148434564341
824.0, 0.06895475379560848
825.0, 0.07020626979647829
826.0, 0.07022804966620522
827.0, 0.07334374294515167
828.0, 0.08042506570121624
829.0, 0.08993201275065597
830.0, 0.1014475510165938
831.0, 0.11648725814734634
832.0, 0.13640314691471106
833.0, 0.15789311897625483
834.0, 0.1863769245787937
835.0, 0.2120039843565993
836.0, 0.22582974798556765
837.0, 0.23117693271607942
838.0, 0.23823161886701066
839.0, 0.24556033379711156
840.0, 0.2517215265825005
841.0, 0.26418699538767315
842.0, 0.27138871019701327
843.0, 0.2728028153144183
844.0, 0.26486070173719817
845.0, 0.24744494784879922
846.0, 0.2279201288151854
847.0, 0.21722918045051304
848.0, 0.21538347836792537
849.0, 0.21194823158093146
850.0, 0.2124277302256685
851.0, 0.210865586694707
852.0, 0.20160634735756466
853.0, 0.1816732848944075
854.0, 0.15652158912477018
855.0, 0.1340964421637439
856.0, 0.11021965053054614
857.0, 0.09260636714848774
858.0, 0.07882184999834471
859.0, 0.06764581523858676
860.0, 0.060745250269369486
861.0, 0.05323184397706408
862.0, 0.045489360358646036
863.0, 0.03952355008362142
864.0, 0.03198814196669938
865.0, 0.021836771935950662
866.0, 0.019932475161765842
867.0, 0.018113724658974997
868.0, 0.010804425444733546
869.0, 0.006190387650915719
870.0, 0.005228600293059358
871.0, 0.004960056937725497
872.0, 0.003687228069899586
873.0, 0.002122547642251855
874.0, 0.0026040941633565123
875.0, 0.0038606853789130095
876.0, 0.005829205634946056
877.0, 0.002238770583043237
878.0, 0.00242310767927391
879.0, 0.005124888411981919
880.0, 0.004197995332303448
881.0, 0.0002775172456474762
882.0, 0.0010110620283987342
883.0, 0.0035479925324807702
884.0, 0.003302237955341303
885.0, 0.002686459320440402
886.0, 0.0028175631558160635
887.0, 0.004060353466102705
888.0, 0.004202349849044798
889.0, 0.0030302156821367357
890.0, 0.003686564647090798
891.0, 0.006419653681008811
892.0, 0.008991843610257694
893.0, 0.014016806848377947
894.0, 0.025090523353903257
895.0, 0.030557231140647515
896.0, 0.031689289564751394
897.0, 0.033437055907065055
898.0, 0.03577957278610064
899.0, 0.034140204000727016
900.0, 0.029064300461936952
901.0, 0.029537506169995488
902.0, 0.028400444261696776
903.0, 0.03028371684270575
904.0, 0.04067042092124492
905.0, 0.055575626344068735
906.0, 0.079608585858698
907.0, 0.1192163629850408
908.0, 0.1759705075265706
909.0, 0.2597555267383543
910.0, 0.37465389442124347
911.0, 0.5038157195454068
912.0, 0.5706358082827032
913.0, 0.5338081453602721
914.0, 0.4436996756298688
915.0, 0.35261106282407884
916.0, 0.2883569633923396
917.0, 0.263014345275489
918.0, 0.27187846447225905
919.0, 0.3031966097903822
920.0, 0.35166234777931565
921.0, 0.413601652842646
922.0, 0.4511332961762815
923.0, 0.4543708197087762
924.0, 0.44768777605219556
925.0, 0.4681943734270686
926.0, 0.531355966673105
927.0, 0.607374298032802
928.0, 0.6455857774650366
929.0, 0.5829778266361751
930.0, 0.48846759021413133
931.0, 0.4126300971092246
932.0, 0.36742145766436374
933.0, 0.3368164572995891
934.0, 0.3203224669206161
935.0, 0.3326506886223042
936.0, 0.37076123658439597
937.0, 0.43357724573353407
938.0, 0.45089120202388905
939.0, 0.3910846364876556
940.0, 0.3157098986259525
941.0, 0.25996620576240775
942.0, 0.24278094862136687
943.0, 0.2669838870318124
944.0, 0.3363401572461638
945.0, 0.4631298852012248
946.0, 0.6396285977341152
947.0, 0.8466462804648728
948.0, 0.9783183398876328
949.0, 0.9317544830260427
950.0, 0.751393709861651
951.0, 0.5330469778322046
952.0, 0.34744683697393886
953.0, 0.22217636523314624
954.0, 0.14941168272439212
955.0, 0.10038345025142198
956.0, 0.07564028688714335
957.0, 0.062020424446854426
958.0, 0.052532417695903146
959.0, 0.043504617629225556
960.0, 0.0367409450515662
961.0, 0.033810441204803976
962.0, 0.03366568749616937
963.0, 0.035555372230117524
964.0, 0.038230627778804004
965.0, 0.03199484174127267
966.0, 0.034622764215385765
967.0, 0.02898864628162139
968.0, 0.028627442912007535
969.0, 0.02464387183599786
970.0, 0.021389188966592743
971.0, 0.017328258297635794
972.0, 0.010797820176230214
973.0, 0.005935761737569525
974.0, 0.00555079147821527
975.0, 0.0044379540113422995
976.0, 0.0007174257382299531
977.0, 0.0007363383671208649
978.0, 0.004415903255858451
979.0, 0.004506971475484437
980.0, 0.002507913694234018
981.0, 0.004526227606266731
982.0, 0.0071957523804675756
983.0, 0.004298292975676642
984.0, 0.007866068927496079
985.0, 0.009657147075320912
986.0, 0.008730023311892363
987.0, 0.008232704746623375
988.0, 0.0075863043137273
989.0, 0.008719994980041265
990.0, 0.006424670922591424
991.0, 0.005188729060147319
992.0, 0.005784912373944255
993.0, 0.0011031850769728769
994.0, 0.0034079715736797297
995.0, 0.00027510946114148497
996.0, 0.003067257706031711
997.0, 0.004644416347200664
998.0, 0.004466140396776514
999.0, 0.010747820745298883
1000.0, 0.018790331018063173
1001.0, 0.025459296630621853
1002.0, 0.0296634008981527
1003.0, 0.028156241875233266
1004.0, 0.02417303437615114
1005.0, 0.018506505741006506
1006.0, 0.021622656377496507
1007.0, 0.02752339661465107
1008.0, 0.029457312170385223
1009.0, 0.03460436923148066
1010.0, 0.038497307010732756
1011.0, 0.04008263896441442
1012.0, 0.0423106423894872
1013.0, 0.04333072560304535
1014.0, 0.03997357126086339
1015.0, 0.04082650867528902
1016.0, 0.0444131912609477
1017.0, 0.045913507674222157
1018.0, 0.04857223778440008
1019.0, 0.0495773093857768
1020.0, 0.052815814978701414
1021.0, 0.057329951983230876
1022.0, 0.05926290918012936
1023.0, 0.06050256478925924
1024.0, 0.06617101108835667
1025.0, 0.06646195084022305
1026.0, 0.0728372196425596
1027.0, 0.07458666464962374
1028.0, 0.0751546571778876
1029.0, 0.08024316922949563
1030.0, 0.08209882991486411
1031.0, 0.08265411006888114
1032.0, 0.08406376715242912
1033.0, 0.08407462308826347
1034.0, 0.08324322840672473
1035.0, 0.07839910178889456
1036.0, 0.08073000775718238
1037.0, 0.07803142724893458
1038.0, 0.07477456308042334
1039.0, 0.07938590335340841
1040.0, 0.08022289685397144
1041.0, 0.07848090050870475
1042.0, 0.08053534513085804
1043.0, 0.08269398826361195
1044.0, 0.07942255761513846
1045.0, 0.08246922833709945
1046.0, 0.08351087324939628
1047.0, 0.08159345645535063
1048.0, 0.08342593984666759
1049.0, 0.0836937949798359
1050.0, 0.08444462622227007
1051.0, 0.08223874002034787
1052.0, 0.08027514215252408
1053.0, 0.07937270203434309
1054.0, 0.07770530593854186
1055.0, 0.07685326302563882
1056.0, 0.07153061316214039
1057.0, 0.07453955118202858
1058.0, 0.06829588961321989
1059.0, 0.06634897503897294
1060.0, 0.06259585870688104
1061.0, 0.06111706600317825
1062.0, 0.05782663410397327
1063.0, 0.05581921787275434
1064.0, 0.056528658960461727
1065.0, 0.054425535305266705
1066.0, 0.05000728416752395
1067.0, 0.0486056479687988
1068.0, 0.049479354005792196
1069.0, 0.04754858878495019
1070.0, 0.04575565666244202
1071.0, 0.04545522772676676
1072.0, 0.043522020757794926
1073.0, 0.043497784327575985
1074.0, 0.04387330547044008
1075.0, 0.0427880725028394
1076.0, 0.04192591081486285
1077.0, 0.03970828539094949
1078.0, 0.03999661303813556
1079.0, 0.03786900530664602
1080.0, 0.034301722283551155
1081.0, 0.03443234916776611
1082.0, 0.0324379283442291
1083.0, 0.032325613101163594
1084.0, 0.02913020673717912
1085.0, 0.026559188362568962
1086.0, 0.02715433747063391
1087.0, 0.023950869503016243
1088.0, 0.017387527058659973
1089.0, 0.018051118512905827
1090.0, 0.012432097186912575
1091.0, 0.01665421485642165
1092.0, 0.012950095621915016
1093.0, 0.008246644102566673
1094.0, 0.007850398826953073
1095.0, 0.006528836861604764
1096.0, 0.004549964429757364
1097.0, 0.003300626116050848
1098.0, 0.0017415267182161217
1099.0, 0.001304919998487336
1100.0, 9.269584559342043e-05
1101.0, 0.0008107748678719479
1102.0, 0.002995356050415304
1103.0, 0.0023507415580027308
1104.0, 0.007281852343309527
1105.0, 0.00799663055642472
1106.0, 0.0033125797890643897
1107.0, 0.0017082783139588634
1108.0, 0.0023421728533956584
1109.0, 0.0007485638148828754
1110.0, 0.0014360877905885048
1111.0, 0.004493135974319084
1112.0, 0.0025754179878724887
1113.0, 0.001093776545858142
1114.0, 0.0038065192736728704
1115.0, 0.0063346122706238114
1116.0, 0.0041292655261889084
1117.0, 0.00747081708540459
1118.0, 0.01291373484849323
1119.0, 0.0141423064785848
1120.0, 0.017666640430141514
1121.0, 0.02632929326000238
1122.0, 0.027665161226622374
1123.0, 0.033884122179000116
1124.0, 0.03888737526511126
1125.0, 0.036355981812784245
1126.0, 0.03522451658231877
1127.0, 0.034793549370816884
1128.0, 0.034747493324103915
1129.0, 0.035612741631772867
1130.0, 0.036910003157687575
1131.0, 0.03944826585296358
1132.0, 0.04315190675735513
1133.0, 0.04728096672788797
1134.0, 0.05285177341070995
1135.0, 0.05551953534766552
1136.0, 0.061274698828445974
1137.0, 0.061465846616828995
1138.0, 0.06691837093167116
1139.0, 0.07475976534752368
1140.0, 0.0787019672973378
1141.0, 0.0778806851899571
1142.0, 0.07995431415657366
1143.0, 0.08466560120407556
1144.0, 0.08817410046273205
1145.0, 0.09148274908389915
1146.0, 0.09410854640813626
1147.0, 0.09841898329138696
1148.0, 0.10094617726913911
1149.0, 0.10303808349295944
1150.0, 0.10289948026080178
1151.0, 0.1009939578135838
1152.0, 0.10133619457476023
1153.0, 0.10108411534222651
1154.0, 0.09735897202644263
1155.0, 0.09454236398593589
1156.0, 0.09454375095924472
1157.0, 0.0943271294318399
1158.0, 0.09417525009153464
1159.0, 0.0906594154734408
1160.0, 0.09122786964970774
1161.0, 0.09022490149228439
1162.0, 0.08971180931420088
1163.0, 0.0921260762612093
1164.0, 0.08737975812968286
1165.0, 0.08733233436603428
1166.0, 0.0839267875020744
1167.0, 0.08137069219787073
1168.0, 0.08066400312374503
1169.0, 0.0765775051683547
1170.0, 0.0739878445192839
1171.0, 0.07090232706234809
1172.0, 0.07057691715472432
1173.0, 0.07081528395825104
1174.0, 0.06484039309876324
1175.0, 0.06366880687487149
1176.0, 0.05810949711279699
1177.0, 0.05222907493456226
1178.0, 0.04778881186420455
1179.0, 0.0442168843447562
1180.0, 0.03964157191643439
1181.0, 0.0353215267003759
1182.0, 0.03320385498171604
1183.0, 0.029904811041216315
1184.0, 0.024239453231086117
1185.0, 0.021150777169175114
1186.0, 0.02257103260796906
1187.0, 0.016045034212639114
1188.0, 0.015591821506642707
1189.0, 0.015569494634856473
1190.0, 0.012327343764601031
1191.0, 0.009355210819165363
1192.0, 0.008562366601862157
1193.0, 0.007948309721117354
1194.0, 0.005513466229272874
1195.0, 0.0028919211310710255
1196.0, 0.0028319129178456305
1197.0, 0.0029714626284238093
1198.0, 0.0033414739341587436
1199.0, 9.861212177555371e-05
1200.0, 0.0019284292004846427
1201.0, 0.0027590295742324026
1202.0, 0.0015467687732860754
1203.0, 0.002779482928273754
1204.0, 0.002017691889171588
1205.0, 0.0029724010711477465
1206.0, 0.004034513184874713
1207.0, 0.0023372758718904238
1208.0, 0.001474764324134311
1209.0, 0.0023619267710412563
1210.0, 0.0035894216229753126
1211.0, 0.00860373714931933
1212.0, 0.006797188163971522
1213.0, 0.008143113037057463
1214.0, 0.013839346030768468
1215.0, 0.012642557856760942
1216.0, 0.013456035065338342
1217.0, 0.014972557934999138
1218.0, 0.016470982397050766
1219.0, 0.017272839014751108
1220.0, 0.017830609603504508
1221.0, 0.01903600880099196
1222.0, 0.01977419357080753
1223.0, 0.01984194101639629
1224.0, 0.02183897409669601
1225.0, 0.023437638820824808
1226.0, 0.025730451128962335
1227.0, 0.02841718414714012
1228.0, 0.02838101905239616
1229.0, 0.031157027231631662
1230.0, 0.03281384506035064
1231.0, 0.03538676258257949
1232.0, 0.03950634500199771
1233.0, 0.04311675006361227
1234.0, 0.04649483242162504
1235.0, 0.05042275322051011
1236.0, 0.05284155236860271
1237.0, 0.05436269573109675
1238.0, 0.05761797061663411
1239.0, 0.06122181565760822
1240.0, 0.06492034086095586
1241.0, 0.06962125543579964
1242.0, 0.0707327130458773
1243.0, 0.07746347832394034
1244.0, 0.08640946879797731
1245.0, 0.088733894494383
1246.0, 0.09288423092698378
1247.0, 0.10067915391759963
1248.0, 0.10593263352352263
1249.0, 0.10788556532133953
1250.0, 0.11049685112320828
1251.0, 0.11529783375207214
1252.0, 0.11766795114067902
1253.0, 0.12453762008300914
1254.0, 0.1226093996310921
1255.0, 0.12527184171307834
1256.0, 0.1258656672521927
1257.0, 0.129317966057805
1258.0, 0.12955196886195663
1259.0, 0.12913837167562103
1260.0, 0.1266973548923228
1261.0, 0.12575012195695473
1262.0, 0.12531670433773553
1263.0, 0.12434128079365707
1264.0, 0.1252420085149863
1265.0, 0.12380031994768385
1266.0, 0.12161365202520637
1267.0, 0.12279778818405082
1268.0, 0.11981856217993078
1269.0, 0.1251589966997322
1270.0, 0.12147594559653078
1271.0, 0.1253701977622044
1272.0, 0.1248072987475438
1273.0, 0.12576847725823495
1274.0, 0.12499179617875918
1275.0, 0.12474768658590041
1276.0, 0.12627870707749275
1277.0, 0.12913577676501603
1278.0, 0.13201145241209847
1279.0, 0.13299083284441965
1280.0, 0.1333454095490306
1281.0, 0.13448835766361097
1282.0, 0.13965977621770523
1283.0, 0.14721167661244064
1284.0, 0.15147346475023055
1285.0, 0.15980783897693857
1286.0, 0.1637619187248405
1287.0, 0.17749212106407616
1288.0, 0.18644361209547902
1289.0, 0.1951694610016338
1290.0, 0.20740078156045227
1291.0, 0.21441684016961518
1292.0, 0.21915704208638725
1293.0, 0.22475805458056708
1294.0, 0.22521905538981313
1295.0, 0.22623145122575034
1296.0, 0.23123372885824456
1297.0, 0.22476106580459065
1298.0, 0.2144386613562471
1299.0, 0.2163457428925749
1300.0, 0.20404035950437596
1301.0, 0.19682197589705364
1302.0, 0.19300356994645554
1303.0, 0.1878044483224432
1304.0, 0.1802259745442748
1305.0, 0.17492247445947484
1306.0, 0.17003226053795045
1307.0, 0.16358965537159764
1308.0, 0.1584115142853007
1309.0, 0.15695375577460868
1310.0, 0.15669772273330884
1311.0, 0.15504291064084616
1312.0, 0.15449242796524232
1313.0, 0.15216964448164372
1314.0, 0.1499925262689602
1315.0, 0.14832453744213003
1316.0, 0.1460826878465437
1317.0, 0.14501760753502563
1318.0, 0.14303546235256367
1319.0, 0.14157432283454005
1320.0, 0.1395638713694555
1321.0, 0.13693773345298715
1322.0, 0.13486387670859554
1323.0, 0.1335691164078079
1324.0, 0.13234294303157082
1325.0, 0.1301144598778878
1326.0, 0.12721455182990282
1327.0, 0.12338316800026185
1328.0, 0.11635368033978993
1329.0, 0.11295341541351761
1330.0, 0.10933204922026066
1331.0, 0.10655248112979646
1332.0, 0.10460105452273659
1333.0, 0.10349563810458837
1334.0, 0.10197859109307911
1335.0, 0.10003938996498983
1336.0, 0.09909698326305127
1337.0, 0.09625226598741991
1338.0, 0.09276292881674525
1339.0, 0.0896273495343687
1340.0, 0.09025365574474624
1341.0, 0.09040272907560065
1342.0, 0.08583131763042966
1343.0, 0.08405497029703138
1344.0, 0.08716757722095818
1345.0, 0.0846962926712508
1346.0, 0.08167783808198747
1347.0, 0.08026019010264127
1348.0, 0.08314916422951925
1349.0, 0.08848501853109132
1350.0, 0.09398478307407451
1351.0, 0.10342261111758529
1352.0, 0.11624282980995182
1353.0, 0.12850341317816694
1354.0, 0.1523684528054898
1355.0, 0.181141868862517
1356.0, 0.2181831816025693
1357.0, 0.2669010292471724
1358.0, 0.32102001338847325
1359.0, 0.37213869397294663
1360.0, 0.41400917039007057
1361.0, 0.4320071572396898
1362.0, 0.4113175570971624
1363.0, 0.36587980543800774
1364.0, 0.30485906109050964
1365.0, 0.24872067826985955
1366.0, 0.19427961334657246
1367.0, 0.16016126751868762
1368.0, 0.128164264311378
1369.0, 0.10230776483852262
1370.0, 0.09186352398831876
1371.0, 0.08362136605789294
1372.0, 0.07694636367623985
1373.0, 0.07228098477789836
1374.0, 0.07448175881511332
1375.0, 0.07952335828623086
1376.0, 0.08580945006151514
1377.0, 0.0932200964659256
1378.0, 0.09830454976380229
1379.0, 0.10126918441156361
1380.0, 0.10308774562936522
1381.0, 0.10129403254643592
1382.0, 0.10170461939625583
1383.0, 0.10255983238119912
1384.0, 0.11063123509919845
1385.0, 0.11459539082951738
1386.0, 0.1221708482642194
1387.0, 0.12452611352418338
1388.0, 0.12498226120343284
1389.0, 0.12284326749066443
1390.0, 0.12891745587649675
1391.0, 0.1436018956779507
1392.0, 0.1659016839285317
1393.0, 0.19496835527369158
1394.0, 0.22535563538437223
1395.0, 0.24848030978880478
1396.0, 0.25082140651779294
1397.0, 0.22844332435224568
1398.0, 0.1905872338946438
1399.0, 0.14718755933759925
1400.0, 0.11039190098880845
1401.0, 0.079892756933114
1402.0, 0.05554666081190516
1403.0, 0.03430508315748046
1404.0, 0.026076052848075956
1405.0, 0.015933980341693334
1406.0, 0.007425651948338848
1407.0, 0.0031019842519445237
1408.0, 0.008462651041032741
1409.0, 0.011704235877658568
1410.0, 0.009249344366944225
1411.0, 0.009757853217071302
1412.0, 0.012923453168071272
1413.0, 0.015547752821894351
1414.0, 0.017945192071108368
1415.0, 0.018104387402761282
1416.0, 0.01781555035704993
1417.0, 0.017226477775636077
1418.0, 0.010627634034757931
1419.0, 0.0041208277040544325
1420.0, 0.00770541778467013
1421.0, 0.008071820073824704
1422.0, 0.00347693140526229
1423.0, 0.016919064188197146
1424.0, 0.02618147948772031
1425.0, 0.037755168630241025
1426.0, 0.04674059982880149
1427.0, 0.0548822503014232
1428.0, 0.05382261010622532
1429.0, 0.045727298555827314
1430.0, 0.031065332657544287
1431.0, 0.021797051199563135
1432.0, 0.016810413192343977
1433.0, 0.013320040767531908
1434.0, 0.008843876542072361
1435.0, 0.008923307900862598
1436.0, 0.010950632891836247
1437.0, 0.015303720286290177
1438.0, 0.02370654115536624
1439.0, 0.03141886994502336
1440.0, 0.038827846477194006
1441.0, 0.05045945832082033
1442.0, 0.06535628174240192
1443.0, 0.0729856246832564
1444.0, 0.08336898724362382
1445.0, 0.09533515057113533
1446.0, 0.10022871323660552
1447.0, 0.1037491591717514
1448.0, 0.10572257364842254
1449.0, 0.09926452994711273
1450.0, 0.09070280308457188
1451.0, 0.08715279890802755
1452.0, 0.07496966954844725
1453.0, 0.07274367857835454
1454.0, 0.07035806956970177
1455.0, 0.07074881737336888
1456.0, 0.07117529110140447
1457.0, 0.07325993221155187
1458.0, 0.07636979097147832
1459.0, 0.08403333189097584
1460.0, 0.09310745751403897
1461.0, 0.10059136545782886
1462.0, 0.109101461847828
1463.0, 0.11363363604832495
1464.0, 0.11336152967011728
1465.0, 0.1102798050723976
1466.0, 0.10885045284281342
1467.0, 0.10167577083661725
1468.0, 0.1005136871748579
1469.0, 0.09491472107680973
1470.0, 0.0865328925980182
1471.0, 0.08376805403471016
1472.0, 0.09070983785872165
1473.0, 0.08734569285414688
1474.0, 0.08696413438911638
1475.0, 0.08651788741171815
1476.0, 0.08712883681910505
1477.0, 0.08702761095002501
1478.0, 0.0888027286573328
1479.0, 0.08943483580519472
1480.0, 0.09287537250060465
1481.0, 0.09664025277247634
1482.0, 0.09579693861044639
1483.0, 0.09734676028784173
1484.0, 0.09871791380440097
1485.0, 0.09654479800565742
1486.0, 0.09611614423910661
1487.0, 0.09538630697274304
1488.0, 0.09396629424365796
1489.0, 0.09128055563409773
1490.0, 0.08339701000744222
1491.0, 0.07791141112787536
1492.0, 0.07086722031038772
1493.0, 0.06643522959882443
1494.0, 0.06469025700937123
1495.0, 0.06861835300721232
1496.0, 0.060361365667340794
1497.0, 0.0625892973655752
1498.0, 0.06762712434904188
1499.0, 0.06208278966592189
1500.0, 0.06684201191745646
1501.0, 0.06492040505005676
1502.0, 0.06380170617016812
1503.0, 0.06751853145204394
1504.0, 0.06939812236609576
1505.0, 0.06933759577367482
1506.0, 0.07109678139799848
1507.0, 0.07382283340715917
1508.0, 0.07436685480063199
1509.0, 0.0748809872072573
1510.0, 0.07538123471573649
1511.0, 0.0740974448826154
1512.0, 0.07439416966310708
1513.0, 0.07355959619140083
1514.0, 0.06943173511735769
1515.0, 0.06651529699886838
1516.0, 0.06205523302337412
1517.0, 0.06628463282432936
1518.0, 0.06156404677005677
1519.0, 0.05623412523600313
1520.0, 0.0535852805952995
1521.0, 0.04538189094558484
1522.0, 0.042950912079848615
1523.0, 0.042874438368600234
1524.0, 0.035480143364461855
1525.0, 0.028738662635834668
1526.0, 0.024900827188079983
1527.0, 0.025968614345594457
1528.0, 0.020157230467888167
1529.0, 0.018845753992104246
1530.0, 0.01714804628058401
1531.0, 0.014906995121105882
1532.0, 0.0143829378509451
1533.0, 0.012072630829791986
1534.0, 0.01060635721624889
1535.0, 0.00933297835277168
1536.0, 0.011059410670669054
1537.0, 0.010341420239243813
1538.0, 0.009039130122703362
1539.0, 0.006989303964285711
1540.0, 0.004514625039863674
1541.0, 0.003826976850360657
1542.0, 0.005266424546616462
1543.0, 0.005999363809262968
1544.0, 0.0065128733546843875
1545.0, 0.011392608758353913
1546.0, 0.008721589466212107
1547.0, 0.005737118276727575
1548.0, 0.009659544559868035
1549.0, 0.011635070605359626
1550.0, 0.011204473570942454
1551.0, 0.013282882734836863
1552.0, 0.01825923228651175
1553.0, 0.015313008521605507
1554.0, 0.010983319292282231
1555.0, 0.014629814952690124
1556.0, 0.009092112132841343
1557.0, 0.008630153249262392
1558.0, 0.011627290807270475
1559.0, 0.01000492772810364
1560.0, 0.008182272828115733
1561.0, 0.0014738533501363177
1562.0, 0.010408257292813812
1563.0, 0.0052556638132354155
1564.0, 0.000786250103363999
1565, 0.0
1566, 0.0
1567, 0.0
1568, 0.0
1569, 0.0
1570, 0.0
1571, 0.0
1572, 0.0
1573, 0.0
1574, 0.0
1575, 0.0
1576, 0.0
1577, 0.0
1578, 0.0
1579, 0.0
1580, 0.0
1581, 0.0
1582, 0.0
1583, 0.0
1584, 0.0
1585, 0.0
1586, 0.0
1587, 0.0
1588, 0.0
1589, 0.0
1590, 0.0
1591, 0.0
1592, 0.0
1593, 0.0
1594, 0.0
1595, 0.0
1596, 0.0
1597, 0.0
1598, 0.0
1599, 0.0
