30, 0.0
31, 0.0
32, 0.0
33, 0.0
34, 0.0
35, 0.0
36, 0.0
37, 0.0
38, 0.0
39, 0.0
40, 0.0
41, 0.0
42, 0.0
43, 0.0
44, 0.0
45, 0.0
46, 0.0
47, 0.0
48, 0.0
49, 0.0
50, 0.0
51, 0.0
52, 0.0
53, 0.0
54, 0.0
55, 0.0
56, 0.0
57, 0.0
58, 0.0
59, 0.0
60, 0.0
61, 0.0
62, 0.0
63, 0.0
64, 0.0
65, 0.0
66, 0.0
67, 0.0
68, 0.0
69, 0.0
70, 0.0
71, 0.0
72, 0.0
73, 0.0
74, 0.0
75, 0.0
76, 0.0
77, 0.0
78, 0.0
79, 0.0
80, 0.0
81, 0.0
82, 0.0
83, 0.0
84, 0.0
85, 0.0
86, 0.0
87, 0.0
88, 0.0
89, 0.0
90, 0.0
91, 0.0
92, 0.0
93, 0.0
94, 0.0
95, 0.0
96, 0.0
97, 0.0
98, 0.0
99, 0.0
100, 0.0
101, 0.0
102, 0.0
103, 0.0
104, 0.0
105, 0.0
106, 0.0
107, 0.0
108, 0.0
109, 0.0
110, 0.0
111, 0.0
112, 0.0
113, 0.0
114, 0.0
115, 0.0
116, 0.0
117, 0.0
118, 0.0
119, 0.0
120, 0.0
121, 0.0
122, 0.0
123, 0.0
124, 0.0
125, 0.0
126, 0.0
127, 0.0
128, 0.0
129, 0.0
130, 0.0
131, 0.0
132, 0.0
133, 0.0
134, 0.0
135, 0.0
136, 0.0
137, 0.0
138, 0.0
139, 0.0
140, 0.0
141, 0.0
142, 0.0
143, 0.0
144, 0.0
145, 0.0
146, 0.0
147, 0.0
148, 0.0
149, 0.0
150, 0.0
151, 0.0
152, 0.0
153, 0.0
154, 0.0
155, 0.0
156, 0.0
157, 0.0
158, 0.0
159, 0.0
160, 0.0
161, 0.0
162, 0.0
163, 0.0
164, 0.0
165, 0.0
166, 0.0
167, 0.0
168, 0.0
169.0, 0.002034480709340694
170.0, 0.001835240217868653
171.0, 0.0006665413175653129
172.0, 0.000628660433316369
173.0, 0.0035426234607388593
174.0, 0.000807730502594818
175.0, 0.0017263875152402355
176.0, 0.0028154578916129293
177.0, 0.002931830082705458
178.0, 0.00287395976811483
179.0, 0.0031625805669908895
180.0, 0.0038726743932822475
181.0, 0.00308131985655838
182.0, 0.0014912323175010123
183.0, 0.0006405456573294788
184.0, 0.002305569651235349
185.0, 0.0015190614870916582
186.0, 0.0010572041497195189
187.0, 0.002655022252680002
188.0, 0.0045759353728105304
189.0, 0.0025821312821801964
190.0, 0.004670168168026726
191.0, 0.0025913143783551154
192.0, 0.00469830540239728
193.0, 0.008034506046797722
194.0, 0.008029636136127267
195.0, 0.009045240341584842
196.0, 0.007846708966738355
197.0, 0.010342255102787856
198.0, 0.011442434264461274
199.0, 0.010333631984500729
200.0, 0.012206623306932392
201.0, 0.011355954762390992
202.0, 0.010857329377603746
203.0, 0.0113990858976631
204.0, 0.01052793687120151
205.0, 0.007097445715062968
206.0, 0.010288052532159682
207.0, 0.00663905195859919
208.0, 0.004783531505382508
209.0, 0.004530297860534975
210.0, 0.004512962570771667
211.0, 0.00336427608833033
212.0, 0.0016698910040017418
213.0, 0.001895990910955358
214.0, 0.004272908110382425
215.0, 0.005848723336993158
216.0, 0.004552821570176675
217.0, 0.00712275353937246
218.0, 0.010691158359721469
219.0, 0.011043655771823292
220.0, 0.009923136254890079
221.0, 0.007818531983096802
222.0, 0.003439694424362433
223.0, 0.009352807383542949
224.0, 0.01093817849655175
225.0, 0.00874868769108338
226.0, 0.006046453352614636
227.0, 0.005278789429500042
228.0, 0.0025065191085672333
229.0, 0.004378829913661571
230.0, 0.006360914195045379
231.0, 0.005222236962318883
232.0, 0.002646874074142068
233.0, 0.004351815186252557
234.0, 0.006123079593976198
235.0, 0.005044017689724799
236.0, 0.003728495053552607
237.0, 0.004341122789009826
238.0, 0.007433432857548922
239.0, 0.010006763096712164
240.0, 0.007773500587128626
241.0, 0.00671560700182805
242.0, 0.007879772596921925
243.0, 0.008951425653116395
244.0, 0.006917159541834361
245.0, 0.01083842529826576
246.0, 0.005468555582932687
247.0, 0.0026460188209863973
248.0, 0.003095154985898753
249.0, 0.005174348528543673
250.0, 0.007375339938408046
251.0, 0.006304719822409007
252.0, 0.00595121603964346
253.0, 0.005075759635582241
254.0, 0.003835539044689564
255.0, 0.0035283305037114186
256.0, 0.007095239862498951
257.0, 0.024440911548343693
258.0, 0.02405360797810169
259.0, 0.023495103180503955
260.0, 0.025567182260438373
261.0, 0.013923256398065378
262.0, 0.006475477533147852
263.0, 0.004569773443579184
264.0, 0.003889301232519331
265.0, 0.002866424585540528
266.0, 0.0015714871978401172
267.0, 0.0018072948222803435
268.0, 0.0011058955929801116
269.0, 0.0015770807196002618
270.0, 0.0015227242830211506
271.0, 0.0007849237151780508
272.0, 0.0003801075260572611
273.0, 0.001961512960505945
274.0, 0.0021550981718777475
275.0, 0.0023903363767997484
276.0, 0.0037838475472942432
277.0, 0.006210649967784513
278.0, 0.008257044245622453
279.0, 0.009191710743342097
280.0, 0.009705251848759039
281.0, 0.007651701148042833
282.0, 0.007194524965899506
283.0, 0.009967260381511469
284.0, 0.008908768714432797
285.0, 0.015072528066679514
286.0, 0.017192943154305848
287.0, 0.0163886828045574
288.0, 0.01675414933542946
289.0, 0.020467068378976362
290.0, 0.017203314975273828
291.0, 0.022192158569924087
292.0, 0.023024345826026735
293.0, 0.024740971909463255
294.0, 0.030114515632738047
295.0, 0.03746505571843623
296.0, 0.0398169539352954
297.0, 0.04380796512171337
298.0, 0.04411613050415365
299.0, 0.04811026894672364
300.0, 0.057045493561522345
301.0, 0.060587995236256215
302.0, 0.07255658357880246
303.0, 0.0772818235478261
304.0, 0.09006354039769522
305.0, 0.10987908265873676
306.0, 0.1326443030582188
307.0, 0.16155741863585155
308.0, 0.19015488948481576
309.0, 0.23583892321533131
310.0, 0.286097108833758
311.0, 0.3407734949712604
312.0, 0.4047887764667171
313.0, 0.4736715319772853
314.0, 0.5504583488784872
315.0, 0.6261504640729518
316.0, 0.7067136318747594
317.0, 0.793032466741278
318.0, 0.8785173784474689
319.0, 0.9431398148238479
320.0, 0.9870999205576272
321.0, 0.988064254092171
322.0, 0.9552584757691787
323.0, 0.8916782562247918
324.0, 0.7905413609516602
325.0, 0.684373628770988
326.0, 0.5743097866563431
327.0, 0.47540598355263386
328.0, 0.3938270725391665
329.0, 0.3285322914654421
330.0, 0.2719407436628081
331.0, 0.23384641846506612
332.0, 0.20017057738479252
333.0, 0.17324096683835655
334.0, 0.15279176709310655
335.0, 0.13670522847526473
336.0, 0.12155095769160502
337.0, 0.11168638981633806
338.0, 0.10177962754763459
339.0, 0.09373912991461256
340.0, 0.08727369029027955
341.0, 0.08128930650939759
342.0, 0.07545593466014566
343.0, 0.07105566776119508
344.0, 0.0653262655412993
345.0, 0.06293900120922502
346.0, 0.060357066620686815
347.0, 0.053690115651219894
348.0, 0.05396020055799332
349.0, 0.05092546022897221
350.0, 0.0475254480768495
351.0, 0.04607437889221092
352.0, 0.04641908040613952
353.0, 0.046180960431455996
354.0, 0.04092467674409489
355.0, 0.0372754617619912
356.0, 0.03597436383383366
357.0, 0.036063398565239935
358.0, 0.03697623227096513
359.0, 0.038147455066690206
360.0, 0.03654181254094025
361.0, 0.03694656902400229
362.0, 0.03377557639534589
363.0, 0.03162863387227458
364.0, 0.03154219078544095
365.0, 0.031117056868124195
366.0, 0.03275393878184112
367.0, 0.03311562058860263
368.0, 0.03199888221847231
369.0, 0.030594911915991438
370.0, 0.029585976001530578
371.0, 0.028772384722289244
372.0, 0.027021306524320356
373.0, 0.026306703786545895
374.0, 0.025179202016003252
375.0, 0.02356461605243508
376.0, 0.022610913791529935
377.0, 0.023224677090697605
378.0, 0.01881815847030936
379.0, 0.022001306634408226
380.0, 0.01907532941081236
381.0, 0.017339808916992185
382.0, 0.0191183101170168
383.0, 0.01918623174867334
384.0, 0.01650091597688305
385.0, 0.017912292084462846
386.0, 0.017972217307258523
387.0, 0.018285437323810685
388.0, 0.01926851335072648
389.0, 0.019506188626064968
390.0, 0.019518518712101817
391.0, 0.019075902413130005
392.0, 0.017242132465867352
393.0, 0.01710261166493613
394.0, 0.018910523572979628
395.0, 0.02014166471507194
396.0, 0.020157971725853555
397.0, 0.01769746423759181
398.0, 0.017800442118289506
399.0, 0.015235672457498543
400.0, 0.012828885921672466
401.0, 0.01687724563548507
402.0, 0.014264845533463272
403.0, 0.013204567556293184
404.0, 0.014800175889264517
405.0, 0.014711002772475935
406.0, 0.013228860832914522
407.0, 0.013081387960314397
408.0, 0.011180027867949562
409.0, 0.012284139591730222
410.0, 0.009194600331901217
411.0, 0.0077336413465256635
412.0, 0.008095391099957498
413.0, 0.008278112124852435
414.0, 0.013062674254792343
415.0, 0.008164845947094369
416.0, 0.009213620621334576
417.0, 0.011085618537471673
418.0, 0.011746705129684303
419.0, 0.011856486403780715
420.0, 0.012979464027282351
421.0, 0.010332893678857204
422.0, 0.011727010042882992
423.0, 0.011663079343984617
424.0, 0.010100342667825878
425.0, 0.009045540499353858
426.0, 0.009249148937727639
427.0, 0.00841641524313601
428.0, 0.011331935960369204
429.0, 0.01092547064748389
430.0, 0.010673816437676967
431.0, 0.012673746014154053
432.0, 0.012177526286934004
433.0, 0.012667381227795232
434.0, 0.013714145966407134
435.0, 0.013664723121878579
436.0, 0.013671700792947718
437.0, 0.014491924915615885
438.0, 0.015128925457576277
439.0, 0.011025350123919447
440.0, 0.012279723798274635
441.0, 0.010204008426438604
442.0, 0.012293996417773942
443.0, 0.01532737453259941
444.0, 0.011435217380319176
445.0, 0.020666588559760904
446.0, 0.016481956433139117
447.0, 0.016292787680780987
448.0, 0.016517053680496992
449.0, 0.015083171611110195
450.0, 0.0128560428488974
451.0, 0.01290221023639642
452.0, 0.013111224591999827
453.0, 0.011031963813579267
454.0, 0.011149926215327613
455.0, 0.011739849240102266
456.0, 0.01111428235155652
457.0, 0.012366104124181975
458.0, 0.014127393902771929
459.0, 0.01308168603889127
460.0, 0.013319212315198342
461.0, 0.0138313140870811
462.0, 0.014124535639722768
463.0, 0.015529013201673297
464.0, 0.015929977864575222
465.0, 0.014368167440289905
466.0, 0.014955533958973363
467.0, 0.01491463745020628
468.0, 0.012862453320479496
469.0, 0.011021245728650191
470.0, 0.017138057954384694
471.0, 0.01512922143838428
472.0, 0.013424252021503763
473.0, 0.011285438997449397
474.0, 0.009983220685792502
475.0, 0.011398617864868447
476.0, 0.015798748588357295
477.0, 0.015335511963647644
478.0, 0.014911461976088688
479.0, 0.014387976128634034
480.0, 0.01341621642587716
481.0, 0.013412749509184235
482.0, 0.016687729048499973
483.0, 0.016737184667762677
484.0, 0.01714678763992883
485.0, 0.017171514683149498
486.0, 0.01847356614645069
487.0, 0.022121526875676548
488.0, 0.026672128486554248
489.0, 0.02548753245805719
490.0, 0.022634149646935595
491.0, 0.02530740289128879
492.0, 0.02466446742205803
493.0, 0.02277812763407511
494.0, 0.02261283662388342
495.0, 0.020333720980615613
496.0, 0.020081447679117514
497.0, 0.01882043124831632
498.0, 0.0173657420066637
499.0, 0.015625373639132467
500.0, 0.014396779717482667
501.0, 0.014395213782057756
502.0, 0.011666965366129245
503.0, 0.01169246359926988
504.0, 0.010720007642476355
505.0, 0.010640707751390432
506.0, 0.010783109612598332
507.0, 0.01003173991963207
508.0, 0.009477864508231603
509.0, 0.00644358162257009
510.0, 0.008183916265958054
511.0, 0.007381042938469781
512.0, 0.0067157547884194035
513.0, 0.005929160401975522
514.0, 0.002039952778340462
515.0, 0.007819902358857168
516.0, 0.008196843861115844
517.0, 0.0037162570795805207
518.0, 0.0058786653958349065
519.0, 0.009262597929913326
520.0, 0.005595603348157397
521.0, 0.0019565622100582805
522.0, 0.0017254115236422028
523.0, 0.005434358115997512
524.0, 0.0032130537065868446
525.0, 0.0006350216993904088
526.0, 0.0007630653262919621
527.0, 0.0008840881592373077
528.0, 0.003786552722847711
529.0, 0.0024291626613593595
530.0, 0.002744870748013372
531.0, 0.0022956229513591254
532.0, 0.0011344092809840215
533.0, 0.0014678037843348089
534.0, 0.005389063286251895
535.0, 0.0022902153795217378
536.0, 0.005155070214115605
537.0, 0.003781310759704614
538.0, 0.0018441054403615285
539.0, 0.0028755813867786337
540.0, 0.005421839689585468
541.0, 0.001261118787528132
542.0, 0.002324245919948474
543.0, 0.0017669633220580943
544.0, 0.0009233055230018024
545.0, 0.0006733567306543218
546.0, 0.0007969995833525109
547.0, 0.0004254746480604814
548.0, 0.0020662663708651352
549.0, 0.001231219467136241
550.0, 0.0038677976568251508
551.0, 0.003115933726984486
552.0, 0.0003794210197898023
553.0, 0.0009371126449764422
554.0, 0.0035570399992973056
555.0, 0.0020768739077649365
556.0, 0.001005761477254661
557.0, 0.002585495255554963
558.0, 0.0030357893503926816
559.0, 0.0013504373600267824
560.0, 0.0002830294120698944
561.0, 0.00035309618436558005
562.0, 0.001840297881475268
563.0, 0.004534231623700354
564.0, 0.004599790789773477
565.0, 0.0035175045741921963
566.0, 0.003824247145594116
567.0, 0.005310621283581763
568.0, 0.0021546363576512087
569.0, 0.003546534168149733
570.0, 0.004249031950662953
571.0, 0.002660213881269123
572.0, 0.0019903954783728785
573.0, 0.0036460084668849544
574.0, 0.0016028879636884382
575.0, 0.003833814715039339
576.0, 0.004055617845988959
577.0, 0.0033377022798469495
578.0, 0.0036739013856395618
579.0, 0.0040306180936345425
580.0, 0.0030347622175881796
581.0, 0.004954321397354021
582.0, 0.0031810123383375294
583.0, 0.004122684648503359
584.0, 0.0035913274269339067
585.0, 0.00412261732515242
586.0, 0.0055789194653244785
587.0, 0.004453170818653852
588.0, 0.0023478617412117314
589.0, 0.00139832679321126
590.0, 0.0013483677609155316
591.0, 0.0020318427622850886
592.0, 0.002389502320735409
593.0, 0.0023330148141623686
594.0, 0.002974328906946119
595.0, 0.003366939872686645
596.0, 0.002478920273666941
597.0, 0.0017322617949370143
598.0, 0.0011841631950301227
599.0, 0.0026752692373417865
600.0, 0.0048068063233764015
601.0, 0.0020734515202093214
602.0, 0.0005794223199084518
603.0, 0.0040085702895533695
604.0, 0.0023768441383108995
605.0, 0.001518133241725305
606.0, 0.002705739407672242
607.0, 0.004551327397896329
608.0, 0.006761156218349003
609.0, 0.005293546281801294
610.0, 0.008419743988637308
611.0, 0.010272727003155947
612.0, 0.008283529515236535
613.0, 0.00731706313098384
614.0, 0.009849661830021214
615.0, 0.007763706764328863
616.0, 0.00859589789513451
617.0, 0.01155033910752512
618.0, 0.016271234439375663
619.0, 0.014293470169913133
620.0, 0.010952419298527409
621.0, 0.01263620892165437
622.0, 0.010139046114608093
623.0, 0.011311346939042321
624.0, 0.01371876710893905
625.0, 0.013484431758000617
626.0, 0.012095930240951883
627.0, 0.012473770567473305
628.0, 0.014538946493679358
629.0, 0.012937110182899067
630.0, 0.014282757670001534
631.0, 0.013864434114296652
632.0, 0.010712379953137445
633.0, 0.010135888679976139
634.0, 0.010294026838916394
635.0, 0.008734340158578487
636.0, 0.010909523821228926
637.0, 0.008520183072705325
638.0, 0.008431878434292706
639.0, 0.010263122206115005
640.0, 0.010023680235091103
641.0, 0.010114894748795993
642.0, 0.010931492598994296
643.0, 0.0041167421818835035
644.0, 0.0035259052703299288
645.0, 0.00528001202834441
646.0, 0.0045509309335903525
647.0, 0.004214264085803232
648.0, 0.005659125726840271
649.0, 0.0067383312444291524
650.0, 0.0038080467120036555
651.0, 0.004923412505050514
652.0, 0.004331571110636445
653.0, 0.0037630042801345244
654.0, 0.00395497211669017
655.0, 0.004879809661228117
656.0, 0.005311100190594701
657.0, 0.004082380287659334
658.0, 0.0062867096190206435
659.0, 0.004264425993033307
660.0, 0.0014429496484863352
661.0, 0.005180762070147856
662.0, 0.00774310315066886
663.0, 0.005026161703566614
664.0, 0.0044449058472702035
665.0, 0.01033711842398544
666.0, 0.008323510284847093
667.0, 0.00841111888844478
668.0, 0.006663580001152323
669.0, 0.006983275511011319
670.0, 0.008378602964437801
671.0, 0.006345185586278964
672.0, 0.007191987244774108
673.0, 0.00548342296351286
674.0, 0.008863238280147429
675.0, 0.010893663865781956
676.0, 0.010611278953143566
677.0, 0.009565883397920593
678.0, 0.009692819842142158
679.0, 0.011606403723575928
680.0, 0.013870624283720177
681.0, 0.01759980464248736
682.0, 0.01603448889320671
683.0, 0.015269813633740836
684.0, 0.017563331653211556
685.0, 0.020476872137618767
686.0, 0.021198101144560524
687.0, 0.024722949700210706
688.0, 0.027628787469518377
689.0, 0.027531416081616425
690.0, 0.02506322643802937
691.0, 0.02452246976517287
692.0, 0.027069165402275275
693.0, 0.028928393502982132
694.0, 0.027721372189228127
695.0, 0.029265513346274166
696.0, 0.028347593557204356
697.0, 0.029715633631740276
698.0, 0.02985062003969966
699.0, 0.02972357159987476
700.0, 0.03173834358257275
701.0, 0.030615294496340838
702.0, 0.03720144593271183
703.0, 0.029155062923468134
704.0, 0.03029122254218938
705.0, 0.03255244525470958
706.0, 0.035305535443397686
707.0, 0.03730061927906427
708.0, 0.031426232054620015
709.0, 0.03268553130838585
710.0, 0.032829325602041465
711.0, 0.03158407899574723
712.0, 0.03086422922536512
713.0, 0.029799722865235346
714.0, 0.02741047977329708
715.0, 0.024211899537818233
716.0, 0.022222104866026035
717.0, 0.02403167075870984
718.0, 0.019235631327501092
719.0, 0.016971886670575084
720.0, 0.017789385719381056
721.0, 0.017175066741651413
722.0, 0.014419193122641396
723.0, 0.015828180196791792
724.0, 0.01729751878077363
725.0, 0.013841985925881014
726.0, 0.011473042498607547
727.0, 0.011255347506311561
728.0, 0.011797635129734235
729.0, 0.01248811602882462
730.0, 0.012987042435635983
731.0, 0.010438047152652037
732.0, 0.008410646195669334
733.0, 0.007419433525515165
734.0, 0.005501574366586136
735.0, 0.002302051535382569
736.0, 0.0007078665255281795
737.0, 0.0029064674220123845
738.0, 0.006579931941582209
739.0, 0.00462168789675619
740.0, 0.003822746847798991
741.0, 0.0070146372363478985
742.0, 0.004964350441838414
743.0, 0.002570988080091143
744.0, 0.004242628184268115
745.0, 0.007219685269105623
746.0, 0.004044918208759795
747.0, 0.0007833252088828664
748.0, 0.001325946122382423
749.0, 0.0012875300188123886
750.0, 0.002912997183968336
751.0, 0.0029072094445260197
752.0, 0.0013327945220260866
753.0, 0.0022155500585437273
754.0, 0.0031339010757605364
755.0, 0.001998277095145811
756.0, 0.0014466870188590167
757.0, 0.0037607977830630703
758.0, 0.0027926150831035553
759.0, 0.0010579667863453378
760.0, 0.0019578087190128693
761.0, 0.002587506283686271
762.0, 0.0015856791454733918
763.0, 0.0012011829935837473
764.0, 0.0034942603098735434
765.0, 0.004210405844187684
766.0, 0.0034222219835338273
767.0, 0.0027362470358410123
768.0, 0.00287568716152841
769.0, 0.0027466935073502613
770.0, 0.0019451823847413514
771.0, 0.004077955497012654
772.0, 0.0024800281283389684
773.0, 0.003006232178164596
774.0, 0.004710528190358298
775.0, 0.00510513709447499
776.0, 0.004274553785825188
777.0, 0.005244028383943034
778.0, 0.006459424208529788
779.0, 0.0026695052161657693
780.0, 0.00693372548625993
781.0, 0.009529394428792243
782.0, 0.009692981018954354
783.0, 0.007269924951496437
784.0, 0.0021583954710548492
785.0, 0.0008993632047807382
786.0, 0.007104128889898535
787.0, 0.004554297339719454
788.0, 0.006569119359381661
789.0, 0.008000115591538888
790.0, 0.009335900231933945
791.0, 0.011883841005927678
792.0, 0.013990153098789737
793.0, 0.012960025795970916
794.0, 0.01283029236981089
795.0, 0.018385068642548696
796.0, 0.013154668501272357
797.0, 0.010650274636528768
798.0, 0.01277080216842318
799.0, 0.013494320847601226
800.0, 0.010107140336315969
801.0, 0.010276431447493111
802.0, 0.011898853999770798
803.0, 0.008817691241657166
804.0, 0.010365638889565872
805.0, 0.014042855433905866
806.0, 0.014849955829390325
807.0, 0.01389077393877007
808.0, 0.01528807686936711
809.0, 0.015631289968867708
810.0, 0.01648856605038885
811.0, 0.01729803425197121
812.0, 0.017356453862683207
813.0, 0.01782243525005013
814.0, 0.01719984359836984
815.0, 0.015563149849155885
816.0, 0.015275579519937967
817.0, 0.017398610368364764
818.0, 0.016745301343649845
819.0, 0.019132783741487674
820.0, 0.018490824300667365
821.0, 0.017312966967173153
822.0, 0.01609998365818635
823.0, 0.017553925051788023
824.0, 0.02186231134846388
825.0, 0.02202808289071264
826.0, 0.022301110672792026
827.0, 0.028948805046171245
828.0, 0.026761694888679487
829.0, 0.028757458612099177
830.0, 0.026301525091892507
831.0, 0.024918911956958247
832.0, 0.030978754679384945
833.0, 0.033460453542635916
834.0, 0.036929891413710864
835.0, 0.039750235307163775
836.0, 0.03603248568921992
837.0, 0.03309398603485515
838.0, 0.029093950700488962
839.0, 0.02295492752045049
840.0, 0.01676872853141904
841.0, 0.013612669199258454
842.0, 0.01349091837709334
843.0, 0.01616712128001692
844.0, 0.01258450846119859
845.0, 0.013120478223450846
846.0, 0.009242488998556416
847.0, 0.007594987039309041
848.0, 0.010909699529356899
849.0, 0.013431301490216058
850.0, 0.014767385743073106
851.0, 0.006764749933961428
852.0, 0.008540404884073899
853.0, 0.007306375102404342
854.0, 0.005321499406575437
855.0, 0.004428645980957819
856.0, 0.003800342859802481
857.0, 0.0021230734713014376
858.0, 0.0004342256439842516
859.0, 0.0014397262170090434
860.0, 0.0032139693226039758
861.0, 0.003991232763906076
862.0, 0.002309939089018372
863.0, 0.0016893504163562284
864.0, 0.002673314366786964
865.0, 0.003639920378123452
866.0, 0.0052467791881434245
867.0, 0.0115656281528136
868.0, 0.005949726951122556
869.0, 0.008988132853976696
870.0, 0.01693304698346168
871.0, 0.018519645924765075
872.0, 0.02461429809906062
873.0, 0.03262702528458342
874.0, 0.03802190066685209
875.0, 0.050827639295787874
876.0, 0.05575015886596344
877.0, 0.05507444298369471
878.0, 0.06585950272943675
879.0, 0.071335193457174
880.0, 0.0712813362308124
881.0, 0.07006074456251282
882.0, 0.06747775241998535
883.0, 0.06069132889307439
884.0, 0.052277426677819046
885.0, 0.04019749246784825
886.0, 0.037493659391541576
887.0, 0.029203512011579776
888.0, 0.02006525632677518
889.0, 0.014225320287797613
890.0, 0.009748407876385147
891.0, 0.005646701586427665
892.0, 0.004193692965848715
893.0, 0.0012451374144794736
894.0, 0.0021802553676749854
895.0, 0.0004931402967121466
896.0, 0.0024875212426383676
897.0, 0.005360805476713133
898.0, 0.004151833716668703
899.0, 0.003935442387616148
900.0, 0.00729563326320351
901.0, 0.005053759721091
902.0, 0.0033549162242958873
903.0, 0.004000871457489669
904.0, 0.012239305844956831
905.0, 0.019990492587519528
906.0, 0.03426212055928137
907.0, 0.044640661935017034
908.0, 0.053418943032168605
909.0, 0.07062844331832592
910.0, 0.08808946499582872
911.0, 0.09852477792102847
912.0, 0.10121315699258136
913.0, 0.09830052030250766
914.0, 0.08926758473404856
915.0, 0.08048552945269712
916.0, 0.07672983217260385
917.0, 0.0769690966646214
918.0, 0.08230099264020652
919.0, 0.10118950567297708
920.0, 0.1205344515863405
921.0, 0.14318366750280015
922.0, 0.16039319520962567
923.0, 0.17071282683799213
924.0, 0.18426114471450172
925.0, 0.19401812256855822
926.0, 0.19892546464411068
927.0, 0.20429226159312394
928.0, 0.20170380974748273
929.0, 0.1926609561597118
930.0, 0.16997724005602322
931.0, 0.1519488402051006
932.0, 0.13764925719673754
933.0, 0.1254990719190811
934.0, 0.11393176011961571
935.0, 0.1065134087974735
936.0, 0.10587787332623425
937.0, 0.10436865281546123
938.0, 0.09498823053024838
939.0, 0.0907381841750802
940.0, 0.08357268725610284
941.0, 0.08338004932390186
942.0, 0.09047990482433117
943.0, 0.10270808212639702
944.0, 0.11673550448165998
945.0, 0.13370574111939748
946.0, 0.1589843703447161
947.0, 0.18215494332894833
948.0, 0.1772387990341007
949.0, 0.16505524768826593
950.0, 0.1352770064243496
951.0, 0.1005504527516494
952.0, 0.06863265658354067
953.0, 0.04649593080166356
954.0, 0.03414705818513489
955.0, 0.024525401294563827
956.0, 0.022622208346020273
957.0, 0.017802536979162776
958.0, 0.022368870187720147
959.0, 0.015969984262466617
960.0, 0.01571975238295649
961.0, 0.01694784197594204
962.0, 0.019923785768590576
963.0, 0.023673425712871954
964.0, 0.02194494298828408
965.0, 0.01830635322859989
966.0, 0.019900398280313192
967.0, 0.021618079868569576
968.0, 0.017733453719798193
969.0, 0.017271055786517615
970.0, 0.016650968053919652
971.0, 0.01590805184231961
972.0, 0.014416154907451892
973.0, 0.012521622568529414
974.0, 0.013807363011651934
975.0, 0.011280457718532401
976.0, 0.013277159886759626
977.0, 0.010420392801268935
978.0, 0.007810420179228025
979.0, 0.006941091625377434
980.0, 0.007311125554557886
981.0, 0.005709308513499173
982.0, 0.003468098861001997
983.0, 0.0038324869054821697
984.0, 0.0009102963861669922
985.0, 0.003983081683178576
986.0, 0.0023619769845592163
987.0, 0.0021466157772913473
988.0, 0.001704361525229135
989.0, 0.005373697344428293
990.0, 0.00622858204312559
991.0, 0.004346808332765707
992.0, 0.004119926500894776
993.0, 0.0029986006959170698
994.0, 0.003629885935216671
995.0, 0.004054212213384446
996.0, 0.00239607007469801
997.0, 0.0010400829361060268
998.0, 0.004134969827754006
999.0, 0.0035995018493716457
1000.0, 0.006266546797208807
1001.0, 0.007673747132220994
1002.0, 0.00017793011007041364
1003.0, 0.0023890167967886627
1004.0, 0.013410677365737768
1005.0, 0.00643006779813148
1006.0, 0.015853743603064966
1007.0, 0.010430739189109684
1008.0, 0.011145628426695057
1009.0, 0.013386552156875892
1010.0, 0.015639926946781103
1011.0, 0.01758186584524838
1012.0, 0.016492284578938414
1013.0, 0.01764548661625303
1014.0, 0.02404477236112107
1015.0, 0.02255696175341371
1016.0, 0.02549593214778649
1017.0, 0.028182155937920332
1018.0, 0.03336635442649398
1019.0, 0.03540289991031526
1020.0, 0.040134521963157116
1021.0, 0.047050545081428925
1022.0, 0.050309438873250095
1023.0, 0.06277870883084466
1024.0, 0.07122913819268718
1025.0, 0.07474851992191744
1026.0, 0.08054686865982041
1027.0, 0.09241588778134494
1028.0, 0.09654375773067565
1029.0, 0.0970098599481784
1030.0, 0.09730572982823496
1031.0, 0.09426675835105808
1032.0, 0.08639599503829162
1033.0, 0.0779753353087197
1034.0, 0.06344579419027803
1035.0, 0.06199147221738283
1036.0, 0.0545247876346731
1037.0, 0.05245122460839551
1038.0, 0.051924864911277575
1039.0, 0.04777575880849347
1040.0, 0.04551953769248549
1041.0, 0.045117091808749565
1042.0, 0.0405789382289041
1043.0, 0.03736642060231717
1044.0, 0.044553405731605454
1045.0, 0.04202327970858059
1046.0, 0.043915208304980316
1047.0, 0.03827666855959259
1048.0, 0.041003507344865506
1049.0, 0.04348626572599633
1050.0, 0.042795555372836004
1051.0, 0.041057910851472354
1052.0, 0.03971219228861544
1053.0, 0.03896229609439353
1054.0, 0.037826313635397596
1055.0, 0.03965131754702844
1056.0, 0.039209368559929035
1057.0, 0.037224545782594536
1058.0, 0.03298647583245325
1059.0, 0.032188065798901926
1060.0, 0.03256054630814286
1061.0, 0.033825492060159466
1062.0, 0.03396044351602046
1063.0, 0.03172485017276685
1064.0, 0.033597032378665216
1065.0, 0.025897913345369273
1066.0, 0.03099841298436047
1067.0, 0.03148188370661421
1068.0, 0.03170342558593733
1069.0, 0.03538333264042936
1070.0, 0.04049120346497809
1071.0, 0.04118580604501133
1072.0, 0.043961586144115244
1073.0, 0.05092306876753046
1074.0, 0.05059183374102128
1075.0, 0.051779974438396985
1076.0, 0.048409608034504586
1077.0, 0.04779873491789488
1078.0, 0.047143607766134785
1079.0, 0.03845273949052653
1080.0, 0.03434587150480317
1081.0, 0.029698401472578004
1082.0, 0.022522779559668173
1083.0, 0.02229872708582325
1084.0, 0.027507401750697963
1085.0, 0.02066598296485769
1086.0, 0.018701361442292543
1087.0, 0.02620390565914275
1088.0, 0.02257924716551115
1089.0, 0.017644051526603283
1090.0, 0.013735590737885937
1091.0, 0.01122920812040474
1092.0, 0.010204880880503175
1093.0, 0.006456985152136762
1094.0, 0.003078654701507998
1095.0, 0.0046747800222727495
1096.0, 0.004421261909482112
1097.0, 0.007774923163234695
1098.0, 0.007473330272646973
1099.0, 0.006104423832072125
1100.0, 0.008372235290121193
1101.0, 0.0035011930965322176
1102.0, 0.007982542484571697
1103.0, 0.009165146141229322
1104.0, 0.007450213514612544
1105.0, 0.014831113541514881
1106.0, 0.023388804286994264
1107.0, 0.01488810924626387
1108.0, 0.016858989781735983
1109.0, 0.017846782794897185
1110.0, 0.031580951483712955
1111.0, 0.033047267753750394
1112.0, 0.03167824986029535
1113.0, 0.04093697090085378
1114.0, 0.050098640335104326
1115.0, 0.05519023520974319
1116.0, 0.06465302899596767
1117.0, 0.07771048582166494
1118.0, 0.08536900541186626
1119.0, 0.10417334747141384
1120.0, 0.12129690714411652
1121.0, 0.13427029642704766
1122.0, 0.15196559285303624
1123.0, 0.15989667221730483
1124.0, 0.1681845452722244
1125.0, 0.16787350336623558
1126.0, 0.16297384358296618
1127.0, 0.1590563733353116
1128.0, 0.15107710634749694
1129.0, 0.1363686301440579
1130.0, 0.1259206749971772
1131.0, 0.11408526123264383
1132.0, 0.10207743601539798
1133.0, 0.09424407647935015
1134.0, 0.0869979067810968
1135.0, 0.08178666216346506
1136.0, 0.07705870190743203
1137.0, 0.07614434035901523
1138.0, 0.07685592272928121
1139.0, 0.07659883482241664
1140.0, 0.07466931132738844
1141.0, 0.07164277854218992
1142.0, 0.07563869023024895
1143.0, 0.07035358907972325
1144.0, 0.0769616742613704
1145.0, 0.07086685373985402
1146.0, 0.0727509140597859
1147.0, 0.0702070386204823
1148.0, 0.0741890195522985
1149.0, 0.07457221802341565
1150.0, 0.07194774390487951
1151.0, 0.07117503826488397
1152.0, 0.06890340843459898
1153.0, 0.06743872919210737
1154.0, 0.06492214585149288
1155.0, 0.06438704726716009
1156.0, 0.06279773760574416
1157.0, 0.06139956750148604
1158.0, 0.05949063432161783
1159.0, 0.05925905640590126
1160.0, 0.05681554372011861
1161.0, 0.05529285632638967
1162.0, 0.05360690984897393
1163.0, 0.05192732342851277
1164.0, 0.052531220635605426
1165.0, 0.050930417012996325
1166.0, 0.05174687465402355
1167.0, 0.051521610036417746
1168.0, 0.05325400843316505
1169.0, 0.04722099835422729
1170.0, 0.04388630551209503
1171.0, 0.03894309938569439
1172.0, 0.03355661415461294
1173.0, 0.03359745085184023
1174.0, 0.03742598438844151
1175.0, 0.037254203895269775
1176.0, 0.03197182566580183
1177.0, 0.028488883050971955
1178.0, 0.025684329342249478
1179.0, 0.02305440581770241
1180.0, 0.02245393402346803
1181.0, 0.025671376029423414
1182.0, 0.022991627789142557
1183.0, 0.017951923063483897
1184.0, 0.013788763426494167
1185.0, 0.006186369447701879
1186.0, 0.005362931268477351
1187.0, 0.011315286904242907
1188.0, 0.01169300403268288
1189.0, 0.0069754237757757775
1190.0, 0.006315904567557222
1191.0, 0.006656347221137717
1192.0, 0.005547913449858229
1193.0, 0.001766069800050571
1194.0, 0.0043685385799323555
1195.0, 0.0044864319063672616
1196.0, 0.006495005223567798
1197.0, 0.0038526293669342206
1198.0, 0.001630548900238911
1199.0, 0.0009593749602105545
1200.0, 0.00276086529367654
1201.0, 0.00510026315275463
1202.0, 0.0019978274605013217
1203.0, 0.006454128201262803
1204.0, 0.0017043891485640996
1205.0, 4.234907525865804e-05
1206.0, 0.0026712700812605507
1207.0, 0.001912636441986598
1208.0, 0.0008148795543501457
1209.0, 0.001592801400836457
1210.0, 0.0014051035050024919
1211.0, 0.0012087662932673015
1212.0, 0.001714039474610833
1213.0, 0.0023070409105728795
1214.0, 0.002966884288991986
1215.0, 0.003734650620897997
1216.0, 0.004680291087991337
1217.0, 0.006026373248104285
1218.0, 0.007704251689157711
1219.0, 0.010068316118033403
1220.0, 0.010374649270054558
1221.0, 0.010935504359219342
1222.0, 0.01054575961268355
1223.0, 0.009515309550795915
1224.0, 0.008116710421215059
1225.0, 0.008904804823690075
1226.0, 0.010087892536276816
1227.0, 0.009580337231744295
1228.0, 0.010713213604933585
1229.0, 0.01078925041787164
1230.0, 0.008525146890959505
1231.0, 0.013474632168390895
1232.0, 0.013717132899848829
1233.0, 0.01049535322062225
1234.0, 0.014303026183938113
1235.0, 0.01467181748295858
1236.0, 0.01504544046279232
1237.0, 0.01630396120033902
1238.0, 0.016245475333752868
1239.0, 0.01580062166871135
1240.0, 0.014562470383008008
1241.0, 0.012261740960589825
1242.0, 0.014798614957941533
1243.0, 0.018158368391966655
1244.0, 0.014699108949191214
1245.0, 0.022978876183438777
1246.0, 0.018356596023832487
1247.0, 0.02180497261359644
1248.0, 0.019059664390020173
1249.0, 0.02047638766055312
1250.0, 0.021310988165335144
1251.0, 0.02242851801026065
1252.0, 0.02709427652859356
1253.0, 0.03042135080134944
1254.0, 0.031330387747927346
1255.0, 0.03433291850576446
1256.0, 0.03482662384280898
1257.0, 0.03811644882051771
1258.0, 0.03970517811540634
1259.0, 0.03787671942761753
1260.0, 0.03706874851427949
1261.0, 0.03930597300582102
1262.0, 0.04123714202607997
1263.0, 0.0390650300582317
1264.0, 0.03978530918176003
1265.0, 0.04080474952252775
1266.0, 0.039370139417663826
1267.0, 0.037830187644556985
1268.0, 0.03653080767331624
1269.0, 0.03635030611858571
1270.0, 0.0417573334098693
1271.0, 0.044897228061273095
1272.0, 0.04509039592241618
1273.0, 0.045054824012462386
1274.0, 0.040422631409947174
1275.0, 0.04609082030737504
1276.0, 0.04665823620590214
1277.0, 0.04984134269437515
1278.0, 0.047872053842034856
1279.0, 0.04865329402444315
1280.0, 0.04847778718980447
1281.0, 0.04990640424166516
1282.0, 0.05203055686373027
1283.0, 0.05007491759558078
1284.0, 0.05022315299977014
1285.0, 0.053078912471071035
1286.0, 0.05393183065858487
1287.0, 0.057452571966857595
1288.0, 0.05488829996249599
1289.0, 0.06281695947891518
1290.0, 0.07171849135613977
1291.0, 0.06610108611336668
1292.0, 0.0672127063159223
1293.0, 0.07128381302577795
1294.0, 0.07167865138877227
1295.0, 0.07475516771375636
1296.0, 0.07605346006689767
1297.0, 0.07445479561005051
1298.0, 0.0740436669905835
1299.0, 0.07357314249028542
1300.0, 0.07802390053359347
1301.0, 0.07402989610846246
1302.0, 0.07382836894098885
1303.0, 0.06355977280886127
1304.0, 0.07272831126991508
1305.0, 0.06568380782663868
1306.0, 0.06566327692968281
1307.0, 0.06773396933109598
1308.0, 0.06874683560055696
1309.0, 0.0710857163688611
1310.0, 0.06886777081978061
1311.0, 0.06580392446032252
1312.0, 0.06763252619786715
1313.0, 0.06829677965224216
1314.0, 0.06752796947277216
1315.0, 0.0725126803801941
1316.0, 0.0680127875436181
1317.0, 0.06798229085478241
1318.0, 0.07003297290498153
1319.0, 0.06554353020521352
1320.0, 0.06180048522185081
1321.0, 0.0671165093559073
1322.0, 0.0692615375146199
1323.0, 0.05635521411617629
1324.0, 0.054310500098891754
1325.0, 0.055956793020121576
1326.0, 0.056288820060056276
1327.0, 0.05584596563636718
1328.0, 0.049241862140000814
1329.0, 0.04312670852933044
1330.0, 0.045035505341030416
1331.0, 0.041552154759683026
1332.0, 0.038918358439914785
1333.0, 0.03950318614540138
1334.0, 0.036560366084048175
1335.0, 0.0367534347028754
1336.0, 0.034536672643280204
1337.0, 0.03332696954122306
1338.0, 0.03395852717505116
1339.0, 0.027267486787458564
1340.0, 0.024708310271280783
1341.0, 0.024414647319536215
1342.0, 0.02596375385777292
1343.0, 0.026452638218405666
1344.0, 0.026618994116894338
1345.0, 0.023612245437986495
1346.0, 0.02164518259722817
1347.0, 0.02688801685064214
1348.0, 0.023692794829468327
1349.0, 0.025570499228043133
1350.0, 0.030518252634633095
1351.0, 0.02465379030020505
1352.0, 0.0322634130220824
1353.0, 0.0375360539571553
1354.0, 0.043899500536712543
1355.0, 0.044903453064391835
1356.0, 0.04681734195851681
1357.0, 0.05706153392441392
1358.0, 0.07314878893953479
1359.0, 0.08216953629126895
1360.0, 0.08640195434425921
1361.0, 0.0890765411587091
1362.0, 0.08642170104204283
1363.0, 0.07993447795225576
1364.0, 0.07252180707278966
1365.0, 0.06205014398987258
1366.0, 0.05441502284029637
1367.0, 0.045644268309139646
1368.0, 0.03343343927024988
1369.0, 0.03149546344269077
1370.0, 0.02680967979862017
1371.0, 0.022120329137625912
1372.0, 0.021558892561471584
1373.0, 0.02564431772657494
1374.0, 0.02984916958635524
1375.0, 0.031344597653474124
1376.0, 0.028118339227727218
1377.0, 0.0304738135138998
1378.0, 0.032915663626541664
1379.0, 0.03548597191138187
1380.0, 0.039554170127413704
1381.0, 0.04125874147369577
1382.0, 0.042930962487997604
1383.0, 0.0436221550963602
1384.0, 0.04665748582943412
1385.0, 0.05552284986103661
1386.0, 0.06359128406643064
1387.0, 0.0554028153642738
1388.0, 0.06090265446508544
1389.0, 0.06011064041483873
1390.0, 0.05635549302530953
1391.0, 0.05794146608132357
1392.0, 0.05503399079819962
1393.0, 0.056291839866326174
1394.0, 0.05823851151846226
1395.0, 0.0582067404000477
1396.0, 0.056941166586106026
1397.0, 0.05436032165128379
1398.0, 0.04431816567552889
1399.0, 0.03510344145431927
1400.0, 0.0312951703426007
1401.0, 0.01939768892929106
1402.0, 0.010581299792104896
1403.0, 0.009306632233027995
1404.0, 0.006651270709769702
1405.0, 0.0006479860274044417
1406.0, 0.001662258583190079
1407.0, 0.005105824559593533
1408.0, 0.003504017845275366
1409.0, 0.00562625268557687
1410.0, 0.006817701507528229
1411.0, 0.0017700052049128565
1412.0, 0.004421839031727857
1413.0, 0.005432307631441971
1414.0, 0.008519940177546644
1415.0, 0.0044992225395301625
1416.0, 0.002743082424387938
1417.0, 0.007298241233520187
1418.0, 0.006294929725710922
1419.0, 0.003055125428027048
1420.0, 0.0037692603490290352
1421.0, 0.0018011492245867664
1422.0, 0.003955291822244268
1423.0, 0.005301304585088504
1424.0, 0.006806242250226486
1425.0, 0.004389477330264474
1426.0, 0.005399462812104245
1427.0, 0.014742915977461666
1428.0, 0.012031811607596279
1429.0, 0.02160976372893641
1430.0, 0.018806677517125725
1431.0, 0.005845335422961895
1432.0, 0.008290270841655643
1433.0, 0.005918989650466722
1434.0, 0.002514420917048899
1435.0, 0.003948944385167079
1436.0, 0.003432556212170265
1437.0, 0.007691143870476026
1438.0, 0.010165821895111971
1439.0, 0.010192678354739372
1440.0, 0.016585822596464045
1441.0, 0.023677927982804898
1442.0, 0.029275681339016545
1443.0, 0.032888353584393126
1444.0, 0.03523299312727442
1445.0, 0.0388148901091196
1446.0, 0.04115086350152077
1447.0, 0.049754502985544354
1448.0, 0.051958855280397696
1449.0, 0.04935419186491584
1450.0, 0.04773500175890596
1451.0, 0.053795842846307756
1452.0, 0.052854800624077186
1453.0, 0.05191660552215851
1454.0, 0.04972077978895543
1455.0, 0.04893978317491568
1456.0, 0.050869240233674666
1457.0, 0.05669550442552431
1458.0, 0.059766497393793215
1459.0, 0.06262936880486744
1460.0, 0.0671631941894111
1461.0, 0.06838630580302003
1462.0, 0.0686368038279787
1463.0, 0.07218014929649286
1464.0, 0.07389678912289917
1465.0, 0.07050476705235098
1466.0, 0.06775509297084951
1467.0, 0.072919348222301
1468.0, 0.06702686221652783
1469.0, 0.06274640896155335
1470.0, 0.06247357269195598
1471.0, 0.05911665552719571
1472.0, 0.0622558173176014
1473.0, 0.058417156381117503
1474.0, 0.06409891041177161
1475.0, 0.059442287538655124
1476.0, 0.059065246627250906
1477.0, 0.06264433200468149
1478.0, 0.05850318287146856
1479.0, 0.06064034149499891
1480.0, 0.06149211020299297
1481.0, 0.05854865570893467
1482.0, 0.05398871093950959
1483.0, 0.055550338749168066
1484.0, 0.059150472763591116
1485.0, 0.06097788582157964
1486.0, 0.06035586488698559
1487.0, 0.0559493688221681
1488.0, 0.053642064398877504
1489.0, 0.051544969358971106
1490.0, 0.05089566047600559
1491.0, 0.05401697312122497
1492.0, 0.0475811638585575
1493.0, 0.05140186483963581
1494.0, 0.054237311820258254
1495.0, 0.05048495602367823
1496.0, 0.046654432166182036
1497.0, 0.05125232524632522
1498.0, 0.04965504681309485
1499.0, 0.049012336501145115
1500.0, 0.04890599392847368
1501.0, 0.04136734232563253
1502.0, 0.04228974794416202
1503.0, 0.046536631061475
1504.0, 0.05093882765302053
1505.0, 0.048916917972988055
1506.0, 0.04605062286918923
1507.0, 0.04730370421979365
1508.0, 0.04811871562619593
1509.0, 0.04843842387885676
1510.0, 0.05071005484544092
1511.0, 0.05322006917627812
1512.0, 0.05519701993133804
1513.0, 0.05571341255617577
1514.0, 0.05382195841305378
1515.0, 0.05125284049692784
1516.0, 0.048102262898419575
1517.0, 0.04917591934216396
1518.0, 0.04793982154500613
1519.0, 0.0367361457410762
1520.0, 0.042525887710503876
1521.0, 0.03893079096157764
1522.0, 0.03537760688142831
1523.0, 0.03442239639468264
1524.0, 0.025933772136545005
1525.0, 0.02496070130087566
1526.0, 0.021686448388654953
1527.0, 0.02080708689765796
1528.0, 0.02004572383328434
1529.0, 0.02192837919592762
1530.0, 0.020366674619943362
1531.0, 0.01955608255655165
1532.0, 0.018086395864382546
1533.0, 0.015480250742816407
1534.0, 0.009625118548077061
1535.0, 0.007812642057208632
1536.0, 0.004866864690723246
1537.0, 0.007120596509591947
1538.0, 0.006947501431642323
1539.0, 0.0032137064216594033
1540.0, 0.005577733586455465
1541.0, 0.009124280626750053
1542.0, 0.009328166460936479
1543.0, 0.008898889995802219
1544.0, 0.005298610111334175
1545.0, 0.0007220822210603677
1546.0, 0.0030789872295861375
1547.0, 0.01040757379934247
1548.0, 0.018635843428919916
1549.0, 0.015769075388594952
1550.0, 0.010681883922695149
1551.0, 0.01096710804840109
1552.0, 0.010609203822864241
1553.0, 0.003953871471341434
1554.0, 0.006288805028956308
1555.0, 0.013163941076199417
1556.0, 0.00385783078568829
1557.0, 0.004042723428772071
1558.0, 0.00628760267254135
1559.0, 0.0009128949693645869
1560.0, 0.0026688119615602673
1561.0, 0.005209169363465137
1562.0, 0.0031549420382546703
1563.0, 0.003434946744251813
1564.0, 0.0009379692283270567
1565.0, 1.1308534760664347e-05
1566, 0.0
1567, 0.0
1568, 0.0
1569, 0.0
1570, 0.0
1571, 0.0
1572, 0.0
1573, 0.0
1574, 0.0
1575, 0.0
1576, 0.0
1577, 0.0
1578, 0.0
1579, 0.0
1580, 0.0
1581, 0.0
1582, 0.0
1583, 0.0
1584, 0.0
1585, 0.0
1586, 0.0
1587, 0.0
1588, 0.0
1589, 0.0
1590, 0.0
1591, 0.0
1592, 0.0
1593, 0.0
1594, 0.0
1595, 0.0
1596, 0.0
1597, 0.0
1598, 0.0
1599, 0.0
