30, 0.0
31, 0.0
32, 0.0
33, 0.0
34, 0.0
35, 0.0
36, 0.0
37, 0.0
38, 0.0
39, 0.0
40, 0.0
41, 0.0
42, 0.0
43, 0.0
44, 0.0
45, 0.0
46, 0.0
47, 0.0
48, 0.0
49, 0.0
50, 0.0
51, 0.0
52, 0.0
53, 0.0
54, 0.0
55, 0.0
56, 0.0
57, 0.0
58, 0.0
59, 0.0
60, 0.0
61, 0.0
62, 0.0
63, 0.0
64, 0.0
65, 0.0
66, 0.0
67, 0.0
68, 0.0
69, 0.0
70, 0.0
71, 0.0
72, 0.0
73, 0.0
74, 0.0
75, 0.0
76, 0.0
77, 0.0
78, 0.0
79, 0.0
80, 0.0
81, 0.0
82, 0.0
83, 0.0
84, 0.0
85, 0.0
86, 0.0
87, 0.0
88, 0.0
89, 0.0
90, 0.0
91, 0.0
92, 0.0
93, 0.0
94, 0.0
95.0, 6.344500300352999e-05
96.0, 0.0003369148435359877
97.0, 0.0003177587914465495
98.0, 0.0008886309126975514
99.0, 0.002196863669013319
100.0, 0.0023384013975025248
101.0, 0.004649582808216326
102.0, 0.007405716520482357
103.0, 0.008324358352908096
104.0, 0.012750272168020261
105.0, 0.016142897290253255
106.0, 0.01776464726189315
107.0, 0.01800482902275541
108.0, 0.02187626115875112
109.0, 0.02638709325876852
110.0, 0.02884762281524515
111.0, 0.032945830545969834
112.0, 0.038856063606019065
113.0, 0.046068360191100666
114.0, 0.052054578811078
115.0, 0.057938915991926895
116.0, 0.06325712190532004
117.0, 0.06761395446513721
118.0, 0.06996964187609843
119.0, 0.0708284577630649
120.0, 0.07071848485005541
121.0, 0.07096165803452215
122.0, 0.07016514067030101
123.0, 0.06736746295860516
124.0, 0.062122330804001
125.0, 0.06059205412094158
126.0, 0.05976526763638462
127.0, 0.05900439857364329
128.0, 0.05716142551434685
129.0, 0.060501504222159566
130.0, 0.06097870084117744
131.0, 0.057619972054448805
132.0, 0.05970001833191579
133.0, 0.057527812552855745
134.0, 0.05593383015206735
135.0, 0.060017140266595055
136.0, 0.05825265101379975
137.0, 0.05758135791505668
138.0, 0.05792513467546633
139.0, 0.05572939415621101
140.0, 0.05435391648330968
141.0, 0.05246447426508366
142.0, 0.049251568622747106
143.0, 0.047618780829914775
144.0, 0.04585069822388097
145.0, 0.04378108335384969
146.0, 0.040995560306397894
147.0, 0.03995062987614016
148.0, 0.03831049204120546
149.0, 0.035546339196627405
150.0, 0.03406491400913703
151.0, 0.03332217649382959
152.0, 0.03363119259028946
153.0, 0.03564473158824397
154.0, 0.035259627566745014
155.0, 0.034986050770648806
156.0, 0.03550990272220677
157.0, 0.0389273336778552
158.0, 0.037449833496038816
159.0, 0.03510945711698558
160.0, 0.034033789094034976
161.0, 0.03610773186768822
162.0, 0.037359765767133124
163.0, 0.03761292422509645
164.0, 0.03634047723825202
165.0, 0.03598978516601333
166.0, 0.03444922912779711
167.0, 0.0317141864290172
168.0, 0.034435226171442644
169.0, 0.033121443109513204
170.0, 0.03172802332407147
171.0, 0.03413675203791289
172.0, 0.03268526870971152
173.0, 0.030978952285497005
174.0, 0.029298414286654896
175.0, 0.027599498075215587
176.0, 0.025912103582579022
177.0, 0.024975903272239714
178.0, 0.025114329504494905
179.0, 0.024509182981769993
180.0, 0.024909888755330872
181.0, 0.024622428072466167
182.0, 0.02091507634871166
183.0, 0.02104336544601187
184.0, 0.020404322869157266
185.0, 0.01886253830960045
186.0, 0.01952322158315775
187.0, 0.018442346792851543
188.0, 0.017590315939240774
189.0, 0.01812166893092722
190.0, 0.016289961551218195
191.0, 0.014949868923552935
192.0, 0.01459978543772373
193.0, 0.016422989444036834
194.0, 0.014417722410684007
195.0, 0.013556147061757378
196.0, 0.01441335359776676
197.0, 0.013401701078784405
198.0, 0.013242753359668602
199.0, 0.012735494405638646
200.0, 0.010969667511220355
201.0, 0.009645977040781078
202.0, 0.007965146568176425
203.0, 0.006515878214268872
204.0, 0.0068015221389058364
205.0, 0.007296602713990112
206.0, 0.005799125742342414
207.0, 0.0022997140054701434
208.0, 0.0020608907387304103
209.0, 0.0030572664611667228
210.0, 0.0033145974566334228
211.0, 0.0011815700130998678
212.0, 0.0009511335259150405
213.0, 0.0017282183140453387
214.0, 0.0026570874837650495
215.0, 0.001769674465525526
216.0, 0.0016205454129642437
217.0, 0.0014304390220867594
218.0, 0.0010512141894618388
219.0, 0.0008373670447948153
220.0, 0.0009308572416929101
221.0, 0.0011682949465373535
222.0, 0.0014507825692300844
223.0, 0.0024024731496151037
224.0, 0.0024978350439253238
225.0, 0.0026276111305994342
226.0, 0.004860764124733655
227.0, 0.0041759727839061215
228.0, 0.0032605759795421773
229.0, 0.0029155307146350984
230.0, 0.004876210824242994
231.0, 0.005578044833406908
232.0, 0.005699117699501887
233.0, 0.00559233293234782
234.0, 0.006924651707866641
235.0, 0.007344612107682837
236.0, 0.007056856793465094
237.0, 0.006322801480051088
238.0, 0.0071173741596756495
239.0, 0.0071872618716476355
240.0, 0.0064000599646939485
241.0, 0.00584356369751912
242.0, 0.00531651980473386
243.0, 0.0052392179015620325
244.0, 0.005736343884630018
245.0, 0.0033339202091405198
246.0, 0.002540434901941781
247.0, 0.0026309204100412077
248.0, 0.0028557109282960425
249.0, 0.0010809925700586886
250.0, 0.0006285882148357136
251.0, 0.001116847288564914
252.0, 0.0004001053925908569
253.0, 0.00039623542223504363
254.0, 0.00043206033270652423
255.0, 0.0003667428866334413
256.0, 0.0008836379836387475
257.0, 0.0008582929830263039
258.0, 0.0009593863753134772
259.0, 0.001724840074871137
260.0, 0.0013633471858593082
261.0, 0.0013132850981327612
262.0, 0.0012561485215813965
263.0, 0.0004948352974532056
264.0, 0.00038648172673846974
265.0, 0.0004883263738093918
266.0, 0.0008105621025729439
267.0, 0.0017802571962410743
268.0, 0.002004803476605598
269.0, 0.0022467846395100477
270.0, 0.0027549785385588355
271.0, 0.001776967867029661
272.0, 0.0014382240797222946
273.0, 0.0014209944541757925
274.0, 0.0014461221168904357
275.0, 0.0018019242988006794
276.0, 0.0024567531762029688
277.0, 0.0028228159666626377
278.0, 0.0014455334225688488
279.0, 0.003760850692376161
280.0, 0.004816172398564793
281.0, 0.004414451068553834
282.0, 0.007560304844777825
283.0, 0.00714628032130773
284.0, 0.007192267222511559
285.0, 0.009668442960368123
286.0, 0.0140653472300567
287.0, 0.015449970896843468
288.0, 0.01673603262442383
289.0, 0.021060447727470056
290.0, 0.02643762299766318
291.0, 0.028991665937355207
292.0, 0.029867240625420743
293.0, 0.03205525160664715
294.0, 0.029913135368462348
295.0, 0.02749523035871758
296.0, 0.025148212872165
297.0, 0.020522907836684767
298.0, 0.016876235909761624
299.0, 0.014934366859493174
300.0, 0.014805410370957658
301.0, 0.011138484779790948
302.0, 0.008784838067142593
303.0, 0.008320580961950234
304.0, 0.010481778418366993
305.0, 0.009330634874308835
306.0, 0.00844435640933718
307.0, 0.00895079529019772
308.0, 0.012922046071638143
309.0, 0.011502585278883619
310.0, 0.01171365529827039
311.0, 0.013708820419775575
312.0, 0.01463103700379017
313.0, 0.017479379829280946
314.0, 0.020566258901250068
315.0, 0.02353638597893467
316.0, 0.02766745564684938
317.0, 0.03116222593170245
318.0, 0.0366060931233251
319.0, 0.04551031997548933
320.0, 0.050488713157121716
321.0, 0.05211318421644839
322.0, 0.05319637058428908
323.0, 0.0568887600101828
324.0, 0.053543214956813974
325.0, 0.051458248527340544
326.0, 0.04837360473891917
327.0, 0.03835798780209869
328.0, 0.030376591587239026
329.0, 0.02432917265929444
330.0, 0.019681407354869535
331.0, 0.01445644179766304
332.0, 0.009621225078470018
333.0, 0.007165581634092918
334.0, 0.006960356273487993
335.0, 0.002140105520158932
336.0, 0.0007808463771595833
337.0, 0.000954815987082923
338.0, 0.0016671678308889657
339.0, 0.0026216355750717547
340.0, 0.0021044405270107345
341.0, 0.0014559850289151577
342.0, 0.0019973535652856598
343.0, 0.0019445284173874506
344.0, 0.0020909429568223927
345.0, 0.002413257309037556
346.0, 0.002846768234649814
347.0, 0.0034331798497685214
348.0, 0.002654762712742756
349.0, 0.0014730546179298138
350.0, 0.0031060985966415043
351.0, 0.0034238491607167876
352.0, 0.003771381562980268
353.0, 0.004241769147707719
354.0, 0.0038063050624966292
355.0, 0.0043373519744272305
356.0, 0.004340009841472891
357.0, 0.003517602772510524
358.0, 0.0047046726213109645
359.0, 0.004706108842538735
360.0, 0.0054255640219797886
361.0, 0.007879198606500104
362.0, 0.006390572000835712
363.0, 0.006171077325263356
364.0, 0.006264256566228823
365.0, 0.005768793835163813
366.0, 0.007602717240799884
367.0, 0.008735059419301219
368.0, 0.00922731818122363
369.0, 0.009219628500714977
370.0, 0.010149225167118693
371.0, 0.009875449259440311
372.0, 0.009616649679319746
373.0, 0.01259723694166276
374.0, 0.016819704214628434
375.0, 0.018613190657687368
376.0, 0.018707685754068035
377.0, 0.02163355799034272
378.0, 0.0234360687769964
379.0, 0.02455377313782483
380.0, 0.025902044386531896
381.0, 0.03190991324440784
382.0, 0.035422847813311745
383.0, 0.03917992917775335
384.0, 0.0443485240634364
385.0, 0.05170741819577252
386.0, 0.06321201850936263
387.0, 0.07450695133578349
388.0, 0.08371566243921097
389.0, 0.1017061765041225
390.0, 0.12060601611606303
391.0, 0.14422043505887056
392.0, 0.17572629278862764
393.0, 0.2067092631053968
394.0, 0.2428820945329475
395.0, 0.2837614264840518
396.0, 0.3290874565199101
397.0, 0.3577214053592961
398.0, 0.38282141037425416
399.0, 0.3975627550689575
400.0, 0.3900960883671257
401.0, 0.36274456947749856
402.0, 0.331353607832686
403.0, 0.29483034272263636
404.0, 0.2480190805498767
405.0, 0.20836925387820524
406.0, 0.17470081037791957
407.0, 0.14702571948891796
408.0, 0.12621886825186787
409.0, 0.1116637709471722
410.0, 0.09909453240760925
411.0, 0.08748026781464946
412.0, 0.07596840802743922
413.0, 0.07688749130818023
414.0, 0.07683079059985563
415.0, 0.07360584422035496
416.0, 0.07252592278112077
417.0, 0.07287441227021477
418.0, 0.07283757413790026
419.0, 0.07234583603194489
420.0, 0.07462371362596974
421.0, 0.06948639383377611
422.0, 0.06734505509809598
423.0, 0.07086676322963968
424.0, 0.06624605000577659
425.0, 0.06233045696244895
426.0, 0.061494406530975314
427.0, 0.06323701736967646
428.0, 0.04648498445434945
429.0, 0.03668097246389567
430.0, 0.03178559241819002
431.0, 0.030605289823702243
432.0, 0.03001602616895112
433.0, 0.026949375772161593
434.0, 0.02573540333799822
435.0, 0.02909980219910321
436.0, 0.02402613565819867
437.0, 0.023706080156839324
438.0, 0.024853400476168245
439.0, 0.024763460459480826
440.0, 0.022750660375554916
441.0, 0.022091126472623977
442.0, 0.021832578010406282
443.0, 0.02107069064480111
444.0, 0.019199047502225713
445.0, 0.018108136391814144
446.0, 0.01808887311573001
447.0, 0.01948086782515361
448.0, 0.015857950574073108
449.0, 0.01388618049103777
450.0, 0.013068058117052677
451.0, 0.012688497501018038
452.0, 0.014562298288410994
453.0, 0.011575569180162965
454.0, 0.008126384654187612
455.0, 0.010375753413922911
456.0, 0.0102894742167231
457.0, 0.008828134331878493
458.0, 0.007512916391613733
459.0, 0.008477795383566609
460.0, 0.007622717734950199
461.0, 0.007886279033236595
462.0, 0.007452097252824341
463.0, 0.0032533845096397607
464.0, 0.0046658017710345685
465.0, 0.0071366340950647575
466.0, 0.008129879538710404
467.0, 0.003973778940154679
468.0, 0.004051560011962626
469.0, 0.005198392776972257
470.0, 0.005442363773336565
471.0, 0.0018436602953214548
472.0, 0.006194823218599704
473.0, 0.005364592673637813
474.0, 0.0018922357631367764
475.0, 0.0015254692347965297
476.0, 0.0015025624727281319
477.0, 0.0029754273255272164
478.0, 0.005426518912175536
479.0, 0.007891556536551264
480.0, 0.005319445589185854
481.0, 0.005719290509857696
482.0, 0.007214813523402319
483.0, 0.00578427457469314
484.0, 0.006666577576866878
485.0, 0.006787464926561649
486.0, 0.006033833331075182
487.0, 0.004541810251124182
488.0, 0.006410032830178653
489.0, 0.006422511527324369
490.0, 0.005837337956974062
491.0, 0.00708595552347019
492.0, 0.00602800175747567
493.0, 0.005875362152388591
494.0, 0.005754769955537096
495.0, 0.004140538446889644
496.0, 0.0042418970330480536
497.0, 0.004755722573428933
498.0, 0.005152025108608878
499.0, 0.004797891756781166
500.0, 0.003587050320664508
501.0, 0.0032684963014569055
502.0, 0.002799283662572873
503.0, 0.0008250549922640051
504.0, 0.000707155120592868
505.0, 0.0012221070336308777
506.0, 0.0021886558849358562
507.0, 0.003434481472794396
508.0, 0.0017330667639731084
509.0, 0.0012752639014479662
510.0, 0.0013223664018462361
511.0, 0.0011234093268582025
512.0, 0.0024345558373625813
513.0, 0.0019041263733599349
514.0, 0.0018961312290269143
515.0, 0.004266105214541777
516.0, 0.0012446144533031314
517.0, 0.0015569097913624812
518.0, 0.003091227698114856
519.0, 0.004106361556139139
520.0, 0.0015614902134922534
521.0, 0.0008802872678552628
522.0, 0.0006455202329681711
523.0, 3.8327168861237846e-05
524.0, 0.00023119645206628304
525.0, 0.0007123658626799617
526.0, 0.001126322426583048
527.0, 0.0012381955452587024
528.0, 0.0006800765362424085
529.0, 0.0016975811125692984
530.0, 0.0019102876056033508
531.0, 0.0007968519056573929
532.0, 0.0021011244645818537
533.0, 0.0029305092128269175
534.0, 0.0029365588509992365
535.0, 0.0023721765572333495
536.0, 0.003193045194294337
537.0, 0.004642083969570899
538.0, 0.005325572715502266
539.0, 0.004495051536223255
540.0, 0.0008202146534135816
541.0, 0.003728557371824957
542.0, 0.0036342215730920217
543.0, 0.0009331582528666653
544.0, 0.002973656707023104
545.0, 0.00390292654024042
546.0, 0.004174545182836521
547.0, 0.004634087587579706
548.0, 0.007028088819732112
549.0, 0.006686441889997965
550.0, 0.008187518425816947
551.0, 0.00984594485223222
552.0, 0.007935541359159321
553.0, 0.008623609471657114
554.0, 0.01050601741539649
555.0, 0.012909536815468102
556.0, 0.015065251644485123
557.0, 0.017610430179187793
558.0, 0.019702423421407662
559.0, 0.019918731976883177
560.0, 0.017151656458616032
561.0, 0.022191264574932753
562.0, 0.023304819500057427
563.0, 0.02266845635373968
564.0, 0.022178010497431344
565.0, 0.025934054146968012
566.0, 0.023665571829709606
567.0, 0.023035735554956218
568.0, 0.027433740140018155
569.0, 0.031583363534509336
570.0, 0.029810534068556094
571.0, 0.02953820326012163
572.0, 0.03323083703103679
573.0, 0.03927681357841671
574.0, 0.03448514870140964
575.0, 0.03407188493749149
576.0, 0.038403808842685606
577.0, 0.036363094226544046
578.0, 0.036448504937189916
579.0, 0.035415764120277825
580.0, 0.033015622022013906
581.0, 0.029818136571992736
582.0, 0.029056242741221528
583.0, 0.02784045986590681
584.0, 0.02511208437688727
585.0, 0.019730188174537477
586.0, 0.020479166733830118
587.0, 0.020320901343047353
588.0, 0.020505990667257157
589.0, 0.02217868874815677
590.0, 0.016258937883150172
591.0, 0.01310350802586406
592.0, 0.01190063758827184
593.0, 0.011870752003548542
594.0, 0.01078416827936671
595.0, 0.009934138975167086
596.0, 0.008858353609396375
597.0, 0.007648794541701835
598.0, 0.007869508275376292
599.0, 0.007060374844198117
600.0, 0.006231476268900229
601.0, 0.00582225843666329
602.0, 0.0063422726178908526
603.0, 0.008097964597334787
604.0, 0.007789031808088171
605.0, 0.006604768943532687
606.0, 0.007834408708689036
607.0, 0.0059603026228186575
608.0, 0.0069226007170232855
609.0, 0.007388754802293719
610.0, 0.002888862635183763
611.0, 0.004116179239876791
612.0, 0.004546097183057126
613.0, 0.00543284906588389
614.0, 0.007435237368530262
615.0, 0.006413603400787974
616.0, 0.006817305873220335
617.0, 0.007806928895185763
618.0, 0.00892797202277215
619.0, 0.009892986560715026
620.0, 0.006724829010451973
621.0, 0.008144123386099728
622.0, 0.012650629221027644
623.0, 0.00835763182628187
624.0, 0.011976227587654258
625.0, 0.009815140559905143
626.0, 0.005717160832787311
627.0, 0.009727783920665381
628.0, 0.006116146609265824
629.0, 0.0037455749330292383
630.0, 0.005415358409034713
631.0, 0.01289458494742408
632.0, 0.00781077406839913
633.0, 0.006910494257289507
634.0, 0.007899617817685198
635.0, 0.009086261778202062
636.0, 0.00864820938098304
637.0, 0.007749559843118453
638.0, 0.008003998404053221
639.0, 0.009194729081251254
640.0, 0.008534914717565718
641.0, 0.00907293851279759
642.0, 0.00985571919024524
643.0, 0.010859307936861818
644.0, 0.01235268940418626
645.0, 0.012519321914913999
646.0, 0.011973603263624708
647.0, 0.011551543091660557
648.0, 0.012069453280750396
649.0, 0.012062942494830255
650.0, 0.012786337105041758
651.0, 0.013837850121297547
652.0, 0.01500717868470819
653.0, 0.016595051523256132
654.0, 0.018256402455429744
655.0, 0.019849989630024156
656.0, 0.020881180682982635
657.0, 0.019921918233503394
658.0, 0.0219237986466339
659.0, 0.022975859585979225
660.0, 0.023158864063046517
661.0, 0.02356016385143511
662.0, 0.027009598732890584
663.0, 0.031111651280853206
664.0, 0.033520514714488775
665.0, 0.033011122423631856
666.0, 0.04082434718441354
667.0, 0.04503698238053986
668.0, 0.04915675667506916
669.0, 0.05463374566808016
670.0, 0.06048830776815196
671.0, 0.07319690055672258
672.0, 0.08627845362690928
673.0, 0.0999346462408706
674.0, 0.11774172209136362
675.0, 0.13893717596520905
676.0, 0.16810261395556275
677.0, 0.20561713747724614
678.0, 0.2514025372782558
679.0, 0.31175030691760447
680.0, 0.38865498351316274
681.0, 0.48856555742476754
682.0, 0.6116533058461867
683.0, 0.7392961355072376
684.0, 0.8541746130348797
685.0, 0.9447965422588418
686.0, 0.9956662299421568
687.0, 0.9762322834944259
688.0, 0.9023834152856004
689.0, 0.7961659755518035
690.0, 0.6732159520308737
691.0, 0.5509585886449517
692.0, 0.44267980875720053
693.0, 0.3713538229287504
694.0, 0.31123603638919606
695.0, 0.25126610178394193
696.0, 0.22172416435450237
697.0, 0.18766535153733419
698.0, 0.16192884817425698
699.0, 0.1442941585011687
700.0, 0.12562935854866908
701.0, 0.11227663048049334
702.0, 0.0976619735980173
703.0, 0.08587731141636809
704.0, 0.08192430632405491
705.0, 0.08137388888168734
706.0, 0.07221994643320616
707.0, 0.06302227701655008
708.0, 0.05852222695329158
709.0, 0.058774269614264435
710.0, 0.05146498556889137
711.0, 0.04807636693293975
712.0, 0.04780912809079506
713.0, 0.04359206044689768
714.0, 0.04326819246752404
715.0, 0.039624106713032584
716.0, 0.0356088537358429
717.0, 0.03443082108701794
718.0, 0.036511329678365116
719.0, 0.03296215326531185
720.0, 0.029874980873207807
721.0, 0.029856698753811972
722.0, 0.032904230543601476
723.0, 0.027984970699599442
724.0, 0.02598913675875999
725.0, 0.02677657919412192
726.0, 0.027507066889952875
727.0, 0.024015339078854038
728.0, 0.02551506397173023
729.0, 0.027197814359528345
730.0, 0.02611122338574407
731.0, 0.025166951128600124
732.0, 0.024420471314300238
733.0, 0.023099892756424056
734.0, 0.021958774280378235
735.0, 0.023211307122128842
736.0, 0.020629024607487563
737.0, 0.02115243506721062
738.0, 0.022920640222439937
739.0, 0.02317519608650676
740.0, 0.016397446380962556
741.0, 0.01587993059760484
742.0, 0.017618168857038423
743.0, 0.019507300642366058
744.0, 0.020212916789543185
745.0, 0.017974542346082194
746.0, 0.016422823973596252
747.0, 0.015910821013430936
748.0, 0.01619033311323181
749.0, 0.01641008968872162
750.0, 0.022535704120742503
751.0, 0.023157751968599108
752.0, 0.015638814171628004
753.0, 0.018203084930425984
754.0, 0.01977932666967475
755.0, 0.017085270634412
756.0, 0.014727352701437046
757.0, 0.02142997819951291
758.0, 0.01795751442397755
759.0, 0.019526633539241223
760.0, 0.020999726170483346
761.0, 0.019618182908811448
762.0, 0.02230340536670047
763.0, 0.022998031770243493
764.0, 0.01943690385452613
765.0, 0.015691404350382087
766.0, 0.021089368089454427
767.0, 0.0137494780605299
768.0, 0.012737699992921162
769.0, 0.013840386276782576
770.0, 0.01289627683192243
771.0, 0.01006734613785598
772.0, 0.011896458626678302
773.0, 0.010121755457656144
774.0, 0.0059572603701274355
775.0, 0.007792378830553594
776.0, 0.007957123824456899
777.0, 0.008876814369182189
778.0, 0.009203347124855595
779.0, 0.008028002044618744
780.0, 0.008809257436551601
781.0, 0.004358852149876668
782.0, 0.002822644719358177
783.0, 0.0053049084371154555
784.0, 0.008184615122180718
785.0, 0.009459117213916556
786.0, 0.006299847674852305
787.0, 0.005074631456076905
788.0, 0.00980542550824866
789.0, 0.004638193409306653
790.0, 0.005027628237859496
791.0, 0.005916252845971815
792.0, 0.005446187356414149
793.0, 0.0030981000947683927
794.0, 0.005429785401148572
795.0, 0.00506627419112278
796.0, 0.004376964827376275
797.0, 0.005103570545595991
798.0, 0.0022445755110380014
799.0, 0.0018766892932816162
800.0, 0.0026085783895650983
801.0, 0.003637239033412053
802.0, 0.0041321061475704576
803.0, 0.006455052675022134
804.0, 0.006495518273346564
805.0, 0.0055111706818619455
806.0, 0.004678342488957054
807.0, 0.004318627645562148
808.0, 0.0020981774260963306
809.0, 0.0011040951855438165
810.0, 0.0017908559338881943
811.0, 0.0035560013903416007
812.0, 0.002136930012766324
813.0, 0.0033453702117756936
814.0, 0.00432624598191623
815.0, 0.0037515861545762514
816.0, 0.004180317991486689
817.0, 0.005330617482481934
818.0, 0.004335710332612828
819.0, 0.002443775888279088
820.0, 0.002078608205491369
821.0, 0.000644812753755871
822.0, 0.0017892767929383153
823.0, 0.002760236054873079
824.0, 0.002429903621271764
825.0, 0.001635990733980626
826.0, 0.0015458408957648505
827.0, 0.0011045009285576843
828.0, 0.0008209019079702502
829.0, 0.001195766710958036
830.0, 0.00029774580184256595
831.0, 0.001858206886506671
832.0, 0.002341096018457236
833.0, 0.0013488657488719834
834.0, 0.0008559607114548393
835.0, 0.0009105734303523238
836.0, 0.0019682503699192
837.0, 0.002040063906186068
838.0, 0.00037360331497156046
839.0, 0.0016025517783931
840.0, 0.0031781728612151577
841.0, 0.0031371496391003244
842.0, 0.0021704128372250528
843.0, 0.002034559987452975
844.0, 0.003346441153025581
845.0, 0.0016455178330582903
846.0, 0.0007082886028148944
847.0, 0.0015931361572848045
848.0, 0.0012833688354129942
849.0, 0.002166779984894487
850.0, 0.0016064323380214729
851.0, 0.0008073559951991152
852.0, 0.001107141128864348
853.0, 0.0008647218482708693
854.0, 0.0003405892697186814
855.0, 0.00014448553263724377
856.0, 0.0010018900926891
857.0, 0.00387727406060714
858.0, 0.0011067198716638925
859.0, 0.0007955247403949232
860.0, 0.001925945550829154
861.0, 0.0033297350083560506
862.0, 0.003401269000907623
863.0, 0.0038398813814466484
864.0, 0.002208831278197844
865.0, 0.000902598269961579
866.0, 0.0026296057710456225
867.0, 0.0031630079767330076
868.0, 0.004056289090981081
869.0, 0.004439932001158219
870.0, 0.00439184806871422
871.0, 0.004677121581658463
872.0, 0.002011075328287118
873.0, 0.00204329466674787
874.0, 0.0025619066571351463
875.0, 0.0020671952228750482
876.0, 0.0007016881948429196
877.0, 0.0027245702489303533
878.0, 0.004068159217637347
879.0, 0.004875811384554943
880.0, 0.005577191464938682
881.0, 0.0021900869506204417
882.0, 0.0025526626959331946
883.0, 0.003001743003325847
884.0, 0.003502446526469022
885.0, 0.006049149083074922
886.0, 0.0049773718950020494
887.0, 0.005814664870304616
888.0, 0.006094529685638118
889.0, 0.005239089078043268
890.0, 0.006104369821996347
891.0, 0.005519125827747113
892.0, 0.0059081899528459075
893.0, 0.006430520689055601
894.0, 0.006101262924622374
895.0, 0.005077013595243728
896.0, 0.00453664636471614
897.0, 0.007199595918016111
898.0, 0.009114824194983833
899.0, 0.004384812806052394
900.0, 0.008832287719417636
901.0, 0.009788464816836862
902.0, 0.01026729168923872
903.0, 0.010496339236247878
904.0, 0.008010314291866256
905.0, 0.01055578602981255
906.0, 0.01159492605223899
907.0, 0.012442858023917886
908.0, 0.013292805372128865
909.0, 0.010601841885835031
910.0, 0.008852830612806822
911.0, 0.010401098437337579
912.0, 0.012570424798873625
913.0, 0.012939737413757372
914.0, 0.016387361140391254
915.0, 0.011192277173194133
916.0, 0.0064524199551139055
917.0, 0.005835004003176548
918.0, 0.010528575616858311
919.0, 0.005959416699942434
920.0, 0.007686243690967842
921.0, 0.006381030256910744
922.0, 0.0024084506504921757
923.0, 0.004852708303347516
924.0, 0.009458803390734136
925.0, 0.008005449460015303
926.0, 0.006411083732928851
927.0, 0.007202124921096175
928.0, 0.006180757451398177
929.0, 0.004740749416882881
930.0, 0.006191259212364055
931.0, 0.005482696268716352
932.0, 0.000103957128015675
933.0, 0.0007996919839771029
934.0, 0.0048865311300820315
935.0, 0.004249024658504999
936.0, 0.0038496817635993445
937.0, 0.009280057803031212
938.0, 0.002927337981346914
939.0, 0.003218378524161263
940.0, 0.005845950302098249
941.0, 0.007449698615549636
942.0, 0.005163015962438462
943.0, 0.007823470167543107
944.0, 0.006485487323598649
945.0, 0.006594293226299805
946.0, 0.007927627224956737
947.0, 0.005479501786207107
948.0, 0.0013528097608079468
949.0, 0.002301365015722414
950.0, 0.003935774733760756
951.0, 0.003948106791412437
952.0, 0.0029296864432856893
953.0, 0.0034166126146437377
954.0, 0.004138881091804465
955.0, 0.004206251788088821
956.0, 0.003270775373970414
957.0, 0.0021286924943407235
958.0, 0.004591743399217715
959.0, 0.005151470870096036
960.0, 0.0035423096132974233
961.0, 0.001009735851069529
962.0, 0.0021420694271087875
963.0, 0.0008474880215121626
964.0, 0.001392492383027381
965.0, 0.003808757091559186
966.0, 0.006681573211150073
967.0, 0.005415889850806665
968.0, 0.0017368340427933381
969.0, 8.719011627772449e-05
970.0, 0.00024355197792599447
971.0, 0.0008927601416524344
972.0, 0.0063928677365659445
973.0, 0.0038901639838791594
974.0, 0.00374243863286735
975.0, 0.005768596754366155
976.0, 0.005104097089962548
977.0, 0.003051694553047681
978.0, 0.007336938726467106
979.0, 0.008899671833404689
980.0, 0.006991242648344807
981.0, 0.006313297394136601
982.0, 0.012526829120598963
983.0, 0.007282826434894679
984.0, 0.007169584424365776
985.0, 0.014069382333645734
986.0, 0.017231504613315626
987.0, 0.012447358911749848
988.0, 0.016881714369865297
989.0, 0.019045309639553552
990.0, 0.01772585592892225
991.0, 0.023246880042410097
992.0, 0.02611029258195918
993.0, 0.030927413067260927
994.0, 0.036242871670120545
995.0, 0.04113695382955888
996.0, 0.045500323327655134
997.0, 0.05203179330317252
998.0, 0.05064143985888555
999.0, 0.0526047652039981
1000.0, 0.058679736128236334
1001.0, 0.05149285683350288
1002.0, 0.054877016302427674
1003.0, 0.052295477834515165
1004.0, 0.0483289952714996
1005.0, 0.04624740658489415
1006.0, 0.04526554085207028
1007.0, 0.04323045705986942
1008.0, 0.04042897504875233
1009.0, 0.037793597499762216
1010.0, 0.035227179421146025
1011.0, 0.030468777823067245
1012.0, 0.029212120621200235
1013.0, 0.025835092477585368
1014.0, 0.021737071755537126
1015.0, 0.019490670966550744
1016.0, 0.023389299569994443
1017.0, 0.02025352781578644
1018.0, 0.016626494052273438
1019.0, 0.015092492192027927
1020.0, 0.016746463941958036
1021.0, 0.02053180848128116
1022.0, 0.01468209109119588
1023.0, 0.015952300075518788
1024.0, 0.014137339425765016
1025.0, 0.007200849568207149
1026.0, 0.013393692839465059
1027.0, 0.010487807382807702
1028.0, 0.011842226780731843
1029.0, 0.01302463559118308
1030.0, 0.01090584414005769
1031.0, 0.006845451507200395
1032.0, 0.006701508521364637
1033.0, 0.006687409630462984
1034.0, 0.007678446245278729
1035.0, 0.009482259517574927
1036.0, 0.00964802412517978
1037.0, 0.010537271238718136
1038.0, 0.011695668578165862
1039.0, 0.012448136233676847
1040.0, 0.012323443300463276
1041.0, 0.011122637418981262
1042.0, 0.012476751241866825
1043.0, 0.01443489149958675
1044.0, 0.014966957170657385
1045.0, 0.014480782074749184
1046.0, 0.016432219849580612
1047.0, 0.016729959194591887
1048.0, 0.022607117425714352
1049.0, 0.02581187468849432
1050.0, 0.026305259683435514
1051.0, 0.03257517659522751
1052.0, 0.035725070761058436
1053.0, 0.03747044284990399
1054.0, 0.039590913485920705
1055.0, 0.043794028513201716
1056.0, 0.05139392842590126
1057.0, 0.054817873084135486
1058.0, 0.06003982101348291
1059.0, 0.06658287509864108
1060.0, 0.0736336018354284
1061.0, 0.08026138674135265
1062.0, 0.08749078753440587
1063.0, 0.09711702363976232
1064.0, 0.10178503740771942
1065.0, 0.1031076399572723
1066.0, 0.10711309605563234
1067.0, 0.12095391943044613
1068.0, 0.1131931358746529
1069.0, 0.11091934035803719
1070.0, 0.11606556453451376
1071.0, 0.12121171730801315
1072.0, 0.11377022514394196
1073.0, 0.11407586474310971
1074.0, 0.10974564786046472
1075.0, 0.10281514891942067
1076.0, 0.09711278718782596
1077.0, 0.09088578116049187
1078.0, 0.08687486954541856
1079.0, 0.08468476906281172
1080.0, 0.08228489833342695
1081.0, 0.07766055327542816
1082.0, 0.06929067766660389
1083.0, 0.06782320302127633
1084.0, 0.060344988709472795
1085.0, 0.05368451662175017
1086.0, 0.05058958203883911
1087.0, 0.04536576491843058
1088.0, 0.045682235327636635
1089.0, 0.0425081186261282
1090.0, 0.03836045610412899
1091.0, 0.03459064861353452
1092.0, 0.031154634960920868
1093.0, 0.029247619976657636
1094.0, 0.03020660488277609
1095.0, 0.029085233544452395
1096.0, 0.026627144027973105
1097.0, 0.026535746530893037
1098.0, 0.027715468971939234
1099.0, 0.026558486937694
1100.0, 0.023618087598348467
1101.0, 0.022357182190191248
1102.0, 0.024894230561847957
1103.0, 0.021500498311159678
1104.0, 0.0243533589308546
1105.0, 0.020248462347505575
1106.0, 0.01813347822023695
1107.0, 0.02288280743254002
1108.0, 0.017567196667232284
1109.0, 0.01828273251988777
1110.0, 0.017653693516726365
1111.0, 0.016861582148491854
1112.0, 0.016788441868781517
1113.0, 0.016866965466916066
1114.0, 0.01553171122732503
1115.0, 0.016219470546404564
1116.0, 0.016708637704920492
1117.0, 0.01658826104748576
1118.0, 0.016701800493541724
1119.0, 0.013385066683270884
1120.0, 0.017728088069985624
1121.0, 0.019905141950218135
1122.0, 0.021513284077817243
1123.0, 0.026126244473654196
1124.0, 0.021781719500878982
1125.0, 0.017362922409012247
1126.0, 0.017860465201692304
1127.0, 0.017717591585142793
1128.0, 0.01387988847179696
1129.0, 0.014959250583174861
1130.0, 0.016415304844253343
1131.0, 0.015432536767147986
1132.0, 0.01423262789924775
1133.0, 0.014160509242013532
1134.0, 0.014941810885193063
1135.0, 0.01542320474531701
1136.0, 0.01473933867701046
1137.0, 0.015938680096674256
1138.0, 0.018263859187385004
1139.0, 0.018931376452881288
1140.0, 0.017497844055007566
1141.0, 0.019585347853294948
1142.0, 0.017921545725477328
1143.0, 0.017194190246302955
1144.0, 0.02079697270291251
1145.0, 0.017934443939205454
1146.0, 0.021676238799153983
1147.0, 0.023705798119962602
1148.0, 0.02243820334555391
1149.0, 0.018975547436604352
1150.0, 0.0170343516335963
1151.0, 0.018046205769016527
1152.0, 0.019200108397069066
1153.0, 0.015849433458170428
1154.0, 0.012018864567103084
1155.0, 0.014567797755489598
1156.0, 0.010654188639734904
1157.0, 0.010655005301405524
1158.0, 0.008341893208999489
1159.0, 0.007586176613063838
1160.0, 0.009835819697810512
1161.0, 0.0031051300348355028
1162.0, 0.005569581766916502
1163.0, 0.0075501392083247975
1164.0, 0.007636377371036053
1165.0, 0.007107154896192682
1166.0, 0.00918966255141089
1167.0, 0.008745188054869766
1168.0, 0.00867615838753704
1169.0, 0.00856195075677292
1170.0, 0.006967908985571319
1171.0, 0.0033690930103766076
1172.0, 0.0037554035295563537
1173.0, 0.009459670559589545
1174.0, 0.013342204193399715
1175.0, 0.013382307259731607
1176.0, 0.00934309148882407
1177.0, 0.0025816787555365704
1178.0, 0.013446809457763666
1179.0, 0.010954523356333368
1180.0, 0.010016984263030305
1181.0, 0.014498524698466539
1182.0, 0.019395770424076697
1183.0, 0.016424619351144424
1184.0, 0.014567505696413225
1185.0, 0.014317881652175967
1186.0, 0.015256999466333267
1187.0, 0.01617838148780455
1188.0, 0.014724393102188219
1189.0, 0.016617450694091908
1190.0, 0.017471593804790173
1191.0, 0.019114317118030428
1192.0, 0.01991887883721747
1193.0, 0.016197630690591013
1194.0, 0.015628132181815683
1195.0, 0.017029511300117563
1196.0, 0.018692756168894733
1197.0, 0.019284073019109046
1198.0, 0.019053181293905427
1199.0, 0.022157858414823175
1200.0, 0.018450691448415178
1201.0, 0.02270610896236062
1202.0, 0.020107395347595446
1203.0, 0.014439643386705774
1204.0, 0.02450674551365629
1205.0, 0.024502028359596802
1206.0, 0.02339104632285328
1207.0, 0.01853108004443511
1208.0, 0.0157544991965639
1209.0, 0.01897208778605319
1210.0, 0.0201498427770251
1211.0, 0.024043292924239408
1212.0, 0.02237762900808056
1213.0, 0.02016662684840962
1214.0, 0.02067409748306654
1215.0, 0.024024026358763977
1216.0, 0.02374662631302366
1217.0, 0.027116126633165965
1218.0, 0.026268911766825394
1219.0, 0.024069254218090582
1220.0, 0.025261024057406052
1221.0, 0.03197639277934258
1222.0, 0.02640963903733852
1223.0, 0.024535067719775934
1224.0, 0.02997458834586016
1225.0, 0.0362875068154796
1226.0, 0.03292715704982874
1227.0, 0.026969976959314895
1228.0, 0.029074919762443533
1229.0, 0.033048097215279085
1230.0, 0.033919204270300145
1231.0, 0.0307170000214122
1232.0, 0.02871378042449848
1233.0, 0.032435845527028905
1234.0, 0.030084852607541675
1235.0, 0.027429876598574324
1236.0, 0.026426430649556788
1237.0, 0.0260509008158069
1238.0, 0.022101424191982064
1239.0, 0.024023119510488286
1240.0, 0.023567832090305982
1241.0, 0.020387801443610756
1242.0, 0.01626842024746133
1243.0, 0.014002756860476492
1244.0, 0.013502244725924272
1245.0, 0.017529106261859696
1246.0, 0.017271718899329935
1247.0, 0.013090966521904703
1248.0, 0.010259352014152233
1249.0, 0.018068971788581627
1250.0, 0.00785290331583752
1251.0, 0.006718772903540124
1252.0, 0.007381587941909455
1253.0, 0.00792791763046077
1254.0, 0.009675621773121913
1255.0, 0.006613888452220196
1256.0, 0.003474044771969061
1257.0, 0.006391817778702253
1258.0, 0.008881856581114884
1259.0, 0.007036432938637791
1260.0, 0.003221649864772782
1261.0, 0.0049465525870391784
1262.0, 0.007008821498598606
1263.0, 0.007770379164006338
1264.0, 0.0062485983216676675
1265.0, 0.003255059482527554
1266.0, 0.0029537170395311663
1267.0, 0.0028650942549025486
1268.0, 0.004262039186341774
1269.0, 0.0034620712994768476
1270.0, 0.003136279208157822
1271.0, 0.006694447874700046
1272.0, 0.002703649457578125
1273.0, 0.004144921743533223
1274.0, 0.0041893735537771645
1275.0, 0.0043625765601661565
1276.0, 0.004402696417555669
1277.0, 0.0020037551581495662
1278.0, 0.0027424169863030407
1279.0, 0.0012453533141908472
1280.0, 0.0009322787379331018
1281.0, 0.002147863977743911
1282.0, 0.003075041307522307
1283.0, 0.0002053489979358873
1284.0, 0.005240591969501924
1285.0, 0.0044850853695779114
1286.0, 0.004777299734694388
1287.0, 0.004629166812512503
1288.0, 0.0022478172802157027
1289.0, 0.004349695567160019
1290.0, 0.006023394261456073
1291.0, 0.0035860658356219755
1292.0, 0.0010459171122812832
1293.0, 0.00017558597075944133
1294.0, 0.0006430321558067718
1295.0, 0.0010231154199994575
1296.0, 0.002751692687829745
1297.0, 0.003830260712271229
1298.0, 0.002988891142360246
1299.0, 0.0015334181729214367
1300.0, 0.0022583983096565877
1301.0, 0.002943711435477605
1302.0, 0.0008103604591147579
1303.0, 0.0016366981726061716
1304.0, 0.0018191821364976937
1305.0, 0.0004991991050868334
1306.0, 0.0017596170957128183
1307.0, 0.0014659552736927825
1308.0, 0.001561740186246133
1309.0, 0.0029181615162912613
1310.0, 0.0036527695407345025
1311.0, 0.0024637825239844256
1312.0, 0.0005149745455933141
1313.0, 0.005574725781129356
1314.0, 0.006942364068115748
1315.0, 0.005650827772983553
1316.0, 0.003423862021585827
1317.0, 0.001972932504669811
1318.0, 0.002301362945636065
1319.0, 0.0044690298308719175
1320.0, 0.003924661732284871
1321.0, 0.004918932976571551
1322.0, 0.00605095443416498
1323.0, 0.004426659377105088
1324.0, 0.0005326104438365558
1325.0, 0.004172967320884642
1326.0, 0.002936758387100453
1327.0, 0.0026641510654388
1328.0, 0.002800951594554524
1329.0, 0.0012290789720700809
1330.0, 0.0037637566283223933
1331.0, 0.00450917639496333
1332.0, 0.005146579658240619
1333.0, 0.0034551870727078265
1334.0, 0.001484094588571678
1335.0, 0.0021510019921135545
1336.0, 0.0009574026314899142
1337.0, 0.006574447786910919
1338.0, 0.003516019916615204
1339.0, 0.003705331983054835
1340.0, 0.005787084473656279
1341.0, 0.0020494413362511354
1342.0, 0.004898465264294609
1343.0, 0.003622156293106482
1344.0, 0.0064048471686788955
1345.0, 0.006461218779283274
1346.0, 0.005014183311713485
1347.0, 0.0077330594261408175
1348.0, 0.008321493872300348
1349.0, 0.0035853001091188264
1350.0, 0.00733877832992752
1351.0, 0.008645711014522809
1352.0, 0.0076039033687696125
1353.0, 0.011678544209007057
1354.0, 0.01352366179417218
1355.0, 0.012073893586910227
1356.0, 0.01046738883779511
1357.0, 0.011103186568407971
1358.0, 0.011938815761249659
1359.0, 0.010364436835525263
1360.0, 0.015797767955936393
1361.0, 0.010975085697288892
1362.0, 0.011438819230800862
1363.0, 0.012884885245420183
1364.0, 0.011762467301334229
1365.0, 0.008446447401622925
1366.0, 0.010332790198692349
1367.0, 0.011009016397212466
1368.0, 0.011568999706072601
1369.0, 0.010219283810000649
1370.0, 0.00915133173006433
1371.0, 0.010517203029966338
1372.0, 0.006582426606015469
1373.0, 0.008842818621863612
1374.0, 0.012973694836733081
1375.0, 0.012135574150046633
1376.0, 0.009002479522818173
1377.0, 0.008938154529883119
1378.0, 0.007571322252129573
1379.0, 0.010817560361310118
1380.0, 0.013229854458519772
1381.0, 0.011969270982023413
1382.0, 0.011439302575005802
1383.0, 0.015539770619307414
1384.0, 0.01803254981129188
1385.0, 0.018652946522872263
1386.0, 0.013235993122023903
1387.0, 0.012217464305769976
1388.0, 0.013407849781254182
1389.0, 0.012270816531095657
1390.0, 0.011145625115641756
1391.0, 0.01527848372141008
1392.0, 0.011144738115918007
1393.0, 0.011584810804562303
1394.0, 0.01357114545665033
1395.0, 0.014314852005025185
1396.0, 0.018593004407498538
1397.0, 0.011500611060323337
1398.0, 0.01857205668377467
1399.0, 0.018494818081821157
1400.0, 0.016500522160448113
1401.0, 0.015652144058298092
1402.0, 0.010627419793639913
1403.0, 0.014310076220189517
1404.0, 0.011948809620243738
1405.0, 0.013963738606027665
1406.0, 0.014118269868987043
1407.0, 0.012709672003288252
1408.0, 0.015855380053988767
1409.0, 0.017528311157674243
1410.0, 0.010242475174652413
1411.0, 0.010919377133373473
1412.0, 0.011865932891739968
1413.0, 0.010271715310943005
1414.0, 0.008575083140717064
1415.0, 0.00974507398870969
1416.0, 0.013934245840785765
1417.0, 0.009121255116925943
1418.0, 0.010675426188548498
1419.0, 0.012203511520870835
1420.0, 0.00809039719846774
1421.0, 0.013240452453625155
1422.0, 0.007039384790892873
1423.0, 0.00806557506953592
1424.0, 0.010495214242921887
1425.0, 0.010870649504877613
1426.0, 0.009329228688728876
1427.0, 0.00892080264311336
1428.0, 0.006772424966755843
1429.0, 0.005751784333571965
1430.0, 0.004879595973225869
1431.0, 0.0041149119596482365
1432.0, 0.005725807945008785
1433.0, 0.010222234761424764
1434.0, 0.004362014959899713
1435.0, 0.009420686343962058
1436.0, 0.012720246900859261
1437.0, 0.012563112749789431
1438.0, 0.011340271008514109
1439.0, 0.011483580762339669
1440.0, 0.011346297102578654
1441.0, 0.014428320386344185
1442.0, 0.011564804908365301
1443.0, 0.012643060827345466
1444.0, 0.011538307834675758
1445.0, 0.007429106677145832
1446.0, 0.010947864638925912
1447.0, 0.012080477613927517
1448.0, 0.015318140872533272
1449.0, 0.011734238091379344
1450.0, 0.013313443251513013
1451.0, 0.016384740630672617
1452.0, 0.00970407868189302
1453.0, 0.008725445654141387
1454.0, 0.019295364476112395
1455.0, 0.016172805312423256
1456.0, 0.01477201455998125
1457.0, 0.017020294008690533
1458.0, 0.016722343101666277
1459.0, 0.008849744827043125
1460.0, 0.018309842617189768
1461.0, 0.01001042907566592
1462.0, 0.010285583068604042
1463.0, 0.016380232351876828
1464.0, 0.017639101157801724
1465.0, 0.009751427085844078
1466.0, 0.018621881543307097
1467.0, 0.009673443704307602
1468.0, 0.011428846096929013
1469.0, 0.014839581696196284
1470.0, 0.01617793356333358
1471.0, 0.01465166828860708
1472.0, 0.007151101939244831
1473.0, 0.01316380520062745
1474.0, 0.011470022018123919
1475.0, 0.008496441209674915
1476.0, 0.007795724827723884
1477.0, 0.010531134426815265
1478.0, 0.01441473189939279
1479.0, 0.009277533276566798
1480.0, 0.015948582462859365
1481.0, 0.012233456379781193
1482.0, 0.010325355897175892
1483.0, 0.009338108751553251
1484.0, 0.0061221386179211145
1485.0, 0.009314015736271651
1486.0, 0.004908604420531281
1487.0, 0.004310184617063456
1488.0, 0.007023922983133385
1489.0, 0.006990772396161297
1490.0, 0.004722149219444225
1491.0, 0.006218421571105694
1492.0, 0.00832498452764526
1493.0, 0.011651459782183557
1494.0, 0.0066865693187534315
1495.0, 0.00740504908189002
1496.0, 0.008849254059001657
1497.0, 0.00603686278062931
1498.0, 0.007990705930021267
1499.0, 0.0011716171357885798
1500.0, 0.0036220256611008595
1501.0, 0.0035507606665617485
1502.0, 0.004206898105226233
1503.0, 0.005878549783563186
1504.0, 0.005721042415599765
1505.0, 0.004575173331299881
1506.0, 0.0011277958574690973
1507.0, 0.0038922762260161768
1508.0, 0.003492233380966891
1509.0, 0.0012275677655478896
1510.0, 0.002294783486902284
1511.0, 0.008304379315275029
1512.0, 0.00294557914292129
1513.0, 0.0005254348079903323
1514, 0.0
1515, 0.0
1516, 0.0
1517, 0.0
1518, 0.0
1519, 0.0
1520, 0.0
1521, 0.0
1522, 0.0
1523, 0.0
1524, 0.0
1525, 0.0
1526, 0.0
1527, 0.0
1528, 0.0
1529, 0.0
1530, 0.0
1531, 0.0
1532, 0.0
1533, 0.0
1534, 0.0
1535, 0.0
1536, 0.0
1537, 0.0
1538, 0.0
1539, 0.0
1540, 0.0
1541, 0.0
1542, 0.0
1543, 0.0
1544, 0.0
1545, 0.0
1546, 0.0
1547, 0.0
1548, 0.0
1549, 0.0
1550, 0.0
1551, 0.0
1552, 0.0
1553, 0.0
1554, 0.0
1555, 0.0
1556, 0.0
1557, 0.0
1558, 0.0
1559, 0.0
1560, 0.0
1561, 0.0
1562, 0.0
1563, 0.0
1564, 0.0
1565, 0.0
1566, 0.0
1567, 0.0
1568, 0.0
1569, 0.0
1570, 0.0
1571, 0.0
1572, 0.0
1573, 0.0
1574, 0.0
1575, 0.0
1576, 0.0
1577, 0.0
1578, 0.0
1579, 0.0
1580, 0.0
1581, 0.0
1582, 0.0
1583, 0.0
1584, 0.0
1585, 0.0
1586, 0.0
1587, 0.0
1588, 0.0
1589, 0.0
1590, 0.0
1591, 0.0
1592, 0.0
1593, 0.0
1594, 0.0
1595, 0.0
1596, 0.0
1597, 0.0
1598, 0.0
1599, 0.0
