30, 0.0
31, 0.0
32, 0.0
33, 0.0
34, 0.0
35, 0.0
36, 0.0
37, 0.0
38, 0.0
39, 0.0
40, 0.0
41, 0.0
42, 0.0
43, 0.0
44, 0.0
45, 0.0
46, 0.0
47, 0.0
48, 0.0
49, 0.0
50, 0.0
51, 0.0
52, 0.0
53, 0.0
54, 0.0
55, 0.0
56, 0.0
57, 0.0
58, 0.0
59, 0.0
60, 0.0
61, 0.0
62, 0.0
63, 0.0
64, 0.0
65, 0.0
66, 0.0
67, 0.0
68, 0.0
69, 0.0
70, 0.0
71, 0.0
72, 0.0
73, 0.0
74, 0.0
75, 0.0
76, 0.0
77, 0.0
78, 0.0
79, 0.0
80, 0.0
81, 0.0
82, 0.0
83, 0.0
84, 0.0
85, 0.0
86, 0.0
87, 0.0
88, 0.0
89, 0.0
90, 0.0
91, 0.0
92, 0.0
93, 0.0
94, 0.0
95, 0.0
96, 0.0
97, 0.0
98, 0.0
99, 0.0
100, 0.0
101, 0.0
102, 0.0
103, 0.0
104, 0.0
105, 0.0
106, 0.0
107, 0.0
108, 0.0
109, 0.0
110, 0.0
111, 0.0
112, 0.0
113, 0.0
114, 0.0
115, 0.0
116, 0.0
117, 0.0
118, 0.0
119, 0.0
120, 0.0
121, 0.0
122, 0.0
123, 0.0
124, 0.0
125, 0.0
126, 0.0
127, 0.0
128, 0.0
129, 0.0
130, 0.0
131, 0.0
132, 0.0
133, 0.0
134, 0.0
135, 0.0
136, 0.0
137, 0.0
138, 0.0
139, 0.0
140, 0.0
141, 0.0
142, 0.0
143, 0.0
144, 0.0
145, 0.0
146, 0.0
147, 0.0
148, 0.0
149, 0.0
150, 0.0
151, 0.0
152, 0.0
153, 0.0
154, 0.0
155, 0.0
156, 0.0
157, 0.0
158, 0.0
159, 0.0
160, 0.0
161, 0.0
162, 0.0
163, 0.0
164, 0.0
165, 0.0
166, 0.0
167, 0.0
168, 0.0
169, 0.0
170, 0.0
171, 0.0
172, 0.0
173, 0.0
174, 0.0
175, 0.0
176, 0.0
177, 0.0
178, 0.0
179, 0.0
180, 0.0
181, 0.0
182, 0.0
183, 0.0
184, 0.0
185, 0.0
186.0, 0.00033509721943299165
187.0, 0.002778903732616819
188.0, 0.0009086467085563818
189.0, 0.005647604550554882
190.0, 0.006298829166120904
191.0, 0.005850778235112686
192.0, 0.004891633401052449
193.0, 0.0014087583716846245
194.0, 0.006691638054209881
195.0, 0.005100402496562186
196.0, 0.002311737762143915
197.0, 0.0021016743725593232
198.0, 0.001287205237205396
199.0, 0.0005222366627383526
200.0, 0.0044041578037751945
201.0, 0.008007637685689411
202.0, 0.010749783181202795
203.0, 0.01412992428550917
204.0, 0.016222275556216956
205.0, 0.02067664728575997
206.0, 0.02595112102128788
207.0, 0.021364932410530946
208.0, 0.01882553671683821
209.0, 0.018883721601457324
210.0, 0.020253834105658224
211.0, 0.0218276646538025
212.0, 0.014201185304478725
213.0, 0.013618557602833538
214.0, 0.013307675953216108
215.0, 0.005877177556377021
216.0, 0.00574571493213848
217.0, 0.007179549024617422
218.0, 0.005594645178603739
219.0, 0.004393862745003532
220.0, 0.010353277698493452
221.0, 0.008729720035885647
222.0, 0.009063293073550525
223.0, 0.009221955758664245
224.0, 0.006392090862216492
225.0, 0.008562682357055446
226.0, 0.0035231564351464687
227.0, 0.0028789748004999435
228.0, 0.007910791060691104
229.0, 0.008735461236921673
230.0, 0.007598298360482216
231.0, 0.005916858651373393
232.0, 0.00403847013732859
233.0, 0.002397602611712369
234.0, 0.002252435764751221
235.0, 0.003643594902354793
236.0, 0.004980146362746769
237.0, 0.0069075575513949375
238.0, 0.012105753392264867
239.0, 0.0053712331604414965
240.0, 0.0013857923450983716
241.0, 0.002274350952077674
242.0, 0.004707416607883577
243.0, 0.0038634788609290776
244.0, 0.003560718357807147
245.0, 0.005724803276989649
246.0, 0.008232669499766214
247.0, 0.00754776592763156
248.0, 0.0072280235276634824
249.0, 0.009199722905244803
250.0, 0.008402294930341073
251.0, 0.004104947830818245
252.0, 0.008832811251480836
253.0, 0.009542416597231367
254.0, 0.009597666446489031
255.0, 0.01138816316633488
256.0, 0.013398674288828098
257.0, 0.0053768884896037246
258.0, 0.0005612224508523196
259.0, 0.0014470159028825464
260.0, 0.004010722023773411
261.0, 0.0017048913697002488
262.0, 0.0013475062238379005
263.0, 0.0045026920170979125
264.0, 0.005437173692695282
265.0, 0.003702331486370971
266.0, 0.0026016779167383794
267.0, 0.00011740567858269227
268.0, 0.0006715162488650319
269.0, 0.005369470147131909
270.0, 0.006096007055043329
271.0, 0.00311003748125958
272.0, 0.005627212685085525
273.0, 0.010688728132070262
274.0, 0.012155837233412872
275.0, 0.013165009394333243
276.0, 0.014982391028493018
277.0, 0.015604297101023422
278.0, 0.016803348688378787
279.0, 0.02193489571961994
280.0, 0.022622417892157843
281.0, 0.026450495618424698
282.0, 0.02899787452917191
283.0, 0.029178455937584034
284.0, 0.035815798321185706
285.0, 0.03847359328926361
286.0, 0.041425646593073503
287.0, 0.04714230317960386
288.0, 0.054447425672415464
289.0, 0.060767269204298556
290.0, 0.05901886008727279
291.0, 0.05321060940528826
292.0, 0.045141352352024836
293.0, 0.03420573970966519
294.0, 0.03192980885415124
295.0, 0.03200129005694778
296.0, 0.03626058833314059
297.0, 0.043675142458187904
298.0, 0.04496715719920395
299.0, 0.041265448879040156
300.0, 0.0384874610642095
301.0, 0.036956657552131685
302.0, 0.03596673035953546
303.0, 0.04022374424848362
304.0, 0.04236429086459942
305.0, 0.04470019168705129
306.0, 0.04841326096688337
307.0, 0.051214658811198285
308.0, 0.05036791362590256
309.0, 0.05849666118200739
310.0, 0.06430554862415121
311.0, 0.06540248224014564
312.0, 0.07740546366052106
313.0, 0.08981672469888949
314.0, 0.10381482670241975
315.0, 0.11912161019115046
316.0, 0.1354766271191758
317.0, 0.15640511499837514
318.0, 0.17608960273906274
319.0, 0.19766847374192179
320.0, 0.22008598596984374
321.0, 0.23845589532520772
322.0, 0.24926565822977556
323.0, 0.22575453162465217
324.0, 0.18011056183418075
325.0, 0.1295624140373166
326.0, 0.08678506476901919
327.0, 0.0530081944326551
328.0, 0.03216188779417937
329.0, 0.022381504791379406
330.0, 0.017413970528734026
331.0, 0.008937619845707975
332.0, 0.0024353778080154383
333.0, 0.0053982064954826315
334.0, 0.007668923247440462
335.0, 0.0010507961620086694
336.0, 0.0020474290409552755
337.0, 0.0012107822692026806
338.0, 0.0024005943386234906
339.0, 0.005191922196487731
340.0, 0.0053936040266341885
341.0, 0.003470136575692918
342.0, 0.0043366524147403765
343.0, 0.0035580392417611417
344.0, 0.0007720123796211601
345.0, 0.0008306312207225939
346.0, 0.00680322054648121
347.0, 0.004462950836424656
348.0, 0.0011537300363373664
349.0, 0.0009041066042306684
350.0, 0.0029022365677456585
351.0, 0.0029614456798137054
352.0, 0.0025172971087870587
353.0, 0.003235334081487065
354.0, 0.0034595216939729873
355.0, 0.0009612762936965255
356.0, 0.0033765616202431517
357.0, 0.002918897923621
358.0, 0.0011889224260526407
359.0, 0.002654862241935976
360.0, 0.0042992668554830155
361.0, 0.003203159880825016
362.0, 0.0013037313796108547
363.0, 0.0016135484870197928
364.0, 0.002584422322620075
365.0, 0.0009263028107024627
366.0, 0.0042243361298845775
367.0, 0.0037808224910609663
368.0, 0.000645634574538319
369.0, 0.001120704762864777
370.0, 0.006380338905509562
371.0, 0.0026714642856476073
372.0, 0.004814321543717796
373.0, 0.011682609865488532
374.0, 0.012131892052387466
375.0, 0.011945684876295961
376.0, 0.01703242676102243
377.0, 0.023944831308966564
378.0, 0.028560115764096995
379.0, 0.030583401562284528
380.0, 0.038187275520697304
381.0, 0.04786837719850245
382.0, 0.06012543514027883
383.0, 0.07322249124824641
384.0, 0.08445995023002886
385.0, 0.10045733773997173
386.0, 0.12307580520241712
387.0, 0.1509205135421312
388.0, 0.18525339059966464
389.0, 0.22838340961330217
390.0, 0.27100261581695184
391.0, 0.3203645088463986
392.0, 0.37937827459094065
393.0, 0.44234265584490123
394.0, 0.4970490123207781
395.0, 0.5329984565341804
396.0, 0.5349878443617617
397.0, 0.49991785589619525
398.0, 0.43486720752078817
399.0, 0.3526907077985161
400.0, 0.27860258769867774
401.0, 0.21788980280181175
402.0, 0.17125903997186573
403.0, 0.13924692560082888
404.0, 0.11995628742410429
405.0, 0.09844191562167016
406.0, 0.07974475158943369
407.0, 0.06849178798776699
408.0, 0.06253600540619944
409.0, 0.05569875177096871
410.0, 0.057884283554628525
411.0, 0.05441024991574703
412.0, 0.051162789630367585
413.0, 0.05233303653956768
414.0, 0.05290511390929966
415.0, 0.0578106067812105
416.0, 0.06974491996379988
417.0, 0.07962944803280617
418.0, 0.0853409823843723
419.0, 0.09267952175453921
420.0, 0.10339669572031966
421.0, 0.11170500438310493
422.0, 0.11470901668066338
423.0, 0.11046252423397318
424.0, 0.09770674924183548
425.0, 0.07851418398246754
426.0, 0.06058307491116324
427.0, 0.04487129341041889
428.0, 0.035517633496669636
429.0, 0.037915614565702215
430.0, 0.03415092194466131
431.0, 0.02607297867165264
432.0, 0.020853316820120593
433.0, 0.022105919192385606
434.0, 0.027543752410369084
435.0, 0.03169501798457891
436.0, 0.029832640474332255
437.0, 0.03476110579337647
438.0, 0.044707363960612534
439.0, 0.050588186992142285
440.0, 0.05726792550963448
441.0, 0.0702522482172124
442.0, 0.07941917434593884
443.0, 0.08337367839253253
444.0, 0.08453450264066067
445.0, 0.07964614986559897
446.0, 0.06763975429869637
447.0, 0.060818461495794
448.0, 0.056244560715049866
449.0, 0.049007384599672056
450.0, 0.045703206575295016
451.0, 0.03848754550525882
452.0, 0.03131496095593067
453.0, 0.025100161923894863
454.0, 0.020381588584862612
455.0, 0.01832536244801323
456.0, 0.01608799911689137
457.0, 0.011169707060488778
458.0, 0.007378112508577123
459.0, 0.006297582369535297
460.0, 0.0043947645602414554
461.0, 0.0014366041354132374
462.0, 0.004722031461740042
463.0, 0.00694484194545884
464.0, 0.00504076449672632
465.0, 0.003881851603964633
466.0, 0.008245515042498226
467.0, 0.003991721521027226
468.0, 0.00026498649012503446
469.0, 0.00038289581988657157
470.0, 0.0031382075672975566
471.0, 0.004588465930522716
472.0, 0.002523977594001969
473.0, 0.0008826916868642318
474.0, 0.002360384340312028
475.0, 0.008597857686706265
476.0, 0.0024175709623405145
477.0, 0.0005387563078858443
478.0, 0.00014696774057300677
479.0, 0.0009709093569578682
480.0, 0.002114168761631354
481.0, 0.0036141784726046334
482.0, 0.00029773680353186913
483.0, 0.0003456642831337915
484.0, 0.00037990022208524507
485.0, 0.0002683798885289902
486.0, 0.001736561277992315
487.0, 0.007141961067403338
488.0, 0.004664739850528038
489.0, 0.003167882033266236
490.0, 0.002840935593065498
491.0, 0.0003642622863123285
492.0, 0.0014638871674996798
493.0, 0.000928885874311916
494.0, 0.0038705717015522154
495.0, 0.0036955537798950824
496.0, 0.002107259493631255
497.0, 0.0009666536827532484
498.0, 0.0015907442379917418
499.0, 0.0036329650215805543
500.0, 0.0030293155890158954
501.0, 0.004213184451035366
502.0, 0.0012926253409207133
503.0, 0.004521361115979655
504.0, 0.0012571941729243752
505.0, 0.0023551917995606694
506.0, 0.0029709671747074665
507.0, 0.0026363335683947347
508.0, 0.00374262337182967
509.0, 0.0012844884251696895
510.0, 0.0017178851000672667
511.0, 0.008142447798834255
512.0, 0.008240734498307836
513.0, 0.00520676032472848
514.0, 0.00333299053583464
515.0, 0.007724445176837245
516.0, 0.011346839594685883
517.0, 0.01360285403381324
518.0, 0.018031318299176015
519.0, 0.015175208389177007
520.0, 0.015522116993706965
521.0, 0.018989443975147575
522.0, 0.0241249734682703
523.0, 0.02916182149998633
524.0, 0.031097510902532613
525.0, 0.037409276371285584
526.0, 0.04248742066284959
527.0, 0.047148906672449684
528.0, 0.04975178528558897
529.0, 0.04628874079552384
530.0, 0.04394540875141228
531.0, 0.039783247698448196
532.0, 0.032780642038658346
533.0, 0.027427409063193003
534.0, 0.025640925850943623
535.0, 0.021077086824942436
536.0, 0.014448968270931766
537.0, 0.011445555967176538
538.0, 0.008991613470024811
539.0, 0.0057754353978536335
540.0, 0.005376876811943701
541.0, 0.006584537804976165
542.0, 0.005099219414404492
543.0, 0.004750608902168616
544.0, 0.007173151760641289
545.0, 0.00890464448515764
546.0, 0.005579741665500148
547.0, 0.002848880411690365
548.0, 0.0018147703813535274
549.0, 0.0015951917947279377
550.0, 0.002695466403169738
551.0, 0.006057825030927037
552.0, 0.00371930368367728
553.0, 0.0027816813239565177
554.0, 0.002995201117034705
555.0, 0.00582667933855551
556.0, 0.008284804755504385
557.0, 0.0031165783779273423
558.0, 0.006574304244360332
559.0, 0.012877101942931795
560.0, 0.01348025686982748
561.0, 0.011519404853184268
562.0, 0.01492381564549451
563.0, 0.012445447157361044
564.0, 0.01246290994740175
565.0, 0.013759768316007144
566.0, 0.014561193931054638
567.0, 0.012180220197215643
568.0, 0.007807954206198759
569.0, 0.011376987863176391
570.0, 0.013042435589496923
571.0, 0.016084490661635246
572.0, 0.017053014458509184
573.0, 0.01350731049647767
574.0, 0.01890366979485691
575.0, 0.023023121665936504
576.0, 0.028264297655193928
577.0, 0.0301156264105591
578.0, 0.028788029519516287
579.0, 0.03083935438364528
580.0, 0.03851665668561129
581.0, 0.044009056713715994
582.0, 0.04425044465342204
583.0, 0.042284285171547066
584.0, 0.03911057969808733
585.0, 0.03233889884683669
586.0, 0.029901700287917995
587.0, 0.026626218994982322
588.0, 0.022937062277066277
589.0, 0.022487707295302334
590.0, 0.025239836340369342
591.0, 0.019690666058587263
592.0, 0.017466365478594873
593.0, 0.014100641974424762
594.0, 0.010597114349368865
595.0, 0.009725567572783395
596.0, 0.01039221585007434
597.0, 0.008073741275322748
598.0, 0.0058306897306557885
599.0, 0.005613733753535372
600.0, 0.0051287531299995665
601.0, 0.0037771085977934605
602.0, 0.003969709407150395
603.0, 0.00584738748339098
604.0, 0.005916442019047588
605.0, 0.003981718692665822
606.0, 0.002898919875108489
607.0, 0.0036412881906789816
608.0, 0.0028196204575698046
609.0, 0.002545789591373032
610.0, 0.0021387531101792743
611.0, 0.004036054383880345
612.0, 0.004972868599033012
613.0, 0.0033652725102688965
614.0, 0.006760583274374724
615.0, 0.0003677560951329366
616.0, 0.0022926338737615445
617.0, 0.006281197555619124
618.0, 0.009160545597159167
619.0, 0.013070335854276138
620.0, 0.01113170538015644
621.0, 0.011743226681841695
622.0, 0.01212023148316494
623.0, 0.010669260936167772
624.0, 0.010374126408669504
625.0, 0.01308960407344227
626.0, 0.012196994759621159
627.0, 0.01228323710362566
628.0, 0.006334863926376184
629.0, 0.0035585300365616
630.0, 0.004315051314071769
631.0, 0.0005092318648722643
632.0, 0.004971228800241069
633.0, 0.004580099309777084
634.0, 0.0010991242758536125
635.0, 0.0014019367497172524
636.0, 0.0013911313280070819
637.0, 0.0016126422933129979
638.0, 0.0013754019314765704
639.0, 0.004520857071996833
640.0, 0.00742955972717472
641.0, 0.0029776814434727557
642.0, 0.002217412176129677
643.0, 0.0007219932354719464
644.0, 0.0025411179716780786
645.0, 0.0032559917609763555
646.0, 0.004203353729955114
647.0, 0.0022164734642562563
648.0, 0.0031378372468555712
649.0, 0.0010753467245147846
650.0, 0.004134637861045399
651.0, 0.004222992923211738
652.0, 0.0013185131023436575
653.0, 0.0022740993048293934
654.0, 0.0077861346371571475
655.0, 0.006102066019631252
656.0, 0.00739685136768137
657.0, 0.005779130932995458
658.0, 0.01001522531152293
659.0, 0.013149205084197188
660.0, 0.012226660573007772
661.0, 0.01410650706944999
662.0, 0.014152875895960182
663.0, 0.020223207390665833
664.0, 0.02392960466238701
665.0, 0.02744852731323049
666.0, 0.033087229755106924
667.0, 0.039009557880223575
668.0, 0.049112286571867204
669.0, 0.059808164932933255
670.0, 0.07101213593136585
671.0, 0.08617952463283618
672.0, 0.1072303692652215
673.0, 0.1317534577627895
674.0, 0.1549417598358732
675.0, 0.1877595272694207
676.0, 0.22866959183937785
677.0, 0.27968344155512104
678.0, 0.3471203295828934
679.0, 0.43368496254960226
680.0, 0.5333898830764143
681.0, 0.6645489176707813
682.0, 0.7987975481745986
683.0, 0.9232200251325189
684.0, 0.9972017017213642
685.0, 0.9750695571602037
686.0, 0.8548619593766594
687.0, 0.6868042335279967
688.0, 0.5299907680109363
689.0, 0.4086921764589597
690.0, 0.31985692260680265
691.0, 0.252757177049772
692.0, 0.20474660197069341
693.0, 0.1681866028021242
694.0, 0.14467711078395928
695.0, 0.12316353151282888
696.0, 0.10264047173021694
697.0, 0.08810678735050187
698.0, 0.08181973633428757
699.0, 0.07428795949725134
700.0, 0.06294834561404805
701.0, 0.05646081901067991
702.0, 0.05162775996647851
703.0, 0.042799568103499934
704.0, 0.03351105443401261
705.0, 0.03443705530042514
706.0, 0.030272382085230396
707.0, 0.03018632197904052
708.0, 0.032770588263013455
709.0, 0.031369893263295465
710.0, 0.023541286401144577
711.0, 0.016288130048638112
712.0, 0.017727204454721302
713.0, 0.01844797581553025
714.0, 0.015001653835772472
715.0, 0.012294230833560287
716.0, 0.012373675539171276
717.0, 0.009749483267321475
718.0, 0.006608278665487071
719.0, 0.013163460011107157
720.0, 0.01040005510398208
721.0, 0.0013294715746398767
722.0, 0.0032411964920643892
723.0, 0.0011680207551022456
724.0, 0.001231947459917804
725.0, 0.002359071565576512
726.0, 0.0051656778877800565
727.0, 0.008923621490521309
728.0, 0.010438937299453095
729.0, 0.007484827687360642
730.0, 0.0064971196347965035
731.0, 0.007783434960718603
732.0, 0.002444098752691913
733.0, 0.004188064972242596
734.0, 0.00858802200370772
735.0, 0.009300250253897475
736.0, 0.008070528356341509
737.0, 0.004943285445984365
738.0, 0.00030855473720396465
739.0, 0.0007503585609908172
740.0, 0.0015140054012109116
741.0, 0.0025547279560404613
742.0, 0.0026418079801324196
743.0, 0.007835304418502565
744.0, 0.005228003078826984
745.0, 0.004840018075349385
746.0, 0.005079955367936599
747.0, 0.00810129599116276
748.0, 0.007555078834070758
749.0, 0.0015023240827639727
750.0, 0.0028530850742582116
751.0, 0.00565906241772878
752.0, 0.00400612651171274
753.0, 0.004300764903900028
754.0, 0.006890870705390275
755.0, 0.007975212934385691
756.0, 0.008959956510751705
757.0, 0.010365893248744932
758.0, 0.011016428744653108
759.0, 0.008156248280255879
760.0, 0.0097615159762269
761.0, 0.012486295516805673
762.0, 0.011696998989178916
763.0, 0.01923463686894256
764.0, 0.022833617709883788
765.0, 0.02584424802610887
766.0, 0.029107323260964366
767.0, 0.032186602495732075
768.0, 0.03631063778559902
769.0, 0.04198785288272328
770.0, 0.04263255950008488
771.0, 0.039599660848462254
772.0, 0.03766220172730257
773.0, 0.0328652137897641
774.0, 0.029386689556818647
775.0, 0.027699529673496974
776.0, 0.02043179810534781
777.0, 0.021755415258638687
778.0, 0.016783343329433965
779.0, 0.00901742616193501
780.0, 0.009394435670495933
781.0, 0.010659099817760262
782.0, 0.004620821513831604
783.0, 0.007371298348531929
784.0, 0.0077169501441241425
785.0, 0.008733300591637764
786.0, 0.00660903396875595
787.0, 0.0025218777446512695
788.0, 0.002398993679658117
789.0, 0.005511909422841647
790.0, 0.0021917081573703157
791.0, 0.004489098410181678
792.0, 0.005320092537519729
793.0, 0.006585955063406839
794.0, 0.005891294066680417
795.0, 0.00492766047311039
796.0, 0.0065812052667056815
797.0, 0.003477131522324426
798.0, 0.007265667794541243
799.0, 0.0034398793686909973
800.0, 0.0001648702081647595
801.0, 0.0007524349382328423
802.0, 0.0005161434542398684
803.0, 0.0040169931417536235
804.0, 0.004639101214399931
805.0, 0.0010652505666238093
806.0, 0.0028996260172316083
807.0, 0.002842529097913895
808.0, 7.834284920516248e-05
809.0, 0.0018323601209077687
810.0, 0.003649464151887191
811.0, 0.0035783095134382815
812.0, 0.0014368673314200404
813.0, 0.0013516813962779828
814.0, 0.005199224523827709
815.0, 0.009376953291013117
816.0, 0.00833955521213096
817.0, 0.005014058454534859
818.0, 0.0034839750197282904
819.0, 0.00488226173424711
820.0, 0.006921718066929255
821.0, 0.005193373223852519
822.0, 0.003064414890218923
823.0, 0.0022662604243887147
824.0, 0.0008188252536050093
825.0, 0.0032769089355008142
826.0, 0.003483964472907973
827.0, 0.005826243942482766
828.0, 0.0077698074356583845
829.0, 0.004754979595006136
830.0, 0.0018652312043480365
831.0, 0.004827368374551968
832.0, 0.0019332649114806339
833.0, 0.0038913570202439136
834.0, 0.004704798775984119
835.0, 0.007133502899392617
836.0, 0.00735221932889072
837.0, 0.003114492613862531
838.0, 0.0012575677913054624
839.0, 0.001083624064143302
840.0, 0.006426261743613598
841.0, 0.005995953498806918
842.0, 0.0034876264972194446
843.0, 0.0016999963529608555
844.0, 0.0003546133624718706
845.0, 2.2309446781152083e-05
846.0, 0.0022757244302612275
847.0, 0.009086198288192392
848.0, 0.007121970533074922
849.0, 0.004105985511207473
850.0, 0.0011374636028449589
851.0, 0.001552765976420682
852.0, 0.00507428071993823
853.0, 0.004801513171603011
854.0, 0.0005412247004566994
855.0, 0.00551975756669213
856.0, 0.004292940844979233
857.0, 0.003708232252205401
858.0, 0.00823923084336249
859.0, 0.011772492406315503
860.0, 0.008524619789998914
861.0, 0.006277803292917316
862.0, 0.005244281924825056
863.0, 0.006676505795119093
864.0, 0.007875186385331774
865.0, 0.006069795635683855
866.0, 0.0036071254574544112
867.0, 0.003101296037482941
868.0, 0.0014317537684739787
869.0, 0.00021242888056137758
870.0, 0.0029461861287299797
871.0, 0.0028845008528412017
872.0, 0.003304698374741814
873.0, 0.007518915802802314
874.0, 0.009790575065864313
875.0, 0.004763191070262569
876.0, 0.005800407102376029
877.0, 0.0021922746811700667
878.0, 0.003827301482359563
879.0, 0.0024713334423452416
880.0, 0.0010223535597431751
881.0, 0.0024497605644437813
882.0, 0.002285936767152632
883.0, 0.00018502612905697352
884.0, 0.004591412873634843
885.0, 0.0036784914982090806
886.0, 0.007177147418374918
887.0, 0.0068412144765717005
888.0, 0.00961260716439441
889.0, 0.016306605852471647
890.0, 0.013567484151414047
891.0, 0.012814503173997238
892.0, 0.010117701020538522
893.0, 0.008946383399911736
894.0, 0.010229015014654064
895.0, 0.007766347278086404
896.0, 0.004697559937119315
897.0, 0.006414280605702906
898.0, 0.008905616710961375
899.0, 0.011751790090811544
900.0, 0.014188324603686065
901.0, 0.014297821805209322
902.0, 0.01405825829401186
903.0, 0.01592045514678809
904.0, 0.01819078303921871
905.0, 0.01866427514091852
906.0, 0.020554226162708182
907.0, 0.022548248277454795
908.0, 0.02240485584698366
909.0, 0.022721810982582552
910.0, 0.02417690702998796
911.0, 0.02264983538345271
912.0, 0.022325570424052994
913.0, 0.028012169334547185
914.0, 0.026871624435446825
915.0, 0.02951120038039135
916.0, 0.027881715748627453
917.0, 0.02189175828596994
918.0, 0.020443327893546855
919.0, 0.021041101280061585
920.0, 0.020268237098216235
921.0, 0.01965289923923301
922.0, 0.010750511210672244
923.0, 0.01401903993846491
924.0, 0.01167082190937293
925.0, 0.014083895187722696
926.0, 0.013430522161787313
927.0, 0.009100947889185432
928.0, 0.006730418802142302
929.0, 0.005343910742240179
930.0, 0.009015140718851731
931.0, 0.00984002250063043
932.0, 0.009383524836102657
933.0, 0.00441658716595757
934.0, 0.002674322211533086
935.0, 0.0045126853179104365
936.0, 0.0037092131994555092
937.0, 0.001159618815698741
938.0, 0.0027196246238963794
939.0, 0.00011820603571112214
940.0, 0.0005827902199661948
941.0, 0.0065582317198109915
942.0, 0.004898109421788933
943.0, 0.0002092356085214734
944.0, 0.0010600200555118335
945.0, 0.0013419795076312813
946.0, 0.003166550571930692
947.0, 0.0004001448464119698
948.0, 0.0022246798772071847
949.0, 0.0050754265757647675
950.0, 0.0038782015232528178
951.0, 0.0011692861982619267
952.0, 0.0021866417136734663
953.0, 0.005452040043380309
954.0, 0.0010085180446883467
955.0, 0.0017404798527414773
956.0, 0.0033442052570804136
957.0, 0.001025457134736123
958.0, 0.002976207361844916
959.0, 0.002067594622029243
960.0, 0.003713154424247153
961.0, 0.0047499866691454624
962.0, 0.0035701046501994144
963.0, 0.00827009773676843
964.0, 0.001974558449837099
965.0, 0.0011762528708030386
966.0, 0.002546462928725037
967.0, 0.00013739371980732272
968.0, 0.0011190122680608536
969.0, 0.005167899207404574
970.0, 0.001195547712669224
971.0, 0.0023298279930916133
972.0, 0.00037152386504842613
973.0, 0.0014017066731922532
974.0, 0.001059366967697164
975.0, 0.0031188342340284854
976.0, 0.0007795211943608652
977.0, 0.0006706546267772317
978.0, 0.004518210734889868
979.0, 0.001744945700249401
980.0, 0.000673452627910646
981.0, 0.000994647347871215
982.0, 0.0045811401680279145
983.0, 0.004482552740319707
984.0, 0.006248394941939709
985.0, 0.006490183186639045
986.0, 0.003721659689643352
987.0, 0.010266602185265292
988.0, 0.01440245023244733
989.0, 0.011050285751252234
990.0, 0.011508576987605549
991.0, 0.015100712851129384
992.0, 0.017377598576050198
993.0, 0.018228108889541683
994.0, 0.019396447083792467
995.0, 0.02184705399586457
996.0, 0.027044718512176526
997.0, 0.03663109827509354
998.0, 0.036764115954613395
999.0, 0.039306572072272394
1000.0, 0.043256753306358114
1001.0, 0.051429942782755235
1002.0, 0.05773790802023112
1003.0, 0.05805611381956631
1004.0, 0.060124972088826445
1005.0, 0.06638137494135303
1006.0, 0.06975681864913946
1007.0, 0.07034979870742698
1008.0, 0.07616035100549909
1009.0, 0.07866315435834469
1010.0, 0.08109428293121045
1011.0, 0.08384607455909109
1012.0, 0.08461153968681061
1013.0, 0.08262294079450595
1014.0, 0.07118055614050811
1015.0, 0.06290433122598144
1016.0, 0.05126242893396524
1017.0, 0.044472477688354876
1018.0, 0.037425185748767235
1019.0, 0.030645943938901476
1020.0, 0.02571330560173355
1021.0, 0.023298158615984572
1022.0, 0.023056272797262318
1023.0, 0.01544750142221917
1024.0, 0.011817548835411527
1025.0, 0.013173115072590568
1026.0, 0.008920511554291537
1027.0, 0.005265490014455526
1028.0, 0.007178779734497394
1029.0, 0.004619826989636962
1030.0, 0.0013072727384295108
1031.0, 0.006889092850447141
1032.0, 0.00429415504677662
1033.0, 0.004715788769354409
1034.0, 0.004037716700787392
1035.0, 0.0027557332713032865
1036.0, 0.0024831160866629703
1037.0, 0.0031307191875828374
1038.0, 0.0049249561188680355
1039.0, 0.00490973348703465
1040.0, 0.001567914754827268
1041.0, 0.002293352248961727
1042.0, 0.0050372977372473765
1043.0, 0.001388919710011758
1044.0, 0.0028641239551228798
1045.0, 0.0055952691711611624
1046.0, 0.008302493194958002
1047.0, 0.012617808934687273
1048.0, 0.013107660706254947
1049.0, 0.010644894849473226
1050.0, 0.015548751337144312
1051.0, 0.0194631475756568
1052.0, 0.029528537654835582
1053.0, 0.030645516929091288
1054.0, 0.03098361135766888
1055.0, 0.03351970769376266
1056.0, 0.03938420715729589
1057.0, 0.050629041014168645
1058.0, 0.06330664614140649
1059.0, 0.0730754291560134
1060.0, 0.08734143135495123
1061.0, 0.1056174610188718
1062.0, 0.1115634477789197
1063.0, 0.13097664389160643
1064.0, 0.15397944276624909
1065.0, 0.1726113320940514
1066.0, 0.18939023801708155
1067.0, 0.20223412546965588
1068.0, 0.2055974970672423
1069.0, 0.20257768730470427
1070.0, 0.19476547373377873
1071.0, 0.18010414420744994
1072.0, 0.1601342810705779
1073.0, 0.145640599668661
1074.0, 0.12160667941956549
1075.0, 0.10140036949263566
1076.0, 0.08662459840229514
1077.0, 0.07331760874173042
1078.0, 0.06928364573999735
1079.0, 0.06259408044571527
1080.0, 0.05732550287525775
1081.0, 0.053637072073011174
1082.0, 0.04461782361431884
1083.0, 0.039057902183530904
1084.0, 0.039671205251420406
1085.0, 0.03741108367390989
1086.0, 0.03140055363523403
1087.0, 0.028299509308130452
1088.0, 0.027671496526869777
1089.0, 0.024824956084126545
1090.0, 0.022952563330367354
1091.0, 0.01780500449208448
1092.0, 0.01417032699297404
1093.0, 0.013400421760682556
1094.0, 0.01576252422598631
1095.0, 0.011416335819028393
1096.0, 0.007033736482137641
1097.0, 0.006780832923450797
1098.0, 0.003930838925059535
1099.0, 0.009197676487040308
1100.0, 0.004159025974622315
1101.0, 0.0076083144332202216
1102.0, 0.007442308306218923
1103.0, 0.004286836558375135
1104.0, 0.005177670280661501
1105.0, 0.0076095802916313
1106.0, 0.008017818413620306
1107.0, 0.00574469236604512
1108.0, 0.003601872717418053
1109.0, 0.005294885194163568
1110.0, 0.0020919137867671084
1111.0, 0.00803383936582985
1112.0, 0.00883953596572067
1113.0, 0.008615894430715448
1114.0, 0.0031837286781142577
1115.0, 0.00040664029944904753
1116.0, 0.002533992791365536
1117.0, 0.0025202707152060244
1118.0, 0.001013026273585459
1119.0, 0.0045910588163344725
1120.0, 0.002566762391400706
1121.0, 0.0010493845769375203
1122.0, 0.004967096517892708
1123.0, 0.007318783472644801
1124.0, 0.003732198552319622
1125.0, 0.00626507530891596
1126.0, 0.004155404762899066
1127.0, 0.002096107852199781
1128.0, 0.006744729747644331
1129.0, 0.0059357311687313775
1130.0, 0.003363614441631504
1131.0, 0.004130667008830846
1132.0, 0.001343032495163163
1133.0, 0.0003851249554056098
1134.0, 0.0023779805083782245
1135.0, 0.0010920903039572118
1136.0, 0.0013343672437777436
1137.0, 0.001389793985639638
1138.0, 0.0033177803334233967
1139.0, 0.004716404889044012
1140.0, 0.0031161407930653017
1141.0, 0.0004018847545357627
1142.0, 0.002974523570616309
1143.0, 0.00535897124039719
1144.0, 0.0020928165544679992
1145.0, 0.0014715608047283695
1146.0, 0.0009846324037942485
1147.0, 0.0020653321936190136
1148.0, 0.004381732324534788
1149.0, 0.004887353058929833
1150.0, 0.005055759816616801
1151.0, 0.0010035131271648255
1152.0, 0.0005274839627677524
1153.0, 0.0022648716793258056
1154.0, 0.004850842856577436
1155.0, 0.00019249330403886024
1156.0, 0.0018070914084197468
1157.0, 0.0007119385213991795
1158.0, 0.0004672795796711479
1159.0, 0.0017751540319726048
1160.0, 0.0013661698793552386
1161.0, 0.0014975899938880982
1162.0, 0.0005401843430289877
1163.0, 0.0012704657390060668
1164.0, 0.0004284632127493363
1165.0, 0.005632585702478068
1166.0, 0.004738999835823174
1167.0, 0.0025184726151850695
1168.0, 0.0005793790920019774
1169.0, 0.0016344845930857223
1170.0, 0.002944500754932764
1171.0, 0.004359323213871821
1172.0, 0.006608204370198909
1173.0, 0.005775926374101873
1174.0, 0.005707268097563015
1175.0, 0.0006300414749727829
1176.0, 0.0031684696410644924
1177.0, 0.005709774793017868
1178.0, 0.006017907861618179
1179.0, 0.004209109634354452
1180.0, 0.001243388357958773
1181.0, 0.003210368614633682
1182.0, 0.008563607088513964
1183.0, 0.0062837533118601345
1184.0, 0.0004736001613107757
1185.0, 0.004655565408795147
1186.0, 0.013076758142527919
1187.0, 0.00689705831930061
1188.0, 0.00911332692045498
1189.0, 0.010199341332621601
1190.0, 0.010781805126575696
1191.0, 0.008515661806822483
1192.0, 0.004473256385588321
1193.0, 0.0014666255224561452
1194.0, 0.00718537095022459
1195.0, 0.011821368410076223
1196.0, 0.008507783359252978
1197.0, 0.008991240127812397
1198.0, 0.007071391093479219
1199.0, 0.0074110493736516255
1200.0, 0.008561546428793912
1201.0, 0.005390273945828936
1202.0, 0.006067788916075928
1203.0, 0.008276310565088651
1204.0, 0.011237448956919275
1205.0, 0.009345610126032343
1206.0, 0.008010714469721835
1207.0, 0.00760499956697554
1208.0, 0.006172621367760875
1209.0, 0.009092802147972394
1210.0, 0.013791652685022866
1211.0, 0.011003516181385746
1212.0, 0.008847659961347145
1213.0, 0.006670560865272236
1214.0, 0.0068539106514405625
1215.0, 0.007629660084119204
1216.0, 0.007820637173770139
1217.0, 0.007168237664256349
1218.0, 0.0035846645029476605
1219.0, 0.001856667502453572
1220.0, 0.004060427603884918
1221.0, 0.007023968202709472
1222.0, 0.010456068425188508
1223.0, 0.011974186307123352
1224.0, 0.013736208758118273
1225.0, 0.01539760645588159
1226.0, 0.012530039993255769
1227.0, 0.013624704046703481
1228.0, 0.015228589192976495
1229.0, 0.014725103504404648
1230.0, 0.015910009985734084
1231.0, 0.017181708416117658
1232.0, 0.01809025152661915
1233.0, 0.023575857146339026
1234.0, 0.01832627247246275
1235.0, 0.0174681699458467
1236.0, 0.02878908664534212
1237.0, 0.03032202610042727
1238.0, 0.03689223621216929
1239.0, 0.0450869273065802
1240.0, 0.05258598287265289
1241.0, 0.06244190342821062
1242.0, 0.07111067046097858
1243.0, 0.07317951145742382
1244.0, 0.07200810738402143
1245.0, 0.06749687422712089
1246.0, 0.06356151727486525
1247.0, 0.055801816483201594
1248.0, 0.040084693731456615
1249.0, 0.03539557313081168
1250.0, 0.026781907434587644
1251.0, 0.02457002703023691
1252.0, 0.017161813655833764
1253.0, 0.014771640610445827
1254.0, 0.013486525680252598
1255.0, 0.008968422481179456
1256.0, 0.011107790214268212
1257.0, 0.009433622865979971
1258.0, 0.00920725142170966
1259.0, 0.010209245341855995
1260.0, 0.007785282782804359
1261.0, 0.008219727700460894
1262.0, 0.006945451210454338
1263.0, 0.0017113190808091387
1264.0, 0.006291210496121187
1265.0, 0.00894176066193749
1266.0, 0.005420063433227441
1267.0, 0.007823952308233179
1268.0, 0.0017389514809815162
1269.0, 0.004783806711976874
1270.0, 0.0038137836420248073
1271.0, 0.0035041955889917498
1272.0, 0.003960253953976256
1273.0, 0.0007538532439008965
1274.0, 0.0029310265025532184
1275.0, 0.008282290400657328
1276.0, 0.005240820002106714
1277.0, 0.0028449767654909397
1278.0, 0.00467814338947225
1279.0, 0.00806312523283455
1280.0, 0.009015883908082898
1281.0, 0.006099739142205782
1282.0, 0.00828562956446982
1283.0, 0.005844101157111938
1284.0, 0.006719481234827951
1285.0, 0.006582934945975991
1286.0, 0.00596757775594715
1287.0, 0.00561669352475292
1288.0, 0.008023947311966885
1289.0, 0.007886407884692916
1290.0, 0.003359229972875392
1291.0, 0.008218249276656615
1292.0, 0.005042052233478237
1293.0, 0.001536739693882962
1294.0, 0.003675408316448854
1295.0, 0.0049895620896749935
1296.0, 0.014100511657385583
1297.0, 0.016038767487794387
1298.0, 0.01353396380338488
1299.0, 0.00781729559786682
1300.0, 0.0052213775732563375
1301.0, 0.003745395354109839
1302.0, 0.0013627352916829635
1303.0, 5.329632435562611e-05
1304, 0.0
1305, 0.0
1306, 0.0
1307, 0.0
1308, 0.0
1309, 0.0
1310, 0.0
1311, 0.0
1312, 0.0
1313, 0.0
1314, 0.0
1315, 0.0
1316, 0.0
1317, 0.0
1318, 0.0
1319, 0.0
1320, 0.0
1321, 0.0
1322, 0.0
1323, 0.0
1324, 0.0
1325, 0.0
1326, 0.0
1327, 0.0
1328, 0.0
1329, 0.0
1330, 0.0
1331, 0.0
1332, 0.0
1333, 0.0
1334, 0.0
1335, 0.0
1336, 0.0
1337, 0.0
1338, 0.0
1339, 0.0
1340, 0.0
1341, 0.0
1342, 0.0
1343, 0.0
1344, 0.0
1345, 0.0
1346, 0.0
1347, 0.0
1348, 0.0
1349, 0.0
1350, 0.0
1351, 0.0
1352, 0.0
1353, 0.0
1354, 0.0
1355, 0.0
1356, 0.0
1357, 0.0
1358, 0.0
1359, 0.0
1360, 0.0
1361, 0.0
1362, 0.0
1363, 0.0
1364, 0.0
1365, 0.0
1366, 0.0
1367, 0.0
1368, 0.0
1369, 0.0
1370, 0.0
1371, 0.0
1372, 0.0
1373, 0.0
1374, 0.0
1375, 0.0
1376, 0.0
1377, 0.0
1378, 0.0
1379, 0.0
1380, 0.0
1381, 0.0
1382, 0.0
1383, 0.0
1384, 0.0
1385, 0.0
1386, 0.0
1387, 0.0
1388, 0.0
1389, 0.0
1390, 0.0
1391, 0.0
1392, 0.0
1393, 0.0
1394, 0.0
1395, 0.0
1396, 0.0
1397, 0.0
1398, 0.0
1399, 0.0
1400, 0.0
1401, 0.0
1402, 0.0
1403, 0.0
1404, 0.0
1405, 0.0
1406, 0.0
1407, 0.0
1408, 0.0
1409, 0.0
1410, 0.0
1411, 0.0
1412, 0.0
1413, 0.0
1414, 0.0
1415, 0.0
1416, 0.0
1417, 0.0
1418, 0.0
1419, 0.0
1420, 0.0
1421, 0.0
1422, 0.0
1423, 0.0
1424, 0.0
1425, 0.0
1426, 0.0
1427, 0.0
1428, 0.0
1429, 0.0
1430, 0.0
1431, 0.0
1432, 0.0
1433, 0.0
1434, 0.0
1435, 0.0
1436, 0.0
1437, 0.0
1438, 0.0
1439, 0.0
1440, 0.0
1441, 0.0
1442, 0.0
1443, 0.0
1444, 0.0
1445, 0.0
1446, 0.0
1447, 0.0
1448, 0.0
1449, 0.0
1450, 0.0
1451, 0.0
1452, 0.0
1453, 0.0
1454, 0.0
1455, 0.0
1456, 0.0
1457, 0.0
1458, 0.0
1459, 0.0
1460, 0.0
1461, 0.0
1462, 0.0
1463, 0.0
1464, 0.0
1465, 0.0
1466, 0.0
1467, 0.0
1468, 0.0
1469, 0.0
1470, 0.0
1471, 0.0
1472, 0.0
1473, 0.0
1474, 0.0
1475, 0.0
1476, 0.0
1477, 0.0
1478, 0.0
1479, 0.0
1480, 0.0
1481, 0.0
1482, 0.0
1483, 0.0
1484, 0.0
1485, 0.0
1486, 0.0
1487, 0.0
1488, 0.0
1489, 0.0
1490, 0.0
1491, 0.0
1492, 0.0
1493, 0.0
1494, 0.0
1495, 0.0
1496, 0.0
1497, 0.0
1498, 0.0
1499, 0.0
1500, 0.0
1501, 0.0
1502, 0.0
1503, 0.0
1504, 0.0
1505, 0.0
1506, 0.0
1507, 0.0
1508, 0.0
1509, 0.0
1510, 0.0
1511, 0.0
1512, 0.0
1513, 0.0
1514, 0.0
1515, 0.0
1516, 0.0
1517, 0.0
1518, 0.0
1519, 0.0
1520, 0.0
1521, 0.0
1522, 0.0
1523, 0.0
1524, 0.0
1525, 0.0
1526, 0.0
1527, 0.0
1528, 0.0
1529, 0.0
1530, 0.0
1531, 0.0
1532, 0.0
1533, 0.0
1534, 0.0
1535, 0.0
1536, 0.0
1537, 0.0
1538, 0.0
1539, 0.0
1540, 0.0
1541, 0.0
1542, 0.0
1543, 0.0
1544, 0.0
1545, 0.0
1546, 0.0
1547, 0.0
1548, 0.0
1549, 0.0
1550, 0.0
1551, 0.0
1552, 0.0
1553, 0.0
1554, 0.0
1555, 0.0
1556, 0.0
1557, 0.0
1558, 0.0
1559, 0.0
1560, 0.0
1561, 0.0
1562, 0.0
1563, 0.0
1564, 0.0
1565, 0.0
1566, 0.0
1567, 0.0
1568, 0.0
1569, 0.0
1570, 0.0
1571, 0.0
1572, 0.0
1573, 0.0
1574, 0.0
1575, 0.0
1576, 0.0
1577, 0.0
1578, 0.0
1579, 0.0
1580, 0.0
1581, 0.0
1582, 0.0
1583, 0.0
1584, 0.0
1585, 0.0
1586, 0.0
1587, 0.0
1588, 0.0
1589, 0.0
1590, 0.0
1591, 0.0
1592, 0.0
1593, 0.0
1594, 0.0
1595, 0.0
1596, 0.0
1597, 0.0
1598, 0.0
1599, 0.0
