30, 0.0
31, 0.0
32, 0.0
33, 0.0
34, 0.0
35, 0.0
36, 0.0
37, 0.0
38, 0.0
39, 0.0
40, 0.0
41, 0.0
42, 0.0
43, 0.0
44, 0.0
45, 0.0
46, 0.0
47, 0.0
48, 0.0
49, 0.0
50, 0.0
51, 0.0
52, 0.0
53, 0.0
54, 0.0
55, 0.0
56, 0.0
57, 0.0
58, 0.0
59, 0.0
60, 0.0
61, 0.0
62, 0.0
63, 0.0
64, 0.0
65, 0.0
66, 0.0
67, 0.0
68, 0.0
69, 0.0
70, 0.0
71, 0.0
72, 0.0
73, 0.0
74, 0.0
75, 0.0
76, 0.0
77, 0.0
78, 0.0
79, 0.0
80, 0.0
81, 0.0
82, 0.0
83, 0.0
84, 0.0
85, 0.0
86, 0.0
87, 0.0
88, 0.0
89, 0.0
90, 0.0
91, 0.0
92, 0.0
93, 0.0
94, 0.0
95, 0.0
96, 0.0
97, 0.0
98, 0.0
99.0, 5.714911022859968e-06
100.0, 0.00011354342088814806
101.0, 9.852289057049681e-05
102.0, 4.558039531821074e-05
103.0, 6.191542958599235e-05
104.0, 0.003975334785765828
105.0, 0.006846579587305929
106.0, 0.008209170383441051
107.0, 0.011452297557471649
108.0, 0.01585621539307239
109.0, 0.020265726916736376
110.0, 0.02357525583648313
111.0, 0.026802596424087104
112.0, 0.03175117189415064
113.0, 0.03813771801778148
114.0, 0.04380330697975333
115.0, 0.0507769086086552
116.0, 0.056319859421690266
117.0, 0.058469135853125465
118.0, 0.0572164774562968
119.0, 0.059147637587477916
120.0, 0.0627344129020932
121.0, 0.06294672247633315
122.0, 0.060267775661007765
123.0, 0.057838433838815484
124.0, 0.05680576057850384
125.0, 0.05401599822203092
126.0, 0.053225700534239036
127.0, 0.053031391451181915
128.0, 0.05104146666504306
129.0, 0.05290743072237689
130.0, 0.0531668641398146
131.0, 0.051214924722806955
132.0, 0.05381368688365172
133.0, 0.052109570739916206
134.0, 0.050490637318931345
135.0, 0.05347202407486899
136.0, 0.05053293602857587
137.0, 0.05095343639091846
138.0, 0.05388050917642643
139.0, 0.051126828046039074
140.0, 0.048902516456375666
141.0, 0.04670621935564118
142.0, 0.044268282806606774
143.0, 0.041870745357367796
144.0, 0.04082440391621573
145.0, 0.03980055889517693
146.0, 0.03551927007584421
147.0, 0.03243719688093461
148.0, 0.03012862601912968
149.0, 0.02865543996954522
150.0, 0.030041553977914942
151.0, 0.028721995797747837
152.0, 0.027852317034492983
153.0, 0.031323729997326744
154.0, 0.03211941480483916
155.0, 0.0326415850441556
156.0, 0.033444873237751374
157.0, 0.03595716830317772
158.0, 0.0350067867599307
159.0, 0.03378419241401025
160.0, 0.034032083964559576
161.0, 0.03531601443629945
162.0, 0.03578590845519816
163.0, 0.03571766482252994
164.0, 0.035665336119781295
165.0, 0.03472644176042598
166.0, 0.03398097787404417
167.0, 0.03363021230573089
168.0, 0.03279116812457669
169.0, 0.03157413891242296
170.0, 0.031130173119145087
171.0, 0.032771594389587815
172.0, 0.03196514924853707
173.0, 0.030298130466030318
174.0, 0.028499651203442528
175.0, 0.028827989282790234
176.0, 0.02542498145605148
177.0, 0.023524372675092265
178.0, 0.025246803338192157
179.0, 0.02500014271875118
180.0, 0.023226720755487627
181.0, 0.021192465160133477
182.0, 0.02074710619998332
183.0, 0.021829283970256425
184.0, 0.02058265077241452
185.0, 0.017513258459857836
186.0, 0.018755248783498105
187.0, 0.016438898981305503
188.0, 0.014642754220062126
189.0, 0.01576274801029517
190.0, 0.015178740601822381
191.0, 0.014396773782686303
192.0, 0.013590439224088306
193.0, 0.013083374889851195
194.0, 0.011984287002692202
195.0, 0.011553151625929313
196.0, 0.011869595286652705
197.0, 0.011454837578255989
198.0, 0.011259650568045364
199.0, 0.01021002381717333
200.0, 0.007403509664020718
201.0, 0.008663742116719301
202.0, 0.007259686203011722
203.0, 0.004945935165783691
204.0, 0.006170860144392448
205.0, 0.007337618199610716
206.0, 0.006168969150094271
207.0, 0.0026568753601358577
208.0, 0.0023436995429100176
209.0, 0.0023233687993252836
210.0, 0.0027677443129812615
211.0, 0.003887606146834679
212.0, 0.0017838430417881522
213.0, 0.0019525238541950587
214.0, 0.003330384153054484
215.0, 0.0030704638057719117
216.0, 0.0023911032702366936
217.0, 0.0026678158916288116
218.0, 0.003781698541910116
219.0, 0.0015354920755683969
220.0, 0.002074215179186185
221.0, 0.0025024799966447157
222.0, 0.0006646800128890231
223.0, 0.0012310928709640013
224.0, 0.0019701405629041725
225.0, 0.0026936671397541747
226.0, 0.0031238817535251197
227.0, 0.003952531319986877
228.0, 0.00414735934900847
229.0, 0.0036580247659300327
230.0, 0.0037425460727188472
231.0, 0.004734369662082631
232.0, 0.004903248803330872
233.0, 0.0030857380826419287
234.0, 0.0028981647687762336
235.0, 0.003908779707950646
236.0, 0.005396304885589802
237.0, 0.006164908854443585
238.0, 0.006948783591960087
239.0, 0.005661729478489569
240.0, 0.003156304451139784
241.0, 0.0054013156775366625
242.0, 0.0049329805442256125
243.0, 0.004211672102490977
244.0, 0.0043525274051446
245.0, 0.004994814492667386
246.0, 0.0027290469422579914
247.0, 0.00119151385712355
248.0, 0.005078252805211646
249.0, 0.0018032173962695558
250.0, 0.001756149519923528
251.0, 0.0038946763792013363
252.0, 0.0018965443624609946
253.0, 0.001060921295866312
254.0, 0.0013352590858728734
255.0, 0.0025125352848617034
256.0, 0.0020136369212915826
257.0, 0.0016796061848915421
258.0, 0.0012226450098046502
259.0, 0.0004018549647480254
260.0, 0.0010637983735533245
261.0, 0.0009249513569571221
262.0, 0.000537918799148802
263.0, 0.0010572284084134048
264.0, 0.0009683578754820316
265.0, 0.001227989575426851
266.0, 0.0018084098932210273
267.0, 0.0017792660709859064
268.0, 0.0016882137615023352
269.0, 0.0027116351961726268
270.0, 0.005205854806924695
271.0, 0.004252547289521803
272.0, 0.00240506003014542
273.0, 0.0007921122860420968
274.0, 0.0006217912541503924
275.0, 0.0013992053142932227
276.0, 0.0017725532911489774
277.0, 0.0016022878341207158
278.0, 0.0006518968340198891
279.0, 0.0032815015467872917
280.0, 0.0045326759840412815
281.0, 0.004342263949692705
282.0, 0.00852271268930901
283.0, 0.008371417035539114
284.0, 0.008333416812574575
285.0, 0.010567649584184553
286.0, 0.014807159344927469
287.0, 0.016708141738350456
288.0, 0.01829542227065742
289.0, 0.021713543030361868
290.0, 0.02835698321507478
291.0, 0.031466844505390355
292.0, 0.03237714624344041
293.0, 0.03485077950383542
294.0, 0.03272954645312427
295.0, 0.02994000579741729
296.0, 0.02711078153415996
297.0, 0.023525533953375036
298.0, 0.01954926225862899
299.0, 0.016849546600543223
300.0, 0.015853928910224822
301.0, 0.010150077158288102
302.0, 0.007562898617866413
303.0, 0.007920030513712907
304.0, 0.011410164149747081
305.0, 0.010730551392960714
306.0, 0.00948768465251297
307.0, 0.00941306862410023
308.0, 0.013658083670985964
309.0, 0.012102491755010722
310.0, 0.011983807844366345
311.0, 0.013704069869297043
312.0, 0.0152191235662237
313.0, 0.017680673372277002
314.0, 0.02191548992497908
315.0, 0.02764208628200902
316.0, 0.02989457442113149
317.0, 0.03457288921439658
318.0, 0.03994644826556948
319.0, 0.04501229673518676
320.0, 0.04843606042259015
321.0, 0.052290318860025865
322.0, 0.0565434934112967
323.0, 0.06120541470552266
324.0, 0.057071635932981674
325.0, 0.05411680401410218
326.0, 0.05009473747830014
327.0, 0.038892988544344594
328.0, 0.03137192325847654
329.0, 0.026602470507321476
330.0, 0.022943298420308903
331.0, 0.014534178734013038
332.0, 0.008826810725040489
333.0, 0.006180775069467287
334.0, 0.005963593781443578
335.0, 0.0012302648635359346
336.0, 0.0012318668891980085
337.0, 0.001961443928939792
338.0, 0.0012545866012370283
339.0, 0.0005076751892459967
340.0, 0.0004983507830840872
341.0, 0.0012054158386163721
342.0, 0.002679796526109833
343.0, 0.0025394042137995357
344.0, 0.00148684581256295
345.0, 0.0006416220218884278
346.0, 0.0019087087927874553
347.0, 0.0018828287021704154
348.0, 0.0015465143437273779
349.0, 0.0018670506523187928
350.0, 0.005367832191727585
351.0, 0.0030559585646373023
352.0, 0.0022077864315383053
353.0, 0.003804769175841863
354.0, 0.004680839222060289
355.0, 0.004125014910966257
356.0, 0.004328188692483621
357.0, 0.005896452979938727
358.0, 0.0063545941140971205
359.0, 0.00638353594095185
360.0, 0.006801342783597824
361.0, 0.008049029180073464
362.0, 0.00766656145039399
363.0, 0.006842968653720994
364.0, 0.00705685217169236
365.0, 0.009823557105249014
366.0, 0.007814204017534871
367.0, 0.008465639262599753
368.0, 0.010252211655199715
369.0, 0.010703270240961866
370.0, 0.012382208009643356
371.0, 0.011489383455487348
372.0, 0.009858359006412368
373.0, 0.012375148092690426
374.0, 0.017700581644990346
375.0, 0.01932437732377174
376.0, 0.01864323920293674
377.0, 0.024100481513699076
378.0, 0.0233353733332742
379.0, 0.022958538915979695
380.0, 0.025083728437065567
381.0, 0.031893077643283224
382.0, 0.03636805561070197
383.0, 0.040479108766149415
384.0, 0.045304126457597
385.0, 0.05376030731076841
386.0, 0.06428773518919802
387.0, 0.07369704179146841
388.0, 0.08093725695578013
389.0, 0.10100074228939457
390.0, 0.12004888085013089
391.0, 0.14184036528046562
392.0, 0.16946505411717094
393.0, 0.20163767484776893
394.0, 0.23909125692712202
395.0, 0.280481994971692
396.0, 0.3245448110323011
397.0, 0.3543686523417237
398.0, 0.38184358073068664
399.0, 0.39839457628792346
400.0, 0.3895377996178644
401.0, 0.3635182687245526
402.0, 0.331130171004426
403.0, 0.2927609711106406
404.0, 0.24697021804869954
405.0, 0.204376717394396
406.0, 0.1702391341204581
407.0, 0.14476445832299026
408.0, 0.1273576125749361
409.0, 0.11186935519963694
410.0, 0.09899823285402128
411.0, 0.08855834751012606
412.0, 0.07952448828606683
413.0, 0.07618170384538554
414.0, 0.07540382581268118
415.0, 0.07560051032462102
416.0, 0.07286952644688816
417.0, 0.07442576069529108
418.0, 0.07727097553672616
419.0, 0.07992028236021423
420.0, 0.07896776212355548
421.0, 0.07791195519178598
422.0, 0.07616887060339675
423.0, 0.07345420607180816
424.0, 0.06954258780477739
425.0, 0.06339753806451891
426.0, 0.057370105185778765
427.0, 0.05228410160853093
428.0, 0.044011824243194615
429.0, 0.037699215558753316
430.0, 0.033588263490955284
431.0, 0.03173831894979661
432.0, 0.02894546254215735
433.0, 0.0261783169631886
434.0, 0.025531268344262042
435.0, 0.028315768783617766
436.0, 0.02656213637776914
437.0, 0.02667187617988971
438.0, 0.026375569188462185
439.0, 0.023791405735758147
440.0, 0.02072079976881287
441.0, 0.02099383375473765
442.0, 0.02156430820023143
443.0, 0.019514861847641122
444.0, 0.016962276905255036
445.0, 0.016684064561415243
446.0, 0.017536463388444955
447.0, 0.01827773229899797
448.0, 0.014736801308907118
449.0, 0.013422872022992189
450.0, 0.013349364201238223
451.0, 0.013211536205426887
452.0, 0.013422515336801737
453.0, 0.011132686646510676
454.0, 0.008187608575209358
455.0, 0.00714742279157925
456.0, 0.006129877512812228
457.0, 0.006243604670467997
458.0, 0.007191810943267444
459.0, 0.008513884315655912
460.0, 0.005436297043319638
461.0, 0.0062802992767806015
462.0, 0.008110237534156357
463.0, 0.005777098078070765
464.0, 0.0030413702405487075
465.0, 0.003961112237029697
466.0, 0.006103665538594009
467.0, 0.005227050544649077
468.0, 0.0032382705584810675
469.0, 0.004128803840900858
470.0, 0.004948950289970938
471.0, 0.00036861064813589056
472.0, 0.0038488542654877083
473.0, 0.0031025120430939303
474.0, 0.0006163186931953629
475.0, 0.0019858159872851136
476.0, 0.005137092703478152
477.0, 0.004917973069837365
478.0, 0.0031857854198341575
479.0, 0.003619675271610874
480.0, 0.004725008285680144
481.0, 0.00525510315786242
482.0, 0.005291650109823117
483.0, 0.005100622045356919
484.0, 0.007247965729293824
485.0, 0.007226475677004137
486.0, 0.006324931832152505
487.0, 0.007085712172862632
488.0, 0.005546252296198315
489.0, 0.004774729764815867
490.0, 0.00490942103301833
491.0, 0.005889539382450164
492.0, 0.005214651554485908
493.0, 0.005313253040288323
494.0, 0.00513076505388349
495.0, 0.002935448951605558
496.0, 0.0022160145129898343
497.0, 0.004082602568879448
498.0, 0.006125729203639651
499.0, 0.005038667849646096
500.0, 0.0028836530066538605
501.0, 0.00299537242061393
502.0, 0.003469317865700479
503.0, 0.0018323672461842857
504.0, 0.0028920712324809576
505.0, 0.0024368721009011126
506.0, 0.001657011580389404
507.0, 0.001965697162669458
508.0, 0.0011674481004974335
509.0, 0.0019160363697250317
510.0, 0.0024198069284383497
511.0, 0.0009179000838558023
512.0, 0.0012585062543632353
513.0, 0.0010491122267673534
514.0, 0.0010190710198677239
515.0, 0.0017541268355300817
516.0, 0.0013235390254199002
517.0, 0.0013368422470120486
518.0, 0.002185086981241935
519.0, 0.003990908682113047
520.0, 0.003180583136002405
521.0, 0.005575604564494923
522.0, 0.005750740858392854
523.0, 0.0009606141905242021
524.0, 0.0015833790457214318
525.0, 0.001490307669271377
526.0, 0.001144488263057121
527.0, 0.0007796196112139797
528.0, 0.0002582449640172169
529.0, 0.0027361469599576057
530.0, 0.003500090493569783
531.0, 0.0011748347262576322
532.0, 0.0008875807730999313
533.0, 0.0028453298340164438
534.0, 0.003540278907068981
535.0, 0.0022549892066256456
536.0, 0.0018553203041651901
537.0, 0.002481269800413894
538.0, 0.004566825940625832
539.0, 0.006770873550231262
540.0, 0.0034345143663519744
541.0, 0.005277765876132441
542.0, 0.00432887247716584
543.0, 0.0016646239074116166
544.0, 0.005616553846968612
545.0, 0.004458064419380732
546.0, 0.004608160256378909
547.0, 0.00606223451485769
548.0, 0.006525155876624226
549.0, 0.006027248693018103
550.0, 0.008989634848077832
551.0, 0.013455766390459816
552.0, 0.015285354407677565
553.0, 0.011480040371747179
554.0, 0.012868922424015019
555.0, 0.016315571686206225
556.0, 0.01690502897740277
557.0, 0.01703960239285991
558.0, 0.018048369326018922
559.0, 0.01971444244842978
560.0, 0.021790675194865404
561.0, 0.02422822406777572
562.0, 0.024028647061659837
563.0, 0.023253583972477367
564.0, 0.023488263842678988
565.0, 0.025685109809853772
566.0, 0.025473792303769307
567.0, 0.026823791063743135
568.0, 0.031060824610630897
569.0, 0.03218169915594811
570.0, 0.03205034772446637
571.0, 0.031690107021138524
572.0, 0.032682667713284486
573.0, 0.04067123890319702
574.0, 0.03766721399729934
575.0, 0.036169356311390795
576.0, 0.03733113130964366
577.0, 0.034687156612813484
578.0, 0.03353735414780017
579.0, 0.034444369800401
580.0, 0.0347342081296844
581.0, 0.0285447274407347
582.0, 0.02986952807920786
583.0, 0.02850454161281639
584.0, 0.02426722095573417
585.0, 0.018201168097176274
586.0, 0.018709256911210236
587.0, 0.019696877085042905
588.0, 0.02016104964396586
589.0, 0.01919632220722549
590.0, 0.014371307230075337
591.0, 0.011778064876929823
592.0, 0.010647683434808387
593.0, 0.010502038828102172
594.0, 0.011856238993750377
595.0, 0.012170015429720878
596.0, 0.01175355370906165
597.0, 0.010711514927706837
598.0, 0.008891938452518972
599.0, 0.008122688176267127
600.0, 0.007503319429493968
601.0, 0.006709005915723629
602.0, 0.005495168073648188
603.0, 0.0073607839753985155
604.0, 0.007846195320891055
605.0, 0.006870679249706476
606.0, 0.005616630842363228
607.0, 0.004029290922248805
608.0, 0.006135319099337944
609.0, 0.007897391076379911
610.0, 0.004134926461494165
611.0, 0.0030071967097589298
612.0, 0.0019817305269353856
613.0, 0.0030899374113905207
614.0, 0.007233844514696149
615.0, 0.006010337780909449
616.0, 0.0066696317142814765
617.0, 0.0078079686888484975
618.0, 0.008625219911314206
619.0, 0.008421894873412144
620.0, 0.006857940087446673
621.0, 0.00846490706120596
622.0, 0.011429218596330667
623.0, 0.006446935558494559
624.0, 0.007999160205657881
625.0, 0.007376672476850012
626.0, 0.006074295267415659
627.0, 0.008833527699291695
628.0, 0.0054227551493585685
629.0, 0.004387871389436132
630.0, 0.00621808454540991
631.0, 0.010624346945933155
632.0, 0.008100077826472818
633.0, 0.008140150827307326
634.0, 0.007837345992845097
635.0, 0.006136211695289706
636.0, 0.008804988644820181
637.0, 0.007367288440866004
638.0, 0.0072555634487238806
639.0, 0.00976962118424191
640.0, 0.012804626413330801
641.0, 0.012181301928207712
642.0, 0.011172719062845895
643.0, 0.011051427038595624
644.0, 0.01315564969076365
645.0, 0.01339531191478521
646.0, 0.01370300373843869
647.0, 0.013395141977386291
648.0, 0.011707469203829103
649.0, 0.011003336562554604
650.0, 0.013058602235062427
651.0, 0.01566691644696812
652.0, 0.017181312725917695
653.0, 0.015631274641034105
654.0, 0.015258573785530386
655.0, 0.014845114858786665
656.0, 0.014512040229737908
657.0, 0.01589661125815712
658.0, 0.016406676291464892
659.0, 0.018193586221513604
660.0, 0.020591634111875638
661.0, 0.021987391145170367
662.0, 0.022540397993246114
663.0, 0.027469988030001363
664.0, 0.031023051358927977
665.0, 0.029141431690532266
666.0, 0.03938840375666179
667.0, 0.041361775214441926
668.0, 0.04495099811636284
669.0, 0.05335032651553602
670.0, 0.05966233587488227
671.0, 0.06997697618700591
672.0, 0.08217391093839894
673.0, 0.09606341119745414
674.0, 0.11223798442009968
675.0, 0.13432748626383978
676.0, 0.1650304715504395
677.0, 0.20327660992823895
678.0, 0.24776695935764015
679.0, 0.3110779282271444
680.0, 0.38684058713674774
681.0, 0.4833782071773359
682.0, 0.6029272839147376
683.0, 0.732416138987675
684.0, 0.8491139547237283
685.0, 0.9422897479959577
686.0, 0.9962848007777441
687.0, 0.9796247145792837
688.0, 0.9045237511480656
689.0, 0.7935504157764011
690.0, 0.6671726103966992
691.0, 0.548263309606594
692.0, 0.4400285102645879
693.0, 0.3721782017047076
694.0, 0.31430477349636043
695.0, 0.2528416095072555
696.0, 0.21998410797871878
697.0, 0.18561998593312745
698.0, 0.15936717513608192
699.0, 0.14093986876435322
700.0, 0.12318225877219688
701.0, 0.10925655187890758
702.0, 0.09637090646728631
703.0, 0.08753325758219235
704.0, 0.08588252855291792
705.0, 0.08103132127357039
706.0, 0.07231318950105044
707.0, 0.06382962229650298
708.0, 0.058059401354018166
709.0, 0.05611909072267795
710.0, 0.04927671906493901
711.0, 0.0469193311508299
712.0, 0.04708431824423314
713.0, 0.041319652354073005
714.0, 0.041175841018185354
715.0, 0.03633929711831747
716.0, 0.03261420199314561
717.0, 0.03515773571692054
718.0, 0.032721387807861296
719.0, 0.03118555422863073
720.0, 0.030225096272326932
721.0, 0.029879507478195177
722.0, 0.030821390720230095
723.0, 0.028020240142774766
724.0, 0.026190445807145794
725.0, 0.026592085044082326
726.0, 0.029892837758120554
727.0, 0.02445707550716317
728.0, 0.024109000419229823
729.0, 0.025940763272545127
730.0, 0.02715456983625083
731.0, 0.023356813934488203
732.0, 0.022192671507309705
733.0, 0.021961515252815457
734.0, 0.02199798526392112
735.0, 0.021860604898616437
736.0, 0.019465419237747694
737.0, 0.01827484053158253
738.0, 0.018768183467271552
739.0, 0.02058174900374339
740.0, 0.016287219517445252
741.0, 0.015366740356269618
742.0, 0.01660147338996952
743.0, 0.01828746997467852
744.0, 0.01646481187794588
745.0, 0.017295861946454546
746.0, 0.016366199435929044
747.0, 0.015305078098277478
748.0, 0.016917368384895142
749.0, 0.015470189930040953
750.0, 0.017249969669393933
751.0, 0.01614405566765857
752.0, 0.011523845134872979
753.0, 0.016928181031375653
754.0, 0.018941123531013192
755.0, 0.016201279365201934
756.0, 0.014317316398271236
757.0, 0.023012854895038924
758.0, 0.016398373296277302
759.0, 0.019211017539291955
760.0, 0.023116516718888817
761.0, 0.022359888083003113
762.0, 0.020312929275604758
763.0, 0.021557295755616525
764.0, 0.01819705267039953
765.0, 0.014414915092388356
766.0, 0.022674205321711674
767.0, 0.01350486770756911
768.0, 0.013328282084689148
769.0, 0.015157652797005454
770.0, 0.012792014241676659
771.0, 0.010265870530345791
772.0, 0.011810458760548228
773.0, 0.009197476670888995
774.0, 0.0050953602651710615
775.0, 0.011114229994807953
776.0, 0.006779612001664888
777.0, 0.007993011766823644
778.0, 0.009667601236206148
779.0, 0.007334086568271417
780.0, 0.008703688132785613
781.0, 0.006723376188302436
782.0, 0.0051400599939141174
783.0, 0.004956478421682665
784.0, 0.005668143260141799
785.0, 0.007569694761513557
786.0, 0.005802891694762937
787.0, 0.005304868872791315
788.0, 0.009215336310152521
789.0, 0.004027992640006427
790.0, 0.00339663443634919
791.0, 0.004163654082646668
792.0, 0.004520609076466272
793.0, 0.002672785251280928
794.0, 0.0029468927127097454
795.0, 0.002196995496407308
796.0, 0.002038994309513115
797.0, 0.0033672725311158203
798.0, 0.0014111005080317983
799.0, 0.001981156590643447
800.0, 0.0017408568576178785
801.0, 0.0008013622214534176
802.0, 0.0013816653350354861
803.0, 0.005729815953469804
804.0, 0.005881525245977588
805.0, 0.00401561023008042
806.0, 0.002365727303624761
807.0, 0.0025129541859382275
808.0, 0.0008902585469706325
809.0, 0.000667886392709889
810.0, 0.0011970647855759269
811.0, 1.0348555692524198e-05
812.0, 0.0014995614037356599
813.0, 0.0026422830715569904
814.0, 0.003377514336156346
815.0, 0.0036909371171140667
816.0, 0.003547636768853939
817.0, 0.003956421794248331
818.0, 0.0037641657695269325
819.0, 0.00311358473569345
820.0, 0.002537982557284575
821.0, 0.002742587415010766
822.0, 0.0012322589824002176
823.0, 0.0012684754923686875
824.0, 0.00304429628622484
825.0, 0.0018271266247378824
826.0, 0.0008848673536565016
827.0, 0.0006192163131539788
828.0, 0.0012420609720229276
829.0, 0.0026213432341468212
830.0, 0.001606322271067472
831.0, 0.0023918567449522665
832.0, 0.0021209884417978486
833.0, 0.001346902715321739
834.0, 0.0036247756852681376
835.0, 0.00112204506495538
836.0, 0.00028964534707810686
837.0, 0.000635801797565215
838.0, 0.0012190251206923655
839.0, 0.00040147537396596555
840.0, 0.00378134330609472
841.0, 0.0037166897829364162
842.0, 0.0017874402283338327
843.0, 0.0029478851966242498
844.0, 0.0038389827695212695
845.0, 0.002241919051130002
846.0, 0.00091422847907972
847.0, 0.001128490942911596
848.0, 0.002319524053716492
849.0, 0.000801873543804213
850.0, 0.0006395544424149068
851.0, 0.0019008393275015112
852.0, 0.003732836737075542
853.0, 0.0021806070776097647
854.0, 0.0019588224381080345
855.0, 0.0050348798926956005
856.0, 0.00749628553033799
857.0, 0.0008940546342522194
858.0, 0.0010201134288107402
859.0, 0.0020646034288657
860.0, 0.003365834257809363
861.0, 0.00425783014013499
862.0, 0.003579874062986474
863.0, 0.0037697116590085186
864.0, 0.0020311982839591727
865.0, 0.0011402430997373252
866.0, 0.0038993388673360116
867.0, 0.0016647813020569512
868.0, 0.0031015794478585785
869.0, 0.003697070167679025
870.0, 0.0025794082112597806
871.0, 0.0011473636964539245
872.0, 0.001644015981210944
873.0, 0.0014678394449732107
874.0, 0.0019523485943861803
875.0, 0.0035115183862147194
876.0, 0.004255343604887643
877.0, 0.005061431698981991
878.0, 0.005149617367230832
879.0, 0.004613724198078519
880.0, 0.003629964619994548
881.0, 0.001332992743020461
882.0, 0.000947326350515301
883.0, 0.001294745007355685
884.0, 0.002282753054342661
885.0, 0.004369193011895393
886.0, 0.004312107843158862
887.0, 0.007038892851678244
888.0, 0.008795862176985057
889.0, 0.008287977292803733
890.0, 0.00842969184204538
891.0, 0.007799122914254241
892.0, 0.006712281753943652
893.0, 0.005349969223771078
894.0, 0.0037743424320071488
895.0, 0.0013423566239927662
896.0, 0.002181152382857322
897.0, 0.00289409865971038
898.0, 0.003427416955271104
899.0, 0.004854444458853977
900.0, 0.0073330542035303006
901.0, 0.008480848773545262
902.0, 0.009669653374112108
903.0, 0.010644934771330581
904.0, 0.009464775826746631
905.0, 0.012808532605626869
906.0, 0.014276972735720081
907.0, 0.014936027835286001
908.0, 0.014782719748496183
909.0, 0.010074421066703025
910.0, 0.00962473442285434
911.0, 0.011963258764835632
912.0, 0.013151258811134568
913.0, 0.010639220601717386
914.0, 0.013683469413328963
915.0, 0.009278483072808999
916.0, 0.005219762821986142
917.0, 0.0056351382947150966
918.0, 0.012631920630577682
919.0, 0.006701813645910312
920.0, 0.008816258245508904
921.0, 0.010645174792027616
922.0, 0.009745153425547683
923.0, 0.008332874455704496
924.0, 0.012652656215306859
925.0, 0.009403848952267205
926.0, 0.005530063660447053
927.0, 0.004878231934552207
928.0, 0.0052639663041647335
929.0, 0.004365927960449935
930.0, 0.0061385102160031735
931.0, 0.006438600133766699
932.0, 0.0028174580938660878
933.0, 0.0025664345806178735
934.0, 0.006874978492587237
935.0, 0.005210592576424331
936.0, 0.002324072277782793
937.0, 0.004907091059997785
938.0, 0.003128039183141775
939.0, 0.0026822501132543796
940.0, 0.0019672067368746906
941.0, 0.0021294370013444997
942.0, 0.005183360084352672
943.0, 0.0016646578652290886
944.0, 0.0036098172536405734
945.0, 0.006340733376145686
946.0, 0.006762979162862783
947.0, 0.002598756076957053
948.0, 0.0015446999701880866
949.0, 0.0020346849904857313
950.0, 0.0036393432969519827
951.0, 0.004541285412979394
952.0, 0.000419125186527257
953.0, 0.002103493548198501
954.0, 0.0034079453940374666
955.0, 0.002983681445015533
956.0, 0.001049089834751941
957.0, 0.0009072816652650545
958.0, 0.0018010391377839916
959.0, 0.0027076557401934423
960.0, 0.003309099338342043
961.0, 0.003404213786164567
962.0, 0.00280276817833261
963.0, 0.004313225430200467
964.0, 0.0036335972470059553
965.0, 0.002733102220448972
966.0, 0.004106849572295131
967.0, 0.0046784821807136796
968.0, 0.003382045237650645
969.0, 0.0017853317450036196
970.0, 0.0012433156901621204
971.0, 0.0029078607266643597
972.0, 0.006123459304598967
973.0, 0.0031953567602752337
974.0, 0.004066098520947289
975.0, 0.007032994245805141
976.0, 0.005207736287255465
977.0, 0.0011184757505967673
978.0, 0.007765246912503448
979.0, 0.010124556940743556
980.0, 0.0068987329949165965
981.0, 0.005769803729722268
982.0, 0.015728714667035994
983.0, 0.010460182261217732
984.0, 0.008532091086741469
985.0, 0.013725214291296558
986.0, 0.017289463475147475
987.0, 0.012434971921008425
988.0, 0.02083888961867091
989.0, 0.02513391778557172
990.0, 0.022822743862144855
991.0, 0.028022671536951718
992.0, 0.030885743838383252
993.0, 0.03471684436650963
994.0, 0.04158525616084553
995.0, 0.04899549197018564
996.0, 0.04794295779090107
997.0, 0.05734186603592781
998.0, 0.05518604766736044
999.0, 0.056547666486506463
1000.0, 0.06318116327395046
1001.0, 0.05335905730687941
1002.0, 0.05794595941179336
1003.0, 0.05669828743266214
1004.0, 0.05309996218294117
1005.0, 0.0504088486685753
1006.0, 0.04949717748114167
1007.0, 0.044591497177344355
1008.0, 0.04280761187010005
1009.0, 0.041389210814250406
1010.0, 0.0383654132000851
1011.0, 0.03433272806524388
1012.0, 0.03298638462829565
1013.0, 0.030322947267600348
1014.0, 0.026066245161227734
1015.0, 0.02244108662336288
1016.0, 0.02653565361401343
1017.0, 0.02490090575393529
1018.0, 0.020690125237360434
1019.0, 0.01866776787775474
1020.0, 0.020490733931985028
1021.0, 0.021444778201022464
1022.0, 0.015052886103085871
1023.0, 0.016742161941129336
1024.0, 0.017172901248168452
1025.0, 0.012784612711353574
1026.0, 0.015072374255309877
1027.0, 0.013521618825697178
1028.0, 0.01616294801545054
1029.0, 0.016694350154961162
1030.0, 0.012644393018621957
1031.0, 0.010319141448132856
1032.0, 0.012667044396832926
1033.0, 0.01491214191388827
1034.0, 0.014207407178368383
1035.0, 0.011261889681720878
1036.0, 0.01260187743718
1037.0, 0.013491678193168228
1038.0, 0.01552235270321896
1039.0, 0.01750890409739835
1040.0, 0.018773264389425455
1041.0, 0.01954999746136516
1042.0, 0.02066772234073397
1043.0, 0.02030194807136784
1044.0, 0.02045523102912094
1045.0, 0.02090985388012784
1046.0, 0.01851198993498068
1047.0, 0.017178733620486678
1048.0, 0.022689954037755013
1049.0, 0.02556586223844215
1050.0, 0.0264185702031759
1051.0, 0.03623266021656115
1052.0, 0.03915119163800948
1053.0, 0.037510784532990844
1054.0, 0.03753108399677532
1055.0, 0.04098116987788117
1056.0, 0.045899363971389696
1057.0, 0.05111010380747437
1058.0, 0.059396812419913896
1059.0, 0.06539391731345233
1060.0, 0.07112025817548329
1061.0, 0.08219686760024862
1062.0, 0.08775601596826671
1063.0, 0.09489111286990176
1064.0, 0.10081410942813072
1065.0, 0.10464436650488204
1066.0, 0.10677189894103221
1067.0, 0.11052556786548283
1068.0, 0.11149587162973018
1069.0, 0.11298352803179704
1070.0, 0.11457415069549572
1071.0, 0.11495026085629764
1072.0, 0.11455836243364662
1073.0, 0.10951322449245562
1074.0, 0.10952956153169091
1075.0, 0.11046648693505347
1076.0, 0.10608434779241928
1077.0, 0.09358987776192461
1078.0, 0.09447468815492933
1079.0, 0.08833834205075684
1080.0, 0.08065047712534382
1081.0, 0.0768157419245053
1082.0, 0.07343463851043178
1083.0, 0.06862412027507839
1084.0, 0.06340659245259259
1085.0, 0.058162286264819174
1086.0, 0.052769893594645435
1087.0, 0.046407950988759585
1088.0, 0.049200138582318816
1089.0, 0.04514133471537917
1090.0, 0.039732869281953916
1091.0, 0.034725764683441566
1092.0, 0.028092781078455958
1093.0, 0.03160017120882284
1094.0, 0.03185625488198456
1095.0, 0.02881060213985682
1096.0, 0.02526587310573435
1097.0, 0.025040794874127963
1098.0, 0.02461460510003943
1099.0, 0.026952829215742175
1100.0, 0.02403317330868691
1101.0, 0.020891962120782842
1102.0, 0.02390069363463057
1103.0, 0.023182576736271963
1104.0, 0.024766295960385404
1105.0, 0.018016677462026193
1106.0, 0.01390658531752235
1107.0, 0.01869792438642984
1108.0, 0.015473733096606306
1109.0, 0.01931840514642094
1110.0, 0.017374268715397476
1111.0, 0.014107788200939225
1112.0, 0.013531868164065416
1113.0, 0.016766018590045204
1114.0, 0.017427506468603603
1115.0, 0.015184491802486304
1116.0, 0.015341656237425323
1117.0, 0.018011747793884134
1118.0, 0.019047021422429908
1119.0, 0.014435411456967865
1120.0, 0.010020627868424193
1121.0, 0.011024902985317287
1122.0, 0.01509712392959277
1123.0, 0.017472563254089326
1124.0, 0.018199452216636238
1125.0, 0.011285088699448406
1126.0, 0.010361690849676992
1127.0, 0.011938623235283356
1128.0, 0.012592344109576908
1129.0, 0.01787249197591864
1130.0, 0.020095355622497934
1131.0, 0.01848440424205997
1132.0, 0.016243548617389626
1133.0, 0.015083653134411248
1134.0, 0.014500594961013663
1135.0, 0.020694652786174612
1136.0, 0.015750436158477595
1137.0, 0.016729249426893075
1138.0, 0.020771053877689884
1139.0, 0.016078139953524972
1140.0, 0.017102384678533582
1141.0, 0.016753286919369892
1142.0, 0.017105944714988372
1143.0, 0.0180709117002926
1144.0, 0.019751380483795832
1145.0, 0.024815576370529748
1146.0, 0.01967497314589855
1147.0, 0.020476719078764697
1148.0, 0.020026322059784787
1149.0, 0.016394410887178416
1150.0, 0.017626007122957688
1151.0, 0.013545578812926557
1152.0, 0.01686191615909495
1153.0, 0.014025656239998574
1154.0, 0.009308984585250403
1155.0, 0.014094340988327991
1156.0, 0.007800426054935633
1157.0, 0.0066246538823632895
1158.0, 0.006088793373903805
1159.0, 0.007046177026149239
1160.0, 0.009089650435689088
1161.0, 0.004902734090157209
1162.0, 0.006256543373943888
1163.0, 0.005403830360200347
1164.0, 0.005132630911417919
1165.0, 0.00617447350289986
1166.0, 0.006314777122001998
1167.0, 0.00918810974686368
1168.0, 0.007495054521818429
1169.0, 0.006575919757430765
1170.0, 0.006280158980157595
1171.0, 0.005054706333370231
1172.0, 0.007121966497303584
1173.0, 0.006176843168942359
1174.0, 0.008750382540093183
1175.0, 0.010848561975628732
1176.0, 0.00908578195551455
1177.0, 0.004183771046698481
1178.0, 0.010008754561819568
1179.0, 0.01226847425445873
1180.0, 0.012529508832695718
1181.0, 0.01360030530524323
1182.0, 0.017592531748486427
1183.0, 0.016610822822628858
1184.0, 0.015190717788686019
1185.0, 0.015079239764719445
1186.0, 0.017545192690578696
1187.0, 0.02093656716256455
1188.0, 0.017348890470036123
1189.0, 0.022071869959805868
1190.0, 0.020328293000427294
1191.0, 0.019722413506866855
1192.0, 0.020552538005926442
1193.0, 0.016800257293359686
1194.0, 0.012205006668448754
1195.0, 0.016134895237806677
1196.0, 0.020156669869248148
1197.0, 0.02157103363131157
1198.0, 0.021139446841191595
1199.0, 0.024219717966986718
1200.0, 0.017792220858415232
1201.0, 0.02205469193382351
1202.0, 0.021349649751404732
1203.0, 0.016470620034031092
1204.0, 0.022714121805586844
1205.0, 0.021462422513522147
1206.0, 0.02342608311100086
1207.0, 0.02006045105225317
1208.0, 0.015736360276484996
1209.0, 0.016482699357718518
1210.0, 0.021953424795993774
1211.0, 0.01992726081003042
1212.0, 0.01984953056604259
1213.0, 0.02002269962119626
1214.0, 0.02046047697411999
1215.0, 0.02256444188977355
1216.0, 0.021030700130817318
1217.0, 0.027015347561790283
1218.0, 0.025715336251502845
1219.0, 0.022712822661505608
1220.0, 0.024747391072696474
1221.0, 0.028397197176652025
1222.0, 0.02488019772043601
1223.0, 0.02821518394896628
1224.0, 0.03466689867872571
1225.0, 0.0375611471959767
1226.0, 0.03164033586795095
1227.0, 0.029639185136237964
1228.0, 0.03232404898144193
1229.0, 0.03284996568393347
1230.0, 0.031966784115993185
1231.0, 0.030908142753965948
1232.0, 0.029121891351671432
1233.0, 0.03313578299439068
1234.0, 0.033135327011607554
1235.0, 0.029934798208303217
1236.0, 0.027712426210945114
1237.0, 0.02915576667975924
1238.0, 0.02408105722853994
1239.0, 0.027622350881343728
1240.0, 0.0266721721417198
1241.0, 0.022848190367668293
1242.0, 0.018711272649541737
1243.0, 0.015755607548656268
1244.0, 0.01553615671984105
1245.0, 0.01565283886254778
1246.0, 0.01422314171843657
1247.0, 0.011715786610403279
1248.0, 0.010565177268313956
1249.0, 0.015810561579682237
1250.0, 0.010417705988664509
1251.0, 0.00988126412008234
1252.0, 0.00975922674894051
1253.0, 0.007828155345884533
1254.0, 0.005034966303688736
1255.0, 0.008149658791317743
1256.0, 0.004266950238761489
1257.0, 0.006967753450482674
1258.0, 0.010334582386281037
1259.0, 0.008647719624522116
1260.0, 0.001584023455014215
1261.0, 0.0057047048872160425
1262.0, 0.0054520123394134964
1263.0, 0.00501204802531302
1264.0, 0.00544169974807683
1265.0, 0.0067176061119679185
1266.0, 0.008837465500137733
1267.0, 0.0019657927572952487
1268.0, 0.0032541934628016675
1269.0, 0.004621883628450292
1270.0, 0.005207501767327958
1271.0, 0.00749719150653568
1272.0, 0.005780043448522783
1273.0, 0.0018018662573512164
1274.0, 0.0013360413398349265
1275.0, 0.0014009996340830864
1276.0, 0.0008475148152476532
1277.0, 0.0014457084077326777
1278.0, 0.003303293289849018
1279.0, 0.002953785075342536
1280.0, 0.00369168918947152
1281.0, 0.0035871645673341787
1282.0, 0.0019310063052549507
1283.0, 0.0019606605904619605
1284.0, 0.0016345551244001078
1285.0, 0.0008987426275085528
1286.0, 0.0006461252777303967
1287.0, 0.000852157020487597
1288.0, 0.0011919416555742637
1289.0, 0.001639283347597148
1290.0, 0.001613802173006156
1291.0, 0.002550027579160666
1292.0, 0.002386559590284233
1293.0, 0.0012695343891924327
1294.0, 0.0007749363726024686
1295.0, 0.0019753116266919704
1296.0, 0.0038559530049038964
1297.0, 0.0020466364722182663
1298.0, 0.0016064086384483343
1299.0, 0.0029169955303843262
1300.0, 0.002197718478704737
1301.0, 0.003683247776902463
1302.0, 0.004077136900279128
1303.0, 0.0024477615629837474
1304.0, 0.0018850757721857914
1305.0, 0.0027596237298027804
1306.0, 0.0016501636445967961
1307.0, 0.0020078093345103783
1308.0, 0.0015456903614106507
1309.0, 0.002376336890707155
1310.0, 0.0025874145974839062
1311.0, 0.0014745408779917423
1312.0, 0.0020047986504108392
1313.0, 0.0051378032464861785
1314.0, 0.004608793092090043
1315.0, 0.0030915991890386406
1316.0, 0.0028566196414672347
1317.0, 0.0038325988939173746
1318.0, 0.001689038191958326
1319.0, 0.001935665838296548
1320.0, 0.0023743985442761686
1321.0, 0.0032388336505425486
1322.0, 0.0033882162906930277
1323.0, 0.0026687451364162864
1324.0, 0.005045948081589935
1325.0, 0.004817591254115547
1326.0, 0.002828620757192028
1327.0, 0.0031180360448532737
1328.0, 0.0037504023771181673
1329.0, 0.0015331222197665726
1330.0, 0.00035327779166610565
1331.0, 0.004200470503799928
1332.0, 0.002536459371461419
1333.0, 0.0014936872485390449
1334.0, 0.0032363154942559227
1335.0, 0.00527556227157948
1336.0, 0.0005830444238982798
1337.0, 0.005774440888651919
1338.0, 0.004580868904940689
1339.0, 0.00462874575644901
1340.0, 0.007311275497547875
1341.0, 0.008583824897699589
1342.0, 0.006666613264738723
1343.0, 0.006308206979035848
1344.0, 0.00817821647128491
1345.0, 0.008803991661014603
1346.0, 0.009802539373976134
1347.0, 0.014291944814787539
1348.0, 0.013732155998781937
1349.0, 0.006311383653039293
1350.0, 0.010421057723898392
1351.0, 0.012776001897420532
1352.0, 0.010586847921335456
1353.0, 0.010883796186526164
1354.0, 0.015389908907803364
1355.0, 0.006228242896093559
1356.0, 0.006755055415673229
1357.0, 0.011906164368568705
1358.0, 0.014185292523916721
1359.0, 0.010395439162667268
1360.0, 0.012603584811697
1361.0, 0.008476294123640033
1362.0, 0.0075518468550879025
1363.0, 0.010615094116851465
1364.0, 0.013638543640784902
1365.0, 0.01175807036912937
1366.0, 0.007783486922824167
1367.0, 0.013332923398568265
1368.0, 0.010586781079544274
1369.0, 0.0077685379696813255
1370.0, 0.00988019253717816
1371.0, 0.0152233315339456
1372.0, 0.012815271087739416
1373.0, 0.012632309667076378
1374.0, 0.014814667725047888
1375.0, 0.015213192844314776
1376.0, 0.013806346025016191
1377.0, 0.013012343297813134
1378.0, 0.014130478385670284
1379.0, 0.021141197537070087
1380.0, 0.020698168028423145
1381.0, 0.017347122316223772
1382.0, 0.013473109016246364
1383.0, 0.011223846348559911
1384.0, 0.01571960697376336
1385.0, 0.018183030134256834
1386.0, 0.01911428949592095
1387.0, 0.015000243661645925
1388.0, 0.011946180469206634
1389.0, 0.013857601096703389
1390.0, 0.012664172872547438
1391.0, 0.011240219961957523
1392.0, 0.01419823426693876
1393.0, 0.011727280566640689
1394.0, 0.00984713708551525
1395.0, 0.013529494977044792
1396.0, 0.017233808114142178
1397.0, 0.010670304251734153
1398.0, 0.018557018740328328
1399.0, 0.016887260162307252
1400.0, 0.014354210303745195
1401.0, 0.015081456143299693
1402.0, 0.010767256961523869
1403.0, 0.017168900478670007
1404.0, 0.013197453421886888
1405.0, 0.013411232664276625
1406.0, 0.01384809621122786
1407.0, 0.013437292149257533
1408.0, 0.015650154718254025
1409.0, 0.019820888712363004
1410.0, 0.011552872649018346
1411.0, 0.011015928322494956
1412.0, 0.010275526830899892
1413.0, 0.010572743494798264
1414.0, 0.015899434746619923
1415.0, 0.015345593794535544
1416.0, 0.013967833486800665
1417.0, 0.01246314702077723
1418.0, 0.011627602323769077
1419.0, 0.01089141952588095
1420.0, 0.010166338155346651
1421.0, 0.01125022924007559
1422.0, 0.010102730717524629
1423.0, 0.011191147750857392
1424.0, 0.01262983270586955
1425.0, 0.012494850249903018
1426.0, 0.01146080926791243
1427.0, 0.012465188152262044
1428.0, 0.010276492982086218
1429.0, 0.010610294723505855
1430.0, 0.007358253017111282
1431.0, 0.00875669918386686
1432.0, 0.013568305016966669
1433.0, 0.01341257404361331
1434.0, 0.012395253155440576
1435.0, 0.019224694247180034
1436.0, 0.017415465135154927
1437.0, 0.015171648582365641
1438.0, 0.014786577820306509
1439.0, 0.014620438007308941
1440.0, 0.014214390192020759
1441.0, 0.01733404674315115
1442.0, 0.017232366256452383
1443.0, 0.017440956414527392
1444.0, 0.015207458069810676
1445.0, 0.012612647474426215
1446.0, 0.01761626136017485
1447.0, 0.013560358775086653
1448.0, 0.01715296263409157
1449.0, 0.015914818946972418
1450.0, 0.015758747131218474
1451.0, 0.017449391324028347
1452.0, 0.0170633074908894
1453.0, 0.017396622589174512
1454.0, 0.02080425776904412
1455.0, 0.014595568990618632
1456.0, 0.013742505207889898
1457.0, 0.01740433432409421
1458.0, 0.018075719216940532
1459.0, 0.012829466889658346
1460.0, 0.01822602953417109
1461.0, 0.014162417223384006
1462.0, 0.012304542908341765
1463.0, 0.014946418300104411
1464.0, 0.016648960455716347
1465.0, 0.012623253801169923
1466.0, 0.024399803822940568
1467.0, 0.013252907892372193
1468.0, 0.012454333275655965
1469.0, 0.014857249141860304
1470.0, 0.01722688497429105
1471.0, 0.01729155841269048
1472.0, 0.008648056879967794
1473.0, 0.018600424217973907
1474.0, 0.018964226261320223
1475.0, 0.013331350473203506
1476.0, 0.010765936035120306
1477.0, 0.01435629763207576
1478.0, 0.0182737767040642
1479.0, 0.012916496089752974
1480.0, 0.019028826951585122
1481.0, 0.014809904191002424
1482.0, 0.013214826055957687
1483.0, 0.01489487520655272
1484.0, 0.014853990354487855
1485.0, 0.01384455750974226
1486.0, 0.008224646717529562
1487.0, 0.008080675374253173
1488.0, 0.010602115164202076
1489.0, 0.01022531053596184
1490.0, 0.007921321733491946
1491.0, 0.009631729356978605
1492.0, 0.012997342255764557
1493.0, 0.01342210304382492
1494.0, 0.014213629731582505
1495.0, 0.015195549949382818
1496.0, 0.011082133577597852
1497.0, 0.005098609103049529
1498.0, 0.01321091985613316
1499.0, 0.005038593952964909
1500.0, 0.006454650671923943
1501.0, 0.005380070177166153
1502.0, 0.0026313076712967502
1503.0, 0.0024231632573898714
1504.0, 0.006677567671333204
1505.0, 0.008979781597161162
1506.0, 0.00483125642988861
1507.0, 0.005641383160328313
1508.0, 0.005355447056096107
1509.0, 0.0027530060976530394
1510.0, 3.004102284846734e-06
1511, 0.0
1512, 0.0
1513, 0.0
1514, 0.0
1515, 0.0
1516, 0.0
1517, 0.0
1518, 0.0
1519, 0.0
1520, 0.0
1521, 0.0
1522, 0.0
1523, 0.0
1524, 0.0
1525, 0.0
1526, 0.0
1527, 0.0
1528, 0.0
1529, 0.0
1530, 0.0
1531, 0.0
1532, 0.0
1533, 0.0
1534, 0.0
1535, 0.0
1536, 0.0
1537, 0.0
1538, 0.0
1539, 0.0
1540, 0.0
1541, 0.0
1542, 0.0
1543, 0.0
1544, 0.0
1545, 0.0
1546, 0.0
1547, 0.0
1548, 0.0
1549, 0.0
1550, 0.0
1551, 0.0
1552, 0.0
1553, 0.0
1554, 0.0
1555, 0.0
1556, 0.0
1557, 0.0
1558, 0.0
1559, 0.0
1560, 0.0
1561, 0.0
1562, 0.0
1563, 0.0
1564, 0.0
1565, 0.0
1566, 0.0
1567, 0.0
1568, 0.0
1569, 0.0
1570, 0.0
1571, 0.0
1572, 0.0
1573, 0.0
1574, 0.0
1575, 0.0
1576, 0.0
1577, 0.0
1578, 0.0
1579, 0.0
1580, 0.0
1581, 0.0
1582, 0.0
1583, 0.0
1584, 0.0
1585, 0.0
1586, 0.0
1587, 0.0
1588, 0.0
1589, 0.0
1590, 0.0
1591, 0.0
1592, 0.0
1593, 0.0
1594, 0.0
1595, 0.0
1596, 0.0
1597, 0.0
1598, 0.0
1599, 0.0
