30, 0.0
31, 0.0
32, 0.0
33, 0.0
34, 0.0
35, 0.0
36, 0.0
37, 0.0
38, 0.0
39, 0.0
40, 0.0
41, 0.0
42, 0.0
43, 0.0
44, 0.0
45, 0.0
46, 0.0
47, 0.0
48, 0.0
49, 0.0
50, 0.0
51, 0.0
52, 0.0
53, 0.0
54, 0.0
55, 0.0
56, 0.0
57, 0.0
58, 0.0
59, 0.0
60, 0.0
61, 0.0
62, 0.0
63, 0.0
64, 0.0
65, 0.0
66, 0.0
67, 0.0
68, 0.0
69, 0.0
70, 0.0
71, 0.0
72, 0.0
73, 0.0
74, 0.0
75, 0.0
76, 0.0
77, 0.0
78, 0.0
79, 0.0
80, 0.0
81, 0.0
82, 0.0
83, 0.0
84, 0.0
85, 0.0
86, 0.0
87, 0.0
88, 0.0
89, 0.0
90, 0.0
91, 0.0
92, 0.0
93, 0.0
94, 0.0
95, 0.0
96, 0.0
97, 0.0
98, 0.0
99, 0.0
100, 0.0
101, 0.0
102, 0.0
103, 0.0
104.0, 2.4836782071453324e-05
105.0, 0.00016281890469063316
106.0, 0.0010619641094612264
107.0, 0.0030242731404994984
108.0, 0.006279320894429638
109.0, 0.00624818122527558
110.0, 0.00909889952264303
111.0, 0.015056225595932424
112.0, 0.02549865091357876
113.0, 0.033629806153595954
114.0, 0.03501937198430806
115.0, 0.028546767348346762
116.0, 0.023780797036908097
117.0, 0.020897219431901714
118.0, 0.019919255889582068
119.0, 0.021470495839898993
120.0, 0.02498799942916776
121.0, 0.029360227442573626
122.0, 0.03401791000596866
123.0, 0.03586408075957704
124.0, 0.03872542795796481
125.0, 0.040357894738108115
126.0, 0.03859351286392015
127.0, 0.04256810456067435
128.0, 0.04461378950906656
129.0, 0.04423365083979454
130.0, 0.04114157490817164
131.0, 0.0397041993297975
132.0, 0.03665991661331451
133.0, 0.030268115376664982
134.0, 0.02516518132389345
135.0, 0.021176101322616582
136.0, 0.01787017375938107
137.0, 0.014471897374327157
138.0, 0.01322305076399037
139.0, 0.012824894412939271
140.0, 0.012819950022133111
141.0, 0.0108642575446996
142.0, 0.012007410085560727
143.0, 0.013431271265310794
144.0, 0.011936865482981271
145.0, 0.012604291179872832
146.0, 0.014451709968349158
147.0, 0.016575496990793432
148.0, 0.014817588734654951
149.0, 0.013699506625231877
150.0, 0.0123302900997268
151.0, 0.010153127760705321
152.0, 0.008677387051123303
153.0, 0.008296187331617614
154.0, 0.008248567880942267
155.0, 0.006728614275924062
156.0, 0.006331155482921098
157.0, 0.0060656935471066625
158.0, 0.005893873208070034
159.0, 0.00907460364981953
160.0, 0.010010822555690769
161.0, 0.010455481625713565
162.0, 0.012272901446811561
163.0, 0.011153501786713994
164.0, 0.009946710173309137
165.0, 0.009183069646012232
166.0, 0.009982407963727395
167.0, 0.008019208347766323
168.0, 0.006403450331866034
169.0, 0.00670690328945838
170.0, 0.003213904652832613
171.0, 0.002328788389419271
172.0, 0.002564101160522902
173.0, 0.001277571593795847
174.0, 0.0016462457519263634
175.0, 0.004059696143154318
176.0, 0.008142297113896618
177.0, 0.00965923163700369
178.0, 0.014374535690675903
179.0, 0.020289824005674105
180.0, 0.0260694611537264
181.0, 0.03465630368371611
182.0, 0.04349583396911388
183.0, 0.053093606885855925
184.0, 0.06541156609432715
185.0, 0.0740449858110266
186.0, 0.08083961109455104
187.0, 0.08628379295942998
188.0, 0.09094425600439097
189.0, 0.09216748251606272
190.0, 0.09351198860181514
191.0, 0.09885816126262571
192.0, 0.10505030391903233
193.0, 0.11043598223648524
194.0, 0.1154801506739509
195.0, 0.12242688727731403
196.0, 0.12701560271321108
197.0, 0.12965002753138133
198.0, 0.13035761400262763
199.0, 0.12995876670433693
200.0, 0.12167932131813103
201.0, 0.10875220493007466
202.0, 0.09433542867680958
203.0, 0.08128120314971381
204.0, 0.0694452320420162
205.0, 0.05831299377689594
206.0, 0.045792480682445895
207.0, 0.039060119365479276
208.0, 0.03333801836817824
209.0, 0.026885314088799253
210.0, 0.027561887284880706
211.0, 0.025595529590434284
212.0, 0.023272946519784933
213.0, 0.023672695874525147
214.0, 0.025006429555055217
215.0, 0.026295040569394277
216.0, 0.028041772455464062
217.0, 0.03301948406268858
218.0, 0.0378173356212242
219.0, 0.04346319080637776
220.0, 0.05043233614312652
221.0, 0.057647466091605586
222.0, 0.0676988042504264
223.0, 0.07994204454006736
224.0, 0.0939935129365108
225.0, 0.10304082014387961
226.0, 0.11124105051129216
227.0, 0.11827489148248184
228.0, 0.1210942112649785
229.0, 0.12190666873744865
230.0, 0.12064229784535677
231.0, 0.11735787338736461
232.0, 0.11610270182265338
233.0, 0.11365820427269306
234.0, 0.11113291524972532
235.0, 0.10968357690778877
236.0, 0.11120600965689795
237.0, 0.11182804105332306
238.0, 0.11074097778608338
239.0, 0.10608107672591802
240.0, 0.0995525142851442
241.0, 0.09296603436737866
242.0, 0.08648317617080187
243.0, 0.07670934057471726
244.0, 0.0681450160623743
245.0, 0.06000582237814876
246.0, 0.05175394742517134
247.0, 0.045636355371442366
248.0, 0.0404044926878472
249.0, 0.035937117578831
250.0, 0.03219152674304411
251.0, 0.0330669658064044
252.0, 0.031716405675797095
253.0, 0.027760730744112463
254.0, 0.02602969635202775
255.0, 0.02737192175473651
256.0, 0.028057496447735954
257.0, 0.02636113041856166
258.0, 0.027761421653465936
259.0, 0.027916980593598283
260.0, 0.027505532538665427
261.0, 0.027274039492778852
262.0, 0.030502595569577847
263.0, 0.03350619726711438
264.0, 0.035526883932588
265.0, 0.035096208339876075
266.0, 0.037096520842282425
267.0, 0.039709046107956544
268.0, 0.042395367977729276
269.0, 0.044691578853948116
270.0, 0.0455983064418057
271.0, 0.04654872532616658
272.0, 0.0485000629258082
273.0, 0.05090409778498613
274.0, 0.05084864881516111
275.0, 0.04956594538480857
276.0, 0.04886845673089018
277.0, 0.04659754180626936
278.0, 0.044008206416218595
279.0, 0.04123000416103777
280.0, 0.03814666277264579
281.0, 0.03474798253612644
282.0, 0.031120203159565894
283.0, 0.027243507142164208
284.0, 0.022733035857425744
285.0, 0.019452774048125277
286.0, 0.01625652489687475
287.0, 0.012327501533788312
288.0, 0.012078516585402606
289.0, 0.011557808473138224
290.0, 0.010209040454343803
291.0, 0.007074098226618109
292.0, 0.007355133611333338
293.0, 0.008104232941693679
294.0, 0.008698328051628977
295.0, 0.008187981556053043
296.0, 0.009936660011428098
297.0, 0.011746820274058998
298.0, 0.01314371691540457
299.0, 0.01565555593689888
300.0, 0.01840660556065068
301.0, 0.02196373542500538
302.0, 0.02672488397481924
303.0, 0.03105359780024031
304.0, 0.032881363435875444
305.0, 0.03348946611055593
306.0, 0.03437824253098156
307.0, 0.033643369335504096
308.0, 0.03209715266637948
309.0, 0.03002864847893539
310.0, 0.027940670393869806
311.0, 0.025179836449702283
312.0, 0.022071377318240475
313.0, 0.01884120241147226
314.0, 0.016357702198870994
315.0, 0.01419909025029748
316.0, 0.012259778662470489
317.0, 0.010548139840570857
318.0, 0.009668857212602789
319.0, 0.008054987927752376
320.0, 0.006534988949021237
321.0, 0.005794954590650358
322.0, 0.004457445093677374
323.0, 0.003037488146260076
324.0, 0.002192767036404179
325.0, 0.003012330104317977
326.0, 0.002127977472468456
327.0, 0.0010960700311347968
328.0, 0.00035907237545041977
329.0, 0.000761088734314459
330.0, 0.0015715385116810083
331.0, 0.0015824241503247611
332.0, 0.0009829256606262251
333.0, 0.002406840463771271
334.0, 0.002835270209218805
335.0, 0.0022637993266995987
336.0, 0.0009277791130462762
337.0, 0.0026903545379785327
338.0, 0.0022232238670721197
339.0, 0.0019886767981648016
340.0, 0.003830683321283574
341.0, 0.004947952534167446
342.0, 0.004602034695828159
343.0, 0.0038154497574120006
344.0, 0.003904508754246502
345.0, 0.0023938956073705623
346.0, 0.0030963142373827608
347.0, 0.004705498086404469
348.0, 0.0038347093842670253
349.0, 0.003413476967809565
350.0, 0.002246689873624826
351.0, 0.0005985161175915187
352.0, 0.00017759178984101277
353.0, 0.0016728904405315223
354.0, 0.0018663156098418904
355.0, 0.00031163209797244586
356.0, 0.0005803969604027532
357.0, 0.0012811076702037344
358.0, 0.0020393661432320047
359.0, 0.002565802332900155
360.0, 0.00116024137785155
361.0, 0.0015965726046619443
362.0, 0.0026612161827725233
363.0, 0.003464580092450274
364.0, 0.001961935296141252
365.0, 0.002400900272037291
366.0, 0.0036673382393231863
367.0, 0.004461618605678582
368.0, 0.00349610811402889
369.0, 0.0030913808261468995
370.0, 0.0031399615098971173
371.0, 0.003259472425701675
372.0, 0.0023876268753983384
373.0, 0.0028702960849927937
374.0, 0.003835795585685512
375.0, 0.002037701473149497
376.0, 0.0013416087118047913
377.0, 0.0012484845692936216
378.0, 0.0013477668887771541
379.0, 0.0002895005720112444
380.0, 0.000125561422125558
381.0, 0.0009437469681052753
382.0, 0.00230467149250594
383.0, 0.0007766040958791877
384.0, 0.0006554706424741479
385.0, 0.0007763938934854983
386.0, 0.0007073390930554902
387.0, 0.0017392340725937826
388.0, 0.002217231496176203
389.0, 0.002278740257792543
390.0, 0.0019860042858649454
391.0, 0.001120821623964637
392.0, 0.0011826898021328187
393.0, 0.002047320915413781
394.0, 0.003646756688066451
395.0, 0.0031092028895566607
396.0, 0.0026653849250842672
397.0, 0.0020510916299377947
398.0, 0.0008726017786473137
399.0, 0.0017482873672163108
400.0, 0.0018738477163032124
401.0, 0.0013933940725205476
402.0, 0.0007720705519096318
403.0, 0.0004614926437136198
404.0, 0.0004857903522712335
405.0, 0.0005939654312041315
406.0, 0.00020106275661517512
407.0, 0.00011268468467613924
408.0, 0.0007415527741038645
409.0, 0.0014707736454371667
410.0, 0.00020333200362757553
411.0, 0.0007353159026450618
412.0, 0.0012743383736731426
413.0, 0.001379988910411369
414.0, 0.0008156212141885881
415.0, 0.0005981492685641261
416.0, 0.0006581546462704844
417.0, 0.0010030849971393312
418.0, 0.0017612954788767273
419.0, 0.002915837843519532
420.0, 0.004155624618400718
421.0, 0.005113790209120711
422.0, 0.0039511128488925705
423.0, 0.004919613595545544
424.0, 0.004972116723715961
425.0, 0.0032420656366955623
426.0, 0.00513944153091643
427.0, 0.003655333161320424
428.0, 0.0026503462736587684
429.0, 0.004089363794167559
430.0, 0.005395555908781109
431.0, 0.005697703886502439
432.0, 0.006141534588960496
433.0, 0.007357763146381239
434.0, 0.0064917974131705
435.0, 0.00775899657868742
436.0, 0.008828310064934035
437.0, 0.007996504114597165
438.0, 0.00981835426145203
439.0, 0.011012645963796561
440.0, 0.012497196575871936
441.0, 0.015091792010558009
442.0, 0.016087172824010766
443.0, 0.017490407274560228
444.0, 0.019268311509405767
445.0, 0.021396362152695303
446.0, 0.0234301388150417
447.0, 0.02812360051599668
448.0, 0.03246083012802929
449.0, 0.03288534920068336
450.0, 0.03900982229751043
451.0, 0.042130241568049
452.0, 0.04375909811360018
453.0, 0.04604921203250116
454.0, 0.0458306814872849
455.0, 0.046706082628810854
456.0, 0.04773414009865609
457.0, 0.04742012718365065
458.0, 0.04461923113879304
459.0, 0.042872611033333834
460.0, 0.04151190449394759
461.0, 0.039302123503333126
462.0, 0.03417457010839729
463.0, 0.030406287114000223
464.0, 0.02717104997870689
465.0, 0.022801961283945973
466.0, 0.023602215711964362
467.0, 0.0229168492059793
468.0, 0.021312641369251654
469.0, 0.020398387481508296
470.0, 0.01890520830259508
471.0, 0.018044203981361542
472.0, 0.017114741946012618
473.0, 0.014798573887598096
474.0, 0.015473706456125627
475.0, 0.014800633045992547
476.0, 0.014172414991840167
477.0, 0.01647677739692403
478.0, 0.013967883171754387
479.0, 0.013536841718133708
480.0, 0.014611334340286435
481.0, 0.015442837846083812
482.0, 0.015961663087704026
483.0, 0.015398203333196999
484.0, 0.01490696574994452
485.0, 0.016471301297019285
486.0, 0.01557967941312163
487.0, 0.01628023586221795
488.0, 0.018051146709313244
489.0, 0.019684950466888576
490.0, 0.019324962641211196
491.0, 0.01880213736240913
492.0, 0.018794788808607958
493.0, 0.02016439998997281
494.0, 0.020310645559746696
495.0, 0.020713787977121336
496.0, 0.021500070092674278
497.0, 0.022749878422710642
498.0, 0.02339282323519463
499.0, 0.024905314103441233
500.0, 0.02700933722472895
501.0, 0.029277272819950805
502.0, 0.03131446818311319
503.0, 0.03354439824824483
504.0, 0.0357105547106501
505.0, 0.037498643669150594
506.0, 0.04039501932639767
507.0, 0.04194817031908413
508.0, 0.04326172754285843
509.0, 0.045527197246031756
510.0, 0.0477917155929477
511.0, 0.05021599520094387
512.0, 0.05353679579395297
513.0, 0.058348246580708515
514.0, 0.059664622711554496
515.0, 0.0632748902377861
516.0, 0.06627289770515454
517.0, 0.06647344844198746
518.0, 0.06896213342570966
519.0, 0.07355144489392963
520.0, 0.07832822686047973
521.0, 0.08175963224068596
522.0, 0.0808343089106758
523.0, 0.07983241726872066
524.0, 0.08134492919700044
525.0, 0.0862052338495465
526.0, 0.08636315016614765
527.0, 0.08722718290753143
528.0, 0.08884296313983055
529.0, 0.09135980494749522
530.0, 0.0956701199737716
531.0, 0.09470561937474653
532.0, 0.09378239861307965
533.0, 0.09433023595805945
534.0, 0.09220249544447409
535.0, 0.09541668569515845
536.0, 0.09646419765909967
537.0, 0.09417373423952488
538.0, 0.09415581097172854
539.0, 0.0904160548237046
540.0, 0.0890911853473411
541.0, 0.0905706264535757
542.0, 0.09097810597250286
543.0, 0.09108285009915151
544.0, 0.0903126633842525
545.0, 0.08736637370535709
546.0, 0.07910964636538845
547.0, 0.08110279562113641
548.0, 0.07843369814918347
549.0, 0.07222261806803103
550.0, 0.06848362700573067
551.0, 0.06570013240691945
552.0, 0.06380579836290798
553.0, 0.06123179945771857
554.0, 0.05564185227294929
555.0, 0.056034602558583405
556.0, 0.05392227142658444
557.0, 0.05285922683507529
558.0, 0.057139216171457605
559.0, 0.05635078807791526
560.0, 0.0577887260947869
561.0, 0.06033379995668133
562.0, 0.06316980903058186
563.0, 0.0698666694010273
564.0, 0.08022756317825393
565.0, 0.09061601381313954
566.0, 0.09909788976423238
567.0, 0.10915473924981654
568.0, 0.11742520892026356
569.0, 0.11963322283982478
570.0, 0.11585307673193736
571.0, 0.11820940430812109
572.0, 0.1093951353867246
573.0, 0.09944812521116522
574.0, 0.09067496435375633
575.0, 0.07988375743921754
576.0, 0.06644120698312209
577.0, 0.05813030975005482
578.0, 0.053334553841436164
579.0, 0.04379398532864879
580.0, 0.03931412450971682
581.0, 0.03379138975578576
582.0, 0.028798832783204064
583.0, 0.02838860862270053
584.0, 0.02614410072350226
585.0, 0.024416713944172923
586.0, 0.022879461377962016
587.0, 0.020988374690551783
588.0, 0.01888315303538262
589.0, 0.016782302620087123
590.0, 0.015928075138068223
591.0, 0.016946673803565213
592.0, 0.013649069814940006
593.0, 0.013546246548735217
594.0, 0.015083365187102555
595.0, 0.016607826083854825
596.0, 0.01234753734885326
597.0, 0.012669331944014253
598.0, 0.014295065573418596
599.0, 0.015765817491865397
600.0, 0.01583126442698583
601.0, 0.015956203203603702
602.0, 0.013167338895476688
603.0, 0.010093635321872336
604.0, 0.01473220400119506
605.0, 0.013666597148335801
606.0, 0.013483284566537546
607.0, 0.01481652980573792
608.0, 0.017526651734994746
609.0, 0.01415067345030985
610.0, 0.01440851078502729
611.0, 0.0156337107951971
612.0, 0.015105070620748989
613.0, 0.01829647205634974
614.0, 0.01957090241097809
615.0, 0.019516356277200605
616.0, 0.018948769407380776
617.0, 0.02146625978992366
618.0, 0.02280430145464676
619.0, 0.024772368932724987
620.0, 0.02724906887601597
621.0, 0.027062672961056786
622.0, 0.02584478402278445
623.0, 0.029046331008971808
624.0, 0.03434813368553116
625.0, 0.03391834040053429
626.0, 0.033264983650900436
627.0, 0.03244463570181267
628.0, 0.03189753259869719
629.0, 0.03218990208737939
630.0, 0.02936078244411675
631.0, 0.023037941220305478
632.0, 0.018023067435636697
633.0, 0.017864616455821564
634.0, 0.018177642973262305
635.0, 0.016825118817915936
636.0, 0.016567897913262436
637.0, 0.01748929825172531
638.0, 0.013426994538694708
639.0, 0.014599284166103945
640.0, 0.01593237713462348
641.0, 0.016933880252126714
642.0, 0.01963996989121063
643.0, 0.02036396090950186
644.0, 0.01987246626029132
645.0, 0.020062672186479873
646.0, 0.02349275153484513
647.0, 0.023341298757126996
648.0, 0.02396815045487413
649.0, 0.023253405696153372
650.0, 0.019964656920095702
651.0, 0.02073231679275563
652.0, 0.018913608711720473
653.0, 0.018835850939854543
654.0, 0.020721049865024613
655.0, 0.0166454804162018
656.0, 0.01604709569801393
657.0, 0.013469700063469944
658.0, 0.010143321386469423
659.0, 0.011635384728669602
660.0, 0.008174122178495731
661.0, 0.007062838360043266
662.0, 0.006729482106972554
663.0, 0.0045898161977629024
664.0, 0.0026866590773918612
665.0, 0.0033725317460350317
666.0, 0.004413022762079444
667.0, 0.004321171922209306
668.0, 0.0031438156069737797
669.0, 0.0025484810710954485
670.0, 0.0022183634127961203
671.0, 0.00219899803612186
672.0, 0.0029605393901250593
673.0, 0.0028559337688593197
674.0, 0.0018177899360335825
675.0, 0.0013563310417020109
676.0, 0.003764073180188023
677.0, 0.0021616588254984186
678.0, 0.000824896318860537
679.0, 0.0006577730348566213
680.0, 0.002070512823492152
681.0, 0.002588010756405935
682.0, 0.002161673866186069
683.0, 0.0012333333651930163
684.0, 0.0006885337454813078
685.0, 0.0031513026612421877
686.0, 0.0017553142246801421
687.0, 0.001103367408536635
688.0, 0.0012102161788400511
689.0, 0.0007572548914947218
690.0, 0.0019629056503637564
691.0, 0.0017392049527814022
692.0, 0.0014734352978000586
693.0, 0.0022477247021061636
694.0, 0.0016751959131449828
695.0, 0.0025103258834898324
696.0, 0.002951232086137975
697.0, 0.0023681362196645065
698.0, 0.001182524224545792
699.0, 0.0023426230723318092
700.0, 0.0023333325680059353
701.0, 0.0017921791188955701
702.0, 0.0027210367016208847
703.0, 0.001577081530779632
704.0, 0.0007482009231749254
705.0, 0.0004313751071730827
706.0, 0.0007068506393118528
707.0, 0.0013831253041192884
708.0, 0.0014235175722154003
709.0, 0.0011528157166642546
710.0, 0.0007646209745344827
711.0, 0.0004925764476085156
712.0, 0.0017534892276840684
713.0, 0.0027502026968443233
714.0, 0.0028608398196835905
715.0, 0.0016467390665185194
716.0, 0.0043087092719217256
717.0, 0.0033350752933406307
718.0, 0.0014086396001358882
719.0, 0.0005339157140698373
720.0, 0.0020188977826119787
721.0, 0.0031846304523737916
722.0, 0.0033993973127822573
723.0, 0.0033134564372915933
724.0, 0.004798364490273016
725.0, 0.003281198182540022
726.0, 0.002977490913138173
727.0, 0.0027945943433704333
728.0, 0.0014357284853607822
729.0, 0.0005919745589199527
730.0, 0.0036674151802161626
731.0, 0.0038101378808392595
732.0, 0.0007515280281475019
733.0, 0.004877231355489614
734.0, 0.0032301545025722675
735.0, 0.002060153606085059
736.0, 0.0020241858218728974
737.0, 0.0025922053200790663
738.0, 0.0023650202906490953
739.0, 0.0011524412616034474
740.0, 0.0017099927702328532
741.0, 0.004510612945492935
742.0, 0.0015911143830846922
743.0, 0.004168861882231756
744.0, 0.003760157044003424
745.0, 0.0007113972011057047
746.0, 0.00023864142778468153
747.0, 0.0035157305948436317
748.0, 0.0048407926595016235
749.0, 0.004002590466867519
750.0, 0.0020436841464493744
751.0, 0.007938118917135611
752.0, 0.004510644629996948
753.0, 0.0025846594046371
754.0, 0.004198426560192984
755.0, 0.004460256492012874
756.0, 0.00427009477755803
757.0, 0.004506386303597085
758.0, 0.004258410488351694
759.0, 0.0026231454880405163
760.0, 0.0021496310929492233
761.0, 0.0021429414742904964
762.0, 0.003677375029615154
763.0, 0.005739919080949143
764.0, 0.0033037940839848014
765.0, 0.004824972112401252
766.0, 0.006507002337555978
767.0, 0.00681889299478391
768.0, 0.004650947866704401
769.0, 0.0031949621170839263
770.0, 0.006483862574698617
771.0, 0.006585737600927496
772.0, 0.0023398389251654563
773.0, 0.005087956673136114
774.0, 0.0031811443210697224
775.0, 0.004260945980214963
776.0, 0.00559543626753338
777.0, 0.001970946899463275
778.0, 0.0005132648261672343
779.0, 0.0012173254315854928
780.0, 0.0015000345081168458
781.0, 0.0007623125269865103
782.0, 0.0024998757792859235
783.0, 0.005097987668784017
784.0, 0.003619728177959952
785.0, 0.001223105389100474
786.0, 0.0033703329390245007
787.0, 0.000926993739475151
788.0, 0.000850444282807501
789.0, 0.0028214128047141266
790.0, 0.005054748986867024
791.0, 0.0011352938622605454
792.0, 0.0036991759080273134
793.0, 0.003361157635101823
794.0, 0.0014163272238225868
795.0, 0.001750792170045491
796.0, 0.004723544696717472
797.0, 0.002763378686247606
798.0, 0.0011182854928641283
799.0, 0.002436514127370189
800.0, 0.006397860349332658
801.0, 0.002373675023965533
802.0, 0.003184415140796349
803.0, 0.0047213115603908715
804.0, 0.0003338113676250121
805.0, 0.00207941020285318
806.0, 0.0017612793259233644
807.0, 0.0009126426043651928
808.0, 0.0010631457763326244
809.0, 0.004785222024803678
810.0, 0.0019608364418746004
811.0, 0.001806781259324924
812.0, 0.004073848982159227
813.0, 0.006716717853409009
814.0, 0.0015701896029999799
815.0, 0.0049674185777761224
816.0, 0.007397398456032786
817.0, 0.0071280888009389864
818.0, 0.008383696568458082
819.0, 0.006122544488373081
820.0, 0.004659792259676368
821.0, 0.005127873147738757
822.0, 0.007364758346280402
823.0, 0.005407268149811371
824.0, 0.0071270978665409985
825.0, 0.007719420500105745
826.0, 0.006350851600088723
827.0, 0.0038995605071119018
828.0, 0.011471589695304688
829.0, 0.007851449126061292
830.0, 0.004571737733406811
831.0, 0.007960528899436574
832.0, 0.01218204362230166
833.0, 0.007054494332990939
834.0, 0.008450215206408481
835.0, 0.011916246673809703
836.0, 0.00863899494909303
837.0, 0.009156423493465675
838.0, 0.010022487751468282
839.0, 0.010777369510175326
840.0, 0.011487265380009265
841.0, 0.01290300771334192
842.0, 0.011635225531788126
843.0, 0.010000196052928763
844.0, 0.011129160385739904
845.0, 0.015738485786270327
846.0, 0.009814131208671745
847.0, 0.01256543449853949
848.0, 0.013005501764922933
849.0, 0.009516306219252438
850.0, 0.004588424436043105
851.0, 0.015506643732844515
852.0, 0.01478978054087428
853.0, 0.013166778313717062
854.0, 0.01524047558351632
855.0, 0.01403093435720672
856.0, 0.01438351290527671
857.0, 0.019243913093879173
858.0, 0.024706707168392284
859.0, 0.026224499050115105
860.0, 0.025258429401040845
861.0, 0.023616816192722146
862.0, 0.02042312886507394
863.0, 0.018113775792508034
864.0, 0.022050668440212584
865.0, 0.01700380283136032
866.0, 0.01399270231667648
867.0, 0.014469467256757679
868.0, 0.01654928326789592
869.0, 0.009528972542062544
870.0, 0.013169678184854802
871.0, 0.01296511511523777
872.0, 0.009779774780483997
873.0, 0.007438162183399649
874.0, 0.009716300489352592
875.0, 0.011437409198215235
876.0, 0.010237809482431774
877.0, 0.007251656666830766
878.0, 0.006299575276203074
879.0, 0.005940816535701816
880.0, 0.0071697478416218275
881.0, 0.007675313781346217
882.0, 0.006557163240347243
883.0, 0.005828312454610013
884.0, 0.012529635377172898
885.0, 0.010453829097652877
886.0, 0.007180632538869027
887.0, 0.011142526968634525
888.0, 0.009446340088998766
889.0, 0.006654029120477911
890.0, 0.00986228931040977
891.0, 0.013904388309830748
892.0, 0.0073877214993561605
893.0, 0.012659379632071354
894.0, 0.011820804375765895
895.0, 0.012201921144960097
896.0, 0.016034524251640304
897.0, 0.019079271935742725
898.0, 0.011127346669098247
899.0, 0.014652701379406404
900.0, 0.019471367275239376
901.0, 0.016978885642883534
902.0, 0.012548491143171216
903.0, 0.021305663547258036
904.0, 0.01998393923374555
905.0, 0.015034565213397466
906.0, 0.01900595399980832
907.0, 0.021811375964456568
908.0, 0.020633329306631455
909.0, 0.022430874840358526
910.0, 0.025550417795899717
911.0, 0.022616138464995154
912.0, 0.025670789553514747
913.0, 0.02653521071289508
914.0, 0.026949885155735872
915.0, 0.027814792666362654
916.0, 0.0288804110460693
917.0, 0.028309622355950057
918.0, 0.028966913535299493
919.0, 0.03149914269594215
920.0, 0.03529160145183471
921.0, 0.03586090115624829
922.0, 0.03861986294089677
923.0, 0.042607671027766476
924.0, 0.045427292606893974
925.0, 0.0457312631490972
926.0, 0.054807941511961195
927.0, 0.05626589814519575
928.0, 0.06230932109323356
929.0, 0.07244429526695319
930.0, 0.08018050824748395
931.0, 0.08450756119854767
932.0, 0.09534035121555433
933.0, 0.10643100001240065
934.0, 0.11643339091610479
935.0, 0.1285261941544443
936.0, 0.14992061995062836
937.0, 0.16491875054466945
938.0, 0.1873238235958576
939.0, 0.2226387160618793
940.0, 0.26079865299225724
941.0, 0.3022191448905662
942.0, 0.3617438237577905
943.0, 0.43186187063352677
944.0, 0.5081682927383951
945.0, 0.6070368994930684
946.0, 0.724924251616053
947.0, 0.8293191529809902
948.0, 0.9213342431700272
949.0, 0.9980026680090232
950.0, 0.9780293480992591
951.0, 0.9479378888310912
952.0, 0.8790024814699785
953.0, 0.7781624934093629
954.0, 0.6675687091034052
955.0, 0.5738098763602059
956.0, 0.4856168891326884
957.0, 0.40536902563418753
958.0, 0.33955631156016786
959.0, 0.29619119004877836
960.0, 0.24124073325263276
961.0, 0.20627743652816813
962.0, 0.17684233691599185
963.0, 0.150129702085333
964.0, 0.1336466570918651
965.0, 0.11715143650708812
966.0, 0.10303068445366587
967.0, 0.09122217388025582
968.0, 0.08095746246448704
969.0, 0.07049607277571286
970.0, 0.06436017956258903
971.0, 0.0594756067083584
972.0, 0.05404152525597404
973.0, 0.04701962181544789
974.0, 0.03856512485464327
975.0, 0.03688684273283183
976.0, 0.03420226900191385
977.0, 0.032574345224444606
978.0, 0.033091783681725565
979.0, 0.031680900372904004
980.0, 0.024804275577020075
981.0, 0.025542628941138908
982.0, 0.025750022905376896
983.0, 0.020313380375146746
984.0, 0.02747159020602593
985.0, 0.02756878657287615
986.0, 0.02653252225782474
987.0, 0.02844301150422278
988.0, 0.033701667795186324
989.0, 0.025489383083665006
990.0, 0.02620925000480192
991.0, 0.029141800169548635
992.0, 0.03086346099135416
993.0, 0.029667461020485817
994.0, 0.030283506546077695
995.0, 0.027911568411160378
996.0, 0.027102070005395523
997.0, 0.02909776248293544
998.0, 0.03308881169433262
999.0, 0.03017758236726745
1000.0, 0.04012771960680526
1001.0, 0.0479065599713369
1002.0, 0.048315888173011454
1003.0, 0.04119776564305377
1004.0, 0.04106538988434231
1005.0, 0.03447017463194958
1006.0, 0.028541470365058195
1007.0, 0.025744356492360714
1008.0, 0.026159869356143315
1009.0, 0.02375617037009299
1010.0, 0.02549305332395682
1011.0, 0.025217814537740055
1012.0, 0.022507965265760335
1013.0, 0.0200667325462006
1014.0, 0.02777778190992954
1015.0, 0.02683919338352144
1016.0, 0.026793491271118856
1017.0, 0.029983111653231476
1018.0, 0.03480146536823409
1019.0, 0.03063459398379498
1020.0, 0.036157399037779474
1021.0, 0.03759151476639073
1022.0, 0.036742972679109226
1023.0, 0.04138336044037865
1024.0, 0.0453232651640485
1025.0, 0.039767900730137966
1026.0, 0.03796806790256444
1027.0, 0.04193930862917694
1028.0, 0.04767781353316308
1029.0, 0.040473348029113974
1030.0, 0.047447906592661966
1031.0, 0.05064050682911814
1032.0, 0.05068140260396624
1033.0, 0.05456777520316941
1034.0, 0.057755153499862134
1035.0, 0.05862770581197774
1036.0, 0.06184332452396022
1037.0, 0.06894043996944056
1038.0, 0.07923532842037755
1039.0, 0.0844613364427753
1040.0, 0.10315024537950328
1041.0, 0.11392709328574092
1042.0, 0.12393798539771715
1043.0, 0.14567123430907364
1044.0, 0.16765013080995814
1045.0, 0.18859413714760398
1046.0, 0.21849271066010656
1047.0, 0.2554543291423486
1048.0, 0.29440449160829707
1049.0, 0.33203203148524063
1050.0, 0.3759507259073174
1051.0, 0.40774639856658923
1052.0, 0.4229312681361533
1053.0, 0.4201906109336107
1054.0, 0.3949650489995329
1055.0, 0.36106869789943474
1056.0, 0.3254938843645186
1057.0, 0.2826376812021205
1058.0, 0.23383047433930002
1059.0, 0.20628986095763024
1060.0, 0.17337793776992694
1061.0, 0.14280419258671004
1062.0, 0.12012897901302433
1063.0, 0.10486287915632052
1064.0, 0.0844307181015986
1065.0, 0.07649309639390682
1066.0, 0.06552515734332351
1067.0, 0.05557407894966998
1068.0, 0.04911561723745958
1069.0, 0.0441958688113136
1070.0, 0.04448374255878789
1071.0, 0.03670110166252563
1072.0, 0.032426008596832395
1073.0, 0.033427284330470035
1074.0, 0.030033934613198705
1075.0, 0.026906663783860297
1076.0, 0.029037585005995094
1077.0, 0.026493061669682384
1078.0, 0.022822858918784925
1079.0, 0.030259738445498136
1080.0, 0.02915723217144828
1081.0, 0.02661989550168713
1082.0, 0.027590936347358215
1083.0, 0.028872385671945017
1084.0, 0.0250003514546984
1085.0, 0.02745507792426832
1086.0, 0.02926746152099808
1087.0, 0.024203429455376693
1088.0, 0.019565542986602555
1089.0, 0.02235680376403828
1090.0, 0.016643530670395253
1091.0, 0.012281447212033095
1092.0, 0.017806820852834443
1093.0, 0.020077155794250786
1094.0, 0.011641014635038685
1095.0, 0.012556875783029494
1096.0, 0.01014927983037882
1097.0, 0.007667120108085776
1098.0, 0.008501343172865983
1099.0, 0.011156474619706539
1100.0, 0.006192533757620716
1101.0, 0.006966840921124945
1102.0, 0.006929803437447295
1103.0, 0.005789706144905703
1104.0, 0.005308241264278567
1105.0, 0.008737776799360341
1106.0, 0.010921985562634707
1107.0, 0.007032634723600937
1108.0, 0.0082169037357869
1109.0, 0.01026175282640221
1110.0, 0.0036109151109380284
1111.0, 0.006832461883968629
1112.0, 0.010458708523540519
1113.0, 0.006223646458941123
1114.0, 0.002886511823267735
1115.0, 0.008140168298099076
1116.0, 0.005251005568142293
1117.0, 0.005600979768833149
1118.0, 0.007152144030194479
1119.0, 0.005792846320371451
1120.0, 0.0012123386932083337
1121.0, 0.0011421420624999237
1122.0, 0.0045343869636955665
1123.0, 0.004307207384521551
1124.0, 0.005248800939145761
1125.0, 0.006538725928462498
1126.0, 0.0017388334535439651
1127.0, 0.00220698525771268
1128.0, 0.007347554689219245
1129.0, 0.006263126197698418
1130.0, 0.001248813785106649
1131.0, 0.0003638513439506064
1132.0, 0.0026294544382902034
1133.0, 0.0026381340918264972
1134.0, 0.005079704338961962
1135.0, 0.006469020634241844
1136.0, 0.004147326878208244
1137.0, 0.0036346855726973647
1138.0, 0.0035481671385738274
1139.0, 0.0027884057264772415
1140.0, 0.0030355626849310037
1141.0, 0.004394247847916092
1142.0, 0.004573749895326166
1143.0, 0.0012663047301599642
1144.0, 0.001218761310310421
1145.0, 0.0031379941029443434
1146.0, 0.0039783405736871745
1147.0, 0.00093190740519216
1148.0, 0.0016553630608292932
1149.0, 0.000844830899572672
1150.0, 0.000571408719407335
1151.0, 0.0007833266556667014
1152.0, 0.0008392507417695263
1153.0, 9.142713581993981e-05
1154.0, 0.003537631026304025
1155.0, 0.004252724762898528
1156.0, 0.0033254317370680067
1157.0, 0.002620863820701973
1158.0, 0.0038307385948166293
1159.0, 0.0032894739910548374
1160.0, 0.00859250789214003
1161.0, 0.006856854041614181
1162.0, 0.0009522775207871698
1163.0, 0.0010476560286477752
1164.0, 0.006923460059610406
1165.0, 0.004023575617209749
1166.0, 0.0028530402528014263
1167.0, 0.0050496451244336025
1168.0, 0.007770483632390744
1169.0, 0.0025734236289548826
1170.0, 0.009051694678976586
1171.0, 0.005141996280343068
1172.0, 0.000787144676100472
1173.0, 0.0024890764454934136
1174.0, 0.010306640951929798
1175.0, 0.0030535714352575966
1176.0, 0.00692725815704954
1177.0, 0.00965413060578842
1178.0, 0.007016257566861939
1179.0, 0.0014428084293511643
1180.0, 0.008122127819008005
1181.0, 0.00714861363415244
1182.0, 0.005573175494269177
1183.0, 0.004613505085785651
1184.0, 0.004526387835350244
1185.0, 0.0050481743262279525
1186.0, 0.006578239248297046
1187.0, 0.008938593539525495
1188.0, 0.0065905657649461755
1189.0, 0.004002673792752634
1190.0, 0.006911774351025458
1191.0, 0.0050920608181987265
1192.0, 0.0016393052403162632
1193.0, 0.005348023492443454
1194.0, 0.006270379523285292
1195.0, 0.0012351195174162288
1196.0, 0.001059977267405126
1197.0, 0.008069152078692198
1198.0, 0.006509925091707926
1199.0, 0.0077153986149241
1200.0, 0.00888838216704976
1201.0, 0.003970977297826164
1202.0, 0.010656617927122096
1203.0, 0.011570068014817247
1204.0, 0.007454494071876916
1205.0, 0.00555780195004955
1206.0, 0.008489156411895479
1207.0, 0.009935977066116045
1208.0, 0.0021095380626572516
1209.0, 0.006427606346130498
1210.0, 0.007367772918371917
1211.0, 0.005159813681700819
1212.0, 0.007321988483134664
1213.0, 0.01403759698969324
1214.0, 0.004361911936437974
1215.0, 0.0037256489317556395
1216.0, 0.009857036790334702
1217.0, 0.013959059482783065
1218.0, 0.005684625910645072
1219.0, 0.011007935876221071
1220.0, 0.013072695616597532
1221.0, 0.009347801824618111
1222.0, 0.008755820697179423
1223.0, 0.01682254360967496
1224.0, 0.006893983554851808
1225.0, 0.0068347549199849365
1226.0, 0.012683489825050812
1227.0, 0.012770913400102045
1228.0, 0.006889983353286417
1229.0, 0.007314342006241376
1230.0, 0.008652572289511948
1231.0, 0.007428815933736284
1232.0, 0.013474889554066435
1233.0, 0.014939943052583636
1234.0, 0.005901482321141786
1235.0, 0.014426814437650152
1236.0, 0.012717931259869766
1237.0, 0.009612539901260733
1238.0, 0.010089444014364034
1239.0, 0.012217623633686706
1240.0, 0.010146270515603618
1241.0, 0.007201710501230651
1242.0, 0.013324685380275637
1243.0, 0.008038098270561799
1244.0, 0.0033984019423251776
1245.0, 0.007563237286404465
1246.0, 0.011342985570380515
1247.0, 0.004600216143029412
1248.0, 0.005756678827794428
1249.0, 0.010129653732929914
1250.0, 0.009750016313473041
1251.0, 0.002743267045942012
1252.0, 0.012872355163770513
1253.0, 0.0043369525135356895
1254.0, 0.00210004450101248
1255.0, 0.006666702096060132
1256.0, 0.009529964739049759
1257.0, 3.3224822145009385e-05
1258.0, 3.9260371846840235e-06
1259, 0.0
1260, 0.0
1261, 0.0
1262, 0.0
1263, 0.0
1264, 0.0
1265, 0.0
1266, 0.0
1267, 0.0
1268, 0.0
1269, 0.0
1270, 0.0
1271, 0.0
1272, 0.0
1273, 0.0
1274, 0.0
1275, 0.0
1276, 0.0
1277, 0.0
1278, 0.0
1279, 0.0
1280, 0.0
1281, 0.0
1282, 0.0
1283, 0.0
1284, 0.0
1285, 0.0
1286, 0.0
1287, 0.0
1288, 0.0
1289, 0.0
1290, 0.0
1291, 0.0
1292, 0.0
1293, 0.0
1294, 0.0
1295, 0.0
1296, 0.0
1297, 0.0
1298, 0.0
1299, 0.0
1300, 0.0
1301, 0.0
1302, 0.0
1303, 0.0
1304, 0.0
1305, 0.0
1306, 0.0
1307, 0.0
1308, 0.0
1309, 0.0
1310, 0.0
1311, 0.0
1312, 0.0
1313, 0.0
1314, 0.0
1315, 0.0
1316, 0.0
1317, 0.0
1318, 0.0
1319, 0.0
1320, 0.0
1321, 0.0
1322, 0.0
1323, 0.0
1324, 0.0
1325, 0.0
1326, 0.0
1327, 0.0
1328, 0.0
1329, 0.0
1330, 0.0
1331, 0.0
1332, 0.0
1333, 0.0
1334, 0.0
1335, 0.0
1336, 0.0
1337, 0.0
1338, 0.0
1339, 0.0
1340, 0.0
1341, 0.0
1342, 0.0
1343, 0.0
1344, 0.0
1345, 0.0
1346, 0.0
1347, 0.0
1348, 0.0
1349, 0.0
1350, 0.0
1351, 0.0
1352, 0.0
1353, 0.0
1354, 0.0
1355, 0.0
1356, 0.0
1357, 0.0
1358, 0.0
1359, 0.0
1360, 0.0
1361, 0.0
1362, 0.0
1363, 0.0
1364, 0.0
1365, 0.0
1366, 0.0
1367, 0.0
1368, 0.0
1369, 0.0
1370, 0.0
1371, 0.0
1372, 0.0
1373, 0.0
1374, 0.0
1375, 0.0
1376, 0.0
1377, 0.0
1378, 0.0
1379, 0.0
1380, 0.0
1381, 0.0
1382, 0.0
1383, 0.0
1384, 0.0
1385, 0.0
1386, 0.0
1387, 0.0
1388, 0.0
1389, 0.0
1390, 0.0
1391, 0.0
1392, 0.0
1393, 0.0
1394, 0.0
1395, 0.0
1396, 0.0
1397, 0.0
1398, 0.0
1399, 0.0
1400, 0.0
1401, 0.0
1402, 0.0
1403, 0.0
1404, 0.0
1405, 0.0
1406, 0.0
1407, 0.0
1408, 0.0
1409, 0.0
1410, 0.0
1411, 0.0
1412, 0.0
1413, 0.0
1414, 0.0
1415, 0.0
1416, 0.0
1417, 0.0
1418, 0.0
1419, 0.0
1420, 0.0
1421, 0.0
1422, 0.0
1423, 0.0
1424, 0.0
1425, 0.0
1426, 0.0
1427, 0.0
1428, 0.0
1429, 0.0
1430, 0.0
1431, 0.0
1432, 0.0
1433, 0.0
1434, 0.0
1435, 0.0
1436, 0.0
1437, 0.0
1438, 0.0
1439, 0.0
1440, 0.0
1441, 0.0
1442, 0.0
1443, 0.0
1444, 0.0
1445, 0.0
1446, 0.0
1447, 0.0
1448, 0.0
1449, 0.0
1450, 0.0
1451, 0.0
1452, 0.0
1453, 0.0
1454, 0.0
1455, 0.0
1456, 0.0
1457, 0.0
1458, 0.0
1459, 0.0
1460, 0.0
1461, 0.0
1462, 0.0
1463, 0.0
1464, 0.0
1465, 0.0
1466, 0.0
1467, 0.0
1468, 0.0
1469, 0.0
1470, 0.0
1471, 0.0
1472, 0.0
1473, 0.0
1474, 0.0
1475, 0.0
1476, 0.0
1477, 0.0
1478, 0.0
1479, 0.0
1480, 0.0
1481, 0.0
1482, 0.0
1483, 0.0
1484, 0.0
1485, 0.0
1486, 0.0
1487, 0.0
1488, 0.0
1489, 0.0
1490, 0.0
1491, 0.0
1492, 0.0
1493, 0.0
1494, 0.0
1495, 0.0
1496, 0.0
1497, 0.0
1498, 0.0
1499, 0.0
1500, 0.0
1501, 0.0
1502, 0.0
1503, 0.0
1504, 0.0
1505, 0.0
1506, 0.0
1507, 0.0
1508, 0.0
1509, 0.0
1510, 0.0
1511, 0.0
1512, 0.0
1513, 0.0
1514, 0.0
1515, 0.0
1516, 0.0
1517, 0.0
1518, 0.0
1519, 0.0
1520, 0.0
1521, 0.0
1522, 0.0
1523, 0.0
1524, 0.0
1525, 0.0
1526, 0.0
1527, 0.0
1528, 0.0
1529, 0.0
1530, 0.0
1531, 0.0
1532, 0.0
1533, 0.0
1534, 0.0
1535, 0.0
1536, 0.0
1537, 0.0
1538, 0.0
1539, 0.0
1540, 0.0
1541, 0.0
1542, 0.0
1543, 0.0
1544, 0.0
1545, 0.0
1546, 0.0
1547, 0.0
1548, 0.0
1549, 0.0
1550, 0.0
1551, 0.0
1552, 0.0
1553, 0.0
1554, 0.0
1555, 0.0
1556, 0.0
1557, 0.0
1558, 0.0
1559, 0.0
1560, 0.0
1561, 0.0
1562, 0.0
1563, 0.0
1564, 0.0
1565, 0.0
1566, 0.0
1567, 0.0
1568, 0.0
1569, 0.0
1570, 0.0
1571, 0.0
1572, 0.0
1573, 0.0
1574, 0.0
1575, 0.0
1576, 0.0
1577, 0.0
1578, 0.0
1579, 0.0
1580, 0.0
1581, 0.0
1582, 0.0
1583, 0.0
1584, 0.0
1585, 0.0
1586, 0.0
1587, 0.0
1588, 0.0
1589, 0.0
1590, 0.0
1591, 0.0
1592, 0.0
1593, 0.0
1594, 0.0
1595, 0.0
1596, 0.0
1597, 0.0
1598, 0.0
1599, 0.0
