30, 0.0
31, 0.0
32, 0.0
33, 0.0
34, 0.0
35, 0.0
36, 0.0
37, 0.0
38, 0.0
39, 0.0
40, 0.0
41, 0.0
42, 0.0
43, 0.0
44, 0.0
45, 0.0
46, 0.0
47, 0.0
48, 0.0
49, 0.0
50, 0.0
51, 0.0
52, 0.0
53, 0.0
54, 0.0
55, 0.0
56, 0.0
57, 0.0
58, 0.0
59, 0.0
60, 0.0
61, 0.0
62, 0.0
63, 0.0
64, 0.0
65, 0.0
66, 0.0
67, 0.0
68, 0.0
69, 0.0
70, 0.0
71, 0.0
72, 0.0
73, 0.0
74, 0.0
75, 0.0
76, 0.0
77, 0.0
78, 0.0
79, 0.0
80, 0.0
81, 0.0
82, 0.0
83, 0.0
84, 0.0
85, 0.0
86, 0.0
87, 0.0
88, 0.0
89, 0.0
90, 0.0
91, 0.0
92, 0.0
93, 0.0
94, 0.0
95, 0.0
96, 0.0
97, 0.0
98, 0.0
99, 0.0
100, 0.0
101, 0.0
102, 0.0
103, 0.0
104, 0.0
105, 0.0
106, 0.0
107, 0.0
108.0, 3.2782419196776547e-07
109.0, 6.589266258558014e-05
110.0, 0.00014535322963427977
111.0, 0.002352881087143344
112.0, 0.011944677643053361
113.0, 0.023765790020731353
114.0, 0.027352767287354515
115.0, 0.020394772333975162
116.0, 0.022052200374997288
117.0, 0.01763782897764586
118.0, 0.01523092821868912
119.0, 0.02660091552521118
120.0, 0.043012952403754766
121.0, 0.06249820016939763
122.0, 0.08507308994052779
123.0, 0.11304466194287917
124.0, 0.14586633282817693
125.0, 0.18415451407285277
126.0, 0.22976126061961616
127.0, 0.2333561394813321
128.0, 0.21559793237053673
129.0, 0.1804529874452947
130.0, 0.1342609726070681
131.0, 0.10028814655827295
132.0, 0.07618794482428323
133.0, 0.06209363071605651
134.0, 0.044382641804382575
135.0, 0.036825787855423314
136.0, 0.03629249641903109
137.0, 0.037587129926433545
138.0, 0.03552828427244958
139.0, 0.032618748527358396
140.0, 0.02950721997542747
141.0, 0.02689674797295526
142.0, 0.03390778167490167
143.0, 0.044040919133821334
144.0, 0.05059649737793636
145.0, 0.05980587347062121
146.0, 0.07018918646679911
147.0, 0.08247967928218339
148.0, 0.10167546512770292
149.0, 0.11786381549857324
150.0, 0.12969238350688375
151.0, 0.13568016258891674
152.0, 0.12716443885477247
153.0, 0.1150205924710118
154.0, 0.10077512058603476
155.0, 0.08711651334281119
156.0, 0.07641769934575832
157.0, 0.07163853232956413
158.0, 0.07345569408817676
159.0, 0.07488553666937726
160.0, 0.07630886391501115
161.0, 0.07777247819850602
162.0, 0.07933976653606892
163.0, 0.07891816979459233
164.0, 0.07992727529152907
165.0, 0.08133481799630998
166.0, 0.0767047277825715
167.0, 0.07418756543546798
168.0, 0.07215465232476298
169.0, 0.06983304583412869
170.0, 0.05594772314943033
171.0, 0.04379056711073077
172.0, 0.032698756122302684
173.0, 0.0216265150551134
174.0, 0.01093166394870249
175.0, 0.006254591136210774
176.0, 0.008200264743829143
177.0, 0.011022809247755052
178.0, 0.011839547563486937
179.0, 0.009191251555578296
180.0, 0.001267643087002169
181.0, 0.0206729864873896
182.0, 0.040591403710702904
183.0, 0.06182126042580007
184.0, 0.0906313305849385
185.0, 0.1058604634960012
186.0, 0.1199941752713006
187.0, 0.13619899929141177
188.0, 0.1457212227390655
189.0, 0.15369484309683082
190.0, 0.16364196506739123
191.0, 0.17982696944123241
192.0, 0.18932733169870028
193.0, 0.2039624939278556
194.0, 0.22217111827558533
195.0, 0.2347087379738765
196.0, 0.22697442526755748
197.0, 0.21338358344522274
198.0, 0.1987882079759986
199.0, 0.1764763161470863
200.0, 0.15869624150499373
201.0, 0.14281729056624035
202.0, 0.12584016725941347
203.0, 0.11649217176719387
204.0, 0.10833758528620889
205.0, 0.10159915860784714
206.0, 0.10063745642506312
207.0, 0.1050258254598335
208.0, 0.11209403080290493
209.0, 0.12095289313677551
210.0, 0.1322149434658564
211.0, 0.1557833911317853
212.0, 0.18423863709807756
213.0, 0.2084015097188207
214.0, 0.2427126827197547
215.0, 0.2865779078473974
216.0, 0.3401625444163924
217.0, 0.40557566619434365
218.0, 0.4734236014996458
219.0, 0.554987622993444
220.0, 0.655541556125357
221.0, 0.7539644402081906
222.0, 0.8571006194796318
223.0, 0.9457762662611979
224.0, 0.9922624262006429
225.0, 0.9987626308616693
226.0, 0.9745290603521564
227.0, 0.9166899329310794
228.0, 0.8060053317364683
229.0, 0.706301137712958
230.0, 0.6031452660732477
231.0, 0.4927531927848135
232.0, 0.4062561628818282
233.0, 0.3327515415113488
234.0, 0.2702281400549587
235.0, 0.21864001312748335
236.0, 0.18283587969798923
237.0, 0.14717884124379715
238.0, 0.11528441461633629
239.0, 0.10181652866572392
240.0, 0.08194158134342192
241.0, 0.06355086074468301
242.0, 0.0488964020116772
243.0, 0.03784651734306478
244.0, 0.02923977072299339
245.0, 0.02227417710377983
246.0, 0.016566428543138074
247.0, 0.01166681670640624
248.0, 0.009078412912168252
249.0, 0.007818082282224997
250.0, 0.006039036932337124
251.0, 0.00356048988331565
252.0, 0.0015945980065900697
253.0, 0.0008394045347000312
254.0, 0.003992630185326615
255.0, 0.003999273920755314
256.0, 0.0025588282243715274
257.0, 0.0005418886719794338
258.0, 0.0036759597316626544
259.0, 0.0034036372867361528
260.0, 0.0018040102307549167
261.0, 0.0012409343670522729
262.0, 0.006298120483280679
263.0, 0.009555166135714492
264.0, 0.011634432276924133
265.0, 0.016277004471962987
266.0, 0.017895380210935223
267.0, 0.022407088347676275
268.0, 0.030739182227943036
269.0, 0.035697457406532455
270.0, 0.04012122535347696
271.0, 0.04687131444181651
272.0, 0.058094469132877066
273.0, 0.06200356014326148
274.0, 0.06744893770240307
275.0, 0.0719865251330878
276.0, 0.07149271796183335
277.0, 0.07643250005413173
278.0, 0.0801674506379698
279.0, 0.08165329006906659
280.0, 0.07979078604351411
281.0, 0.07952974891597624
282.0, 0.07761672395259502
283.0, 0.07351849570546612
284.0, 0.07350519441553804
285.0, 0.07165981103123455
286.0, 0.07044950978916832
287.0, 0.07171774120095384
288.0, 0.07073351667217201
289.0, 0.06814722141231354
290.0, 0.06457909161760952
291.0, 0.060886914180446554
292.0, 0.060254269941367344
293.0, 0.05672493695914148
294.0, 0.0517763702057451
295.0, 0.05286944689118656
296.0, 0.05193584469437331
297.0, 0.052317555877525485
298.0, 0.05442413982000625
299.0, 0.052855139243273244
300.0, 0.05437220490010771
301.0, 0.05632404372452929
302.0, 0.057028851574476055
303.0, 0.04967277033278846
304.0, 0.04878665251453292
305.0, 0.04866120728429478
306.0, 0.04197539048008532
307.0, 0.042851458858858646
308.0, 0.038731205460786226
309.0, 0.03191233218205206
310.0, 0.03051741598794745
311.0, 0.029633924522732467
312.0, 0.028773086764650173
313.0, 0.028216198687776285
314.0, 0.030038322168695352
315.0, 0.02631106909072975
316.0, 0.02399047677356489
317.0, 0.02572937285395896
318.0, 0.02512853569355795
319.0, 0.023126332798422092
320.0, 0.022041439033346877
321.0, 0.023858528815481502
322.0, 0.025467829014557436
323.0, 0.02747660447551526
324.0, 0.02855430524042376
325.0, 0.026485790123333734
326.0, 0.029593951154667848
327.0, 0.03313468953106655
328.0, 0.03635104901032884
329.0, 0.0384432942951295
330.0, 0.04275927369863145
331.0, 0.04750197321175012
332.0, 0.05221719369983375
333.0, 0.05664341470994386
334.0, 0.06255057025129189
335.0, 0.06983871197130295
336.0, 0.07838519112583726
337.0, 0.08616916966440774
338.0, 0.09221782466717394
339.0, 0.1005811053321929
340.0, 0.11442262030495916
341.0, 0.11325780319673885
342.0, 0.11355207413251828
343.0, 0.1131865081573846
344.0, 0.10928239918363822
345.0, 0.10122402974435231
346.0, 0.09599552001410103
347.0, 0.09051908817707942
348.0, 0.07685560278596539
349.0, 0.06431476553099581
350.0, 0.053378207484643704
351.0, 0.04390695378807523
352.0, 0.03516779561200038
353.0, 0.027912622291414026
354.0, 0.02204216429957878
355.0, 0.017326578984591036
356.0, 0.012190680161717482
357.0, 0.010028340884612673
358.0, 0.008195106732280308
359.0, 0.005591702134415926
360.0, 0.00467282344797659
361.0, 0.002387296738232403
362.0, 0.0004296362716594861
363.0, 0.00011806550901510707
364.0, 0.0038813665660940807
365.0, 0.004080005315690056
366.0, 0.0034974401291120545
367.0, 0.005487385575890128
368.0, 0.0041043429763847365
369.0, 0.0030494214052347356
370.0, 0.0034176732792331427
371.0, 0.007032621698776864
372.0, 0.004947232479948787
373.0, 0.0029924246495481284
374.0, 0.002080005860596818
375.0, 0.00287060575558413
376.0, 0.0032522620909500068
377.0, 0.0030125862549983656
378.0, 0.002476611248930202
379.0, 0.003261824880544121
380.0, 0.0027009835282402516
381.0, 0.0020558865545864643
382.0, 0.001671837341539318
383.0, 0.0011634481696141186
384.0, 0.0008805374373944182
385.0, 0.0010550556465919675
386.0, 0.0018792145987403875
387.0, 0.0041460456866368525
388.0, 0.005728188325326084
389.0, 0.005756296130142592
390.0, 0.003695061395628304
391.0, 0.004096076871434327
392.0, 0.005662242987024898
393.0, 0.007306483532634458
394.0, 0.008018093442654362
395.0, 0.010379727332465593
396.0, 0.01204441361471407
397.0, 0.013828104454419647
398.0, 0.016845746778000006
399.0, 0.017316851175418136
400.0, 0.01906306800279794
401.0, 0.02156090057233853
402.0, 0.023595590869315754
403.0, 0.023550179260213185
404.0, 0.025641406333467613
405.0, 0.029207582811830255
406.0, 0.031836567292223526
407.0, 0.033010447821730925
408.0, 0.035699739129111105
409.0, 0.039191573770591424
410.0, 0.039916551948358484
411.0, 0.04187313581632518
412.0, 0.04504444331085501
413.0, 0.04870914628172463
414.0, 0.049945142503861915
415.0, 0.05238922765547511
416.0, 0.05523290351609398
417.0, 0.05757293230957825
418.0, 0.055732904408597995
419.0, 0.060645734647883004
420.0, 0.06296535235532966
421.0, 0.0604484195365812
422.0, 0.06173998943598962
423.0, 0.0640005407602762
424.0, 0.06552478927373415
425.0, 0.0653656705651807
426.0, 0.06205569047254832
427.0, 0.0644616856812739
428.0, 0.06608553658302933
429.0, 0.06372838214485473
430.0, 0.06327359412822027
431.0, 0.06523455873650895
432.0, 0.06695952466160635
433.0, 0.06698826540411662
434.0, 0.07183417966841317
435.0, 0.07351014688651258
436.0, 0.07618069978482767
437.0, 0.08300842502640562
438.0, 0.08998568228061249
439.0, 0.09474284702241166
440.0, 0.09981859411106236
441.0, 0.10748096447610807
442.0, 0.113541270658809
443.0, 0.12571067361070304
444.0, 0.13741433070711812
445.0, 0.14185397761984558
446.0, 0.15672173393692504
447.0, 0.1728281118052454
448.0, 0.18642686393971808
449.0, 0.19320067872814106
450.0, 0.20983037052355433
451.0, 0.22184300665095513
452.0, 0.23233436243122785
453.0, 0.2456682144884465
454.0, 0.2442005922595308
455.0, 0.236331621637288
456.0, 0.22857421792861793
457.0, 0.22952952764456494
458.0, 0.21300926661948916
459.0, 0.20225924501819637
460.0, 0.19528545742698528
461.0, 0.18759658460259226
462.0, 0.17575175753111738
463.0, 0.1689677603318667
464.0, 0.16256280412723653
465.0, 0.14834882611910866
466.0, 0.1416005186505018
467.0, 0.13399935480536418
468.0, 0.12633837625197522
469.0, 0.12081595044579477
470.0, 0.11720478693139338
471.0, 0.11003905836069523
472.0, 0.10214179113478085
473.0, 0.09884602506783066
474.0, 0.09406369360363447
475.0, 0.09057427967797863
476.0, 0.08771674554158512
477.0, 0.08406376209029981
478.0, 0.07972168296996622
479.0, 0.07861424207268297
480.0, 0.07872466086404221
481.0, 0.07624715833084245
482.0, 0.07195715467724079
483.0, 0.07184797538108785
484.0, 0.07313516947720695
485.0, 0.07060947649334301
486.0, 0.07416332817206396
487.0, 0.07345013924049458
488.0, 0.07080137197758903
489.0, 0.07090147129286481
490.0, 0.0728976445460915
491.0, 0.07243699690221901
492.0, 0.07219748459704751
493.0, 0.0765638200439242
494.0, 0.07541449010376092
495.0, 0.07517313018886168
496.0, 0.07676758851266062
497.0, 0.08108193675611693
498.0, 0.08377111301752768
499.0, 0.08315339250862046
500.0, 0.08259877673207329
501.0, 0.08653270206476577
502.0, 0.09088442952607179
503.0, 0.09516499184786711
504.0, 0.09734193328823636
505.0, 0.09504381928054285
506.0, 0.10169134409243943
507.0, 0.10326575492742823
508.0, 0.10465872159262152
509.0, 0.11118976132170427
510.0, 0.11345082108362547
511.0, 0.114857944059075
512.0, 0.11750687273795511
513.0, 0.12328404109328042
514.0, 0.12812682000154074
515.0, 0.13501781617317224
516.0, 0.14108858352362386
517.0, 0.14409290963532972
518.0, 0.14676849778694126
519.0, 0.15128210715145698
520.0, 0.15714114948087265
521.0, 0.16388557589772756
522.0, 0.16950458087156584
523.0, 0.17325460741681137
524.0, 0.17902137940039478
525.0, 0.1884913504746004
526.0, 0.19455958972046292
527.0, 0.19955971918307164
528.0, 0.20699178923550068
529.0, 0.2172672208565792
530.0, 0.219922125677534
531.0, 0.22621158088128404
532.0, 0.231789186121283
533.0, 0.23548439346102318
534.0, 0.24072902704164345
535.0, 0.2463740049570779
536.0, 0.2488836841082454
537.0, 0.2494713049653156
538.0, 0.25860845526773657
539.0, 0.2603061352453898
540.0, 0.2634447576886104
541.0, 0.2682683160587935
542.0, 0.2680863308382032
543.0, 0.26250457014449236
544.0, 0.2616628764113755
545.0, 0.26192969655626214
546.0, 0.24899183902754599
547.0, 0.24537271931860286
548.0, 0.24214552500146036
549.0, 0.23666436641326166
550.0, 0.22601681046604827
551.0, 0.22801007088232808
552.0, 0.2197480419785143
553.0, 0.20846248390677888
554.0, 0.20776637809896722
555.0, 0.19566511860789085
556.0, 0.19020213850486964
557.0, 0.18731356924520673
558.0, 0.1816500346679756
559.0, 0.17589849760654305
560.0, 0.1758302848749775
561.0, 0.17657222647156617
562.0, 0.17408189706834834
563.0, 0.17182701981405019
564.0, 0.1747544672399932
565.0, 0.17555506798614923
566.0, 0.1709948895862384
567.0, 0.17467544142344946
568.0, 0.16773141338626826
569.0, 0.15778615786404088
570.0, 0.14927682446928703
571.0, 0.14829930496633653
572.0, 0.13595143349344246
573.0, 0.1270782863786195
574.0, 0.12353833152636862
575.0, 0.11456245732828034
576.0, 0.11282711458030513
577.0, 0.11178658001183571
578.0, 0.1100219726923179
579.0, 0.10737715292497456
580.0, 0.1041782380148506
581.0, 0.1009895752357868
582.0, 0.09805415244204457
583.0, 0.0956748447091627
584.0, 0.09325420955630306
585.0, 0.09116243883349934
586.0, 0.08909303855706457
587.0, 0.08666138571911301
588.0, 0.08552666505118496
589.0, 0.08331963900927543
590.0, 0.08014514796332099
591.0, 0.07625597432430238
592.0, 0.07399625569172627
593.0, 0.07313685032924713
594.0, 0.0698059852256782
595.0, 0.06348133441838191
596.0, 0.06562140978736428
597.0, 0.06320892764457967
598.0, 0.06037384733964408
599.0, 0.058905065432326965
600.0, 0.060172117217669324
601.0, 0.055153620004109075
602.0, 0.05262761463641859
603.0, 0.05210661183044639
604.0, 0.04786840924257651
605.0, 0.04789812391049725
606.0, 0.046561287126725526
607.0, 0.043454574800267924
608.0, 0.03891552744838109
609.0, 0.039102532688093154
610.0, 0.03660949225563429
611.0, 0.03367662309774858
612.0, 0.0326904624117827
613.0, 0.0325894178695946
614.0, 0.028874693406985168
615.0, 0.02657445324149246
616.0, 0.02796440682102017
617.0, 0.02643298639871231
618.0, 0.022149059633348758
619.0, 0.02075670318088994
620.0, 0.022005295948034055
621.0, 0.016514526771624734
622.0, 0.01641683441451497
623.0, 0.016752252935110214
624.0, 0.016043383063780517
625.0, 0.013237263019857804
626.0, 0.012880157850070136
627.0, 0.009776926438917671
628.0, 0.00758437460354498
629.0, 0.011719255211320747
630.0, 0.006224551751650362
631.0, 0.0044221966137289685
632.0, 0.004629097152195727
633.0, 0.005271497892201902
634.0, 0.005401589678591548
635.0, 0.005466889099108415
636.0, 0.004924138883721822
637.0, 0.0035534169463602005
638.0, 0.0015297609988318265
639.0, 0.001050418969153646
640.0, 0.0009241085869373973
641.0, 0.0014238887638862226
642.0, 0.004041013503720055
643.0, 0.002003410955977696
644.0, 0.0011825521679738145
645.0, 0.0014222930384451685
646.0, 0.0015468878884601614
647.0, 0.0014481340909371922
648.0, 0.0012352734682440632
649.0, 0.0019328717732197364
650.0, 0.0040242962167438825
651.0, 0.003279912725180821
652.0, 0.00195754494654067
653.0, 0.0012091087895540295
654.0, 0.0012542091227656915
655.0, 0.0007274107541264748
656.0, 0.0002433344228194396
657.0, 0.00021281704759857823
658.0, 0.0005471728444220118
659.0, 0.0008332970068473904
660.0, 0.000921274165128295
661.0, 0.0007826327918986837
662.0, 0.0005039850833294311
663.0, 0.000200642991057389
664.0, 6.764187336555678e-05
665.0, 0.000998195674950961
666.0, 0.0020529668113181
667.0, 0.0024789496420258906
668.0, 0.001329642368413514
669.0, 0.0007274533753925023
670.0, 0.0007237757490465146
671.0, 0.002022954729274658
672.0, 0.006775606241200786
673.0, 0.00872548308656986
674.0, 0.007717614229138793
675.0, 0.004737659775793974
676.0, 0.0013975103272402837
677.0, 0.0018480260999365152
678.0, 0.0017541818011615863
679.0, 0.0011849600873940808
680.0, 0.0004210187088452005
681.0, 0.0010546021381043552
682.0, 0.0019358389687288238
683.0, 0.002380234045135859
684.0, 0.0023698226841817236
685.0, 0.0028512567308661306
686.0, 0.0038163319267891004
687.0, 0.004609809886727696
688.0, 0.004645631785644269
689.0, 0.003142708120096856
690.0, 0.0056406042707568245
691.0, 0.004264375489302117
692.0, 0.0025675253156682886
693.0, 0.0037251174846766816
694.0, 0.006260592887990475
695.0, 0.004631877839936011
696.0, 0.004176084225394529
697.0, 0.0061415906040503815
698.0, 0.0069883477996183505
699.0, 0.0047505153324132405
700.0, 0.00484599338566604
701.0, 0.005716696919654954
702.0, 0.0033430937752352034
703.0, 0.0048415055903347475
704.0, 0.005521701430231995
705.0, 0.005000446878048115
706.0, 0.003633523275554661
707.0, 0.006574900265231963
708.0, 0.005359522225372902
709.0, 0.004894960284025015
710.0, 0.006395131108453968
711.0, 0.00806753191994645
712.0, 0.0038610339210261124
713.0, 0.004636840237362115
714.0, 0.00649150534174296
715.0, 0.002281932785776881
716.0, 0.0011515295317503752
717.0, 0.0018395002879004593
718.0, 0.002307206498814653
719.0, 0.001886400321485933
720.0, 0.004758320717001694
721.0, 0.0027494628693078725
722.0, 0.002504266875475993
723.0, 0.0036505648216205626
724.0, 0.0012465497684885055
725.0, 0.0024016770000889363
726.0, 0.0037076246499558835
727.0, 0.0033706047192938373
728.0, 0.0002642513867516209
729.0, 0.0003744150840804428
730.0, 0.002693185929431975
731.0, 0.0035884951574096644
732.0, 0.002185252785121303
733.0, 0.001271043255102698
734.0, 0.0019224533132542318
735.0, 0.001836339925342088
736.0, 0.0020896210934451694
737.0, 0.004731108247385426
738.0, 0.0013882422595581114
739.0, 0.00021299140160088793
740.0, 0.0003368054576016494
741.0, 0.0009135954188789473
742.0, 0.0006302690689582415
743.0, 0.0008794781117639358
744.0, 0.0026190617787391623
745.0, 0.0040543222610593494
746.0, 0.0009948637971576892
747.0, 0.001123786670369338
748.0, 0.00128206684299169
749.0, 0.0014547173747391673
750.0, 0.0017794932392656009
751.0, 0.002458243308954555
752.0, 0.001223009080808511
753.0, 0.0007310173315710311
754.0, 0.0013724621955673929
755.0, 0.001644001693934531
756.0, 0.001954916044014019
757.0, 0.0032687961577283443
758.0, 0.0033873416686532785
759.0, 0.0004149737405830026
760.0, 0.0033169238833970433
761.0, 0.0032658549736002012
762.0, 0.0020195725583214284
763.0, 0.0010774865932876051
764.0, 0.002834365051087942
765.0, 0.0012279405277674004
766.0, 0.0006405585759097361
767.0, 0.0014228089559716174
768.0, 0.0031685944936028026
769.0, 0.004416524507941529
770.0, 0.0031618553766970658
771.0, 0.002161474554632428
772.0, 0.0028416804729445126
773.0, 0.005228159880510938
774.0, 0.001834042032277744
775.0, 0.0027016211347247196
776.0, 0.0044983968359246715
777.0, 0.0007524451396420855
778.0, 0.003856205236713358
779.0, 0.00642842372758242
780.0, 0.0061956411537449135
781.0, 0.003719657032589224
782.0, 0.006389381420500818
783.0, 0.005440126904959787
784.0, 0.006965675850714319
785.0, 0.010078991853002046
786.0, 0.011963631833622656
787.0, 0.00955125100684711
788.0, 0.010225023525852068
789.0, 0.012158643939527584
790.0, 0.014399693542963748
791.0, 0.01736082845922026
792.0, 0.0179829558040971
793.0, 0.01807197680155227
794.0, 0.01869815104618918
795.0, 0.02076061740353102
796.0, 0.01998002983945019
797.0, 0.022316902853883953
798.0, 0.025547601024691537
799.0, 0.027222474443526153
800.0, 0.02262354044445685
801.0, 0.02804626031746738
802.0, 0.030067801645060094
803.0, 0.030514119040973117
804.0, 0.03387188584982233
805.0, 0.03818289163312928
806.0, 0.03562263243796375
807.0, 0.03523759622214367
808.0, 0.039322904547968655
809.0, 0.04233452673246925
810.0, 0.04088217168318806
811.0, 0.04646462035463194
812.0, 0.05136233079560984
813.0, 0.047911059900958314
814.0, 0.056457449412127166
815.0, 0.056955674901295085
816.0, 0.056512423053723664
817.0, 0.0584231776754876
818.0, 0.06433384890042476
819.0, 0.060099343826990274
820.0, 0.06478928109784576
821.0, 0.0699930842633347
822.0, 0.06837741335482297
823.0, 0.06570224018606516
824.0, 0.070850701307841
825.0, 0.07304257647312556
826.0, 0.07251565788610821
827.0, 0.0749106401201156
828.0, 0.07970095370097453
829.0, 0.07621360957983535
830.0, 0.07495679057880462
831.0, 0.07955558675166623
832.0, 0.07564657989584328
833.0, 0.0767602181539319
834.0, 0.07820416979986565
835.0, 0.07746124166822063
836.0, 0.07306999000186691
837.0, 0.07949026218253132
838.0, 0.0772377216520976
839.0, 0.07383840118445435
840.0, 0.07292750912858464
841.0, 0.07530132523353412
842.0, 0.06842263871839127
843.0, 0.06881665731967125
844.0, 0.07061616273445225
845.0, 0.0678168981137775
846.0, 0.06464389847410436
847.0, 0.06550542991527072
848.0, 0.062002960209905846
849.0, 0.05731405910266219
850.0, 0.06078465294768721
851.0, 0.057390940126189845
852.0, 0.05245699813683857
853.0, 0.051528410092551886
854.0, 0.05367756722141104
855.0, 0.04348736356659898
856.0, 0.04534081544631064
857.0, 0.050963508121344245
858.0, 0.053835804984270624
859.0, 0.04891779647858448
860.0, 0.0444814185620359
861.0, 0.040774117462165665
862.0, 0.0398040197395032
863.0, 0.04035857445094415
864.0, 0.03865308102918096
865.0, 0.037796653675348825
866.0, 0.03750963495647151
867.0, 0.03594801711746377
868.0, 0.033374461643198794
869.0, 0.03574482019081352
870.0, 0.035192679977502354
871.0, 0.0334180980057372
872.0, 0.032990729360094485
873.0, 0.03567001971143011
874.0, 0.032195402448728566
875.0, 0.034652909678779785
876.0, 0.035000157758531485
877.0, 0.032179462828549256
878.0, 0.02948734248989325
879.0, 0.03217904457107021
880.0, 0.03408786705464369
881.0, 0.03370946196382009
882.0, 0.03194369521698379
883.0, 0.03524640598363926
884.0, 0.030995185389737168
885.0, 0.033496717609799394
886.0, 0.037614208134318386
887.0, 0.036746958187948396
888.0, 0.03582303833836847
889.0, 0.037744644909877625
890.0, 0.03819187926969766
891.0, 0.03722566074115575
892.0, 0.03701711194347847
893.0, 0.03985192627335463
894.0, 0.03979434469662639
895.0, 0.04156014539155614
896.0, 0.044807055969626274
897.0, 0.04184123103289923
898.0, 0.04300913374569715
899.0, 0.048144655401448196
900.0, 0.050131991883148555
901.0, 0.04622341440441399
902.0, 0.051909604699557535
903.0, 0.054495445335914314
904.0, 0.053489312488742516
905.0, 0.05365728137872959
906.0, 0.05974109803119485
907.0, 0.056559182551214
908.0, 0.06094619197520832
909.0, 0.06439281354953567
910.0, 0.06528329659051468
911.0, 0.06605333370179423
912.0, 0.07052375518455062
913.0, 0.07201020780883406
914.0, 0.07407610647702328
915.0, 0.07741232393751683
916.0, 0.07823188167718485
917.0, 0.07571606873059344
918.0, 0.07914626093952731
919.0, 0.08555844146054287
920.0, 0.09099257285275321
921.0, 0.09095086449879033
922.0, 0.09648068553898474
923.0, 0.09661675106904136
924.0, 0.09747833330626306
925.0, 0.1066515936503073
926.0, 0.11066645899908525
927.0, 0.1131111371344437
928.0, 0.11922723633988298
929.0, 0.1266511352555964
930.0, 0.12957279084474965
931.0, 0.13826095509670663
932.0, 0.1486232175127951
933.0, 0.15913539517680952
934.0, 0.17093943699098083
935.0, 0.18802148433644766
936.0, 0.20562984536437584
937.0, 0.23116052125721678
938.0, 0.26219573765651905
939.0, 0.29595136831833707
940.0, 0.32917652202769104
941.0, 0.3997236083164644
942.0, 0.45629251246010294
943.0, 0.5197641618920107
944.0, 0.6072485678546009
945.0, 0.7026046188795885
946.0, 0.7512905520460287
947.0, 0.7709709319834025
948.0, 0.7748222312969406
949.0, 0.7674506338390368
950.0, 0.6900725860051907
951.0, 0.6199881690345203
952.0, 0.5257099205586844
953.0, 0.42790653452310423
954.0, 0.3630656051199843
955.0, 0.310141374785955
956.0, 0.2571846013470093
957.0, 0.22024721197237335
958.0, 0.1945906880181899
959.0, 0.16319517558500246
960.0, 0.14026579970324002
961.0, 0.12880759461305463
962.0, 0.11541479780548305
963.0, 0.09906812642290472
964.0, 0.09008589173832762
965.0, 0.0813629593595626
966.0, 0.07488033385150522
967.0, 0.07280175223747028
968.0, 0.07130269570239792
969.0, 0.057369971383650104
970.0, 0.05866826933954476
971.0, 0.05834856424060293
972.0, 0.053078009795645226
973.0, 0.0458508648832259
974.0, 0.0518737309552563
975.0, 0.0481129002261234
976.0, 0.048126168141152045
977.0, 0.0494139076664576
978.0, 0.048655538837222234
979.0, 0.04392701945419602
980.0, 0.04973663916188434
981.0, 0.04877157811613833
982.0, 0.04602778666425433
983.0, 0.04775420503022293
984.0, 0.05344305180650856
985.0, 0.04750399393593668
986.0, 0.04581258579798045
987.0, 0.04617804342969829
988.0, 0.0444382435909961
989.0, 0.0442000261629843
990.0, 0.045520484759823836
991.0, 0.04920377211247054
992.0, 0.05201944916459137
993.0, 0.05091148517498336
994.0, 0.05063870269280555
995.0, 0.04976762409921717
996.0, 0.053651294879594955
997.0, 0.0596471066123425
998.0, 0.06312029533857391
999.0, 0.06442940230663904
1000.0, 0.07469329962791701
1001.0, 0.07762799841154186
1002.0, 0.07964970651697777
1003.0, 0.09258308748672141
1004.0, 0.10022227467714825
1005.0, 0.10652987643279689
1006.0, 0.12269568188234016
1007.0, 0.14103830110968943
1008.0, 0.1486863859139752
1009.0, 0.1638488287288716
1010.0, 0.18787695796000856
1011.0, 0.20161707499126705
1012.0, 0.21296117010084062
1013.0, 0.2371787085773189
1014.0, 0.23261567133358382
1015.0, 0.2273617670823405
1016.0, 0.2238894020632018
1017.0, 0.2142899077278846
1018.0, 0.1890373934666369
1019.0, 0.17696638071009602
1020.0, 0.16047491098920613
1021.0, 0.13935568635702772
1022.0, 0.12103667992444567
1023.0, 0.11411927329591658
1024.0, 0.09730069543539248
1025.0, 0.08849193520243373
1026.0, 0.08252768363074542
1027.0, 0.07605410257152884
1028.0, 0.06733247953748217
1029.0, 0.06557073115040671
1030.0, 0.059498537817947256
1031.0, 0.056502625474719556
1032.0, 0.05616246729940475
1033.0, 0.054401453217188304
1034.0, 0.04335113280355991
1035.0, 0.04715041461202504
1036.0, 0.048576441328678124
1037.0, 0.04607934630840709
1038.0, 0.04404643393868771
1039.0, 0.04840374668889443
1040.0, 0.04317031330005658
1041.0, 0.042293663060875654
1042.0, 0.045657654654981936
1043.0, 0.04841818271051794
1044.0, 0.04468407031008296
1045.0, 0.045830816091056124
1046.0, 0.04595688034064608
1047.0, 0.04400230094438502
1048.0, 0.04147285994647538
1049.0, 0.04631682925044785
1050.0, 0.041670000300960006
1051.0, 0.041712288076450395
1052.0, 0.04528501905197007
1053.0, 0.046988980929236215
1054.0, 0.037556971862609326
1055.0, 0.04138595010659112
1056.0, 0.03953812686003107
1057.0, 0.03570093446530973
1058.0, 0.03552469482383956
1059.0, 0.040022001099626274
1060.0, 0.03703723433898675
1061.0, 0.037816266088262294
1062.0, 0.0393629567983209
1063.0, 0.03858615414610593
1064.0, 0.03550881590884018
1065.0, 0.0441259071106841
1066.0, 0.041926082375106644
1067.0, 0.04098116534359736
1068.0, 0.04789120939071209
1069.0, 0.0571548113130272
1070.0, 0.051949427706913985
1071.0, 0.05516574109449935
1072.0, 0.05657110671019777
1073.0, 0.05393502906980944
1074.0, 0.05481179308403095
1075.0, 0.059370628852605044
1076.0, 0.054931037442803046
1077.0, 0.04980509004994692
1078.0, 0.047402941047613424
1079.0, 0.04671339474159051
1080.0, 0.03601293730260944
1081.0, 0.03580966428114091
1082.0, 0.03205124267593133
1083.0, 0.02551823454058172
1084.0, 0.02357953137498839
1085.0, 0.02538604465153968
1086.0, 0.020343936814814004
1087.0, 0.015940469913429907
1088.0, 0.01431181353850237
1089.0, 0.01475140480012307
1090.0, 0.01113167895945353
1091.0, 0.00968054966578074
1092.0, 0.008193751293599063
1093.0, 0.006649204436602055
1094.0, 0.005214934409736555
1095.0, 0.0034659046891075554
1096.0, 0.0031016689045688535
1097.0, 0.0019367946202781088
1098.0, 0.0017345495897647157
1099.0, 0.002640389298428581
1100.0, 0.0015608595574520426
1101.0, 0.0018671783355857737
1102.0, 0.002066256272331493
1103.0, 0.0033368063324141764
1104.0, 0.004440720844700917
1105.0, 0.0021222176309767127
1106.0, 0.004077483306747836
1107.0, 0.0026975100740686524
1108.0, 0.0015569751932488288
1109.0, 0.0014776431697454398
1110.0, 0.0016601788574386082
1111.0, 0.000785431257055972
1112.0, 0.00102659103922015
1113.0, 0.0006330549187062972
1114.0, 0.00141085058401122
1115.0, 0.004187602634627412
1116.0, 0.0017903230612233815
1117.0, 0.0021301898690948996
1118.0, 0.009496584745448917
1119.0, 0.02000689858074091
1120.0, 0.02826451608021417
1121.0, 0.028496083676215814
1122.0, 0.015246586445967936
1123.0, 0.008958688525368103
1124.0, 0.005059834839112796
1125.0, 0.0022579654568826357
1126.0, 0.0034796049048474915
1127.0, 0.0030009896426537964
1128.0, 0.005246281080538178
1129.0, 0.004184895433041815
1130.0, 0.001055637159045665
1131.0, 0.00037428228064344325
1132.0, 0.0024509477732517623
1133.0, 0.0015544039343376793
1134.0, 0.0009749522081661094
1135.0, 0.0009374238979374221
1136.0, 0.0014365336116796406
1137.0, 0.004035278185059866
1138.0, 0.0019669466088619615
1139.0, 0.0014118680531060876
1140.0, 0.0016570684528897477
1141.0, 0.0015758505495631508
1142.0, 0.0003942705532914985
1143.0, 0.0005408481086912393
1144.0, 0.00046668129918027554
1145.0, 0.0004192751969643134
1146.0, 0.0016680504749649091
1147.0, 0.005024351100266535
1148.0, 0.0022021876850189226
1149.0, 0.0013045453637444237
1150.0, 0.0031977675549052374
1151.0, 0.003579559229678329
1152.0, 0.0005414033597212137
1153.0, 0.0037319674419281665
1154.0, 0.003115234772192838
1155.0, 0.0013186700345151248
1156.0, 0.0005315035346732374
1157.0, 0.0009165993932952112
1158.0, 0.00017411598176617456
1159.0, 0.0003580847947081979
1160.0, 0.0003295906153168496
1161.0, 0.0004259831965208632
1162.0, 0.000541906109225755
1163.0, 0.0004917919834489871
1164.0, 0.001202759316599482
1165.0, 0.0009048387662857218
1166.0, 0.0008047056427979485
1167.0, 0.0015706845073421528
1168.0, 0.0026241420559668226
1169.0, 0.0009130500539914206
1170.0, 0.0023839209545334617
1171.0, 0.0020875728714070114
1172.0, 0.0016119309126135096
1173.0, 0.0018614160754445675
1174.0, 0.0026123547929605795
1175.0, 0.001149351356096131
1176.0, 0.002434529006320055
1177.0, 0.001652609797909479
1178.0, 0.0011191364226430297
1179.0, 0.003575968869261062
1180.0, 0.004605506696675303
1181.0, 0.002661125868122096
1182.0, 0.0036741374844276274
1183.0, 0.003136241918898746
1184.0, 0.00046054774356527224
1185.0, 0.0009857830099528073
1186.0, 0.00202283866933811
1187.0, 0.004709507846938559
1188.0, 0.005409334764110264
1189.0, 0.005108465486503045
1190.0, 0.005638861500182053
1191.0, 0.002347235513615155
1192.0, 0.004778952189561776
1193.0, 0.002744182374896856
1194.0, 0.000651169177188487
1195.0, 0.0020239747410662036
1196.0, 0.005652749701181741
1197.0, 0.005225832135413964
1198.0, 0.004900511796912163
1199.0, 0.006126976884601772
1200.0, 0.0060238508181393435
1201.0, 0.0018954014910236342
1202.0, 0.0038480939396019296
1203.0, 0.0027681962532940946
1204.0, 0.0033430524928025037
1205.0, 0.0050105312560451394
1206.0, 0.005714567172325788
1207.0, 0.0027353675050392546
1208.0, 0.003871902942107339
1209.0, 0.007105580194961249
1210.0, 0.006458384971749651
1211.0, 0.0031019498915173162
1212.0, 0.0018517923600424382
1213.0, 0.006069087984625887
1214.0, 0.0035787072786467927
1215.0, 0.0036763465049271978
1216.0, 0.0035294394753241894
1217.0, 0.0027826801817901546
1218.0, 0.006483301810984722
1219.0, 0.0058493966251415355
1220.0, 0.003690228684965915
1221.0, 0.0047154431576214954
1222.0, 0.005667413742036535
1223.0, 0.0029425583848718935
1224.0, 0.005515635744793572
1225.0, 0.006663501488066736
1226.0, 0.004567170242023909
1227.0, 0.0037973812071468273
1228.0, 0.006743243829873998
1229.0, 0.011670397483791912
1230.0, 0.004780571479442022
1231.0, 0.01520670500700063
1232.0, 0.016350014302097284
1233.0, 0.0100267594063583
1234.0, 0.005615486503125232
1235.0, 0.006331113838921085
1236.0, 0.006391393238604682
1237.0, 0.0055222503097404315
1238.0, 0.006777395300971708
1239.0, 0.0076713026243314915
1240.0, 0.0033929663377080042
1241.0, 0.0034288836506724896
1242.0, 0.008552432655081758
1243.0, 0.007977670972636082
1244.0, 0.006589071062161306
1245.0, 0.007483826105480266
1246.0, 0.005738290958150654
1247.0, 0.003086441367748269
1248.0, 0.005177347867864014
1249.0, 0.004143737903629371
1250.0, 0.002822832033534697
1251.0, 0.006118879752654909
1252.0, 0.008169167837942274
1253.0, 0.005080013159457006
1254.0, 0.004016764625576169
1255.0, 0.0044806361554501585
1256.0, 0.0049851289510214145
1257.0, 0.004536843780290525
1258.0, 0.00855353654509289
1259.0, 0.003452249245524151
1260.0, 0.0028947140289784473
1261.0, 0.0053546869702252985
1262.0, 0.0062329800196580685
1263.0, 0.00247420245848845
1264.0, 0.0069988381564758725
1265.0, 0.007262878347361608
1266.0, 0.005471708256344767
1267.0, 0.005273412728337893
1268.0, 0.008204707238238155
1269.0, 0.007405661802138412
1270.0, 0.006153905773441084
1271.0, 0.005817723670603696
1272.0, 0.005908053721493865
1273.0, 0.005458703109051887
1274.0, 0.00398941068800103
1275.0, 0.005624673969724317
1276.0, 0.004696192071629734
1277.0, 0.005077521042143201
1278.0, 0.005361334525633401
1279.0, 0.00526397887483266
1280.0, 0.006901268405473895
1281.0, 0.007505319712233737
1282.0, 0.006037954768643857
1283.0, 0.00602651196589726
1284.0, 0.006299180926298765
1285.0, 0.005506461071142879
1286.0, 0.005195001388752902
1287.0, 0.006347781950537945
1288.0, 0.008743576809446147
1289.0, 0.009353416808066204
1290.0, 0.008217336151125677
1291.0, 0.0070742736469981
1292.0, 0.007530948157904337
1293.0, 0.011181175985912197
1294.0, 0.012014739443765608
1295.0, 0.009072839491622457
1296.0, 0.007402890148206257
1297.0, 0.012672171970512387
1298.0, 0.011760851544029617
1299.0, 0.009269935583118977
1300.0, 0.011082403026587445
1301.0, 0.011753032393771257
1302.0, 0.01060426523019148
1303.0, 0.012804688501077695
1304.0, 0.013586232494840639
1305.0, 0.013423278744609263
1306.0, 0.012898088216798139
1307.0, 0.013308722515101809
1308.0, 0.013269436827368076
1309.0, 0.008305428666594054
1310.0, 0.008957483997655882
1311.0, 0.007709461982810391
1312.0, 0.007770824687724424
1313.0, 0.008151375884834184
1314.0, 0.007012894735745778
1315.0, 0.0037673938498556502
1316.0, 0.00683859274962898
1317.0, 0.006291660326466236
1318.0, 0.005070732353325713
1319.0, 0.006358081415122293
1320.0, 0.010146390208148426
1321.0, 0.009265247700412274
1322.0, 0.006675733345111973
1323.0, 0.011046652693700957
1324.0, 0.009848956631597072
1325.0, 0.007462499239840318
1326.0, 0.010977276954944376
1327.0, 0.008690263004224139
1328.0, 0.005682669356248507
1329.0, 0.00786132700265762
1330.0, 0.007084416477231963
1331.0, 0.004546933999081461
1332.0, 0.0059842737452460056
1333.0, 0.011379437340483991
1334.0, 0.007740054662511194
1335.0, 0.006528082566346977
1336.0, 0.008680441509886574
1337.0, 0.010204583060517716
1338.0, 0.007497624678848958
1339.0, 0.00934854072184449
1340.0, 0.011256885978115187
1341.0, 0.0079043474218754
1342.0, 0.006190750390366126
1343.0, 0.007369132274031839
1344.0, 0.008283459025954485
1345.0, 0.009077815296162133
1346.0, 0.007785078833089024
1347.0, 0.009155811485337962
1348.0, 0.009660602763279335
1349.0, 0.008887165277103466
1350.0, 0.00891713259330648
1351.0, 0.0091141868237336
1352.0, 0.008643940109998903
1353.0, 0.008231432307791072
1354.0, 0.007837251551165096
1355.0, 0.007345835762504591
1356.0, 0.006562948077748876
1357.0, 0.0049031016910170274
1358.0, 0.006762650056522375
1359.0, 0.00993708923068949
1360.0, 0.008904665146087001
1361.0, 0.005615237897940465
1362.0, 0.006144837560816756
1363.0, 0.009125100969818691
1364.0, 0.007999469371348975
1365.0, 0.008360670044545977
1366.0, 0.008869355142791585
1367.0, 0.00853200493815779
1368.0, 0.007706364337918544
1369.0, 0.009035202558017418
1370.0, 0.006109110930142087
1371.0, 0.006302704014648404
1372.0, 0.0066318530578891545
1373.0, 0.006360731327513544
1374.0, 0.006101475152424833
1375.0, 0.004358140805926062
1376.0, 0.004630878912282126
1377.0, 0.005259689198893084
1378.0, 0.005441921081520289
1379.0, 0.00543846119143047
1380.0, 0.005323075576782274
1381.0, 0.0031277112700776027
1382.0, 0.005241000821910989
1383.0, 0.005533336044136496
1384.0, 0.004675284976121241
1385.0, 0.004753788561012985
1386.0, 0.0056700117286801275
1387.0, 0.001828124926616693
1388.0, 0.005938147734565104
1389.0, 0.004105902557994427
1390.0, 0.001627944337270123
1391.0, 0.0021681267469922483
1392.0, 0.005115752025944052
1393.0, 0.004424430384886916
1394.0, 0.001998801511086305
1395.0, 0.0011976959968014063
1396.0, 0.0007278326849949842
1397.0, 0.0014297187982296273
1398.0, 0.0032636736348453724
1399.0, 0.0043213783983036096
1400.0, 0.0039903650842994945
1401.0, 0.0036642625638232612
1402.0, 0.0030167451873147756
1403.0, 0.002039790526846544
1404.0, 0.0014509830071651945
1405.0, 0.0021558392584111095
1406.0, 0.002471632085176511
1407.0, 0.0022085958134593292
1408.0, 0.003291222922448822
1409.0, 0.003582692566217034
1410.0, 0.0034129965972349457
1411.0, 0.004132410484937025
1412.0, 0.002232867785194376
1413.0, 0.0006896203070776568
1414.0, 0.0001856266463683826
1415.0, 0.001119549304682063
1416.0, 0.0028448072388386017
1417.0, 0.004203760363042397
1418.0, 0.004290179072895903
1419.0, 0.0035462672232831737
1420.0, 0.003784920706522604
1421.0, 0.0034318819136916956
1422.0, 0.0025495103897486037
1423.0, 0.001845544043834673
1424.0, 0.0019000174305354447
1425.0, 0.0026686261415991208
1426.0, 0.0017637178568131
1427.0, 0.0027225890405183743
1428.0, 0.0031009605671082725
1429.0, 0.0021278359373283037
1430.0, 0.002225144445032738
1431.0, 0.005372956174254468
1432.0, 0.0021433355972955187
1433.0, 0.001117103250853147
1434.0, 0.0016972507131468527
1435.0, 0.0025160840298090632
1436.0, 0.0032658458750917238
1437.0, 0.006083715919115313
1438.0, 0.0030455303800283806
1439.0, 0.002486702856678716
1440.0, 0.0032555416062528017
1441.0, 0.0033515914203213824
1442.0, 0.002150523257672508
1443.0, 0.00164689044252646
1444.0, 0.0022657227348693797
1445.0, 0.0022667333532384523
1446.0, 0.0023820932895696526
1447.0, 0.003491810519909505
1448.0, 0.004639789013096578
1449.0, 0.004005444333262876
1450.0, 0.004884472615554935
1451.0, 0.004576586423557628
1452.0, 0.004714288616967774
1453.0, 0.004818279119355927
1454.0, 0.004968917827057785
1455.0, 0.005207730331689115
1456.0, 0.004446386168234461
1457.0, 0.006866192014104083
1458.0, 0.0074102320295380145
1459.0, 0.008497210369822393
1460.0, 0.011036542638148671
1461.0, 0.01221645343693943
1462.0, 0.007834443494698405
1463.0, 0.013096506337704206
1464.0, 0.011089453005004518
1465.0, 0.008496640468298625
1466.0, 0.007777821138401659
1467.0, 0.008489920235600064
1468.0, 0.009196916833761417
1469.0, 0.010848959277319133
1470.0, 0.010761371477721928
1471.0, 0.011766476493098437
1472.0, 0.010009506866566986
1473.0, 0.009613586477731266
1474.0, 0.011924848916723014
1475.0, 0.010782709906147046
1476.0, 0.01040079509956216
1477.0, 0.013748618258263236
1478.0, 0.011920718446928399
1479.0, 0.012017603920873341
1480.0, 0.014738780516235414
1481.0, 0.01516498945165768
1482.0, 0.012921196182281906
1483.0, 0.015213427593175304
1484.0, 0.014799444415774063
1485.0, 0.012207915971270576
1486.0, 0.012353323785873798
1487.0, 0.013815812877432582
1488.0, 0.007863118813670265
1489.0, 0.0104495023217325
1490.0, 0.011769313407940324
1491.0, 0.01036247877039956
1492.0, 0.00866939098911105
1493.0, 0.00975085975679923
1494.0, 0.012080722846779812
1495.0, 0.004316279519080783
1496.0, 0.008646462227789482
1497.0, 0.007804454793996676
1498.0, 0.005678018378010731
1499.0, 0.006650138361719151
1500.0, 0.008659644821948745
1501.0, 0.005732139029901822
1502.0, 0.008334757383207204
1503.0, 0.006506735476118413
1504.0, 0.005029245670272029
1505.0, 0.004925187751019711
1506.0, 0.007111564271788161
1507.0, 0.009043201428116949
1508.0, 0.004041728097035605
1509.0, 0.00793843058749211
1510.0, 0.006547127696145141
1511.0, 0.004921319957438705
1512.0, 0.005306372766290419
1513.0, 0.006461016352465474
1514.0, 0.00536925725814413
1515.0, 0.0010144428282481302
1516.0, 0.007447678358948986
1517.0, 0.004899130161030912
1518.0, 0.005437024192231737
1519.0, 0.006951448670785771
1520.0, 0.0051455323477997235
1521.0, 0.0013091297798427876
1522.0, 0.006799442983572001
1523.0, 0.0072733272758086776
1524.0, 0.004622045537427495
1525.0, 0.005583366952181882
1526.0, 0.0069823428818421
1527.0, 0.005133847870994366
1528.0, 0.00402928188073165
1529.0, 0.006228677579029097
1530.0, 0.001482817663833022
1531, 0.0
1532, 0.0
1533, 0.0
1534, 0.0
1535, 0.0
1536, 0.0
1537, 0.0
1538, 0.0
1539, 0.0
1540, 0.0
1541, 0.0
1542, 0.0
1543, 0.0
1544, 0.0
1545, 0.0
1546, 0.0
1547, 0.0
1548, 0.0
1549, 0.0
1550, 0.0
1551, 0.0
1552, 0.0
1553, 0.0
1554, 0.0
1555, 0.0
1556, 0.0
1557, 0.0
1558, 0.0
1559, 0.0
1560, 0.0
1561, 0.0
1562, 0.0
1563, 0.0
1564, 0.0
1565, 0.0
1566, 0.0
1567, 0.0
1568, 0.0
1569, 0.0
1570, 0.0
1571, 0.0
1572, 0.0
1573, 0.0
1574, 0.0
1575, 0.0
1576, 0.0
1577, 0.0
1578, 0.0
1579, 0.0
1580, 0.0
1581, 0.0
1582, 0.0
1583, 0.0
1584, 0.0
1585, 0.0
1586, 0.0
1587, 0.0
1588, 0.0
1589, 0.0
1590, 0.0
1591, 0.0
1592, 0.0
1593, 0.0
1594, 0.0
1595, 0.0
1596, 0.0
1597, 0.0
1598, 0.0
1599, 0.0
