30, 0.0
31, 0.0
32, 0.0
33, 0.0
34, 0.0
35, 0.0
36, 0.0
37, 0.0
38, 0.0
39, 0.0
40, 0.0
41, 0.0
42, 0.0
43, 0.0
44, 0.0
45, 0.0
46, 0.0
47, 0.0
48, 0.0
49, 0.0
50, 0.0
51, 0.0
52, 0.0
53, 0.0
54, 0.0
55, 0.0
56, 0.0
57, 0.0
58, 0.0
59, 0.0
60, 0.0
61, 0.0
62, 0.0
63, 0.0
64, 0.0
65, 0.0
66, 0.0
67, 0.0
68, 0.0
69, 0.0
70, 0.0
71, 0.0
72, 0.0
73, 0.0
74, 0.0
75, 0.0
76, 0.0
77, 0.0
78, 0.0
79, 0.0
80, 0.0
81, 0.0
82, 0.0
83, 0.0
84, 0.0
85, 0.0
86, 0.0
87, 0.0
88, 0.0
89, 0.0
90, 0.0
91, 0.0
92, 0.0
93, 0.0
94, 0.0
95, 0.0
96, 0.0
97, 0.0
98, 0.0
99, 0.0
100, 0.0
101, 0.0
102, 0.0
103, 0.0
104, 0.0
105, 0.0
106, 0.0
107, 0.0
108.0, 1.6168675266024004e-07
109.0, 3.249903728473726e-05
110.0, 9.478186389369028e-05
111.0, 0.00016090882147895655
112.0, 0.00017455835580076356
113.0, 0.001809413447890359
114.0, 0.002030316931926064
115.0, 0.0002842274735579708
116.0, 0.0030086043379276
117.0, 0.004465486720077921
118.0, 0.004614418581596137
119.0, 0.0029935639151480497
120.0, 0.006129002745075881
121.0, 0.007884403783654353
122.0, 0.008151637823218663
123.0, 0.013644927202057074
124.0, 0.016704466503518554
125.0, 0.019651181578395092
126.0, 0.024388285864368385
127.0, 0.03056681568651605
128.0, 0.034542942417180006
129.0, 0.03625905276359941
130.0, 0.036066797859722256
131.0, 0.032221821414486755
132.0, 0.027463263226355554
133.0, 0.02296859802872727
134.0, 0.017148832731751208
135.0, 0.013191825693565404
136.0, 0.011119383169400414
137.0, 0.01145484439822993
138.0, 0.011805127767844856
139.0, 0.013176196445694307
140.0, 0.01580155977289947
141.0, 0.018578955189343396
142.0, 0.02329770395068032
143.0, 0.028457358673366222
144.0, 0.03243455931904904
145.0, 0.0381761561100069
146.0, 0.041693711511089124
147.0, 0.04279678066519698
148.0, 0.04266613166257741
149.0, 0.042011548075341784
150.0, 0.039876213380228905
151.0, 0.0354686116538148
152.0, 0.030433928210039516
153.0, 0.027089435302752606
154.0, 0.02505749891486555
155.0, 0.023632948962827142
156.0, 0.02480675517619909
157.0, 0.02831722313479054
158.0, 0.034226575394310434
159.0, 0.04249231586926428
160.0, 0.052003803557885836
161.0, 0.061633441284728405
162.0, 0.07013152289834935
163.0, 0.07791290345576216
164.0, 0.08262594595548488
165.0, 0.08440342555875012
166.0, 0.08457987452971864
167.0, 0.07699417542205735
168.0, 0.06900606565420482
169.0, 0.06419743311625525
170.0, 0.05264130958026156
171.0, 0.044759550874137966
172.0, 0.0390076810789737
173.0, 0.032866901609541754
174.0, 0.02810139004791163
175.0, 0.024726949186989113
176.0, 0.022469170980624988
177.0, 0.018714149184706277
178.0, 0.01827569973719628
179.0, 0.01926519182727254
180.0, 0.02047686622311458
181.0, 0.02254712160826791
182.0, 0.02460927523562112
183.0, 0.027043712974718467
184.0, 0.031138511279851025
185.0, 0.03679147674753438
186.0, 0.04377653016084489
187.0, 0.052180630023565495
188.0, 0.06305472984529321
189.0, 0.07659924280459682
190.0, 0.0909907527020248
191.0, 0.10444874206836423
192.0, 0.12812936314283854
193.0, 0.15139988611270805
194.0, 0.17433476998248087
195.0, 0.2007338110573502
196.0, 0.22134520019743376
197.0, 0.2366543869802849
198.0, 0.24618719950627155
199.0, 0.24437525218418704
200.0, 0.2308561348671504
201.0, 0.21083028188449407
202.0, 0.18959903458598448
203.0, 0.16311600597784673
204.0, 0.13818398232640228
205.0, 0.1149728829754239
206.0, 0.09103648050749234
207.0, 0.07632615459693896
208.0, 0.06469441263727328
209.0, 0.05379694067011065
210.0, 0.044673115783570416
211.0, 0.03857712044269749
212.0, 0.03393814372272782
213.0, 0.028904532905170525
214.0, 0.02877811866421725
215.0, 0.029897345708495456
216.0, 0.031883011248081496
217.0, 0.035099950865819705
218.0, 0.03721592485709683
219.0, 0.041743470515091155
220.0, 0.05029078970029344
221.0, 0.05992797914416163
222.0, 0.06865532583008527
223.0, 0.07891918271091512
224.0, 0.09419429340721153
225.0, 0.1037507495056598
226.0, 0.11356023355239081
227.0, 0.12263597797158474
228.0, 0.12471161452565079
229.0, 0.1237740159319488
230.0, 0.12108336561785131
231.0, 0.11712052685622813
232.0, 0.11435561231463545
233.0, 0.11188551795625955
234.0, 0.10897247682732795
235.0, 0.10475253150758176
236.0, 0.10516425673774472
237.0, 0.1062344869400811
238.0, 0.10618654221013117
239.0, 0.10042384622935928
240.0, 0.09394127556071526
241.0, 0.08829033133400561
242.0, 0.08318912658446599
243.0, 0.07122566719882827
244.0, 0.06203561841950215
245.0, 0.053319633689961905
246.0, 0.04339454948119868
247.0, 0.038555155190341986
248.0, 0.03450061914935924
249.0, 0.03066238315116296
250.0, 0.026150632832738527
251.0, 0.022570927587055513
252.0, 0.019962531098473835
253.0, 0.018364956159571847
254.0, 0.01794767850861129
255.0, 0.015659742701636854
256.0, 0.0134708699969027
257.0, 0.012332911548351182
258.0, 0.0115269383424399
259.0, 0.010566939948729247
260.0, 0.009874228996151018
261.0, 0.010021986177131532
262.0, 0.009837641679619157
263.0, 0.010843572356683684
264.0, 0.0119176351574348
265.0, 0.009220897739190836
266.0, 0.008947165820198727
267.0, 0.010097262904169789
268.0, 0.011983109742391425
269.0, 0.010585676578543356
270.0, 0.009397972224467378
271.0, 0.009351079979794895
272.0, 0.01118411444863572
273.0, 0.012154375975492052
274.0, 0.010902628333328121
275.0, 0.009374514380455765
276.0, 0.010663766732699753
277.0, 0.007863113263955803
278.0, 0.006094393383709216
279.0, 0.005461875255769542
280.0, 0.0041506288825228456
281.0, 0.0028431771357837125
282.0, 0.002036124928097043
283.0, 0.0017622836476072594
284.0, 0.00044139077935861936
285.0, 0.0002760157465556183
286.0, 0.0008537149454950786
287.0, 0.0019551325141578388
288.0, 0.0021977717962609286
289.0, 0.002285491531809563
290.0, 0.002437820004489275
291.0, 0.003008905024425974
292.0, 0.002604016845332327
293.0, 0.002059561739525953
294.0, 0.0015462117986033733
295.0, 0.0013106696494278721
296.0, 0.0006588394595170291
297.0, 0.00051062322509361
298.0, 0.001210586742295676
299.0, 0.00320744527887418
300.0, 0.0031192384745362366
301.0, 0.0034617040386092446
302.0, 0.005782018119997386
303.0, 0.006762531948214406
304.0, 0.007009988005589748
305.0, 0.007057527682811647
306.0, 0.0075712716096833065
307.0, 0.008520151191065063
308.0, 0.009330854234085813
309.0, 0.00956845303942205
310.0, 0.008149829743671635
311.0, 0.007564311985587001
312.0, 0.005739117510470398
313.0, 0.003219713347388896
314.0, 0.005366948566044256
315.0, 0.004564552434835524
316.0, 0.0038314551550279264
317.0, 0.0043694601990159464
318.0, 0.004649637129328918
319.0, 0.004140012482770823
320.0, 0.003773234597139902
321.0, 0.004325344210157667
322.0, 0.0014917984971707888
323.0, 0.002295617511397425
324.0, 0.004197891222117582
325.0, 0.0031768924925376922
326.0, 0.004977103478016891
327.0, 0.005196908816123577
328.0, 0.004590922742375517
329.0, 0.006554053804929777
330.0, 0.006957967717818875
331.0, 0.007650410975298834
332.0, 0.008927455703261901
333.0, 0.010069776463112728
334.0, 0.012366014725350337
335.0, 0.01360734548980234
336.0, 0.01330109339121103
337.0, 0.018192365949091627
338.0, 0.01959409767757518
339.0, 0.020833590055159893
340.0, 0.02436600071870825
341.0, 0.02595214528399709
342.0, 0.028830482348346398
343.0, 0.03082976564605454
344.0, 0.028980731301126578
345.0, 0.030548712425625447
346.0, 0.030636331289290393
347.0, 0.029414924054287472
348.0, 0.027881801484029158
349.0, 0.022923875750256964
350.0, 0.019854175950665357
351.0, 0.018571181414277882
352.0, 0.015519240772083505
353.0, 0.013389717592965733
354.0, 0.01077981781718252
355.0, 0.007637071482733585
356.0, 0.0064787577426927145
357.0, 0.004864771534368643
358.0, 0.003744337180443726
359.0, 0.0036069358013336205
360.0, 0.004493817445381275
361.0, 0.0024018819815173243
362.0, 0.00068209199070273
363.0, 0.0018863857952221602
364.0, 0.0016264143395570282
365.0, 0.0009357773357155114
366.0, 0.0002747892979432787
367.0, 0.0002112658434097494
368.0, 0.0019599374479071143
369.0, 0.0018586129211475184
370.0, 0.0012493634015278761
371.0, 0.0029422036177156473
372.0, 0.0024393021502658297
373.0, 0.0017693586254409661
374.0, 0.0015094290458019838
375.0, 0.0026313678630032573
376.0, 0.0015446733510000319
377.0, 0.0016148809419462462
378.0, 0.0028958218424802724
379.0, 0.002589549267018606
380.0, 0.0022848333131453916
381.0, 0.002453507962391806
382.0, 0.002980444108788136
383.0, 0.0019294157670904709
384.0, 0.001420102450234862
385.0, 0.0008581685641326346
386.0, 0.00017315094267417695
387.0, 0.00203333657996425
388.0, 0.002240062205721627
389.0, 0.002319339098817221
390.0, 0.0031775156419512913
391.0, 0.001198942153475284
392.0, 0.002255050884400196
393.0, 0.0034798844387904882
394.0, 0.0022066044956946286
395.0, 0.002944367526404723
396.0, 0.003182741309747694
397.0, 0.00310974692228766
398.0, 0.0029909163600155826
399.0, 0.002971791418774431
400.0, 0.0020467947109336733
401.0, 0.001371095409428552
402.0, 0.00309072952576247
403.0, 0.0027628980384697675
404.0, 0.0023196189149649504
405.0, 0.00232289370991512
406.0, 0.003669454152584175
407.0, 0.0033846208509479025
408.0, 0.0023022576711311956
409.0, 0.0012049970500089859
410.0, 0.0021125298381477558
411.0, 0.00216078025116796
412.0, 0.0019694635904724768
413.0, 0.0017452075203449188
414.0, 0.001788887299835605
415.0, 0.0017959827609559584
416.0, 0.0019792226372411445
417.0, 0.0024097810958487596
418.0, 0.0031366786190334477
419.0, 0.0038282984445949506
420.0, 0.004083405675046218
421.0, 0.003963490998735452
422.0, 0.005029938487493324
423.0, 0.0055015351602014035
424.0, 0.005096848416362837
425.0, 0.0041775081799894954
426.0, 0.007908220805595136
427.0, 0.0069377608055122275
428.0, 0.00645131401661686
429.0, 0.008824081849459762
430.0, 0.006890870385789695
431.0, 0.008279400849263202
432.0, 0.009976661697214062
433.0, 0.010074776878677886
434.0, 0.009882978149527778
435.0, 0.012151146508956101
436.0, 0.014278948325596784
437.0, 0.014337473013426753
438.0, 0.01601671858379982
439.0, 0.018122424167525547
440.0, 0.020907114768925598
441.0, 0.024604763493252853
442.0, 0.02662878789726084
443.0, 0.029053001662690398
444.0, 0.031600663453194004
445.0, 0.03398934177336296
446.0, 0.03842397277284357
447.0, 0.04494480659679319
448.0, 0.05171623141589849
449.0, 0.05660966717095256
450.0, 0.06258140286054184
451.0, 0.06762393935790735
452.0, 0.07223255335807298
453.0, 0.07708733610928871
454.0, 0.07843458985479099
455.0, 0.0785867934328877
456.0, 0.07817443567314458
457.0, 0.07792225796150103
458.0, 0.07192345753744157
459.0, 0.06632864075351395
460.0, 0.06091061346102505
461.0, 0.054888239950003324
462.0, 0.05074368062212929
463.0, 0.045595044457464394
464.0, 0.0398073148390884
465.0, 0.034187748510168176
466.0, 0.030051864149027552
467.0, 0.028352816305041446
468.0, 0.026825170330955876
469.0, 0.021677699879864912
470.0, 0.01960625900702794
471.0, 0.01736270972008154
472.0, 0.014654088745916088
473.0, 0.011359594082243785
474.0, 0.01316205848857101
475.0, 0.012830120389062376
476.0, 0.011501843149078756
477.0, 0.011946311998655288
478.0, 0.010203878840374764
479.0, 0.00941633987002143
480.0, 0.009640017587268243
481.0, 0.010622946054540859
482.0, 0.008642815684578444
483.0, 0.007095755276189042
484.0, 0.006938341667230989
485.0, 0.009390745376910502
486.0, 0.008560503508997324
487.0, 0.007548396521556866
488.0, 0.006829749477858013
489.0, 0.006830703357746563
490.0, 0.006256252564924885
491.0, 0.0070214448223477706
492.0, 0.008553145691439702
493.0, 0.009851159428871797
494.0, 0.006724427200399176
495.0, 0.0052440823554523504
496.0, 0.005860884786403778
497.0, 0.008826709472668911
498.0, 0.007679848152553072
499.0, 0.007165018674359131
500.0, 0.007612053751886068
501.0, 0.009207532617952928
502.0, 0.011964983378478365
503.0, 0.012684592053095151
504.0, 0.012478372791390871
505.0, 0.01274731578080302
506.0, 0.013315364277445046
507.0, 0.014543803601874862
508.0, 0.01623484179937131
509.0, 0.018172821141565272
510.0, 0.01912231573253229
511.0, 0.02020115063355744
512.0, 0.021355092173818233
513.0, 0.02251684645933007
514.0, 0.02283474973767599
515.0, 0.024253501881187255
516.0, 0.025723838641023206
517.0, 0.026449348533850812
518.0, 0.028046694805545322
519.0, 0.029025983625783146
520.0, 0.031101543879523883
521.0, 0.034905796964409805
522.0, 0.031191374830594285
523.0, 0.03219993902738629
524.0, 0.03486505391986153
525.0, 0.03703334246562017
526.0, 0.03496269025291522
527.0, 0.03504838234589857
528.0, 0.0361487874455232
529.0, 0.03765310780276654
530.0, 0.03909741909676171
531.0, 0.04126781008184324
532.0, 0.043107513484383256
533.0, 0.043969199995234895
534.0, 0.042612651050306524
535.0, 0.04279051564130398
536.0, 0.04271936442198793
537.0, 0.04207845305338839
538.0, 0.042006915666735416
539.0, 0.04235640003538325
540.0, 0.04250310971116842
541.0, 0.042469452722979306
542.0, 0.042858808035945425
543.0, 0.04344867607883596
544.0, 0.042831724134029886
545.0, 0.04096333977849331
546.0, 0.03838670059127026
547.0, 0.040187846576040395
548.0, 0.04039823753620776
549.0, 0.038391039079802666
550.0, 0.034445910915362234
551.0, 0.03123598558879692
552.0, 0.03061643033026516
553.0, 0.03062996813374762
554.0, 0.028127895152892934
555.0, 0.028362320630074975
556.0, 0.026274261294756674
557.0, 0.024335974444344533
558.0, 0.02551079888268406
559.0, 0.023322485145114626
560.0, 0.02195246079929309
561.0, 0.022017655004039315
562.0, 0.023778421417347373
563.0, 0.02185662172063885
564.0, 0.023103072054243442
565.0, 0.0252006789738986
566.0, 0.026731686689743347
567.0, 0.02803803116338114
568.0, 0.03205996983297302
569.0, 0.03441496786710642
570.0, 0.03383419307099539
571.0, 0.034567365019801115
572.0, 0.03032416895060713
573.0, 0.027947659507290265
574.0, 0.028308032577913762
575.0, 0.0264893002635693
576.0, 0.021352476114058758
577.0, 0.01931664736556386
578.0, 0.019560180787384907
579.0, 0.016574961889979402
580.0, 0.016866566827807114
581.0, 0.016422379787206266
582.0, 0.014811929670427548
583.0, 0.012142712095257897
584.0, 0.015266273887562482
585.0, 0.015169427292482711
586.0, 0.013636666878368129
587.0, 0.013395559121009822
588.0, 0.013804219458566245
589.0, 0.012673075635868456
590.0, 0.012177314238411277
591.0, 0.013741635595833197
592.0, 0.011321491257376312
593.0, 0.011024478570021957
594.0, 0.011887433144910132
595.0, 0.01291043506658373
596.0, 0.010687447364369003
597.0, 0.011200046039472488
598.0, 0.01230616067920947
599.0, 0.013326369462050786
600.0, 0.014547540796310756
601.0, 0.013204998865950383
602.0, 0.011830308485767708
603.0, 0.011898062515140534
604.0, 0.015733650053063597
605.0, 0.01436341339751694
606.0, 0.014284695431393124
607.0, 0.014808469058341106
608.0, 0.013807888648896175
609.0, 0.013747040613754652
610.0, 0.016321944382633003
611.0, 0.017445935875925703
612.0, 0.013567172992735143
613.0, 0.017073984988772065
614.0, 0.017336808925653986
615.0, 0.017531756715232428
616.0, 0.01930170356056267
617.0, 0.020080983047864716
618.0, 0.020686460979585895
619.0, 0.022189819978054685
620.0, 0.02454615799706963
621.0, 0.025984301277299053
622.0, 0.026292908257756865
623.0, 0.028446750884076628
624.0, 0.03163775891009545
625.0, 0.03263503596465839
626.0, 0.03464949490968978
627.0, 0.03512444015531708
628.0, 0.03350743580849073
629.0, 0.029437225591058012
630.0, 0.026897247241140888
631.0, 0.022252267742880746
632.0, 0.018541190309250017
633.0, 0.017963935608539382
634.0, 0.016975000634085663
635.0, 0.014649033818418233
636.0, 0.014370042043480986
637.0, 0.016349160548965378
638.0, 0.013590299982776123
639.0, 0.016162805297516545
640.0, 0.016325153630834754
641.0, 0.014727213455948627
642.0, 0.018135310985553564
643.0, 0.020949390899412695
644.0, 0.020779245810779657
645.0, 0.019845931838100638
646.0, 0.02171098943406053
647.0, 0.020521077578037228
648.0, 0.0200439793677307
649.0, 0.020665552304473096
650.0, 0.02235288793400409
651.0, 0.021576789235639864
652.0, 0.020617884749719057
653.0, 0.019499077264382412
654.0, 0.018227324028222865
655.0, 0.01678453650863449
656.0, 0.014962206195846803
657.0, 0.012473007627950205
658.0, 0.010567779378635834
659.0, 0.012219759187389984
660.0, 0.008527785193340366
661.0, 0.007474045042599411
662.0, 0.007392608472291693
663.0, 0.005501907890242937
664.0, 0.0031740680785370175
665.0, 0.0032093373997195192
666.0, 0.002640521423515393
667.0, 0.00013417643537304725
668.0, 0.0004059742319983365
669.0, 0.00205455780757667
670.0, 0.002003210760642896
671.0, 0.0007138892865551059
672.0, 0.0028113701365908798
673.0, 0.0029333636408081227
674.0, 0.0020328116135737073
675.0, 0.0010308148650673603
676.0, 0.0011347853937100178
677.0, 0.0015128658432363743
678.0, 0.0024222025425619685
679.0, 0.0030935903784978396
680.0, 0.002941020712581373
681.0, 0.002380943762167702
682.0, 0.001820963142264292
683.0, 0.0013095627297206387
684.0, 0.0010877040699413722
685.0, 0.001978855907864595
686.0, 0.0017084534705862544
687.0, 0.001587941575207634
688.0, 0.0014010938931260943
689.0, 0.0004078299829829849
690.0, 0.0020023177693815723
691.0, 0.0012851734748034061
692.0, 0.0007246457268063347
693.0, 0.002216398816890997
694.0, 0.0014440206253965044
695.0, 0.0006708393972737673
696.0, 0.0012658695296603505
697.0, 0.002757570062537097
698.0, 0.001317447881423252
699.0, 0.0004757393823453545
700.0, 0.0009806793259021752
701.0, 0.0016736709615212638
702.0, 0.00046187762881051014
703.0, 0.00032344140264175885
704.0, 0.0009700257890272836
705.0, 0.00197288285028225
706.0, 0.0028991211653308143
707.0, 0.003013718112534627
708.0, 0.0022347868837793656
709.0, 0.0014563614268941795
710.0, 0.000982629701708948
711.0, 0.0007460509417021895
712.0, 0.0027397737466499103
713.0, 0.002769714214051859
714.0, 0.002325535550563258
715.0, 0.0041329790863392476
716.0, 0.0032036564527909007
717.0, 0.003272525538542086
718.0, 0.0041908894967420405
719.0, 0.0050635168526469675
720.0, 0.0010582342661066121
721.0, 0.0009190037720575643
722.0, 0.001301954643894998
723.0, 0.0014877202698925529
724.0, 0.001891532430441234
725.0, 0.0011309368627809681
726.0, 0.0019398182027081888
727.0, 0.0030105700364230436
728.0, 0.0028052852077380497
729.0, 0.0011268194689413873
730.0, 0.004546255002848238
731.0, 0.005695705841290072
732.0, 0.0035869293380880276
733.0, 0.006815597142692592
734.0, 0.005328219141761637
735.0, 0.0025704049759557516
736.0, 0.002177094509767305
737.0, 0.00847163860940114
738.0, 0.0030006621685092875
739.0, 0.0016436467574125937
740.0, 0.0027186680134888915
741.0, 0.0045051765231855535
742.0, 0.00394420396902323
743.0, 0.005799063047050663
744.0, 0.006815257749200068
745.0, 0.006147241635891572
746.0, 0.003798598537361631
747.0, 0.00701151366479209
748.0, 0.007795376096009754
749.0, 0.007737451544097964
750.0, 0.008556805203001063
751.0, 0.009785316236496266
752.0, 0.007469187342572506
753.0, 0.006472418715270839
754.0, 0.006991152181470058
755.0, 0.0048662037513517754
756.0, 0.006866224208781151
757.0, 0.00808443534156759
758.0, 0.007878900152173783
759.0, 0.0063432535060741506
760.0, 0.007351026499164068
761.0, 0.006651641114424862
762.0, 0.0079687042872645
763.0, 0.010372580840628538
764.0, 0.0051141675468633135
765.0, 0.005673532950238415
766.0, 0.00745321778530195
767.0, 0.007721418550351878
768.0, 0.004315634665786939
769.0, 0.0098078269664136
770.0, 0.010139382791357648
771.0, 0.007358547656235002
772.0, 0.004989994231630352
773.0, 0.012505352983285763
774.0, 0.007972159181182261
775.0, 0.006206566392350226
776.0, 0.007169769596687797
777.0, 0.007489289601560497
778.0, 0.006710656607663524
779.0, 0.008727786795622344
780.0, 0.007952206708094434
781.0, 0.003942971033911771
782.0, 0.007652414471530227
783.0, 0.007042956383596062
784.0, 0.005420289518560421
785.0, 0.004677473761003033
786.0, 0.006594612252559234
787.0, 0.008512169712287685
788.0, 0.006973535259332312
789.0, 0.006892326481974974
790.0, 0.009243087196628204
791.0, 0.00689544626566377
792.0, 0.01105787583580284
793.0, 0.011720061001356207
794.0, 0.009093014164975821
795.0, 0.00615571903853406
796.0, 0.014819752305978994
797.0, 0.01347935084919631
798.0, 0.011542962036888186
799.0, 0.012821248371643484
800.0, 0.013172409624596988
801.0, 0.011317338570399448
802.0, 0.014537110235053923
803.0, 0.017447645486027
804.0, 0.01303426527714858
805.0, 0.017664526047798668
806.0, 0.017671399391055914
807.0, 0.01633360957192534
808.0, 0.016746522596783775
809.0, 0.023859956766639573
810.0, 0.019024014918712483
811.0, 0.020202049555693855
812.0, 0.024247085820973437
813.0, 0.02542016747173144
814.0, 0.01947210049929823
815.0, 0.02489881873259766
816.0, 0.029706542273288544
817.0, 0.031020013710963537
818.0, 0.03250740212097234
819.0, 0.030580751179247856
820.0, 0.03011748052455204
821.0, 0.03186309411683443
822.0, 0.035415867018660924
823.0, 0.035769496934913436
824.0, 0.039117515148348866
825.0, 0.042218503427049255
826.0, 0.043091866396170894
827.0, 0.039848525241937875
828.0, 0.04686941118747294
829.0, 0.04599363145521068
830.0, 0.04389418491929436
831.0, 0.04500628028001008
832.0, 0.04898780031190189
833.0, 0.044277328002815225
834.0, 0.046952217195806716
835.0, 0.05105747111791517
836.0, 0.0460154484107318
837.0, 0.0463874208574353
838.0, 0.04878649381557001
839.0, 0.04942470648862943
840.0, 0.049032460910897246
841.0, 0.05429491522841753
842.0, 0.05197104884361948
843.0, 0.05120528710912458
844.0, 0.05202796571202537
845.0, 0.052719985726490816
846.0, 0.04539207073353983
847.0, 0.048445446588575705
848.0, 0.04873801594082341
849.0, 0.04505566672666157
850.0, 0.04156719256069886
851.0, 0.04993203536473306
852.0, 0.050197330642059244
853.0, 0.050319075276388736
854.0, 0.05294239723512802
855.0, 0.0500651257225294
856.0, 0.0484889756740742
857.0, 0.054112171966695245
858.0, 0.05954331362815166
859.0, 0.05692365695391212
860.0, 0.05718088200909364
861.0, 0.05924826702256336
862.0, 0.05538799899314218
863.0, 0.05045457168020968
864.0, 0.059180405653477326
865.0, 0.04640810226583127
866.0, 0.04270133578623116
867.0, 0.04385698316810984
868.0, 0.04484183086502727
869.0, 0.038659794690669144
870.0, 0.0410300344170995
871.0, 0.03756610222792766
872.0, 0.03314277838924121
873.0, 0.03492927718738214
874.0, 0.03441669498113974
875.0, 0.03405205294644229
876.0, 0.033123245640782194
877.0, 0.03190169678795437
878.0, 0.031391163160303326
879.0, 0.030856881137424734
880.0, 0.03358248627615913
881.0, 0.03328979193061228
882.0, 0.02861459419903903
883.0, 0.029015722285911733
884.0, 0.032898482457314734
885.0, 0.03185762210502616
886.0, 0.030915369252593947
887.0, 0.034725731591632523
888.0, 0.02944588219365558
889.0, 0.030888920609197814
890.0, 0.03291396052860406
891.0, 0.03358678259147351
892.0, 0.032683622269576974
893.0, 0.03582018492716991
894.0, 0.03404935276111523
895.0, 0.032864559518948185
896.0, 0.03493781349289627
897.0, 0.03989984928004474
898.0, 0.032262392741722705
899.0, 0.036152326799058374
900.0, 0.04118276714761806
901.0, 0.038434469100937854
902.0, 0.03293272442433275
903.0, 0.03986137591214901
904.0, 0.03928880090867512
905.0, 0.03619877081878783
906.0, 0.040656689090853265
907.0, 0.044263684064418905
908.0, 0.04168980395628762
909.0, 0.043005686669767784
910.0, 0.04658448935306881
911.0, 0.04313152364651022
912.0, 0.04651020888073633
913.0, 0.0483927690751391
914.0, 0.04845098659478945
915.0, 0.04861065270761361
916.0, 0.05496668411567615
917.0, 0.050012052657277956
918.0, 0.05085315396865681
919.0, 0.05483773915282835
920.0, 0.05839999508503001
921.0, 0.06019865315190957
922.0, 0.060598025343069004
923.0, 0.06540272219518277
924.0, 0.07076184762002527
925.0, 0.072323010038249
926.0, 0.08142975661247616
927.0, 0.08063823663784735
928.0, 0.08803524183273394
929.0, 0.1004433535247476
930.0, 0.10478095468832607
931.0, 0.10978172679159555
932.0, 0.12316430951557021
933.0, 0.1352480698468807
934.0, 0.1451507183384656
935.0, 0.1604387486211324
936.0, 0.18109513925157267
937.0, 0.20040430378138302
938.0, 0.225830703028601
939.0, 0.2599003577691079
940.0, 0.2960103942032218
941.0, 0.3391478397896369
942.0, 0.40032800042095196
943.0, 0.4693773967274838
944.0, 0.5424631062634657
945.0, 0.6477103970791216
946.0, 0.7545731872119723
947.0, 0.8491477354478283
948.0, 0.9319937785774747
949.0, 0.9968871090714204
950.0, 0.9657581997856315
951.0, 0.9217723660805193
952.0, 0.84373712271711
953.0, 0.7395717516923848
954.0, 0.629506042098467
955.0, 0.5328954600910293
956.0, 0.44242959127448817
957.0, 0.3622110081538777
958.0, 0.29729059209787917
959.0, 0.25261219879192465
960.0, 0.20834179169518108
961.0, 0.17758166683515825
962.0, 0.1491313252883712
963.0, 0.12276657777618076
964.0, 0.10832862469714832
965.0, 0.09340438536302435
966.0, 0.07999104552364353
967.0, 0.06996477561790476
968.0, 0.06227295629906646
969.0, 0.05160819300570873
970.0, 0.04654143536697095
971.0, 0.04112089831328518
972.0, 0.03713877507553697
973.0, 0.034398327388305644
974.0, 0.02774949582104466
975.0, 0.02621890515879203
976.0, 0.022915495589071057
977.0, 0.02089548505609313
978.0, 0.021427604530238023
979.0, 0.018220805707108833
980.0, 0.013977572067504614
981.0, 0.016484697201099702
982.0, 0.01746300230064233
983.0, 0.012095552397893988
984.0, 0.017629387002974988
985.0, 0.016893476209170272
986.0, 0.014155895867954307
987.0, 0.014755776359443314
988.0, 0.0201504283140947
989.0, 0.010735734222520561
990.0, 0.01086488915779689
991.0, 0.012918007950799096
992.0, 0.012537937814316733
993.0, 0.0082342579271232
994.0, 0.012432664031848178
995.0, 0.009772593979274494
996.0, 0.008488985905479281
997.0, 0.009999406265176997
998.0, 0.01327913450672326
999.0, 0.014459996319159483
1000.0, 0.0252648149231287
1001.0, 0.03426845644928604
1002.0, 0.03686414593003375
1003.0, 0.03200701660159604
1004.0, 0.029275991053865504
1005.0, 0.01797920747202512
1006.0, 0.010964156433325226
1007.0, 0.008614747282762692
1008.0, 0.0063698286808574825
1009.0, 0.001351988133037249
1010.0, 0.0036739375899305193
1011.0, 0.004353518551638618
1012.0, 0.0024033182432891486
1013.0, 0.0005481190197039899
1014.0, 0.0045177275381046945
1015.0, 0.003219602357430926
1016.0, 0.0035955705355917677
1017.0, 0.00632690192020209
1018.0, 0.008955336619575434
1019.0, 0.005541551974583062
1020.0, 0.010970861634307157
1021.0, 0.011755780642264443
1022.0, 0.009389086760495635
1023.0, 0.011346889531922482
1024.0, 0.014169884269860399
1025.0, 0.010764587372830989
1026.0, 0.011215764580263502
1027.0, 0.01366424946829892
1028.0, 0.01162311781896882
1029.0, 0.006358561275107921
1030.0, 0.009467396512933027
1031.0, 0.008527991417298845
1032.0, 0.005231227785650867
1033.0, 0.005889180731880792
1034.0, 0.005483247323708753
1035.0, 0.0037340802685627973
1036.0, 0.00589941610192722
1037.0, 0.009176603294084457
1038.0, 0.008504640107820415
1039.0, 0.005090201592097155
1040.0, 0.011625586288808176
1041.0, 0.01366947942089441
1042.0, 0.013600253490563118
1043.0, 0.017451350505084492
1044.0, 0.02006354962293501
1045.0, 0.020886337321652678
1046.0, 0.02820842871070542
1047.0, 0.03609951991755973
1048.0, 0.038462830445544924
1049.0, 0.04803940144229019
1050.0, 0.05861302788649561
1051.0, 0.06394699760923196
1052.0, 0.06628153515303739
1053.0, 0.0682158235710298
1054.0, 0.06597362660948829
1055.0, 0.06185309527038973
1056.0, 0.060381656632320146
1057.0, 0.052635246060802485
1058.0, 0.037087915314470664
1059.0, 0.039939444160014534
1060.0, 0.03383880273051538
1061.0, 0.02616598727713351
1062.0, 0.023327474211019036
1063.0, 0.02450354011266861
1064.0, 0.013424432021833702
1065.0, 0.01375328812791865
1066.0, 0.014093197357676562
1067.0, 0.011699767520380799
1068.0, 0.008135250072018397
1069.0, 0.010749054923000125
1070.0, 0.009736651608815918
1071.0, 0.0067587577931575125
1072.0, 0.006632751030011301
1073.0, 0.008260729780812881
1074.0, 0.00417663924348932
1075.0, 0.006787760534701522
1076.0, 0.010818360694425478
1077.0, 0.010030212449970825
1078.0, 0.007600663836587251
1079.0, 0.012753821032419444
1080.0, 0.012123013190651082
1081.0, 0.011119665451761782
1082.0, 0.013815160597245014
1083.0, 0.015956252039289083
1084.0, 0.011598981529877341
1085.0, 0.017721774797987394
1086.0, 0.014252861930139978
1087.0, 0.010795082362628359
1088.0, 0.01073539192612075
1089.0, 0.013106504819676549
1090.0, 0.005266341788474876
1091.0, 0.00380930106858451
1092.0, 0.0070962434647219375
1093.0, 0.007711589448429911
1094.0, 0.0032571268799052025
1095.0, 0.00870130369109094
1096.0, 0.004185645465536594
1097.0, 0.0029354640144000706
1098.0, 0.005703314397161218
1099.0, 0.008598528739455491
1100.0, 0.0021827260598145434
1101.0, 0.000956535656336332
1102.0, 0.0006664032846339168
1103.0, 0.0010880599406473046
1104.0, 0.0023603523031168836
1105.0, 0.004721297617591073
1106.0, 0.003645660093389075
1107.0, 0.0015530390647042174
1108.0, 0.004120174990019416
1109.0, 0.006579952751904462
1110.0, 0.0010661700463604228
1111.0, 0.003263855673128251
1112.0, 0.006847706342066541
1113.0, 0.006880585564407394
1114.0, 0.005132000762002568
1115.0, 0.004069289409374068
1116.0, 0.0006679402967607522
1117.0, 0.002495381576203314
1118.0, 0.004168974985417444
1119.0, 0.003647080188768659
1120.0, 0.0015108395316401528
1121.0, 0.0025399419247771364
1122.0, 0.0031298808826775576
1123.0, 0.002337245576527066
1124.0, 0.002675965817537867
1125.0, 0.0037671240568664353
1126.0, 0.0024211063772004477
1127.0, 0.004063191473630868
1128.0, 0.003930719524478977
1129.0, 0.002420647609262645
1130.0, 0.0018877523986383987
1131.0, 0.0042935859006520884
1132.0, 0.001834720664099376
1133.0, 0.0009162296097537465
1134.0, 0.005370967162849678
1135.0, 0.006837207911549506
1136.0, 0.0007823506178878787
1137.0, 0.002540811158859492
1138.0, 0.003205394245461127
1139.0, 0.0016559883374294773
1140.0, 0.0022822846228734007
1141.0, 0.004459682734254353
1142.0, 0.0005144151158610055
1143.0, 0.0024009983332490574
1144.0, 0.0012824623763304757
1145.0, 0.0005746492163047595
1146.0, 0.0011552253065997315
1147.0, 0.002083155490292243
1148.0, 0.0015075360899129754
1149.0, 0.0015396226312263265
1150.0, 0.004007678067000114
1151.0, 0.005677372431422338
1152.0, 0.003858941246625376
1153.0, 0.0016495499140370615
1154.0, 0.005135606841743991
1155.0, 0.003414533041704149
1156.0, 0.0017797572797085802
1157.0, 0.0032067022781813287
1158.0, 0.00561598381181538
1159.0, 0.0029444786415921687
1160.0, 0.008224475284126282
1161.0, 0.0076483111669609985
1162.0, 0.004285357865809505
1163.0, 0.007764260087236097
1164.0, 0.008363633000886635
1165.0, 0.0062349219382004765
1166.0, 0.008163949227748818
1167.0, 0.010175697383470668
1168.0, 0.008111643467777456
1169.0, 0.0026237394408379767
1170.0, 0.011098062431679682
1171.0, 0.007621621162865961
1172.0, 0.004237990384975794
1173.0, 0.006113530488460152
1174.0, 0.009824515219433784
1175.0, 0.006436525875137059
1176.0, 0.008687355642723842
1177.0, 0.009974614360576157
1178.0, 0.008449472262369633
1179.0, 0.005427558131631202
1180.0, 0.007122693214838211
1181.0, 0.006058553306365786
1182.0, 0.0037850569633136014
1183.0, 0.004395801001884918
1184.0, 0.0074906169788862675
1185.0, 0.007256092396076849
1186.0, 0.011619372220201074
1187.0, 0.011301852519948922
1188.0, 0.007338459708174915
1189.0, 0.005285958473350673
1190.0, 0.00874374935482889
1191.0, 0.0029471036845300797
1192.0, 0.005030688709388255
1193.0, 0.0074671929998441295
1194.0, 0.006143056406564049
1195.0, 0.001914343119151008
1196.0, 0.0020018969950447866
1197.0, 0.007963718248945234
1198.0, 0.004854078181730918
1199.0, 0.005813507074274484
1200.0, 0.007712095292542718
1201.0, 0.0031394881499665875
1202.0, 0.009381529559997994
1203.0, 0.012454817441209434
1204.0, 0.006233000047592367
1205.0, 0.0050944935514728815
1206.0, 0.012644210189849835
1207.0, 0.011081374172356155
1208.0, 0.005035665680327121
1209.0, 0.010177099714732192
1210.0, 0.010235666775467743
1211.0, 0.005427414096899113
1212.0, 0.004320350723581502
1213.0, 0.011222931503278338
1214.0, 0.0060051126552389845
1215.0, 0.007090167686741364
1216.0, 0.010526106909118963
1217.0, 0.009911946919454549
1218.0, 0.0012899440881087923
1219.0, 0.008600963139782132
1220.0, 0.008279177545989879
1221.0, 0.0038425862796608555
1222.0, 0.002911634355962122
1223.0, 0.008589069980171771
1224.0, 0.0005917981178149567
1225, 0.0
1226, 0.0
1227, 0.0
1228, 0.0
1229, 0.0
1230, 0.0
1231, 0.0
1232, 0.0
1233, 0.0
1234, 0.0
1235, 0.0
1236, 0.0
1237, 0.0
1238, 0.0
1239, 0.0
1240, 0.0
1241, 0.0
1242, 0.0
1243, 0.0
1244, 0.0
1245, 0.0
1246, 0.0
1247, 0.0
1248, 0.0
1249, 0.0
1250, 0.0
1251, 0.0
1252, 0.0
1253, 0.0
1254, 0.0
1255, 0.0
1256, 0.0
1257, 0.0
1258, 0.0
1259, 0.0
1260, 0.0
1261, 0.0
1262, 0.0
1263, 0.0
1264, 0.0
1265, 0.0
1266, 0.0
1267, 0.0
1268, 0.0
1269, 0.0
1270, 0.0
1271, 0.0
1272, 0.0
1273, 0.0
1274, 0.0
1275, 0.0
1276, 0.0
1277, 0.0
1278, 0.0
1279, 0.0
1280, 0.0
1281, 0.0
1282, 0.0
1283, 0.0
1284, 0.0
1285, 0.0
1286, 0.0
1287, 0.0
1288, 0.0
1289, 0.0
1290, 0.0
1291, 0.0
1292, 0.0
1293, 0.0
1294, 0.0
1295, 0.0
1296, 0.0
1297, 0.0
1298, 0.0
1299, 0.0
1300, 0.0
1301, 0.0
1302, 0.0
1303, 0.0
1304, 0.0
1305, 0.0
1306, 0.0
1307, 0.0
1308, 0.0
1309, 0.0
1310, 0.0
1311, 0.0
1312, 0.0
1313, 0.0
1314, 0.0
1315, 0.0
1316, 0.0
1317, 0.0
1318, 0.0
1319, 0.0
1320, 0.0
1321, 0.0
1322, 0.0
1323, 0.0
1324, 0.0
1325, 0.0
1326, 0.0
1327, 0.0
1328, 0.0
1329, 0.0
1330, 0.0
1331, 0.0
1332, 0.0
1333, 0.0
1334, 0.0
1335, 0.0
1336, 0.0
1337, 0.0
1338, 0.0
1339, 0.0
1340, 0.0
1341, 0.0
1342, 0.0
1343, 0.0
1344, 0.0
1345, 0.0
1346, 0.0
1347, 0.0
1348, 0.0
1349, 0.0
1350, 0.0
1351, 0.0
1352, 0.0
1353, 0.0
1354, 0.0
1355, 0.0
1356, 0.0
1357, 0.0
1358, 0.0
1359, 0.0
1360, 0.0
1361, 0.0
1362, 0.0
1363, 0.0
1364, 0.0
1365, 0.0
1366, 0.0
1367, 0.0
1368, 0.0
1369, 0.0
1370, 0.0
1371, 0.0
1372, 0.0
1373, 0.0
1374, 0.0
1375, 0.0
1376, 0.0
1377, 0.0
1378, 0.0
1379, 0.0
1380, 0.0
1381, 0.0
1382, 0.0
1383, 0.0
1384, 0.0
1385, 0.0
1386, 0.0
1387, 0.0
1388, 0.0
1389, 0.0
1390, 0.0
1391, 0.0
1392, 0.0
1393, 0.0
1394, 0.0
1395, 0.0
1396, 0.0
1397, 0.0
1398, 0.0
1399, 0.0
1400, 0.0
1401, 0.0
1402, 0.0
1403, 0.0
1404, 0.0
1405, 0.0
1406, 0.0
1407, 0.0
1408, 0.0
1409, 0.0
1410, 0.0
1411, 0.0
1412, 0.0
1413, 0.0
1414, 0.0
1415, 0.0
1416, 0.0
1417, 0.0
1418, 0.0
1419, 0.0
1420, 0.0
1421, 0.0
1422, 0.0
1423, 0.0
1424, 0.0
1425, 0.0
1426, 0.0
1427, 0.0
1428, 0.0
1429, 0.0
1430, 0.0
1431, 0.0
1432, 0.0
1433, 0.0
1434, 0.0
1435, 0.0
1436, 0.0
1437, 0.0
1438, 0.0
1439, 0.0
1440, 0.0
1441, 0.0
1442, 0.0
1443, 0.0
1444, 0.0
1445, 0.0
1446, 0.0
1447, 0.0
1448, 0.0
1449, 0.0
1450, 0.0
1451, 0.0
1452, 0.0
1453, 0.0
1454, 0.0
1455, 0.0
1456, 0.0
1457, 0.0
1458, 0.0
1459, 0.0
1460, 0.0
1461, 0.0
1462, 0.0
1463, 0.0
1464, 0.0
1465, 0.0
1466, 0.0
1467, 0.0
1468, 0.0
1469, 0.0
1470, 0.0
1471, 0.0
1472, 0.0
1473, 0.0
1474, 0.0
1475, 0.0
1476, 0.0
1477, 0.0
1478, 0.0
1479, 0.0
1480, 0.0
1481, 0.0
1482, 0.0
1483, 0.0
1484, 0.0
1485, 0.0
1486, 0.0
1487, 0.0
1488, 0.0
1489, 0.0
1490, 0.0
1491, 0.0
1492, 0.0
1493, 0.0
1494, 0.0
1495, 0.0
1496, 0.0
1497, 0.0
1498, 0.0
1499, 0.0
1500, 0.0
1501, 0.0
1502, 0.0
1503, 0.0
1504, 0.0
1505, 0.0
1506, 0.0
1507, 0.0
1508, 0.0
1509, 0.0
1510, 0.0
1511, 0.0
1512, 0.0
1513, 0.0
1514, 0.0
1515, 0.0
1516, 0.0
1517, 0.0
1518, 0.0
1519, 0.0
1520, 0.0
1521, 0.0
1522, 0.0
1523, 0.0
1524, 0.0
1525, 0.0
1526, 0.0
1527, 0.0
1528, 0.0
1529, 0.0
1530, 0.0
1531, 0.0
1532, 0.0
1533, 0.0
1534, 0.0
1535, 0.0
1536, 0.0
1537, 0.0
1538, 0.0
1539, 0.0
1540, 0.0
1541, 0.0
1542, 0.0
1543, 0.0
1544, 0.0
1545, 0.0
1546, 0.0
1547, 0.0
1548, 0.0
1549, 0.0
1550, 0.0
1551, 0.0
1552, 0.0
1553, 0.0
1554, 0.0
1555, 0.0
1556, 0.0
1557, 0.0
1558, 0.0
1559, 0.0
1560, 0.0
1561, 0.0
1562, 0.0
1563, 0.0
1564, 0.0
1565, 0.0
1566, 0.0
1567, 0.0
1568, 0.0
1569, 0.0
1570, 0.0
1571, 0.0
1572, 0.0
1573, 0.0
1574, 0.0
1575, 0.0
1576, 0.0
1577, 0.0
1578, 0.0
1579, 0.0
1580, 0.0
1581, 0.0
1582, 0.0
1583, 0.0
1584, 0.0
1585, 0.0
1586, 0.0
1587, 0.0
1588, 0.0
1589, 0.0
1590, 0.0
1591, 0.0
1592, 0.0
1593, 0.0
1594, 0.0
1595, 0.0
1596, 0.0
1597, 0.0
1598, 0.0
1599, 0.0
