30, 0.0
31, 0.0
32, 0.0
33, 0.0
34, 0.0
35, 0.0
36, 0.0
37, 0.0
38, 0.0
39, 0.0
40, 0.0
41, 0.0
42, 0.0
43, 0.0
44, 0.0
45, 0.0
46, 0.0
47, 0.0
48, 0.0
49, 0.0
50, 0.0
51, 0.0
52, 0.0
53, 0.0
54, 0.0
55, 0.0
56, 0.0
57, 0.0
58, 0.0
59, 0.0
60, 0.0
61, 0.0
62, 0.0
63, 0.0
64, 0.0
65, 0.0
66, 0.0
67, 0.0
68, 0.0
69, 0.0
70, 0.0
71, 0.0
72, 0.0
73, 0.0
74, 0.0
75, 0.0
76, 0.0
77, 0.0
78, 0.0
79, 0.0
80, 0.0
81, 0.0
82, 0.0
83, 0.0
84, 0.0
85, 0.0
86, 0.0
87, 0.0
88, 0.0
89, 0.0
90, 0.0
91, 0.0
92, 0.0
93, 0.0
94, 0.0
95, 0.0
96, 0.0
97, 0.0
98, 0.0
99, 0.0
100, 0.0
101, 0.0
102, 0.0
103, 0.0
104, 0.0
105, 0.0
106, 0.0
107, 0.0
108, 0.0
109, 0.0
110, 0.0
111, 0.0
112, 0.0
113, 0.0
114, 0.0
115, 0.0
116, 0.0
117, 0.0
118, 0.0
119, 0.0
120, 0.0
121, 0.0
122, 0.0
123, 0.0
124, 0.0
125, 0.0
126, 0.0
127, 0.0
128, 0.0
129, 0.0
130, 0.0
131, 0.0
132, 0.0
133, 0.0
134, 0.0
135, 0.0
136, 0.0
137.0, 0.00018876319734937374
138.0, 0.00019648510897833494
139.0, 0.0004736939418155434
140.0, 0.0002983755090042929
141.0, 0.0006904847502498597
142.0, 0.0033162208834568597
143.0, 0.006139583772611693
144.0, 0.010710907028577367
145.0, 0.014679052824736484
146.0, 0.017563635728773487
147.0, 0.019939578159021552
148.0, 0.021256617759145283
149.0, 0.019252611297981028
150.0, 0.015086986003688274
151.0, 0.010262341644557504
152.0, 0.0051136746665275835
153.0, 0.0014027141645956325
154.0, 0.00013874544554879386
155.0, 0.00030998514606111864
156.0, 0.0018538683575499797
157.0, 0.0036956800345874065
158.0, 0.007708845538474049
159.0, 0.01441299271877575
160.0, 0.023298778562300157
161.0, 0.03284203957733288
162.0, 0.04426785439110213
163.0, 0.05471677570463999
164.0, 0.06086797165505821
165.0, 0.06138698338390023
166.0, 0.0567733876949425
167.0, 0.047568215610340026
168.0, 0.03575800957930896
169.0, 0.024733764160024846
170.0, 0.015816379663778166
171.0, 0.009119866753851827
172.0, 0.00476617439229479
173.0, 0.002903684531334304
174.0, 0.003131271319998326
175.0, 0.004896352055261963
176.0, 0.008633713865069462
177.0, 0.014525666387036283
178.0, 0.021694205370935048
179.0, 0.03172311012177043
180.0, 0.04290940638966234
181.0, 0.054847489991807635
182.0, 0.06875568156260715
183.0, 0.0827930555011984
184.0, 0.09755903535051826
185.0, 0.11451868760157896
186.0, 0.13362658913015302
187.0, 0.14805736889947754
188.0, 0.16160225266567416
189.0, 0.175893437948489
190.0, 0.19085813627376647
191.0, 0.2054486194476567
192.0, 0.22581633866087225
193.0, 0.2482437537870307
194.0, 0.27201790025680944
195.0, 0.29953577021809974
196.0, 0.32647785843074417
197.0, 0.3481419423542141
198.0, 0.3596020829852639
199.0, 0.3567504803732534
200.0, 0.3319645550602483
201.0, 0.2896754276240128
202.0, 0.2407400789188046
203.0, 0.19263915092796177
204.0, 0.14942001888998985
205.0, 0.11393736707795998
206.0, 0.08792494360715775
207.0, 0.06920968774973672
208.0, 0.05453717519882517
209.0, 0.04524621516303329
210.0, 0.03897879479306693
211.0, 0.03622853743646773
212.0, 0.037096524779879056
213.0, 0.03989983127994153
214.0, 0.04251439287504941
215.0, 0.04635561692459212
216.0, 0.05214459434662445
217.0, 0.059987145788683985
218.0, 0.06991349917527369
219.0, 0.08193824422632226
220.0, 0.09605245318220941
221.0, 0.1116080745536655
222.0, 0.1271903213446302
223.0, 0.14621955357358649
224.0, 0.16681950633855072
225.0, 0.18548357694020678
226.0, 0.1993802781132467
227.0, 0.21313468160054194
228.0, 0.2229371015894155
229.0, 0.22594649559732993
230.0, 0.22187953087201998
231.0, 0.2162641641204375
232.0, 0.20867166004906537
233.0, 0.20329712822536888
234.0, 0.20230112349191726
235.0, 0.20495810401741102
236.0, 0.20794089824506154
237.0, 0.2141539333741158
238.0, 0.2181912236797815
239.0, 0.2150769870690084
240.0, 0.20555438139179028
241.0, 0.18572436402587456
242.0, 0.16258941057214288
243.0, 0.13776819939971668
244.0, 0.11013114648049775
245.0, 0.08586634624975435
246.0, 0.06803181445564614
247.0, 0.054017438808017584
248.0, 0.0414784031112042
249.0, 0.03115644495620657
250.0, 0.024971887688462036
251.0, 0.02028017302673536
252.0, 0.01632057717475639
253.0, 0.013620370653114297
254.0, 0.010437072267213594
255.0, 0.008883539871383099
256.0, 0.007884275278861616
257.0, 0.006901136882316899
258.0, 0.006993130566346129
259.0, 0.006113341950953757
260.0, 0.0066552043506027695
261.0, 0.007771483199089413
262.0, 0.007801606005897381
263.0, 0.008868173693745015
264.0, 0.010657452139520445
265.0, 0.011763095026412476
266.0, 0.012732744912711905
267.0, 0.015693164910927142
268.0, 0.016988333289804206
269.0, 0.018036430681025378
270.0, 0.019606236929080083
271.0, 0.021595147902932457
272.0, 0.022815522435327203
273.0, 0.02237745476551684
274.0, 0.023194755155088686
275.0, 0.024216829298709944
276.0, 0.022306788730380656
277.0, 0.02037717089985024
278.0, 0.01848151629556544
279.0, 0.015913743217961962
280.0, 0.012442479744225316
281.0, 0.008716097975918607
282.0, 0.0061693390938446216
283.0, 0.0030324307288306573
284.0, 0.00039395770635776406
285.0, 0.00045882713985576627
286.0, 0.002005527057000624
287.0, 0.003205088294902259
288.0, 0.003911467044577413
289.0, 0.004046379938494982
290.0, 0.003502790247954066
291.0, 0.0030823914550068853
292.0, 0.003030185073057562
293.0, 0.002327078011617839
294.0, 0.0008124940326177336
295.0, 0.00022721678619284436
296.0, 0.0014447192968387022
297.0, 0.0032459625675344684
298.0, 0.005061613141403058
299.0, 0.007215595534005448
300.0, 0.009890988957884704
301.0, 0.012317935307946629
302.0, 0.014962602521729323
303.0, 0.01751705624389002
304.0, 0.019353178972150158
305.0, 0.021990258451807822
306.0, 0.022471683160525065
307.0, 0.02148479784198414
308.0, 0.02014658504817333
309.0, 0.018487093638667924
310.0, 0.016768392727982532
311.0, 0.01452666577112968
312.0, 0.012113744323166276
313.0, 0.010005963312506718
314.0, 0.008233742046873258
315.0, 0.007015708807598123
316.0, 0.006223039215824018
317.0, 0.0058782971446330115
318.0, 0.0058803556318053835
319.0, 0.00486569159129708
320.0, 0.005254463823909406
321.0, 0.005868148005812263
322.0, 0.005903123755566792
323.0, 0.005765672567066693
324.0, 0.007613628206307306
325.0, 0.008832219376452012
326.0, 0.009252789389405307
327.0, 0.009737287751206653
328.0, 0.011322794208408543
329.0, 0.012120539116541767
330.0, 0.013432723656383884
331.0, 0.015087691666070022
332.0, 0.0163941775068656
333.0, 0.017654083398415038
334.0, 0.019834878349211722
335.0, 0.021752383468944706
336.0, 0.02311047039799205
337.0, 0.024304793111071456
338.0, 0.02558004404471148
339.0, 0.02819885574022659
340.0, 0.03053350716539086
341.0, 0.03182309203553185
342.0, 0.03306475780426527
343.0, 0.03505171257112099
344.0, 0.035297218330221564
345.0, 0.0339713465616779
346.0, 0.03217724264170714
347.0, 0.030473846056680583
348.0, 0.027643303011942674
349.0, 0.02364322570656239
350.0, 0.019745081347455458
351.0, 0.016632342599784442
352.0, 0.013524237139921052
353.0, 0.011476258795269362
354.0, 0.0094846286631704
355.0, 0.0075210052672637084
356.0, 0.0059905955043263095
357.0, 0.004624826381982167
358.0, 0.0038529524631283705
359.0, 0.003353151027939956
360.0, 0.0026095667944964884
361.0, 0.001561146015380256
362.0, 0.001263325726030905
363.0, 0.0010426653890908387
364.0, 0.0007253615123274474
365.0, 0.0007303448252120128
366.0, 0.001292432842932697
367.0, 0.0005945283542012638
368.0, 0.0008615779370071806
369.0, 0.0008002703944507491
370.0, 0.00013978609212883327
371.0, 2.0042992295965888e-05
372.0, 0.0003787664958355509
373.0, 0.00010485871320275257
374.0, 0.00014664805397548894
375.0, 0.0003207231597199932
376.0, 0.0003912651804215163
377.0, 0.00022218546633215173
378.0, 0.00021422607643172985
379.0, 0.00020160293357938573
380.0, 0.00012926114652272517
381.0, 0.0002016054350141403
382.0, 5.177874181553709e-05
383.0, 0.00012873841826333828
384.0, 0.00024288183509068993
385.0, 0.0002940640055842434
386.0, 0.0006168420175642517
387.0, 3.828257829624024e-05
388.0, 0.000280167489533529
389.0, 9.511562019085588e-05
390.0, 0.00017848607054236963
391.0, 0.00016106484444870523
392.0, 0.00012306446779086378
393.0, 5.343652631838736e-05
394.0, 0.00021326196710882498
395.0, 0.0003559280029267146
396.0, 6.505469916042601e-05
397.0, 0.00018248217365040255
398.0, 0.00023553201420585881
399.0, 7.150496896099636e-05
400.0, 0.00026462187316806036
401.0, 0.0001048084963302873
402.0, 0.0002004598638078271
403.0, 0.0005819848287427453
404.0, 0.0006344879246338103
405.0, 0.00013568877947430516
406.0, 0.000337803608498293
407.0, 0.0008698564230801396
408.0, 0.0011683083608796053
409.0, 0.001192856549674013
410.0, 0.0012293986207672512
411.0, 0.0014806164460358672
412.0, 0.0015889610367195107
413.0, 0.0018072027405373642
414.0, 0.0021222206085119008
415.0, 0.002363438269710141
416.0, 0.002503438073185058
417.0, 0.0035895753447639646
418.0, 0.003689459987037989
419.0, 0.00359765209193198
420.0, 0.004152159836004459
421.0, 0.004672366986261747
422.0, 0.004155341478454127
423.0, 0.00470766761928235
424.0, 0.005835781334172369
425.0, 0.00682042023751982
426.0, 0.00801468998754884
427.0, 0.009284106919886213
428.0, 0.009732530387682976
429.0, 0.0107998433125696
430.0, 0.013035350609401771
431.0, 0.0152565663536675
432.0, 0.01680497096629504
433.0, 0.018607774099204326
434.0, 0.02162172745459367
435.0, 0.02522157354238165
436.0, 0.028178868984500192
437.0, 0.03229166778657142
438.0, 0.037112450424903604
439.0, 0.04178462873883292
440.0, 0.04675228473753973
441.0, 0.052652465683383096
442.0, 0.05839028690050748
443.0, 0.06473595326442404
444.0, 0.07154647291181469
445.0, 0.0786770826035889
446.0, 0.08599568342350579
447.0, 0.09356529847961258
448.0, 0.10222192703719957
449.0, 0.10981073834616284
450.0, 0.11715454036063828
451.0, 0.1255765060892219
452.0, 0.13311398722970846
453.0, 0.13691533632847933
454.0, 0.1406350178210652
455.0, 0.1417205293929202
456.0, 0.13726031626788773
457.0, 0.13048881731171977
458.0, 0.12226909268890883
459.0, 0.1113036974419132
460.0, 0.09960477348215162
461.0, 0.08786398706820019
462.0, 0.07443721383540951
463.0, 0.06335159941078054
464.0, 0.054043786096825745
465.0, 0.045600687105190475
466.0, 0.03813266241345156
467.0, 0.032026735757432215
468.0, 0.025417073607184162
469.0, 0.019961111299652976
470.0, 0.016561638523392146
471.0, 0.014058981060481085
472.0, 0.010821795774931125
473.0, 0.008125998793735474
474.0, 0.006069318289475638
475.0, 0.004224314543535684
476.0, 0.002624148288545858
477.0, 0.0015446947847956938
478.0, 0.0008925741345851592
479.0, 0.0001756268407490508
480.0, 0.0008616430583627478
481.0, 0.0014391501679824406
482.0, 0.0012133440424900801
483.0, 0.0007589628242340091
484.0, 0.0008013926589477438
485.0, 0.00108355173054338
486.0, 0.0006200374764343921
487.0, 0.00016010627821983755
488.0, 3.830553697271548e-05
489.0, 0.0005152525876468044
490.0, 0.0007380940640271588
491.0, 0.0016781597265137951
492.0, 0.003093656659075963
493.0, 0.0038571043342332367
494.0, 0.00417558307691194
495.0, 0.005790817230828768
496.0, 0.007924331240986621
497.0, 0.009785920090352368
498.0, 0.011257161853809096
499.0, 0.012708791195333215
500.0, 0.014479486421084087
501.0, 0.017357603702206237
502.0, 0.01957134046812705
503.0, 0.021286406043766293
504.0, 0.024659748865668452
505.0, 0.02823571728233
506.0, 0.03078157169360957
507.0, 0.03339429489278766
508.0, 0.03647012593728953
509.0, 0.03974918544971419
510.0, 0.04347153780469214
511.0, 0.04799607853072847
512.0, 0.05119938813772177
513.0, 0.055053573066389465
514.0, 0.05959682855545278
515.0, 0.06153390690089816
516.0, 0.06563628003885964
517.0, 0.07032747149167363
518.0, 0.07426316593281208
519.0, 0.07828094607419296
520.0, 0.08339295465879756
521.0, 0.08706626373943477
522.0, 0.09090992612486877
523.0, 0.09352659721618997
524.0, 0.0969737407174973
525.0, 0.10192802552626926
526.0, 0.10393927786431627
527.0, 0.10691483659337386
528.0, 0.10996452930758664
529.0, 0.11198646222180306
530.0, 0.11250049198000123
531.0, 0.11254507046893666
532.0, 0.11557457797044919
533.0, 0.11726488310414665
534.0, 0.11889857750174149
535.0, 0.12014706775015105
536.0, 0.1202585732758182
537.0, 0.12014841276894843
538.0, 0.11995559545197322
539.0, 0.1188106907948193
540.0, 0.11814391423562219
541.0, 0.1177311764870855
542.0, 0.11566158634128586
543.0, 0.11328357719837802
544.0, 0.11093511805423903
545.0, 0.10718437935752669
546.0, 0.10273085849608697
547.0, 0.09870437790741729
548.0, 0.0947155928510687
549.0, 0.08949310867543793
550.0, 0.08540531842088765
551.0, 0.08079504985246197
552.0, 0.07591737574773448
553.0, 0.0724738535582669
554.0, 0.06822471347897723
555.0, 0.06466350423067077
556.0, 0.06247913687066653
557.0, 0.05937573330654861
558.0, 0.05562895643001543
559.0, 0.05497984669158925
560.0, 0.05414929650865645
561.0, 0.053480231613382126
562.0, 0.05310887063618482
563.0, 0.053785103491198055
564.0, 0.055964863142300016
565.0, 0.0573557501990714
566.0, 0.06033189382585121
567.0, 0.06257515485048445
568.0, 0.06427973066308379
569.0, 0.06566680386296543
570.0, 0.06548074716418623
571.0, 0.06331474553766367
572.0, 0.058200967557979724
573.0, 0.05164170397745031
574.0, 0.04454302035968336
575.0, 0.037304742411756894
576.0, 0.03042487245449254
577.0, 0.024890929544626638
578.0, 0.019620714770338017
579.0, 0.015155728932409242
580.0, 0.012126010471444697
581.0, 0.009848964860630988
582.0, 0.006283730686438856
583.0, 0.004950646806566728
584.0, 0.0036888822638069937
585.0, 0.0025034133547859085
586.0, 0.0017202448129290252
587.0, 0.0005687142459896947
588.0, 0.0003021175200481231
589.0, 0.0007713584759231292
590.0, 0.0009876335569651599
591.0, 0.0008776925665021362
592.0, 0.000859861971165947
593.0, 0.001907226193342049
594.0, 0.0012961787265534607
595.0, 0.0008208779612987632
596.0, 0.0005403363106230001
597.0, 0.0003578364089659463
598.0, 0.00047368379400565265
599.0, 0.00040979100990620157
600.0, 0.0008742793380217995
601.0, 0.0010704156112949115
602.0, 0.0010133243686466149
603.0, 0.0013910031839040064
604.0, 0.0018934825428308126
605.0, 0.0023661982103605414
606.0, 0.0027230616986762815
607.0, 0.0032490218526241084
608.0, 0.0036980611703532084
609.0, 0.004050095869857783
610.0, 0.004607122309969431
611.0, 0.005026369149499795
612.0, 0.0056555229601361065
613.0, 0.005951423021910473
614.0, 0.006544076810797696
615.0, 0.007335711775586664
616.0, 0.0070558930853473235
617.0, 0.007148739084030644
618.0, 0.00713772716411133
619.0, 0.006387710721967745
620.0, 0.006332067117151373
621.0, 0.006974693297807433
622.0, 0.005725859802455174
623.0, 0.006466528290075203
624.0, 0.006452539251537394
625.0, 0.005970084753253654
626.0, 0.005750143536357029
627.0, 0.005783263891263036
628.0, 0.005638244491023188
629.0, 0.005417117460009158
630.0, 0.004597339783009131
631.0, 0.004248044819336254
632.0, 0.004223779586690077
633.0, 0.0038997007065229576
634.0, 0.0038326958692095864
635.0, 0.0031588964105069826
636.0, 0.0025999236410959516
637.0, 0.0025779176274210312
638.0, 0.002511601295145249
639.0, 0.0020030857162142645
640.0, 0.0021047894767332004
641.0, 0.0022263258257984387
642.0, 0.002561421584588869
643.0, 0.0023039353324909285
644.0, 0.0017476751327801772
645.0, 0.0016003300592358724
646.0, 0.0011166113371333913
647.0, 0.001280230498357393
648.0, 0.0012568159385788248
649.0, 0.0008160873374809364
650.0, 0.0004290186614856261
651.0, 0.0004200622872085299
652.0, 0.000401400070277048
653.0, 0.00022586853663081091
654.0, 8.81848330909867e-05
655.0, 0.0002241546604222831
656.0, 0.00030641775614186247
657.0, 0.0003148001221384332
658.0, 0.00014574367893243007
659.0, 0.00014664073036514506
660.0, 0.0005213517335301256
661.0, 0.0006320896111536112
662.0, 0.0005792713180958987
663.0, 0.0007353823165220624
664.0, 0.0009402858180037757
665.0, 0.0010121267322341098
666.0, 0.0009075781600387144
667.0, 0.0012590991502931421
668.0, 0.0014862086046658147
669.0, 0.00117372971896806
670.0, 0.0013537681062472124
671.0, 0.0015236941269778173
672.0, 0.0016024009560172134
673.0, 0.001771556844024289
674.0, 0.002063826499058358
675.0, 0.002141618209896162
676.0, 0.0017052832453488135
677.0, 0.0020268946176716035
678.0, 0.0030390967915630202
679.0, 0.0032264776930379753
680.0, 0.0031751637128982144
681.0, 0.0037040048314592074
682.0, 0.004162038546803743
683.0, 0.003993424393359803
684.0, 0.0032450586047496083
685.0, 0.0030695510010311723
686.0, 0.0029262135980040968
687.0, 0.0027195590423474826
688.0, 0.002998579487612829
689.0, 0.0027723782343506494
690.0, 0.003169111620760496
691.0, 0.0034481140250216752
692.0, 0.0035537445906199433
693.0, 0.0035643788508658717
694.0, 0.0034548953233443963
695.0, 0.0035038771990032985
696.0, 0.00350263282885766
697.0, 0.002929706503872028
698.0, 0.002981848880603299
699.0, 0.0031780209662010655
700.0, 0.002810362096916563
701.0, 0.002799105005501027
702.0, 0.0025150533024702122
703.0, 0.0028378082760512377
704.0, 0.002456278437787978
705.0, 0.0017786689077379611
706.0, 0.0014148490882217048
707.0, 0.0010321362062005411
708.0, 0.0013215301803655925
709.0, 0.0015045766020809123
710.0, 0.0015612567352173209
711.0, 0.000899828227449241
712.0, 0.00023747680139829953
713.0, 0.0007891271807537797
714.0, 0.001420075769062909
715.0, 0.00020279231359472276
716.0, 0.00013162390045351694
717.0, 0.00023578284854039322
718.0, 8.603313181381753e-05
719.0, 0.00012618217951322616
720.0, 0.0005543251579934752
721.0, 0.00040184281722684915
722.0, 0.00017780891267527824
723.0, 0.00038167893797307024
724.0, 7.906383610011835e-05
725.0, 0.0008244082782544869
726.0, 0.0011635080542663214
727.0, 0.00027212636056322823
728.0, 0.0005654180221336184
729.0, 0.0004928125032638611
730.0, 0.0006631344185645688
731.0, 0.0011644570143387034
732.0, 0.0012305557923613535
733.0, 0.0011852247848988411
734.0, 0.0017826611957807727
735.0, 0.00185622247654722
736.0, 0.0020115178863030743
737.0, 0.0028825974917623975
738.0, 0.0035531943194064956
739.0, 0.003145313489384811
740.0, 0.0035100647855570376
741.0, 0.002862171548456857
742.0, 0.0032328104462882768
743.0, 0.003987911144492356
744.0, 0.004124960738821988
745.0, 0.0038838061178729246
746.0, 0.004143419313576484
747.0, 0.004004436138504776
748.0, 0.0039001650819491264
749.0, 0.004264429184286977
750.0, 0.00422486043473069
751.0, 0.0040174518797418
752.0, 0.004691824401614018
753.0, 0.0049640069991959
754.0, 0.004910066070278525
755.0, 0.0053461197212440305
756.0, 0.004937853909345876
757.0, 0.004653361015825092
758.0, 0.005291800399491526
759.0, 0.0050353593019775615
760.0, 0.004780152482281396
761.0, 0.00443506603043865
762.0, 0.004131408927243579
763.0, 0.004531860564144407
764.0, 0.004991944768950664
765.0, 0.004621854933367671
766.0, 0.003987208170965586
767.0, 0.004512912678274616
768.0, 0.004466323239258918
769.0, 0.004166545707740021
770.0, 0.0036427393536574526
771.0, 0.003094211501954598
772.0, 0.002821519788405146
773.0, 0.0023324980380583665
774.0, 0.0026552688960945316
775.0, 0.002736704307358782
776.0, 0.0023591433485853045
777.0, 0.001472249240694928
778.0, 0.0007661866687168552
779.0, 0.0011773100112473566
780.0, 0.0009634362230757482
781.0, 0.0001968030891716994
782.0, 0.00010182282535422798
783.0, 0.0003694126122019675
784.0, 0.0003694067877237072
785.0, 7.588510844083873e-05
786.0, 2.5711031568026454e-05
787.0, 7.434620936573453e-05
788.0, 0.00040670904477409854
789.0, 0.000688790144410047
790.0, 0.0005836350367170563
791.0, 0.0005366259791145355
792.0, 0.00039598937957384893
793.0, 0.0005915603726827969
794.0, 0.0004174908997758074
795.0, 0.00038229027481395726
796.0, 0.0006469195383711643
797.0, 0.0013270634509678252
798.0, 0.002107178518535387
799.0, 0.0018249174613521185
800.0, 0.002510212320634942
801.0, 0.00285777957884343
802.0, 0.003100069402154095
803.0, 0.004257656957608004
804.0, 0.004681688640359263
805.0, 0.0051117638993589745
806.0, 0.007076585216220186
807.0, 0.008017135645246672
808.0, 0.009311236510304516
809.0, 0.010618010335414223
810.0, 0.011922723844035327
811.0, 0.01292231194360537
812.0, 0.013947616417319824
813.0, 0.014962171864915861
814.0, 0.014543533503428805
815.0, 0.014667010711672585
816.0, 0.014681682439599745
817.0, 0.015127193193392223
818.0, 0.01488253429680394
819.0, 0.014800712989259683
820.0, 0.016282904564788817
821.0, 0.01733137200168082
822.0, 0.018508636014203016
823.0, 0.01887015010614044
824.0, 0.01930927129741156
825.0, 0.02029596281768488
826.0, 0.021112607505271306
827.0, 0.02136506451492851
828.0, 0.022025121878404285
829.0, 0.022410705668302347
830.0, 0.022473743425858717
831.0, 0.02279698378402308
832.0, 0.022565290824827777
833.0, 0.022295846468761968
834.0, 0.022678479579764616
835.0, 0.022670818547591932
836.0, 0.02259501618896805
837.0, 0.023810959345329025
838.0, 0.022592396019830725
839.0, 0.02091914378004284
840.0, 0.02043286177096673
841.0, 0.020188189437032492
842.0, 0.019468975108536547
843.0, 0.019092732194304837
844.0, 0.018953181253749275
845.0, 0.017033922173603715
846.0, 0.016140421147850054
847.0, 0.01598337303997315
848.0, 0.015083532606574397
849.0, 0.013744043701534028
850.0, 0.013226288814727023
851.0, 0.012438768605828222
852.0, 0.011525977023603431
853.0, 0.010717164268742755
854.0, 0.009926638974759422
855.0, 0.009156721433753184
856.0, 0.008382462076378189
857.0, 0.007436735142879729
858.0, 0.006719917730645941
859.0, 0.006814399131209212
860.0, 0.005993197116410663
861.0, 0.005207646846088315
862.0, 0.00450157712983579
863.0, 0.0037453340991973837
864.0, 0.003765179552635074
865.0, 0.0035433305167121318
866.0, 0.0036936906939966513
867.0, 0.0024514134806999386
868.0, 0.0013133525422232514
869.0, 0.0009107884048239983
870.0, 0.000959637727275158
871.0, 0.001173974998726234
872.0, 0.0009382653380938179
873.0, 0.0003004702925721469
874.0, 0.000381166412158155
875.0, 0.0006271702278289326
876.0, 0.00044512067781483835
877.0, 0.000168973743680534
878.0, 0.0005049155435434447
879.0, 0.0014036340212009262
880.0, 0.0006922430666953071
881.0, 0.0003463048472097572
882.0, 0.00034269784007126704
883.0, 0.0009855446133417776
884.0, 0.0010871888689600205
885.0, 0.0004821454858996965
886.0, 0.0003439974509569399
887.0, 0.0007220248847607585
888.0, 7.58920105083457e-05
889.0, 0.00039396477932099805
890.0, 9.736829952284258e-05
891.0, 0.0007724445165446537
892.0, 0.0014705633736624428
893.0, 0.0011230445813045766
894.0, 0.0018152700075174453
895.0, 0.0020454456865497553
896.0, 0.0029571205635374985
897.0, 0.0035029230969828413
898.0, 0.0033055875505600425
899.0, 0.003490262505069817
900.0, 0.004648198725353875
901.0, 0.005897673314402395
902.0, 0.0061939674331372594
903.0, 0.0070586138695959795
904.0, 0.007662178956643616
905.0, 0.008977286918190188
906.0, 0.010255660870847193
907.0, 0.011557251550253474
908.0, 0.012623168800245258
909.0, 0.01338826030221654
910.0, 0.015278503073152412
911.0, 0.018014131820397787
912.0, 0.01913513723534773
913.0, 0.020253708474648066
914.0, 0.022367712824206066
915.0, 0.024505122862270644
916.0, 0.02656303492711999
917.0, 0.029008306468054027
918.0, 0.03132794759826221
919.0, 0.03513931620097045
920.0, 0.03875427563912268
921.0, 0.04260063462823032
922.0, 0.046532229607690004
923.0, 0.05071157762979441
924.0, 0.05624003682519285
925.0, 0.06311534362054334
926.0, 0.06966403751985925
927.0, 0.07768052561888414
928.0, 0.0876947438600289
929.0, 0.0974713190034854
930.0, 0.10759408404901581
931.0, 0.12089552295123496
932.0, 0.1378361646461734
933.0, 0.15707631115751713
934.0, 0.18028290120804152
935.0, 0.20785413408521916
936.0, 0.24171165238972261
937.0, 0.27746939068153814
938.0, 0.3185054598964073
939.0, 0.36413820930360424
940.0, 0.41364516867069945
941.0, 0.4687610911247168
942.0, 0.5294594485983672
943.0, 0.5940695043051206
944.0, 0.666188073020726
945.0, 0.7437153031646134
946.0, 0.8254010320586314
947.0, 0.9015962271234809
948.0, 0.9614197631894145
949.0, 0.9953560206242216
950.0, 0.9925983412370936
951.0, 0.9419185954332892
952.0, 0.8505336119930097
953.0, 0.7396063397080115
954.0, 0.6202224282118086
955.0, 0.5103688983184138
956.0, 0.4189825260300741
957.0, 0.3432136546253397
958.0, 0.27857321297058796
959.0, 0.2294100113881074
960.0, 0.1907182741137823
961.0, 0.1599781502561308
962.0, 0.1338862971591622
963.0, 0.11257265688770968
964.0, 0.09518039347088142
965.0, 0.08175176711870742
966.0, 0.07168777978693157
967.0, 0.059716642974966365
968.0, 0.05321574259362396
969.0, 0.046444264115282914
970.0, 0.040250662855027
971.0, 0.0347925900381239
972.0, 0.030748910359819717
973.0, 0.027263271790512814
974.0, 0.02376519869503632
975.0, 0.021685822923709724
976.0, 0.019383551134338584
977.0, 0.01883201846138913
978.0, 0.017697198538373773
979.0, 0.017316431710639745
980.0, 0.016506391170351464
981.0, 0.01577169731248447
982.0, 0.01568622393103602
983.0, 0.015379321498773415
984.0, 0.015324957996388723
985.0, 0.015705724138204747
986.0, 0.016049609489295805
987.0, 0.015542105007499576
988.0, 0.014968863433525706
989.0, 0.01425187246487795
990.0, 0.013863733191804329
991.0, 0.013465058257276225
992.0, 0.011875600365739496
993.0, 0.01137831971632223
994.0, 0.011375362457750475
995.0, 0.009364496394676026
996.0, 0.007817872667010442
997.0, 0.006713896184755305
998.0, 0.0061419053249135375
999.0, 0.0058178901186387915
1000.0, 0.004792607802260375
1001.0, 0.0035100976447022393
1002.0, 0.0032427727139136366
1003.0, 0.0018557451979008717
1004.0, 0.0008251713479535591
1005.0, 0.0005658876080709759
1006.0, 0.0005132366669672476
1007.0, 9.480515741119557e-05
1008.0, 0.0003180644216346293
1009.0, 0.0006065955713916459
1010.0, 0.0016425821233273926
1011.0, 0.0012714484012550564
1012.0, 0.0005011783192213037
1013.0, 0.0015380931636945218
1014.0, 0.001412363060995005
1015.0, 0.0008639550464973098
1016.0, 0.0005969175961494901
1017.0, 0.00034072097217326054
1018.0, 0.0002920400189940147
1019.0, 0.0002994354865783562
1020.0, 0.0006266695807407006
1021.0, 0.0010294027315187499
1022.0, 0.0016437224840689163
1023.0, 0.0017058071508426484
1024.0, 0.002598425632346066
1025.0, 0.0037788938243459437
1026.0, 0.004697216212528244
1027.0, 0.00592196675584883
1028.0, 0.006989592738649819
1029.0, 0.008158604784644056
1030.0, 0.009692151576032839
1031.0, 0.011390628422934892
1032.0, 0.013042502890251332
1033.0, 0.015774052239064355
1034.0, 0.018904116520440644
1035.0, 0.021989527491320684
1036.0, 0.025621042844728062
1037.0, 0.029872313077902123
1038.0, 0.03500676976846023
1039.0, 0.04199225174023944
1040.0, 0.04862168474649861
1041.0, 0.05736346894403072
1042.0, 0.06694127166888407
1043.0, 0.07676762239083822
1044.0, 0.08739397239590506
1045.0, 0.09973237949507233
1046.0, 0.11361947186627434
1047.0, 0.12693221763681278
1048.0, 0.1410165402681576
1049.0, 0.1539704657489006
1050.0, 0.16816967689193052
1051.0, 0.17808112058521805
1052.0, 0.18157593773065314
1053.0, 0.1801098959266402
1054.0, 0.17352154675575063
1055.0, 0.15975505563308676
1056.0, 0.14046754208611378
1057.0, 0.1204467812956054
1058.0, 0.1007433046766435
1059.0, 0.08399339007755517
1060.0, 0.0699626493636472
1061.0, 0.05793743293431668
1062.0, 0.0482541561565948
1063.0, 0.04050378407010379
1064.0, 0.034140740471399
1065.0, 0.029208619176195452
1066.0, 0.024713033107120176
1067.0, 0.020654474852479093
1068.0, 0.016943029736297546
1069.0, 0.014843391345377932
1070.0, 0.012595315451815966
1071.0, 0.010363295866419476
1072.0, 0.008903259730804929
1073.0, 0.007822992148290145
1074.0, 0.006737552529101998
1075.0, 0.005833647499607471
1076.0, 0.004619809933841884
1077.0, 0.003954336134729109
1078.0, 0.003696882794756232
1079.0, 0.003361877057357462
1080.0, 0.002588182538317086
1081.0, 0.0021475753778128254
1082.0, 0.001833111269401331
1083.0, 0.0014818384684879618
1084.0, 0.0012390966121784892
1085.0, 0.0016335151951365318
1086.0, 0.0011231014126182057
1087.0, 0.0009011214408896635
1088.0, 0.0006889159431733192
1089.0, 0.0010236036281337146
1090.0, 0.0009444243491063266
1091.0, 0.0011433117046815325
1092.0, 0.0009660674039359066
1093.0, 0.0004916959346457594
1094.0, 0.000820629700682681
1095.0, 0.0008504272662939643
1096.0, 0.00042282323872198496
1097.0, 0.00032819739391117225
1098.0, 0.00028348761950537074
1099.0, 0.00010184996202367868
1100.0, 0.0002431543599147157
1101.0, 3.0419280370185335e-05
1102.0, 0.0005008261828818923
1103.0, 0.0002944862034231671
1104.0, 0.0003392123148956448
1105.0, 0.00033113200192730525
1106.0, 0.00046026356310776976
1107.0, 0.00034984947654682447
1108.0, 5.358730576981728e-05
1109.0, 2.341890598980169e-05
1110.0, 2.0431952717784643e-05
1111.0, 2.2001502940610682e-05
1112.0, 0.00011284449180009726
1113.0, 0.00035261037378126164
1114.0, 6.136193306192244e-05
1115.0, 0.0006102950838028222
1116.0, 0.00022706747186497706
1117.0, 9.246592895574886e-05
1118.0, 4.086033249374375e-05
1119.0, 0.00016962788366040884
1120.0, 9.633255290090258e-05
1121.0, 0.0006436749842124797
1122.0, 0.0005972808303460318
1123.0, 0.00028529973171223164
1124.0, 0.0001304524904449845
1125.0, 3.932901639279987e-05
1126.0, 0.0002947682784941771
1127.0, 0.0007131065215343407
1128.0, 0.0003658540524665644
1129.0, 0.0007003706424393215
1130.0, 0.0005709486661723644
1131.0, 0.0004957533443921724
1132.0, 0.0010503939823936761
1133.0, 0.0010564674268038361
1134.0, 0.0007727149533144693
1135.0, 0.0009061497736103731
1136.0, 0.0011542031650266463
1137.0, 0.001284379786517608
1138.0, 0.0011304203315839023
1139.0, 0.001174327229580398
1140.0, 0.0019105893668189702
1141.0, 0.0017975268908756992
1142.0, 0.001607251741266483
1143.0, 0.0015795366550578848
1144.0, 0.001612522753478472
1145.0, 0.0018545503771452202
1146.0, 0.002117583604552835
1147.0, 0.0019603221653549437
1148.0, 0.0016600427165250546
1149.0, 0.0019107508992740102
1150.0, 0.0019644342931960284
1151.0, 0.002012177401883063
1152.0, 0.0021123062260135915
1153.0, 0.002147722030011823
1154.0, 0.0017969601400511137
1155.0, 0.0016531463888001781
1156.0, 0.001856254726843077
1157.0, 0.002255190644927032
1158.0, 0.0025445012347937767
1159.0, 0.002364316938796073
1160.0, 0.0021227454603501422
1161.0, 0.001746197917033743
1162.0, 0.002173385268726096
1163.0, 0.002115308945788046
1164.0, 0.0017574197637919287
1165.0, 0.001806066743383728
1166.0, 0.0016090888174448241
1167.0, 0.001590266129275683
1168.0, 0.0016080697548924688
1169.0, 0.0015161568314486138
1170.0, 0.0014809360377053564
1171.0, 0.000977116582603185
1172.0, 0.001525851598124226
1173.0, 0.001744698657573943
1174.0, 0.001780384165021227
1175.0, 0.0015953149833608984
1176.0, 0.001279868474313366
1177.0, 0.0011917298461141144
1178.0, 0.0015781641728745569
1179.0, 0.00167959229392116
1180.0, 0.001391789679805162
1181.0, 0.0013600178426817172
1182.0, 0.0015047262002069635
1183.0, 0.00136407181275917
1184.0, 0.0012092039323262256
1185.0, 0.0011556899756646213
1186.0, 0.00124267599602755
1187.0, 0.0013260832082880004
1188.0, 0.0010580263342238802
1189.0, 0.001239564200927205
1190.0, 0.0014180785949764567
1191.0, 0.0013553013714400714
1192.0, 0.0011762179665580118
1193.0, 0.001172660888736962
1194.0, 0.001532066152271748
1195.0, 0.0014359558134100382
1196.0, 0.000549647740653382
1197.0, 0.0003136016938486674
1198.0, 0.0007013986056424562
1199.0, 0.001030096645290633
1200.0, 0.0011122299009131806
1201.0, 0.0010806785801735649
1202.0, 0.0012415035264529213
1203.0, 0.000986655925298891
1204.0, 0.0009173234556077891
1205.0, 0.0008386131016297529
1206.0, 9.203289658373534e-05
1207.0, 0.00032832078250510965
1208.0, 0.0010351814102526292
1209.0, 0.00048478860957524775
1210.0, 0.0006274135977923095
1211.0, 0.00029755402954915024
1212.0, 0.0005231025955433698
1213.0, 0.0006840662339703237
1214.0, 0.0003183397433935783
1215.0, 0.00022573620652102696
1216.0, 0.0005242324795087551
1217.0, 0.0005193198824482985
1218.0, 0.00030272825604240206
1219.0, 0.00023461569667870182
1220.0, 0.00014192108737306545
1221.0, 0.0005014344448909359
1222.0, 0.00016220167512122566
1223.0, 0.00044011451175272464
1224.0, 0.0001371254864575878
1225.0, 0.0003466744134465236
1226.0, 0.00023048907395199466
1227.0, 0.00038586008139565245
1228.0, 0.0004858709831060896
1229.0, 0.00033499225041951146
1230.0, 0.0002734368504685997
1231.0, 0.00035253383725181457
1232.0, 0.00053838621875343
1233.0, 0.0006251585509636799
1234.0, 0.00017744300739551324
1235.0, 0.0001531181515234923
1236.0, 9.188712062359177e-05
1237.0, 0.00034843094100242154
1238.0, 0.00044921066853214367
1239.0, 0.0006829637712626931
1240.0, 0.0008438741055208731
1241.0, 0.00028247667320959537
1242.0, 0.00010394063874651853
1243.0, 0.0002972962809085916
1244.0, 0.0002582799006163901
1245.0, 0.00034011997726606966
1246.0, 0.00019109353195484094
1247.0, 0.00019558421812186058
1248.0, 0.0004431619676288098
1249.0, 0.00022493512075403893
1250.0, 0.0006457655219097646
1251.0, 0.0004901883693573652
1252.0, 0.0007999650284516906
1253.0, 0.0007927958459342486
1254.0, 0.000573499258710293
1255.0, 0.00043911821772988865
1256.0, 0.00047739156737660997
1257.0, 0.00032428093229402045
1258.0, 2.2014359365432912e-05
1259.0, 0.00029533469220189223
1260.0, 0.0007298493740306828
1261.0, 0.00025441748967414243
1262.0, 0.0002500661761115677
1263.0, 0.00029036959503379465
1264.0, 0.00020818772281775452
1265.0, 2.801496587451172e-05
1266.0, 0.00013306916524325992
1267.0, 0.000514140311200102
1268.0, 0.00036269649901653136
1269.0, 0.00025447627628109165
1270.0, 0.0005993605724153903
1271.0, 0.0006982075440380527
1272.0, 0.000459277053665426
1273.0, 0.0005005998736367707
1274.0, 0.0007685988813819223
1275.0, 0.0007369247053062544
1276.0, 0.0007791428326767839
1277.0, 0.0007939636702456184
1278.0, 0.0009765089446976617
1279.0, 3.218745577706331e-05
1280.0, 0.00041597634000216957
1281.0, 0.000492211607219865
1282.0, 8.497018743809426e-05
1283.0, 7.48281908445886e-05
1284, 0.0
1285, 0.0
1286, 0.0
1287, 0.0
1288, 0.0
1289, 0.0
1290, 0.0
1291, 0.0
1292, 0.0
1293, 0.0
1294, 0.0
1295, 0.0
1296, 0.0
1297, 0.0
1298, 0.0
1299, 0.0
1300, 0.0
1301, 0.0
1302, 0.0
1303, 0.0
1304, 0.0
1305, 0.0
1306, 0.0
1307, 0.0
1308, 0.0
1309, 0.0
1310, 0.0
1311, 0.0
1312, 0.0
1313, 0.0
1314, 0.0
1315, 0.0
1316, 0.0
1317, 0.0
1318, 0.0
1319, 0.0
1320, 0.0
1321, 0.0
1322, 0.0
1323, 0.0
1324, 0.0
1325, 0.0
1326, 0.0
1327, 0.0
1328, 0.0
1329, 0.0
1330, 0.0
1331, 0.0
1332, 0.0
1333, 0.0
1334, 0.0
1335, 0.0
1336, 0.0
1337, 0.0
1338, 0.0
1339, 0.0
1340, 0.0
1341, 0.0
1342, 0.0
1343, 0.0
1344, 0.0
1345, 0.0
1346, 0.0
1347, 0.0
1348, 0.0
1349, 0.0
1350, 0.0
1351, 0.0
1352, 0.0
1353, 0.0
1354, 0.0
1355, 0.0
1356, 0.0
1357, 0.0
1358, 0.0
1359, 0.0
1360, 0.0
1361, 0.0
1362, 0.0
1363, 0.0
1364, 0.0
1365, 0.0
1366, 0.0
1367, 0.0
1368, 0.0
1369, 0.0
1370, 0.0
1371, 0.0
1372, 0.0
1373, 0.0
1374, 0.0
1375, 0.0
1376, 0.0
1377, 0.0
1378, 0.0
1379, 0.0
1380, 0.0
1381, 0.0
1382, 0.0
1383, 0.0
1384, 0.0
1385, 0.0
1386, 0.0
1387, 0.0
1388, 0.0
1389, 0.0
1390, 0.0
1391, 0.0
1392, 0.0
1393, 0.0
1394, 0.0
1395, 0.0
1396, 0.0
1397, 0.0
1398, 0.0
1399, 0.0
1400, 0.0
1401, 0.0
1402, 0.0
1403, 0.0
1404, 0.0
1405, 0.0
1406, 0.0
1407, 0.0
1408, 0.0
1409, 0.0
1410, 0.0
1411, 0.0
1412, 0.0
1413, 0.0
1414, 0.0
1415, 0.0
1416, 0.0
1417, 0.0
1418, 0.0
1419, 0.0
1420, 0.0
1421, 0.0
1422, 0.0
1423, 0.0
1424, 0.0
1425, 0.0
1426, 0.0
1427, 0.0
1428, 0.0
1429, 0.0
1430, 0.0
1431, 0.0
1432, 0.0
1433, 0.0
1434, 0.0
1435, 0.0
1436, 0.0
1437, 0.0
1438, 0.0
1439, 0.0
1440, 0.0
1441, 0.0
1442, 0.0
1443, 0.0
1444, 0.0
1445, 0.0
1446, 0.0
1447, 0.0
1448, 0.0
1449, 0.0
1450, 0.0
1451, 0.0
1452, 0.0
1453, 0.0
1454, 0.0
1455, 0.0
1456, 0.0
1457, 0.0
1458, 0.0
1459, 0.0
1460, 0.0
1461, 0.0
1462, 0.0
1463, 0.0
1464, 0.0
1465, 0.0
1466, 0.0
1467, 0.0
1468, 0.0
1469, 0.0
1470, 0.0
1471, 0.0
1472, 0.0
1473, 0.0
1474, 0.0
1475, 0.0
1476, 0.0
1477, 0.0
1478, 0.0
1479, 0.0
1480, 0.0
1481, 0.0
1482, 0.0
1483, 0.0
1484, 0.0
1485, 0.0
1486, 0.0
1487, 0.0
1488, 0.0
1489, 0.0
1490, 0.0
1491, 0.0
1492, 0.0
1493, 0.0
1494, 0.0
1495, 0.0
1496, 0.0
1497, 0.0
1498, 0.0
1499, 0.0
1500, 0.0
1501, 0.0
1502, 0.0
1503, 0.0
1504, 0.0
1505, 0.0
1506, 0.0
1507, 0.0
1508, 0.0
1509, 0.0
1510, 0.0
1511, 0.0
1512, 0.0
1513, 0.0
1514, 0.0
1515, 0.0
1516, 0.0
1517, 0.0
1518, 0.0
1519, 0.0
1520, 0.0
1521, 0.0
1522, 0.0
1523, 0.0
1524, 0.0
1525, 0.0
1526, 0.0
1527, 0.0
1528, 0.0
1529, 0.0
1530, 0.0
1531, 0.0
1532, 0.0
1533, 0.0
1534, 0.0
1535, 0.0
1536, 0.0
1537, 0.0
1538, 0.0
1539, 0.0
1540, 0.0
1541, 0.0
1542, 0.0
1543, 0.0
1544, 0.0
1545, 0.0
1546, 0.0
1547, 0.0
1548, 0.0
1549, 0.0
1550, 0.0
1551, 0.0
1552, 0.0
1553, 0.0
1554, 0.0
1555, 0.0
1556, 0.0
1557, 0.0
1558, 0.0
1559, 0.0
1560, 0.0
1561, 0.0
1562, 0.0
1563, 0.0
1564, 0.0
1565, 0.0
1566, 0.0
1567, 0.0
1568, 0.0
1569, 0.0
1570, 0.0
1571, 0.0
1572, 0.0
1573, 0.0
1574, 0.0
1575, 0.0
1576, 0.0
1577, 0.0
1578, 0.0
1579, 0.0
1580, 0.0
1581, 0.0
1582, 0.0
1583, 0.0
1584, 0.0
1585, 0.0
1586, 0.0
1587, 0.0
1588, 0.0
1589, 0.0
1590, 0.0
1591, 0.0
1592, 0.0
1593, 0.0
1594, 0.0
1595, 0.0
1596, 0.0
1597, 0.0
1598, 0.0
1599, 0.0
