30, 0.0
31, 0.0
32, 0.0
33, 0.0
34, 0.0
35, 0.0
36, 0.0
37, 0.0
38, 0.0
39, 0.0
40, 0.0
41, 0.0
42, 0.0
43, 0.0
44, 0.0
45, 0.0
46, 0.0
47, 0.0
48, 0.0
49, 0.0
50, 0.0
51, 0.0
52, 0.0
53, 0.0
54, 0.0
55, 0.0
56, 0.0
57, 0.0
58, 0.0
59, 0.0
60, 0.0
61, 0.0
62, 0.0
63, 0.0
64, 0.0
65, 0.0
66, 0.0
67, 0.0
68, 0.0
69, 0.0
70, 0.0
71, 0.0
72, 0.0
73, 0.0
74, 0.0
75, 0.0
76, 0.0
77, 0.0
78, 0.0
79, 0.0
80, 0.0
81, 0.0
82, 0.0
83, 0.0
84, 0.0
85, 0.0
86, 0.0
87, 0.0
88, 0.0
89, 0.0
90, 0.0
91, 0.0
92, 0.0
93, 0.0
94, 0.0
95, 0.0
96, 0.0
97, 0.0
98, 0.0
99, 0.0
100, 0.0
101, 0.0
102.0, 0.00040953495581606396
103.0, 0.0007478655386799897
104.0, 0.0012116804245267754
105.0, 0.0025419926789527186
106.0, 0.0015806747508655518
107.0, 0.0005226584566544382
108.0, 0.0002582020787340621
109.0, 0.00013015701071781124
110.0, 0.00011702905420321308
111.0, 0.000634212478287261
112.0, 0.002746377433904689
113.0, 0.0024483372445504538
114.0, 0.002427725952187743
115.0, 0.0034029554876703885
116.0, 0.00488583508232287
117.0, 0.00435187907294283
118.0, 0.004749667881064407
119.0, 0.010436332110664347
120.0, 0.015029039204344476
121.0, 0.0193977732885778
122.0, 0.024181744703571803
123.0, 0.03326716837841256
124.0, 0.03743465364917089
125.0, 0.04120220733376484
126.0, 0.04823052801235224
127.0, 0.049245215765973106
128.0, 0.04738728651943434
129.0, 0.043035335261386906
130.0, 0.03627816413000504
131.0, 0.02928615354215548
132.0, 0.02155879294711823
133.0, 0.012767572962313555
134.0, 0.008617315091008746
135.0, 0.006323467482783684
136.0, 0.0056978423783801135
137.0, 0.00678045196930436
138.0, 0.005552054767009687
139.0, 0.004919986480879291
140.0, 0.005586221125811249
141.0, 0.006480837384132022
142.0, 0.009393052978330086
143.0, 0.013129527190219042
144.0, 0.01652892706246543
145.0, 0.01874824865543691
146.0, 0.02187909262937454
147.0, 0.02572849363026404
148.0, 0.028066602239405367
149.0, 0.02876131590269974
150.0, 0.02865812280239037
151.0, 0.02811980952486429
152.0, 0.02700861917136955
153.0, 0.02341157344103162
154.0, 0.019706024376273
155.0, 0.021806634864899616
156.0, 0.01791376427816564
157.0, 0.014619495605817412
158.0, 0.01373600227095328
159.0, 0.014735332481200016
160.0, 0.013575642223340735
161.0, 0.012484195049614418
162.0, 0.014006310938982438
163.0, 0.012620311764676463
164.0, 0.012632746761458633
165.0, 0.014449745145588708
166.0, 0.01809809287896097
167.0, 0.0160860001652123
168.0, 0.014838197665712757
169.0, 0.01761789269399799
170.0, 0.017931962712370776
171.0, 0.018521164926938803
172.0, 0.01915446918536103
173.0, 0.019391265803315932
174.0, 0.022539902303427006
175.0, 0.026395929622911637
176.0, 0.03048208844898212
177.0, 0.034407310594337
178.0, 0.044947491547249904
179.0, 0.05874389086381086
180.0, 0.07379004862354564
181.0, 0.0851801869997721
182.0, 0.10040498759560591
183.0, 0.11830153540706696
184.0, 0.13507773642594864
185.0, 0.14949940866032171
186.0, 0.16330583461125014
187.0, 0.17686450788057945
188.0, 0.1883077796198384
189.0, 0.1998656399565954
190.0, 0.2146914331708707
191.0, 0.23694620282142367
192.0, 0.2595796561330891
193.0, 0.27956147318412033
194.0, 0.2973098502544979
195.0, 0.3150449477053724
196.0, 0.3172582650876227
197.0, 0.31298585747806085
198.0, 0.30508532480306905
199.0, 0.2906017000081666
200.0, 0.2635013547466523
201.0, 0.23050855340906315
202.0, 0.19905379710322568
203.0, 0.173117122119483
204.0, 0.14749757012073908
205.0, 0.12283440824526605
206.0, 0.10463664186510067
207.0, 0.09069452185773869
208.0, 0.07972215138375081
209.0, 0.07141881183800378
210.0, 0.06513507160069547
211.0, 0.06433523946175826
212.0, 0.06517507867711003
213.0, 0.0627050357943636
214.0, 0.06967444981271081
215.0, 0.0779514248050331
216.0, 0.08676640616523336
217.0, 0.09709521176992846
218.0, 0.11130831343357685
219.0, 0.12807388641498232
220.0, 0.1470099441737572
221.0, 0.16708765396498387
222.0, 0.18490100770445433
223.0, 0.2001790648503701
224.0, 0.2120528798215901
225.0, 0.21801679577282848
226.0, 0.2197824067724626
227.0, 0.2172557487684946
228.0, 0.20880772478367013
229.0, 0.20040241721964086
230.0, 0.191200791828451
231.0, 0.18107758000807733
232.0, 0.17422819156958413
233.0, 0.16873938333813343
234.0, 0.16380590206169715
235.0, 0.15868156789614757
236.0, 0.15560965610989452
237.0, 0.14955336326286164
238.0, 0.14125952058046326
239.0, 0.13361232259936154
240.0, 0.11812609046750937
241.0, 0.10499087239681479
242.0, 0.09648974597866981
243.0, 0.08609452668277533
244.0, 0.07634163769979802
245.0, 0.06753474016420812
246.0, 0.060035373512720376
247.0, 0.056398036539173954
248.0, 0.052866677140111715
249.0, 0.04954079467141583
250.0, 0.04686187671187557
251.0, 0.04485798300726749
252.0, 0.043767349249411155
253.0, 0.04315867947367769
254.0, 0.040348378759491
255.0, 0.04110885374146677
256.0, 0.04193664571846957
257.0, 0.041315783842802725
258.0, 0.04599416023994941
259.0, 0.04783086038398003
260.0, 0.04836537139119775
261.0, 0.04929196089467998
262.0, 0.054101241181417306
263.0, 0.057114084019168405
264.0, 0.059346937350368854
265.0, 0.06533515085903356
266.0, 0.06837292582847279
267.0, 0.0718364638108755
268.0, 0.07620665721226351
269.0, 0.07733088132365319
270.0, 0.0798668289031043
271.0, 0.08085116959857451
272.0, 0.07815067275882061
273.0, 0.07612586227054995
274.0, 0.07328032370194111
275.0, 0.0696113469982883
276.0, 0.06499892939823042
277.0, 0.05863054250389886
278.0, 0.05382622043001253
279.0, 0.04968086427575756
280.0, 0.041415144290521046
281.0, 0.036830708476333913
282.0, 0.03226970183564775
283.0, 0.02676686616263991
284.0, 0.02267376126134632
285.0, 0.019950713030631517
286.0, 0.01811321031918939
287.0, 0.01690488963701972
288.0, 0.01507492505059958
289.0, 0.012319247033443274
290.0, 0.009926300488173743
291.0, 0.01003816978595549
292.0, 0.008954055413071852
293.0, 0.009908022038833909
294.0, 0.01203906352576559
295.0, 0.011137948530997912
296.0, 0.011545444028037546
297.0, 0.013564869217728804
298.0, 0.01689258581588397
299.0, 0.01769554040905815
300.0, 0.020646831440778942
301.0, 0.02329705026439258
302.0, 0.02411821744844887
303.0, 0.02376693903908484
304.0, 0.024664974027299388
305.0, 0.024757853711048994
306.0, 0.021264395162472034
307.0, 0.019489839126852333
308.0, 0.01846112920005385
309.0, 0.017354550561493636
310.0, 0.014238474485325734
311.0, 0.012938234083096667
312.0, 0.01072670256558671
313.0, 0.007652195901874171
314.0, 0.007115081043279032
315.0, 0.006035035711990053
316.0, 0.00501576603633239
317.0, 0.004261323233703209
318.0, 0.002880830572667461
319.0, 0.0015726552761031957
320.0, 0.0010855978248157372
321.0, 0.0021122684980245275
322.0, 0.0013128697711837665
323.0, 0.0005942541236721559
324.0, 0.00011563699259028612
325.0, 0.00010958877856633383
326.0, 0.0009344123229264394
327.0, 0.0012545243286118772
328.0, 0.001188456395049577
329.0, 0.0014320328047941722
330.0, 0.0014119478621052142
331.0, 0.0009687429163636452
332.0, 0.0003843169724830687
333.0, 0.0014542058851503654
334.0, 0.0011984232579914783
335.0, 0.0011484311790847974
336.0, 0.0018302646720347098
337.0, 0.001397581713059559
338.0, 0.001559993277630556
339.0, 0.001840458317273392
340.0, 0.001892699058391031
341.0, 0.0008585734817369939
342.0, 0.0006600803488260032
343.0, 0.0010007695891312916
344.0, 0.0015385013939696103
345.0, 0.0012527460808237653
346.0, 0.0006655573131827161
347.0, 0.0004119937319956977
348.0, 0.0018547982058102733
349.0, 0.0015464242489127878
350.0, 0.0015756242558947727
351.0, 0.0020630317219747594
352.0, 0.002203568765040939
353.0, 0.0013702751368316916
354.0, 0.0015308200437310943
355.0, 0.0029044628215694384
356.0, 0.002911866825814215
357.0, 0.00273426869540807
358.0, 0.0032606987851084147
359.0, 0.004713477529194798
360.0, 0.003325314458467973
361.0, 0.0025084748420174698
362.0, 0.0021174298091894395
363.0, 0.002071120740930586
364.0, 0.002866463951587955
365.0, 0.002952604161806216
366.0, 0.002620083500082806
367.0, 0.0021909638933909816
368.0, 0.0020651159852822076
369.0, 0.001769532946146282
370.0, 0.0013783415947643117
371.0, 0.0010664558761999071
372.0, 0.0006783995473478652
373.0, 0.0004061665879333542
374.0, 0.00026549276823787976
375.0, 0.00024590413473161976
376.0, 0.00026481852536250746
377.0, 0.00043070734756154775
378.0, 0.0007326290553397318
379.0, 0.0010260078426876157
380.0, 0.002152445832637202
381.0, 0.0026957175827655197
382.0, 0.0023920875420322014
383.0, 0.0026496185231456235
384.0, 0.003604487679432325
385.0, 0.004232118944451386
386.0, 0.00414810522378209
387.0, 0.0047513940880451935
388.0, 0.0054292900860925695
389.0, 0.00609531401861563
390.0, 0.006703449779075618
391.0, 0.0076829848945971805
392.0, 0.009023743147239395
393.0, 0.010154908533085169
394.0, 0.010530741822164598
395.0, 0.011704173219209735
396.0, 0.012568301679309068
397.0, 0.013429207946829872
398.0, 0.014705515048539662
399.0, 0.016025798767495554
400.0, 0.017555793200575442
401.0, 0.019156565488979125
402.0, 0.020574912074979246
403.0, 0.022540008205228976
404.0, 0.02511835697702208
405.0, 0.028048192414747097
406.0, 0.030732853065259507
407.0, 0.03182860725524162
408.0, 0.03381262798956838
409.0, 0.03731015891421031
410.0, 0.043168264595323816
411.0, 0.04485556238334726
412.0, 0.04817051047564871
413.0, 0.05401545906324188
414.0, 0.06104097426269181
415.0, 0.06478865372868223
416.0, 0.06905392705232925
417.0, 0.074560349252253
418.0, 0.07939700601730804
419.0, 0.08384057320424675
420.0, 0.08649116398448818
421.0, 0.08720730918788736
422.0, 0.08893076763287891
423.0, 0.08734561711696492
424.0, 0.08434830611692787
425.0, 0.08080613408415575
426.0, 0.07732806143870675
427.0, 0.0723511996875642
428.0, 0.06725365862945555
429.0, 0.06261145409470108
430.0, 0.055870615674106824
431.0, 0.0521665890083816
432.0, 0.048652576620625686
433.0, 0.04367882692094527
434.0, 0.041997405576637295
435.0, 0.040017443468351704
436.0, 0.03762777528441038
437.0, 0.03479906781621137
438.0, 0.03467214337589839
439.0, 0.03292540845888221
440.0, 0.03162612835745745
441.0, 0.03262636894295616
442.0, 0.03256672988519543
443.0, 0.03420534060842202
444.0, 0.03600019291823987
445.0, 0.03636377133576573
446.0, 0.03795354448840425
447.0, 0.0408257862947634
448.0, 0.04387892253241211
449.0, 0.045836099629040665
450.0, 0.04640688296952837
451.0, 0.04782463689956895
452.0, 0.04945686498042659
453.0, 0.05043124870458526
454.0, 0.05010846585178675
455.0, 0.05065773614645511
456.0, 0.050841649592465524
457.0, 0.048806908953218694
458.0, 0.04541730234698525
459.0, 0.04385763863383905
460.0, 0.04313166391177554
461.0, 0.0415646650474006
462.0, 0.03827921899508913
463.0, 0.03611548260282305
464.0, 0.03469385283147514
465.0, 0.033193484604349316
466.0, 0.03313000961106142
467.0, 0.03246636555505313
468.0, 0.031228196649234357
469.0, 0.029653485211991286
470.0, 0.030342668271497893
471.0, 0.029359047820923974
472.0, 0.02737330647828353
473.0, 0.025929497610063402
474.0, 0.027531205948550286
475.0, 0.027971525947055167
476.0, 0.02766410472834174
477.0, 0.027793866692383106
478.0, 0.02785018662348763
479.0, 0.028032138237314545
480.0, 0.028358581454356286
481.0, 0.028842793827087522
482.0, 0.029414571272597837
483.0, 0.030062607852714158
484.0, 0.030803884246669536
485.0, 0.031671228101083
486.0, 0.03239136008025339
487.0, 0.033359499735428975
488.0, 0.03430775685063872
489.0, 0.03477276462528055
490.0, 0.03586251701052646
491.0, 0.03802020744151449
492.0, 0.04033282904594633
493.0, 0.04140684516318586
494.0, 0.04385332238806721
495.0, 0.045270242424661364
496.0, 0.04648529594039406
497.0, 0.04882082223678772
498.0, 0.049570308052793756
499.0, 0.050983068181439675
500.0, 0.05303416639403611
501.0, 0.05558132579492009
502.0, 0.05831745949961377
503.0, 0.06087910838942017
504.0, 0.06311940074966906
505.0, 0.06487692382486317
506.0, 0.06912996935199275
507.0, 0.07328070035921916
508.0, 0.07724365466494967
509.0, 0.08096776708432436
510.0, 0.08280520689135533
511.0, 0.08577230307701394
512.0, 0.08940916967140324
513.0, 0.09324775977826884
514.0, 0.09557029884142752
515.0, 0.10088433579196267
516.0, 0.10559533978818662
517.0, 0.10699185407201203
518.0, 0.11112547312122847
519.0, 0.11531414117005857
520.0, 0.11843529051387308
521.0, 0.12015504337506615
522.0, 0.1278546711180127
523.0, 0.13176966733563722
524.0, 0.13432281096060986
525.0, 0.13696151685939645
526.0, 0.13994516062402831
527.0, 0.14211513793315017
528.0, 0.14391390089039635
529.0, 0.14554280171854103
530.0, 0.1469065109581903
531.0, 0.14973454630914504
532.0, 0.15083412546507674
533.0, 0.14968080645475695
534.0, 0.1508148259112163
535.0, 0.1527751437979759
536.0, 0.15203076090738557
537.0, 0.1490788967479689
538.0, 0.15121718308289228
539.0, 0.14932936514219589
540.0, 0.14656932695137911
541.0, 0.14361905673561315
542.0, 0.1401109475263971
543.0, 0.13573878047633556
544.0, 0.1313127300091441
545.0, 0.12597516848842985
546.0, 0.1170926119195083
547.0, 0.113739605163315
548.0, 0.10869380018016062
549.0, 0.10133622802006619
550.0, 0.09228708695624552
551.0, 0.08824237773941421
552.0, 0.08279484149514459
553.0, 0.0765616488898313
554.0, 0.07125273152520892
555.0, 0.06809726852450058
556.0, 0.06384226267464314
557.0, 0.06006698758495189
558.0, 0.05865776485659461
559.0, 0.05528929127389138
560.0, 0.05594846277037834
561.0, 0.057483750010888256
562.0, 0.05737706884992671
563.0, 0.060093541544226435
564.0, 0.06146098934675822
565.0, 0.06419161033880007
566.0, 0.06935915999108311
567.0, 0.0706383973202355
568.0, 0.06875735015222972
569.0, 0.06535582982317799
570.0, 0.06112089273926163
571.0, 0.05581342556728396
572.0, 0.05056724674784688
573.0, 0.044981551089834225
574.0, 0.03915508559018926
575.0, 0.0339551722972473
576.0, 0.031209920057140423
577.0, 0.027711652521495673
578.0, 0.023642163384485864
579.0, 0.02117555150426111
580.0, 0.019228111677605617
581.0, 0.016706517197988085
582.0, 0.0143796801951041
583.0, 0.013821870150922653
584.0, 0.013263520442400173
585.0, 0.011860301501965676
586.0, 0.010391707297548009
587.0, 0.009832608077925789
588.0, 0.008805219749996913
589.0, 0.008666865892161778
590.0, 0.008870542923294481
591.0, 0.008865024687012094
592.0, 0.007187137311773648
593.0, 0.006788880562220663
594.0, 0.006551908950781498
595.0, 0.006065573901168873
596.0, 0.006768505818670015
597.0, 0.007758477655752571
598.0, 0.00809499506493905
599.0, 0.0075709994014366636
600.0, 0.006685636300070351
601.0, 0.008138042081812517
602.0, 0.009433231321487755
603.0, 0.009710621338073532
604.0, 0.008137852549010295
605.0, 0.009988373903271789
606.0, 0.009666882807149186
607.0, 0.008381283612286494
608.0, 0.008904082537322285
609.0, 0.009356605059647131
610.0, 0.009831182632663088
611.0, 0.0102805902513332
612.0, 0.010687028642787703
613.0, 0.011861176321947059
614.0, 0.011179128540101715
615.0, 0.010677641933974155
616.0, 0.011436216437223538
617.0, 0.012032332606717235
618.0, 0.011145631064733114
619.0, 0.011240929930858876
620.0, 0.012345733345819227
621.0, 0.01091538746374505
622.0, 0.010165727865175802
623.0, 0.010614837891788064
624.0, 0.011429677474748483
625.0, 0.01046910835926217
626.0, 0.009675886434222536
627.0, 0.00887419292986719
628.0, 0.008179656697516139
629.0, 0.007762458831040372
630.0, 0.007957410325480843
631.0, 0.007510623004764508
632.0, 0.0068761166772497925
633.0, 0.006369235165674785
634.0, 0.0051185700448623615
635.0, 0.0035384056220348374
636.0, 0.002829706702767124
637.0, 0.003437200288650138
638.0, 0.004761507591997006
639.0, 0.005058925279064723
640.0, 0.0045793834560460865
641.0, 0.0036618230255608055
642.0, 0.003028165029278906
643.0, 0.0033381639226729796
644.0, 0.0028119603546953313
645.0, 0.0020803037027725614
646.0, 0.0023262967279660545
647.0, 0.003098552928237378
648.0, 0.003238229533558699
649.0, 0.0029848813908091147
650.0, 0.0026037729965695737
651.0, 0.002637156601317925
652.0, 0.002337994676474274
653.0, 0.002079967382798542
654.0, 0.001928235193964117
655.0, 0.0014092817908792949
656.0, 0.0014237964464917621
657.0, 0.0013728945159911918
658.0, 0.001233262658745004
659.0, 0.0012575470290219558
660.0, 0.0016921045654352306
661.0, 0.001997936487851441
662.0, 0.00216141459893029
663.0, 0.00224574850734074
664.0, 0.003523547503280965
665.0, 0.003827674869886496
666.0, 0.003112305371982474
667.0, 0.0019371124261413763
668.0, 0.004580463142189237
669.0, 0.003965530918858099
670.0, 0.003022209151993582
671.0, 0.0031777038354798295
672.0, 0.005867320938952562
673.0, 0.004481932960747776
674.0, 0.004092956358398223
675.0, 0.004770732249321064
676.0, 0.005516037742790583
677.0, 0.006022003309434346
678.0, 0.006885576689667323
679.0, 0.007640635687264627
680.0, 0.007776563761798498
681.0, 0.005964812800726956
682.0, 0.007448559198002923
683.0, 0.007805581244925271
684.0, 0.006227158689952904
685.0, 0.006280289097906075
686.0, 0.006380652256201511
687.0, 0.005975597383408225
688.0, 0.005944449236640746
689.0, 0.007925516959956934
690.0, 0.006200264642607992
691.0, 0.007374023403383382
692.0, 0.008537870857874214
693.0, 0.007377138284110599
694.0, 0.008360934645664706
695.0, 0.008949739133457094
696.0, 0.008724367199886843
697.0, 0.007835376336681932
698.0, 0.007470414350271655
699.0, 0.007877061109273237
700.0, 0.006790437360469329
701.0, 0.005768579953716233
702.0, 0.00795002491001422
703.0, 0.006837204712973813
704.0, 0.00779494676449893
705.0, 0.008744628371201203
706.0, 0.008072061899092743
707.0, 0.007291575316814226
708.0, 0.00698946082298448
709.0, 0.006425437638489628
710.0, 0.005643864267876966
711.0, 0.005625867851942428
712.0, 0.0052766739564196335
713.0, 0.006016475308320097
714.0, 0.0072682575310999645
715.0, 0.007962426581025557
716.0, 0.006187972552658113
717.0, 0.004674233606928295
718.0, 0.003966615435103836
719.0, 0.004260325274395542
720.0, 0.004682652215132369
721.0, 0.004924027966496275
722.0, 0.004699938683195824
723.0, 0.004501780082940617
724.0, 0.005620929635579523
725.0, 0.003640897671588983
726.0, 0.002880908233294052
727.0, 0.0027213164175517797
728.0, 0.0023069553379895945
729.0, 0.0032075790716527518
730.0, 0.0020968141752389906
731.0, 0.001387549517883982
732.0, 0.001887284659373989
733.0, 0.0025682977207537815
734.0, 0.0025388191648605825
735.0, 0.0024997343368130484
736.0, 0.002510370576461877
737.0, 0.0024948505495234192
738.0, 0.0022964243321584067
739.0, 0.0020720880831071116
740.0, 0.002234262433613584
741.0, 0.0027536386420087835
742.0, 0.0018577896530102894
743.0, 0.001389803751918038
744.0, 0.0021385230297603
745.0, 0.003303652575363392
746.0, 0.0028118162726995374
747.0, 0.0013706221705867376
748.0, 0.0012815605772022456
749.0, 0.0021949943893651196
750.0, 0.003353141324938088
751.0, 0.0016492430997724458
752.0, 0.0008779515762627884
753.0, 0.0010884625161566362
754.0, 0.001633853412941851
755.0, 0.0007013835597114875
756.0, 0.0018374370128979873
757.0, 0.0016377964493364382
758.0, 0.001074372204294852
759.0, 0.0014800443586739879
760.0, 0.001467577102501829
761.0, 0.0015956543267435642
762.0, 0.0019768040935204466
763.0, 0.0026107991417093023
764.0, 0.0033349026390376343
765.0, 0.0025085022203151677
766.0, 0.0024876190008726934
767.0, 0.0024424505993451634
768.0, 0.0010822459958555785
769.0, 0.002433710304734448
770.0, 0.0012936941580863927
771.0, 0.0010226671977092514
772.0, 0.002606131760091742
773.0, 0.0031481180561680616
774.0, 0.003138180166248281
775.0, 0.0036011625321400497
776.0, 0.004166797279447622
777.0, 0.004104724126778872
778.0, 0.0033202945287033716
779.0, 0.003400813239007541
780.0, 0.0025926885945870316
781.0, 0.0006518052992543109
782.0, 0.0005681366077684894
783.0, 0.00338975993344697
784.0, 0.003910415149052414
785.0, 0.002882365130063155
786.0, 0.002624816860294938
787.0, 0.0009172453714071945
788.0, 0.0024842710374700914
789.0, 0.003970575286562693
790.0, 0.0035868623639288416
791.0, 0.0016582159128680056
792.0, 0.002745334260636475
793.0, 0.002561640609023281
794.0, 0.0018529418327049188
795.0, 0.002527328237103681
796.0, 0.0024821033710288416
797.0, 0.001403250741588719
798.0, 0.0008520761395820943
799.0, 0.0011973009976376414
800.0, 0.0008194677794897382
801.0, 0.0009364886952732173
802.0, 0.0012261103922606216
803.0, 0.0013711342295325923
804.0, 0.0010453421649312348
805.0, 0.00022362256184842985
806.0, 0.0002820080877080126
807.0, 0.0005896483722867991
808.0, 0.000804571998651306
809.0, 0.0007607966874518068
810.0, 0.001071640263733028
811.0, 0.0007126346142432101
812.0, 0.00030342190328829996
813.0, 0.0005236739373382042
814.0, 0.00033068481156782405
815.0, 0.00045681359356232313
816.0, 0.0005585595487452576
817.0, 0.0004942890375140285
818.0, 0.00022771146559015214
819.0, 0.0004664045381304047
820.0, 0.0009312474636442947
821.0, 0.0013248761393200614
822.0, 0.001354096971739574
823.0, 0.0005893949210073201
824.0, 0.0009160420707750673
825.0, 0.0013139701285733712
826.0, 0.0012446119089067876
827.0, 0.00025267457706551315
828.0, 0.0017554164958059142
829.0, 0.0015741864978937026
830.0, 0.0011429687485404274
831.0, 0.0011263491697219778
832.0, 0.00013556601219561783
833.0, 0.0019707514472964522
834.0, 0.001639568794453177
835.0, 0.0006274507976825769
836.0, 0.001782817443407972
837.0, 0.0010076255879534037
838.0, 0.0003604938347729566
839.0, 0.0001626176863021996
840.0, 0.0006700898309050526
841.0, 0.0022071734994366424
842.0, 0.0009663181825933875
843.0, 0.001141875881267799
844.0, 0.0014357638342454378
845.0, 0.0005756563705618331
846.0, 0.0001509855935255131
847.0, 0.0001745994749169417
848.0, 0.00021606454969279307
849.0, 0.000653718361707164
850.0, 0.0023071478113993625
851.0, 0.0013231403301677104
852.0, 0.0006322618439058908
853.0, 0.0008716172264758772
854.0, 0.0017507654155377585
855.0, 0.0008766461286494443
856.0, 0.0007714012645259449
857.0, 0.001095136248120616
858.0, 0.0010607926061260453
859.0, 6.465039870113141e-05
860.0, 0.00018023851332932267
861.0, 0.0007988756730982512
862.0, 0.0009257853583013486
863.0, 0.0006153331792694214
864.0, 0.0006460176529980392
865.0, 0.0005116082601206059
866.0, 0.000565355091245581
867.0, 0.0007605032583190456
868.0, 0.0010186107553199623
869.0, 0.0011832594163499206
870.0, 0.0014750371742754391
871.0, 0.0013998339106553754
872.0, 0.0012505558411445815
873.0, 0.0014797804562751379
874.0, 0.002539649020984153
875.0, 0.0016601039435065665
876.0, 0.0019498818629627732
877.0, 0.0029734267507258495
878.0, 0.001831912786037065
879.0, 0.0034846482293858063
880.0, 0.0033143654909477418
881.0, 0.0029920899180250343
882.0, 0.0035661189767071636
883.0, 0.004851828333973883
884.0, 0.005261315390047394
885.0, 0.005811497480171209
886.0, 0.006135534527820981
887.0, 0.005889919232081321
888.0, 0.006391702883812996
889.0, 0.007261669340920103
890.0, 0.00713867334822036
891.0, 0.007033393022963696
892.0, 0.009149556528010699
893.0, 0.009053439275097412
894.0, 0.009653178043060427
895.0, 0.010082743608629161
896.0, 0.01038667612927364
897.0, 0.011936727503196977
898.0, 0.01232721298515625
899.0, 0.01231662979609685
900.0, 0.012657355239065077
901.0, 0.01364863897631545
902.0, 0.013930633164088756
903.0, 0.01470118357298464
904.0, 0.015582180952741985
905.0, 0.016564976898077653
906.0, 0.017753452617525436
907.0, 0.01964209942203906
908.0, 0.02120308180909789
909.0, 0.02222231410024557
910.0, 0.0229671696730381
911.0, 0.024070471908319624
912.0, 0.02659639019056415
913.0, 0.02835459373844253
914.0, 0.03011267238630222
915.0, 0.03219823545702233
916.0, 0.03431507604028143
917.0, 0.036554413371828236
918.0, 0.03850003098238309
919.0, 0.04100368439115029
920.0, 0.044535654112240156
921.0, 0.04800550923153835
922.0, 0.051538667426084483
923.0, 0.055632883140529936
924.0, 0.06035368425912903
925.0, 0.06545872922342949
926.0, 0.06907004639647285
927.0, 0.07680812999280498
928.0, 0.08418993260973855
929.0, 0.09089018892316393
930.0, 0.09852032844678127
931.0, 0.10964692513254744
932.0, 0.12379356604398917
933.0, 0.13741004576744437
934.0, 0.15164979082835015
935.0, 0.17251399068005002
936.0, 0.19882456536730175
937.0, 0.22815065755966826
938.0, 0.2652032648881749
939.0, 0.3119117115995678
940.0, 0.36572372483242516
941.0, 0.4358973272441199
942.0, 0.5130800683184772
943.0, 0.6034930741651091
944.0, 0.7105366355073586
945.0, 0.8256409444971567
946.0, 0.9138669683096777
947.0, 0.9725636223160556
948.0, 0.9884712700461048
949.0, 0.9532119203515332
950.0, 0.8888366722531945
951.0, 0.7937938542367692
952.0, 0.685671917275671
953.0, 0.5764974541532779
954.0, 0.47819078618404987
955.0, 0.4103969845112581
956.0, 0.3486194177336431
957.0, 0.29770062570266825
958.0, 0.25460907297688945
959.0, 0.2115073553014314
960.0, 0.1804171560514469
961.0, 0.15763383923698152
962.0, 0.13955358954371458
963.0, 0.12400274734069047
964.0, 0.1097769987373678
965.0, 0.09870713639161409
966.0, 0.08951518988872018
967.0, 0.08131008088940506
968.0, 0.07367343459262288
969.0, 0.06686572897501913
970.0, 0.06131654120267335
971.0, 0.056237339118116104
972.0, 0.05213969433570288
973.0, 0.04905659281329017
974.0, 0.04598740837411024
975.0, 0.044698716048623875
976.0, 0.04462642604529045
977.0, 0.0447257757257209
978.0, 0.04418296519693532
979.0, 0.0428618158230106
980.0, 0.04347573555268574
981.0, 0.04405786546331781
982.0, 0.04470241463897501
983.0, 0.046059478681227554
984.0, 0.05003921955473028
985.0, 0.050594873343418896
986.0, 0.05205756673512866
987.0, 0.05357983822144682
988.0, 0.05409929440771408
989.0, 0.05650210284247602
990.0, 0.056675647414398414
991.0, 0.05618782456384097
992.0, 0.055118051361929044
993.0, 0.053424602430335415
994.0, 0.05234736399710372
995.0, 0.05234656901212182
996.0, 0.05070303190206763
997.0, 0.04852949053556319
998.0, 0.04776525259446532
999.0, 0.047196216376998605
1000.0, 0.04798822715712365
1001.0, 0.04841621124742393
1002.0, 0.048011639784926
1003.0, 0.047166679027066866
1004.0, 0.05023122040890476
1005.0, 0.049665401955591645
1006.0, 0.049300816035767574
1007.0, 0.049470438253470424
1008.0, 0.04929317767626896
1009.0, 0.04961836807489369
1010.0, 0.051701218418239346
1011.0, 0.05346721943031967
1012.0, 0.054822052622455875
1013.0, 0.05638836245901027
1014.0, 0.057128355490889585
1015.0, 0.05691231968390874
1016.0, 0.05585935583278304
1017.0, 0.05460170540832868
1018.0, 0.053879401404399695
1019.0, 0.052330901989997194
1020.0, 0.05083507983098007
1021.0, 0.04930397379893081
1022.0, 0.047855469972181534
1023.0, 0.046661929401831836
1024.0, 0.045432127777686716
1025.0, 0.045040335018437204
1026.0, 0.04535447323090693
1027.0, 0.04609906184326895
1028.0, 0.046899268917925375
1029.0, 0.0474177071203636
1030.0, 0.049750842188452625
1031.0, 0.05220769775516333
1032.0, 0.05516861929059853
1033.0, 0.05942301642873614
1034.0, 0.061935225480380524
1035.0, 0.06659049870124832
1036.0, 0.07145589179895234
1037.0, 0.07778976486883753
1038.0, 0.08740058585301104
1039.0, 0.09774433885067006
1040.0, 0.10461745156969007
1041.0, 0.11627918307940856
1042.0, 0.13310727406932138
1043.0, 0.15281526042913773
1044.0, 0.17363069929081038
1045.0, 0.19627354381846068
1046.0, 0.2217704306905324
1047.0, 0.24695926922510253
1048.0, 0.26907509174039423
1049.0, 0.29318480937293917
1050.0, 0.30215233310856493
1051.0, 0.29929653928093025
1052.0, 0.28358394991064645
1053.0, 0.25598539566535766
1054.0, 0.2256215569802543
1055.0, 0.1997826838978226
1056.0, 0.1739619487333357
1057.0, 0.1491466997702116
1058.0, 0.12711392918852865
1059.0, 0.10978990283299798
1060.0, 0.09586792932785328
1061.0, 0.08355071989746193
1062.0, 0.07354632142034526
1063.0, 0.06578624593176557
1064.0, 0.05815354049229512
1065.0, 0.052171196682879326
1066.0, 0.047568131401033206
1067.0, 0.04445487666730588
1068.0, 0.042030165164841864
1069.0, 0.03808673026864724
1070.0, 0.03529797537219609
1071.0, 0.03337910710235116
1072.0, 0.030959900418013882
1073.0, 0.028437425411924
1074.0, 0.028129123950633418
1075.0, 0.02842681055249902
1076.0, 0.026675496151436894
1077.0, 0.024056964597691244
1078.0, 0.021274425732018307
1079.0, 0.018671519074033645
1080.0, 0.017019964357994403
1081.0, 0.018897364595985046
1082.0, 0.018829492756017356
1083.0, 0.016971268586888362
1084.0, 0.015948420746151413
1085.0, 0.014690525136501544
1086.0, 0.013198084313115274
1087.0, 0.011636849061958438
1088.0, 0.01048933358598222
1089.0, 0.010115323338054436
1090.0, 0.009854412741230367
1091.0, 0.00958195974141994
1092.0, 0.009142841348538074
1093.0, 0.008778669582029454
1094.0, 0.008615803358212614
1095.0, 0.008246769224630765
1096.0, 0.008551865952773423
1097.0, 0.007889850600450523
1098.0, 0.007346335672301785
1099.0, 0.007248349445575573
1100.0, 0.006246362374883507
1101.0, 0.00667123518344494
1102.0, 0.00596400531545303
1103.0, 0.004866430813509711
1104.0, 0.004570352165009051
1105.0, 0.006365981755142362
1106.0, 0.0054394470328145775
1107.0, 0.004413511011504929
1108.0, 0.0048372342769636865
1109.0, 0.005342781097682047
1110.0, 0.003517392800261411
1111.0, 0.0019207238670251045
1112.0, 0.002451065283721276
1113.0, 0.0019618749976085515
1114.0, 0.0015271294894146346
1115.0, 0.002519894707167834
1116.0, 0.0025549770525925657
1117.0, 0.0029381151459603513
1118.0, 0.004236100495974821
1119.0, 0.005984395606220652
1120.0, 0.007322101131352226
1121.0, 0.0069341926242018435
1122.0, 0.0036570465935248583
1123.0, 0.0015365992189164434
1124.0, 0.001448646211753007
1125.0, 0.002432398165774528
1126.0, 0.0019615085214778477
1127.0, 0.0011543448359754164
1128.0, 0.0017340849286828159
1129.0, 0.0019517458514556746
1130.0, 0.0013233549658357043
1131.0, 0.0003552251681977431
1132.0, 0.0016641255536145678
1133.0, 0.0015549896641823492
1134.0, 0.0024517179594806078
1135.0, 0.002585973628251958
1136.0, 0.001043872460654704
1137.0, 0.0023677366283893146
1138.0, 0.0027195366933718897
1139.0, 0.0016748613423509574
1140.0, 0.0014365403769241959
1141.0, 0.0023324924512922304
1142.0, 0.0019234620246070752
1143.0, 0.002890179644957788
1144.0, 0.002664527927796631
1145.0, 0.0026169273749643146
1146.0, 0.0031272462916345327
1147.0, 0.003699012689645
1148.0, 0.002006845706426611
1149.0, 0.0017768176442680256
1150.0, 0.0017455871119434192
1151.0, 0.001931090338920567
1152.0, 0.0023869759844080064
1153.0, 0.002257108956862048
1154.0, 0.002296308614232024
1155.0, 0.001745161447400554
1156.0, 0.0018726151878300868
1157.0, 0.002410050164358123
1158.0, 0.0010962708627342164
1159.0, 0.004226578524409253
1160.0, 0.003132703127259293
1161.0, 0.0024326640238629777
1162.0, 0.0024969758586738202
1163.0, 0.001667096424982972
1164.0, 0.0009777226736607631
1165.0, 0.002152950695275173
1166.0, 0.0017178178201413905
1167.0, 0.0010634389438451907
1168.0, 0.001887177713264749
1169.0, 0.004211283197815605
1170.0, 0.0024090532818627696
1171.0, 0.0014996422002894116
1172.0, 0.001187636191079753
1173.0, 0.0012848487745901074
1174.0, 0.0017679522889181292
1175.0, 0.0004959560449155001
1176.0, 0.0019209465733770813
1177.0, 0.0015459714567892875
1178.0, 0.0003990196588115109
1179.0, 0.0005961979124654542
1180.0, 0.0012207252623216936
1181.0, 0.000780543210297953
1182.0, 0.0004586618164058484
1183.0, 0.0007276101085050054
1184.0, 0.0011612782443241943
1185.0, 0.0004440623761736393
1186.0, 0.00029654751349210537
1187.0, 0.001480208031162352
1188.0, 0.0017503591552668596
1189.0, 0.0013739949362693695
1190.0, 0.0014082082052817842
1191.0, 0.0009081703856629352
1192.0, 0.0006516164493796692
1193.0, 0.0014020822768998928
1194.0, 0.001408103244238701
1195.0, 0.0005036535976176897
1196.0, 0.0013097296345346212
1197.0, 0.001120428045147876
1198.0, 0.0007471601454729584
1199.0, 0.0006725577855828049
1200.0, 0.0007080560128961343
1201.0, 0.000483845746514807
1202.0, 0.000615697406827419
1203.0, 0.0007553333297164185
1204.0, 0.0006201276980125549
1205.0, 0.0006147701166411193
1206.0, 0.0007024739596186429
1207.0, 4.904477515015667e-05
1208.0, 0.001123278663176199
1209.0, 0.0015347986116359285
1210.0, 0.000994602747025838
1211.0, 0.0002573955048970911
1212.0, 0.0004714459913026151
1213.0, 0.0021048817309656906
1214.0, 0.0010341857364347838
1215.0, 0.0013160728441208105
1216.0, 0.002236691226206125
1217.0, 0.0026298412625321062
1218.0, 0.0018519579045181052
1219.0, 0.0023561628277528482
1220.0, 0.00114559095570555
1221.0, 0.0006731925463292777
1222.0, 0.0008140039266808362
1223.0, 0.0007095224740226424
1224.0, 0.0013807904567494922
1225.0, 0.0012109530409579175
1226.0, 0.002075866074669324
1227.0, 0.0018903697608690798
1228.0, 0.0011748849489663011
1229.0, 0.0031233326342637456
1230.0, 0.0014852672065519424
1231.0, 0.0004600382209340494
1232.0, 0.0003312602982983344
1233.0, 0.0005570182025812461
1234.0, 0.0007865450718738564
1235.0, 0.0019309901651331412
1236.0, 0.0005086314161718419
1237.0, 0.000672337882590912
1238.0, 0.0009404318388368595
1239.0, 0.0010721892154856312
1240.0, 0.0017514081042315818
1241.0, 0.001585869094759502
1242.0, 0.002381212365426021
1243.0, 0.001913515389042716
1244.0, 0.0011233911415436332
1245.0, 0.001075590623310254
1246.0, 0.0018590213352113684
1247.0, 0.0006842522769472309
1248.0, 0.0020321464844742804
1249.0, 0.0021500452732453328
1250.0, 0.001446898038947389
1251.0, 0.0016328029343500117
1252.0, 0.0018185091600141311
1253.0, 0.0005885289284302546
1254.0, 0.0012783622202793778
1255.0, 0.0024697449879281
1256.0, 0.0023843798122204166
1257.0, 0.00017755743332728612
1258.0, 0.0015988175482247419
1259.0, 0.0015093227499986034
1260.0, 0.0015465707149136454
1261.0, 0.001638195729218273
1262.0, 0.00153551245440495
1263.0, 0.0013653192261790625
1264.0, 0.0005107415655444872
1265.0, 0.0005219701293386156
1266.0, 0.0013203383256782451
1267.0, 0.0016309788126453349
1268.0, 0.0008610825024096388
1269.0, 0.0022561365334016143
1270.0, 0.0014269939923605695
1271.0, 0.0011367395990566564
1272.0, 0.0012066925690877638
1273.0, 0.001023819280066841
1274.0, 0.0001885849942974689
1275.0, 0.000704846975601435
1276.0, 0.0007507635623513014
1277.0, 0.001259719824801914
1278.0, 0.0011248857664582902
1279.0, 0.0005139388628811082
1280.0, 0.0014078949430094752
1281.0, 0.0008420439983526085
1282.0, 0.00040710293214806057
1283.0, 0.00027724367328506565
1284.0, 0.0003801511484717076
1285.0, 0.00047581508855433025
1286.0, 0.00018685157260913156
1287.0, 0.0009589002227739982
1288.0, 0.0015113970086601408
1289.0, 0.0012575170172518014
1290.0, 0.0011136267135835461
1291.0, 0.001849326077193954
1292.0, 0.0011666982417160245
1293.0, 0.0014039147892281256
1294.0, 0.0006795948905427439
1295.0, 0.00028269562641783147
1296.0, 0.0005057743671789778
1297.0, 0.0006771935828748202
1298.0, 0.00019994821488745885
1299.0, 0.000511540898768249
1300.0, 0.001356432916660161
1301.0, 0.0027415708122721693
1302.0, 0.0036510755205179024
1303.0, 0.002592720274719631
1304.0, 0.0032741208934571244
1305.0, 0.002862171848072051
1306.0, 0.0017140496960274842
1307.0, 0.001977197055879625
1308.0, 0.003370429202179211
1309.0, 0.0020288605661656638
1310.0, 0.0012305721213271426
1311.0, 0.00221464238512451
1312.0, 0.0024417012200841598
1313.0, 0.002435617029277872
1314.0, 0.002472232749095138
1315.0, 0.0006728424490442851
1316.0, 0.0020577409214505397
1317.0, 0.001091756340241395
1318.0, 0.0009142247438648431
1319.0, 0.0019285656889839083
1320.0, 0.003221050950310537
1321.0, 0.0037782653808908365
1322.0, 0.001143197742621409
1323.0, 0.0018660614421084627
1324.0, 0.0024986183683472964
1325.0, 0.002310969219466559
1326.0, 0.0022327931345997305
1327.0, 0.0032839655480029926
1328.0, 0.0011401209624987284
1329.0, 0.0010932438392674375
1330.0, 0.002296919739089395
1331.0, 0.0032719815120744082
1332.0, 0.002890165562255169
1333.0, 0.001708183210931869
1334.0, 0.0005151255919071931
1335.0, 0.0006589624929154159
1336.0, 0.002154428241039602
1337.0, 0.002865479827462683
1338.0, 0.0010069232565412321
1339.0, 0.0012813514060189353
1340.0, 0.0036349283141767766
1341.0, 0.002786471951387389
1342.0, 0.001964618419097979
1343.0, 0.0017717218682496677
1344.0, 0.0008183953616742496
1345.0, 0.000179886793079413
1346.0, 0.0006405265353449743
1347.0, 0.0004720529715339161
1348.0, 0.0006895903601353223
1349.0, 0.0015326877441283917
1350.0, 0.002249106920516125
1351.0, 0.0013327691083475258
1352.0, 0.0006711719033130979
1353.0, 0.0023998684487123467
1354.0, 0.002396776208997549
1355.0, 0.001271599981485176
1356.0, 0.002341482092573081
1357.0, 0.002256253088965531
1358.0, 0.0005801340436654649
1359.0, 0.0003652532078484834
1360.0, 0.0010754135927850204
1361.0, 0.0015844041230790003
1362.0, 0.0012924556208845374
1363.0, 0.0022797904987952194
1364.0, 0.0015473790282648449
1365.0, 0.0009953696649864614
1366.0, 0.0015781364631612302
1367.0, 0.0019497117393329879
1368.0, 0.0008039100808374396
1369.0, 0.0027301727171802487
1370.0, 0.00224780919604565
1371.0, 0.0008027960987167583
1372.0, 0.0008674248703777851
1373.0, 0.0019016053076538078
1374.0, 0.0019309771146484756
1375.0, 0.0009645838740568928
1376.0, 0.0028549914118025585
1377.0, 0.0014401972683176062
1378.0, 0.001617355909359278
1379.0, 0.003025283372123474
1380.0, 0.0028337649478582514
1381.0, 0.0007784176413428668
1382.0, 0.0019009936789902155
1383.0, 0.0027183124569560794
1384.0, 0.0019859082182294902
1385.0, 0.0015432633514622716
1386.0, 0.0022871560418806936
1387.0, 0.0001317345939890742
1388.0, 0.00012521830379725476
1389.0, 0.0018128501249738836
1390.0, 0.0018892751673400684
1391.0, 0.0012852176095008321
1392.0, 0.0016270707753946374
1393.0, 0.002647272770001099
1394.0, 0.0028538471157771314
1395.0, 0.0032760183263023644
1396.0, 0.0034024942493272974
1397.0, 0.0029468594615611396
1398.0, 0.0022267161202124287
1399.0, 0.0021192259907084347
1400.0, 0.0022776170845782416
1401.0, 0.0009359449434782378
1402.0, 0.0019722675438927787
1403.0, 0.0022668192101825474
1404.0, 0.001156875074957788
1405.0, 0.0013451077849167496
1406.0, 0.0010489549157437677
1407.0, 0.0003828371045210108
1408.0, 0.0006604295685382164
1409.0, 0.0015742536893806286
1410.0, 0.0022426227981038192
1411.0, 0.0023194776708975835
1412.0, 0.004261124773339542
1413.0, 0.0025138370875882232
1414.0, 0.0025982765890845503
1415.0, 0.002562662716609192
1416.0, 0.0017352692958333216
1417.0, 0.0009115997745644635
1418.0, 0.0018118598495173908
1419.0, 0.0012760469033573818
1420.0, 0.0008424479311480583
1421.0, 0.0016070612976615607
1422.0, 0.0026195938006902744
1423.0, 0.002902786409871175
1424.0, 0.0028211990640922583
1425.0, 0.003857895532768642
1426.0, 0.0030130475222408045
1427.0, 0.0018946911167218269
1428.0, 0.0014347023391702127
1429.0, 0.00142055474285683
1430.0, 0.0011574632902599238
1431.0, 0.003170823376413637
1432.0, 0.0035596392416344055
1433.0, 0.0032731066372571884
1434.0, 0.0031269176943334288
1435.0, 0.003171829397543295
1436.0, 0.0030101760308829644
1437.0, 0.002568092263344427
1438.0, 0.0027902738687225394
1439.0, 0.0022714958216706574
1440.0, 0.002000831204053214
1441.0, 0.0024232088508444973
1442.0, 0.0027273451368884137
1443.0, 0.0010836023371166173
1444.0, 0.0037744628024373216
1445.0, 0.001845877797250252
1446.0, 0.0015207784594195755
1447.0, 0.0020120678020805562
1448.0, 0.0018666614532239847
1449.0, 0.0009502200446136284
1450.0, 0.00010927961792794112
1451.0, 0.0020595102533805024
1452.0, 0.0014522742906250758
1453.0, 0.0014185902326677615
1454.0, 0.0020849473431780023
1455.0, 0.0021337155808522647
1456.0, 0.002633257436287924
1457.0, 0.002275462406852484
1458.0, 0.003216278260436521
1459.0, 0.0027337453602443553
1460.0, 0.002579318307701202
1461.0, 0.0027689860215221727
1462.0, 0.0002502991759805262
1463.0, 0.0015311868974600656
1464.0, 0.0018625504770348837
1465.0, 0.0015130681110237878
1466.0, 0.0013594409882561251
1467.0, 0.0017937551250569788
1468.0, 0.002456186381996098
1469.0, 0.002229243876803464
1470.0, 0.004187066039306228
1471.0, 0.0039010657695260774
1472.0, 0.0018240874606486619
1473.0, 0.001201629024138847
1474.0, 0.0028848623259025118
1475.0, 0.0031031642120909015
1476.0, 0.0011398695911971994
1477.0, 0.004317794649633949
1478.0, 0.0033510404755394334
1479.0, 0.0020616533133086365
1480.0, 0.0025910894209362897
1481.0, 0.003856619036305698
1482.0, 0.004436726249664104
1483.0, 0.002981784275995548
1484.0, 0.0031456691451184765
1485.0, 0.0020848218842399657
1486.0, 0.0017041081025439705
1487.0, 0.002544942576958518
1488.0, 0.0014625937848131733
1489.0, 0.0007572793835673916
1490.0, 0.003966775678449059
1491.0, 0.002988636753100723
1492.0, 0.001167111836245668
1493.0, 0.0016248565227595167
1494.0, 0.003616943138013159
1495.0, 0.0008805465166538158
1496.0, 0.0019289332077377678
1497.0, 0.00214836066120436
1498.0, 0.0010589360670733455
1499.0, 0.001396122566587331
1500.0, 0.003408392278209751
1501.0, 0.003867488151398872
1502.0, 0.0017405422546887788
1503.0, 0.0028257105908504197
1504.0, 0.0030735740007802872
1505.0, 0.0027516464749653548
1506.0, 0.0032168491980211194
1507.0, 0.003944252957450552
1508.0, 0.0012253211106738814
1509.0, 0.00040212374895684495
1510.0, 0.00246389451786531
1511.0, 0.0018357933878162718
1512.0, 0.0015963798507550794
1513.0, 0.0023248185268257408
1514.0, 0.0020091148393805427
1515.0, 0.0011960213065517135
1516.0, 0.00021399682915551588
1517.0, 0.0019129329817592433
1518.0, 0.00281021783971405
1519.0, 0.003815576445122917
1520.0, 0.0041770102269833
1521.0, 0.0014797446999206903
1522.0, 0.003348627480335039
1523.0, 0.002753471751726503
1524.0, 0.00207915195189722
1525.0, 0.0013538262682451303
1526.0, 0.0006955737272546209
1527.0, 0.00024940842299442476
1528.0, 7.624789753981294e-06
1529.0, 6.742065689480826e-07
1530, 0.0
1531, 0.0
1532, 0.0
1533, 0.0
1534, 0.0
1535, 0.0
1536, 0.0
1537, 0.0
1538, 0.0
1539, 0.0
1540, 0.0
1541, 0.0
1542, 0.0
1543, 0.0
1544, 0.0
1545, 0.0
1546, 0.0
1547, 0.0
1548, 0.0
1549, 0.0
1550, 0.0
1551, 0.0
1552, 0.0
1553, 0.0
1554, 0.0
1555, 0.0
1556, 0.0
1557, 0.0
1558, 0.0
1559, 0.0
1560, 0.0
1561, 0.0
1562, 0.0
1563, 0.0
1564, 0.0
1565, 0.0
1566, 0.0
1567, 0.0
1568, 0.0
1569, 0.0
1570, 0.0
1571, 0.0
1572, 0.0
1573, 0.0
1574, 0.0
1575, 0.0
1576, 0.0
1577, 0.0
1578, 0.0
1579, 0.0
1580, 0.0
1581, 0.0
1582, 0.0
1583, 0.0
1584, 0.0
1585, 0.0
1586, 0.0
1587, 0.0
1588, 0.0
1589, 0.0
1590, 0.0
1591, 0.0
1592, 0.0
1593, 0.0
1594, 0.0
1595, 0.0
1596, 0.0
1597, 0.0
1598, 0.0
1599, 0.0
