30, 0.0
31, 0.0
32, 0.0
33, 0.0
34, 0.0
35, 0.0
36, 0.0
37, 0.0
38, 0.0
39, 0.0
40, 0.0
41, 0.0
42, 0.0
43, 0.0
44, 0.0
45, 0.0
46, 0.0
47, 0.0
48, 0.0
49, 0.0
50, 0.0
51, 0.0
52, 0.0
53, 0.0
54, 0.0
55, 0.0
56, 0.0
57, 0.0
58, 0.0
59, 0.0
60, 0.0
61, 0.0
62, 0.0
63, 0.0
64, 0.0
65, 0.0
66, 0.0
67, 0.0
68, 0.0
69, 0.0
70, 0.0
71, 0.0
72, 0.0
73, 0.0
74, 0.0
75, 0.0
76, 0.0
77, 0.0
78, 0.0
79, 0.0
80, 0.0
81, 0.0
82, 0.0
83, 0.0
84, 0.0
85, 0.0
86, 0.0
87, 0.0
88, 0.0
89, 0.0
90, 0.0
91, 0.0
92, 0.0
93, 0.0
94, 0.0
95, 0.0
96, 0.0
97, 0.0
98, 0.0
99, 0.0
100, 0.0
101, 0.0
102, 0.0
103, 0.0
104, 0.0
105, 0.0
106, 0.0
107, 0.0
108, 0.0
109, 0.0
110, 0.0
111, 0.0
112, 0.0
113, 0.0
114, 0.0
115, 0.0
116, 0.0
117, 0.0
118, 0.0
119, 0.0
120, 0.0
121, 0.0
122, 0.0
123, 0.0
124, 0.0
125, 0.0
126, 0.0
127, 0.0
128, 0.0
129, 0.0
130, 0.0
131, 0.0
132, 0.0
133, 0.0
134, 0.0
135, 0.0
136, 0.0
137, 0.0
138, 0.0
139, 0.0
140, 0.0
141.0, 0.0008810166271607839
142.0, 0.0012011392938415374
143.0, 0.0002634574325074771
144.0, 0.00043374942779734424
145.0, 0.001286674157847524
146.0, 0.005765818924809573
147.0, 0.010885566041016833
148.0, 0.014020214661549952
149.0, 0.015409911137216122
150.0, 0.015819659405844143
151.0, 0.01514715292739604
152.0, 0.013221248954540358
153.0, 0.011720589140808778
154.0, 0.009349850095209727
155.0, 0.006977199600346781
156.0, 0.005295371540292214
157.0, 0.004573337256052054
158.0, 0.005276374125659392
159.0, 0.0069647402235298965
160.0, 0.009766396710435487
161.0, 0.01392681671387651
162.0, 0.019072975957066543
163.0, 0.02427954639432716
164.0, 0.028568423576376362
165.0, 0.030825701979030715
166.0, 0.029666202325186613
167.0, 0.02612648267644811
168.0, 0.02059454119715081
169.0, 0.01401285724327983
170.0, 0.008051999688920054
171.0, 0.004853364672316177
172.0, 0.0033843161413720773
173.0, 0.0028147405346312273
174.0, 0.0031344360142610207
175.0, 0.0054449931631448375
176.0, 0.00887775765662695
177.0, 0.013912908341387739
178.0, 0.020885871959602068
179.0, 0.0292739960756302
180.0, 0.037718051244889486
181.0, 0.04778743447687799
182.0, 0.060474302485443866
183.0, 0.0755251494247173
184.0, 0.09183480094078311
185.0, 0.10844378625524737
186.0, 0.12485364177912343
187.0, 0.1408573149550042
188.0, 0.15643159763929881
189.0, 0.17164232767232707
190.0, 0.18472795836561492
191.0, 0.195766035234136
192.0, 0.20761592198764656
193.0, 0.22099393734124903
194.0, 0.23473850190735301
195.0, 0.24920824689227522
196.0, 0.2641940488171027
197.0, 0.27502330144023157
198.0, 0.282491892492664
199.0, 0.2820736001793726
200.0, 0.27139890330182953
201.0, 0.25343579458019677
202.0, 0.22671179039063652
203.0, 0.19660310383616278
204.0, 0.16672509483654596
205.0, 0.13900349175796212
206.0, 0.11420488016908711
207.0, 0.09429876895179691
208.0, 0.0793164702695428
209.0, 0.06850255623426113
210.0, 0.06108591332758352
211.0, 0.05675091164525864
212.0, 0.054644070772326934
213.0, 0.05427864141325498
214.0, 0.05564117083002284
215.0, 0.05910430086169011
216.0, 0.06350053212848558
217.0, 0.06985959121465346
218.0, 0.07900638751867219
219.0, 0.08786797875793827
220.0, 0.09751796922589083
221.0, 0.10881313284198971
222.0, 0.12162595930162662
223.0, 0.13483940216093385
224.0, 0.1490689154117555
225.0, 0.16374714480246547
226.0, 0.17710867763137714
227.0, 0.18745119278628236
228.0, 0.19422459885478524
229.0, 0.19921428760427093
230.0, 0.2007562369260095
231.0, 0.1997409971472364
232.0, 0.19932945394089863
233.0, 0.19873705217338852
234.0, 0.20017713602549086
235.0, 0.20386760789204458
236.0, 0.20878446652276053
237.0, 0.21375520032124096
238.0, 0.21685588147697862
239.0, 0.21682083683707118
240.0, 0.21198557440077162
241.0, 0.20094454829035716
242.0, 0.18481799315760836
243.0, 0.1648322244223319
244.0, 0.1428614098883112
245.0, 0.1205930380607846
246.0, 0.10079741814592258
247.0, 0.08339631968800514
248.0, 0.06946556919565267
249.0, 0.058317728163960234
250.0, 0.04798824217209075
251.0, 0.03949714768459137
252.0, 0.03387663909689742
253.0, 0.029946703946962888
254.0, 0.02653624110975285
255.0, 0.02369168951896963
256.0, 0.021753872752163988
257.0, 0.020488657634017856
258.0, 0.019919868583093057
259.0, 0.02005631395022371
260.0, 0.019832029059014267
261.0, 0.020170990463590995
262.0, 0.02097031037877123
263.0, 0.022203984508956977
264.0, 0.02427514331171802
265.0, 0.02652151697477973
266.0, 0.028803791570074753
267.0, 0.03083356690131425
268.0, 0.03261387472920079
269.0, 0.03514959973765992
270.0, 0.03663579331452026
271.0, 0.03851457358212302
272.0, 0.04083674422541377
273.0, 0.04216989984136456
274.0, 0.04338174212208544
275.0, 0.04301339406560588
276.0, 0.041663414262883745
277.0, 0.04009453560002766
278.0, 0.037765018774657884
279.0, 0.03401830175713194
280.0, 0.030036335841618352
281.0, 0.025733170285484903
282.0, 0.0205178307617351
283.0, 0.015375689014430111
284.0, 0.010854874837766343
285.0, 0.006706805131587713
286.0, 0.0032037175815817554
287.0, 0.0010005013381462673
288.0, 0.0015347348224762616
289.0, 0.0033698380538290727
290.0, 0.0044626104219088695
291.0, 0.005195873096718081
292.0, 0.00543263871478829
293.0, 0.005121105544106756
294.0, 0.004560714925717095
295.0, 0.003945817648677952
296.0, 0.0030613993944295028
297.0, 0.0008237686698345335
298.0, 0.0013319568187323946
299.0, 0.003734103056757333
300.0, 0.006636574557115739
301.0, 0.009722824363938821
302.0, 0.013053003662513968
303.0, 0.01665193205192208
304.0, 0.019723761441598958
305.0, 0.022100458758087353
306.0, 0.02459089338105203
307.0, 0.025445866573662535
308.0, 0.02469941969106848
309.0, 0.023397910605074974
310.0, 0.022085327422204103
311.0, 0.019470399597640468
312.0, 0.016919322911274494
313.0, 0.014404807513572338
314.0, 0.012122469550053258
315.0, 0.0104513960187168
316.0, 0.00939846635313673
317.0, 0.007928380305812983
318.0, 0.006711658594184605
319.0, 0.00609110462682905
320.0, 0.0055578084485121615
321.0, 0.005227232705474764
322.0, 0.004580975177612089
323.0, 0.004197396792164768
324.0, 0.0043812923921552425
325.0, 0.004231981733221349
326.0, 0.004383885290006866
327.0, 0.004734343883019432
328.0, 0.00511410672595009
329.0, 0.005509027946630979
330.0, 0.006226796997585957
331.0, 0.007101931693598169
332.0, 0.008154827415814598
333.0, 0.009017485366086101
334.0, 0.009431726416683196
335.0, 0.010529779179419952
336.0, 0.01132412040837941
337.0, 0.012015453696189603
338.0, 0.012947854400975036
339.0, 0.014294925050294647
340.0, 0.014758633477241656
341.0, 0.01562056738660822
342.0, 0.01644598243661632
343.0, 0.01693256014893846
344.0, 0.017684367046916127
345.0, 0.017251639292373253
346.0, 0.016713998568132493
347.0, 0.015954646153882427
348.0, 0.014370829824101974
349.0, 0.012078650504718454
350.0, 0.01220531473408599
351.0, 0.01062306714853276
352.0, 0.007705438150187694
353.0, 0.0055405157904421945
354.0, 0.003631357785084337
355.0, 0.0023443223023098115
356.0, 0.0020002519571041
357.0, 0.001809682194986119
358.0, 0.0010758796193065408
359.0, 0.0005913141551184091
360.0, 0.0003244791739301922
361.0, 0.00017180606356090625
362.0, 0.00020684881165737297
363.0, 0.00047788233497230445
364.0, 3.8331713506364664e-05
365.0, 0.00025356483509714537
366.0, 0.000357726641659903
367.0, 0.00043690857770653296
368.0, 0.0002831348303316295
369.0, 0.0002504201347861882
370.0, 0.0004624718250630541
371.0, 0.0006027890434664833
372.0, 0.0003786493960980874
373.0, 0.00015989057843624475
374.0, 4.364917981949756e-05
375.0, 0.00010144926900634904
376.0, 0.0006351752225172628
377.0, 0.0011489405047617812
378.0, 0.0009194160013667565
379.0, 0.0009512357028497252
380.0, 0.001434031732588345
381.0, 0.0016532298930251282
382.0, 0.0014454394794854734
383.0, 0.001517467832822736
384.0, 0.0013246601276622513
385.0, 0.0017024850734505205
386.0, 0.0017092757080992194
387.0, 0.001174449380370102
388.0, 0.0013628887381763222
389.0, 0.0006913538425964871
390.0, 0.0007696708687474655
391.0, 0.0009126594708894305
392.0, 0.0005635703758861297
393.0, 0.0005519825153491394
394.0, 7.805643839413614e-05
395.0, 0.00011416330622780055
396.0, 0.0002259237008508637
397.0, 5.264651414142869e-05
398.0, 0.00018640062933892283
399.0, 0.00031186883150594675
400.0, 9.700004077062331e-05
401.0, 0.0003029037674128922
402.0, 0.0002789142160198962
403.0, 0.00021800991603943714
404.0, 0.00046689970394366405
405.0, 0.0001498252033879801
406.0, 8.732624190665474e-05
407.0, 0.0002306808196626667
408.0, 0.00043790113939291017
409.0, 0.00045962214888101057
410.0, 0.0004392370877512613
411.0, 0.0009359837618343297
412.0, 0.001582947516371087
413.0, 0.001262903353496443
414.0, 0.0017126142739663842
415.0, 0.0014601812306110264
416.0, 0.0014816049872499672
417.0, 0.0022277624269492428
418.0, 0.0022429831750736184
419.0, 0.0017850800687503941
420.0, 0.0018648847520938675
421.0, 0.002098000899659965
422.0, 0.002317309726036919
423.0, 0.0031399065239970316
424.0, 0.002822533465187641
425.0, 0.002918198639570034
426.0, 0.0033177849520406267
427.0, 0.003604034457478254
428.0, 0.003908231847822621
429.0, 0.005107839271292418
430.0, 0.005803821957673289
431.0, 0.0070458262390366766
432.0, 0.008824577425739782
433.0, 0.01014294180475633
434.0, 0.012381013456161128
435.0, 0.014702769662558846
436.0, 0.017345168829416998
437.0, 0.020625912408240483
438.0, 0.024309420661253307
439.0, 0.027775434585805392
440.0, 0.03262529406019861
441.0, 0.03795944019609385
442.0, 0.043250181227859195
443.0, 0.04885330398670462
444.0, 0.05522244565228142
445.0, 0.06148679945685674
446.0, 0.06927995680782238
447.0, 0.07734651155824843
448.0, 0.08431760327208428
449.0, 0.09232792469475351
450.0, 0.0997009105583876
451.0, 0.10715376517984218
452.0, 0.11383749847560493
453.0, 0.11912163749842966
454.0, 0.1240507991257698
455.0, 0.12718720995978802
456.0, 0.127084751798084
457.0, 0.12491890951928712
458.0, 0.12119486524528829
459.0, 0.1144307979999507
460.0, 0.10559514594474338
461.0, 0.0944016920028229
462.0, 0.08342161679399754
463.0, 0.07358866701905381
464.0, 0.06350660058834669
465.0, 0.052976471714918844
466.0, 0.043922299731653486
467.0, 0.03667492977616519
468.0, 0.030645017352125607
469.0, 0.025078762798883585
470.0, 0.019936917270030576
471.0, 0.015737613824286234
472.0, 0.01198761132143553
473.0, 0.009143544563064309
474.0, 0.0072966944114202835
475.0, 0.004615157051756431
476.0, 0.003225702459703342
477.0, 0.0021564353486262515
478.0, 0.0013146505413427108
479.0, 0.0005820726057662796
480.0, 0.0007009303380969554
481.0, 0.00153898976302152
482.0, 0.001543574545111232
483.0, 0.0017811287863288428
484.0, 0.002015116381598861
485.0, 0.001213569750841705
486.0, 0.0013184278974876001
487.0, 0.0006153249261735439
488.0, 0.0007566247278360232
489.0, 0.001861851622849269
490.0, 0.0022644447042610995
491.0, 0.0035369939752372434
492.0, 0.005258820792215082
493.0, 0.00685807125456132
494.0, 0.008350973457216302
495.0, 0.009987898266214261
496.0, 0.011862129165766708
497.0, 0.014196110656261283
498.0, 0.01616777663277364
499.0, 0.01854795402003245
500.0, 0.021389770312786813
501.0, 0.023892923493375615
502.0, 0.02649994090875116
503.0, 0.029510372788811037
504.0, 0.03274586455106762
505.0, 0.03599446105787155
506.0, 0.039312155005034446
507.0, 0.04315311664427031
508.0, 0.04696921565879671
509.0, 0.05060918025824663
510.0, 0.05477498067945843
511.0, 0.05934430495187512
512.0, 0.06323047128301576
513.0, 0.06785769788961551
514.0, 0.07286339217533525
515.0, 0.07754032183937128
516.0, 0.08193301148589269
517.0, 0.08659743704226962
518.0, 0.09183076274007249
519.0, 0.09729589251892963
520.0, 0.10197041451683099
521.0, 0.10670410239180465
522.0, 0.11194243269934603
523.0, 0.116326529499891
524.0, 0.12131504248289644
525.0, 0.12524037188867612
526.0, 0.12879318566346973
527.0, 0.13288109103679566
528.0, 0.13728446196273567
529.0, 0.14036576962369726
530.0, 0.1423789511173046
531.0, 0.14574909174373984
532.0, 0.14922218921811806
533.0, 0.15149976213900612
534.0, 0.15465812772504073
535.0, 0.15644539199603424
536.0, 0.157489232172395
537.0, 0.1582938874410657
538.0, 0.15912518631364897
539.0, 0.1598183001324214
540.0, 0.15802523395835588
541.0, 0.15696189123184395
542.0, 0.1548456851195042
543.0, 0.15173620935912702
544.0, 0.1484844126529049
545.0, 0.1443691435878382
546.0, 0.13844921339671834
547.0, 0.13360515869361866
548.0, 0.12877493585407887
549.0, 0.12306728081769625
550.0, 0.11708403094300386
551.0, 0.11098624239278923
552.0, 0.10479774847325962
553.0, 0.09966842235090763
554.0, 0.09488646077377982
555.0, 0.09008903906244502
556.0, 0.08669370062152497
557.0, 0.08352521931039787
558.0, 0.08175519905623987
559.0, 0.08084094112578205
560.0, 0.07981180586208364
561.0, 0.0788620331174111
562.0, 0.07962671086332827
563.0, 0.08148283861401796
564.0, 0.08346929077808138
565.0, 0.08679902682317363
566.0, 0.09150743228826841
567.0, 0.09580634387343503
568.0, 0.10008562548976338
569.0, 0.10331839179712637
570.0, 0.10502056126677173
571.0, 0.10418022901832137
572.0, 0.10021930017597556
573.0, 0.0938401893489127
574.0, 0.08477859778675681
575.0, 0.07418099572262421
576.0, 0.06320260944775635
577.0, 0.05327049791106856
578.0, 0.04495854696974041
579.0, 0.03637529809590696
580.0, 0.029517198803114944
581.0, 0.024133268685027423
582.0, 0.019418726291304294
583.0, 0.015386175377895784
584.0, 0.01262309296738423
585.0, 0.00986025289141295
586.0, 0.007362994905125095
587.0, 0.005722083511124959
588.0, 0.004322915377049956
589.0, 0.0027260888705716254
590.0, 0.0015484920436591987
591.0, 0.0006391360017879094
592.0, 2.9680003692646043e-05
593.0, 0.0006043488223926932
594.0, 0.0012118685547025418
595.0, 0.0015718359997431068
596.0, 0.0015569747369685685
597.0, 0.0014234420618669352
598.0, 0.0015689648141540642
599.0, 0.0017088604294303437
600.0, 0.0015812881891780193
601.0, 0.0011381447104483928
602.0, 0.00040273941862343246
603.0, 0.00021440013984428763
604.0, 0.00024507091310273157
605.0, 0.0009086708055486643
606.0, 0.0014277969704453003
607.0, 0.0014803343749575917
608.0, 0.0015423142468540465
609.0, 0.00239289241512239
610.0, 0.0029277755946849632
611.0, 0.0034041019344797007
612.0, 0.004186871668711013
613.0, 0.004656115436670952
614.0, 0.004570992870806939
615.0, 0.004355963991993388
616.0, 0.004850846227541619
617.0, 0.005680737826895381
618.0, 0.006134739285666209
619.0, 0.0063088928519473425
620.0, 0.00642944247029909
621.0, 0.006623446221176864
622.0, 0.006304757929301551
623.0, 0.00588554350115164
624.0, 0.006020417224906745
625.0, 0.006401540445793719
626.0, 0.005883141678331521
627.0, 0.005550494168578433
628.0, 0.00517767640557602
629.0, 0.004919218459215322
630.0, 0.004984038473080015
631.0, 0.004650236162893123
632.0, 0.0039596851757504005
633.0, 0.003928159737462231
634.0, 0.004109969512118661
635.0, 0.0037138728697955056
636.0, 0.002717480611558456
637.0, 0.0027270530843862403
638.0, 0.0024741377807321746
639.0, 0.00264668336154013
640.0, 0.0026699725240591373
641.0, 0.0025220277261544704
642.0, 0.0026511583754742344
643.0, 0.0025807683968723503
644.0, 0.0021261513333433683
645.0, 0.0019103914345926724
646.0, 0.00201495697946126
647.0, 0.002112417403148103
648.0, 0.0019755536081104553
649.0, 0.0019208841674608049
650.0, 0.0016213913505534411
651.0, 0.0018380323699710415
652.0, 0.0019414412512882451
653.0, 0.0015346115172871952
654.0, 0.001124046005047047
655.0, 0.001210616015381076
656.0, 0.0006911509890048112
657.0, 0.00023305036424796095
658.0, 0.000257390053507808
659.0, 0.0004191198051714263
660.0, 0.00012068166780422959
661.0, 0.0006116679657152538
662.0, 0.00012327062849460226
663.0, 0.0002141796206755001
664.0, 0.00019780289599040789
665.0, 7.502801185255209e-05
666.0, 0.00023415561861995374
667.0, 0.0005259265398440906
668.0, 0.0005237134723165874
669.0, 0.000682092860000356
670.0, 0.0006955895780775321
671.0, 0.0004380637016502213
672.0, 0.0004199714096145963
673.0, 0.0011304465086624184
674.0, 0.0009785212179539674
675.0, 0.0010781150629768164
676.0, 0.0013875038876202876
677.0, 0.0017337287316937348
678.0, 0.0018556479409040285
679.0, 0.0016112495156959384
680.0, 0.00223121257039237
681.0, 0.0025203224724457095
682.0, 0.002669638220747425
683.0, 0.002798941686958159
684.0, 0.0033616268520277144
685.0, 0.00446851538387381
686.0, 0.004159326560960043
687.0, 0.0035786170261394093
688.0, 0.003040353924085655
689.0, 0.0027489364627129188
690.0, 0.002948395714955054
691.0, 0.0034980225540243814
692.0, 0.0034917720115712207
693.0, 0.0035575754330688172
694.0, 0.0034191801194983795
695.0, 0.003462725332146125
696.0, 0.003724275275569605
697.0, 0.003932401596926289
698.0, 0.004013718330657294
699.0, 0.003416058296348665
700.0, 0.0028946305417324627
701.0, 0.003394388936943274
702.0, 0.003920995116043113
703.0, 0.0033885836339889847
704.0, 0.0024364619020110843
705.0, 0.0030635988959761885
706.0, 0.0026922538000340264
707.0, 0.0023723589822373546
708.0, 0.0023438299196731484
709.0, 0.0023434940783272477
710.0, 0.002282589614993843
711.0, 0.002106092120726541
712.0, 0.0019516495259953616
713.0, 0.0016220623903906233
714.0, 0.0016683758818319835
715.0, 0.0016786092268420505
716.0, 0.001084819433686142
717.0, 0.0006855931563817121
718.0, 0.0008217583702503222
719.0, 0.0006961016179751113
720.0, 0.0005499426546833933
721.0, 0.000492412307820015
722.0, 0.0002940971692354229
723.0, 0.00011786823149140819
724.0, 0.0001758838452315805
725.0, 2.5325267121701927e-05
726.0, 0.00024068812695630443
727.0, 0.00022510366662460788
728.0, 8.05996240073578e-05
729.0, 0.00025153149503910437
730.0, 0.0005750909226112979
731.0, 0.0008338654808452517
732.0, 0.0009543987760628689
733.0, 0.001012478487898964
734.0, 0.0010812438112405317
735.0, 0.0011056748925447326
736.0, 0.0010094367270480312
737.0, 0.001141458299155237
738.0, 0.0015708990718798087
739.0, 0.0016107765064237842
740.0, 0.0015768764181311704
741.0, 0.0015206869258868707
742.0, 0.001378895368686029
743.0, 0.001992747490720038
744.0, 0.0022028027472318027
745.0, 0.002719583428673357
746.0, 0.002830024977394982
747.0, 0.002961435783186192
748.0, 0.003403178488894028
749.0, 0.003490906942279644
750.0, 0.003627526569719272
751.0, 0.0033137003510013445
752.0, 0.0036031580810733225
753.0, 0.004242949578041401
754.0, 0.004361578755592562
755.0, 0.0040450892496530265
756.0, 0.004447614157750124
757.0, 0.004068527680269207
758.0, 0.003978702651629182
759.0, 0.004062422774872628
760.0, 0.0041814496674617545
761.0, 0.004076763963754968
762.0, 0.0038426575290284094
763.0, 0.004324652862962896
764.0, 0.004167733001154402
765.0, 0.003738889306945087
766.0, 0.003695991944410311
767.0, 0.0038282810974870664
768.0, 0.0037731081683018857
769.0, 0.003508054416232593
770.0, 0.0029775216656737482
771.0, 0.0029043368951282037
772.0, 0.0030555974411394533
773.0, 0.002902796327150645
774.0, 0.0025742904197085564
775.0, 0.002451131518252774
776.0, 0.0024697305122524794
777.0, 0.0025382429957399983
778.0, 0.002079838318978452
779.0, 0.0016506623062936129
780.0, 0.0014233572138351003
781.0, 0.0012902745836759263
782.0, 0.0011343725255017498
783.0, 0.00074603140785674
784.0, 0.0005716312764440346
785.0, 0.0005103086636256576
786.0, 0.00028009252082589463
787.0, 0.00010171838819772409
788.0, 0.00028278071591058374
789.0, 8.690777108379775e-05
790.0, 7.499391594160261e-05
791.0, 4.8081262576561584e-05
792.0, 0.0004080329735082418
793.0, 0.0003131861275973711
794.0, 0.00020926302766124017
795.0, 0.00011084307963599885
796.0, 0.0006097694414554191
797.0, 0.00030469240877503115
798.0, 0.00016776733602886005
799.0, 0.0003468849922966331
800.0, 0.0006744046906630296
801.0, 0.0008623040163719583
802.0, 0.0007369551138199321
803.0, 0.0007845199185221533
804.0, 0.0018033911074335142
805.0, 0.0011670492171069657
806.0, 0.001876092925380889
807.0, 0.0025404297807624186
808.0, 0.002533998381859953
809.0, 0.0026715433756835977
810.0, 0.0034721073343321686
811.0, 0.0037964849822252765
812.0, 0.004534533106242477
813.0, 0.004665074716053699
814.0, 0.004985812720891156
815.0, 0.005289741582350899
816.0, 0.005591657220330673
817.0, 0.006247715324970684
818.0, 0.006083672635396837
819.0, 0.0074429695341965895
820.0, 0.008327673532358882
821.0, 0.008875862893269179
822.0, 0.009741962411685831
823.0, 0.010558958786328414
824.0, 0.0106086692611557
825.0, 0.011417862062689077
826.0, 0.011883323859865418
827.0, 0.012404557196426056
828.0, 0.013016929749265984
829.0, 0.013006687505116677
830.0, 0.012973163032657692
831.0, 0.013756342100604824
832.0, 0.013941727412869366
833.0, 0.013956117334341336
834.0, 0.013713371877723844
835.0, 0.013676273564603922
836.0, 0.013752074585816641
837.0, 0.013623146038632286
838.0, 0.013296950256756129
839.0, 0.013193640053511093
840.0, 0.012916267169484767
841.0, 0.013089400494289371
842.0, 0.012554540658760122
843.0, 0.012236151308932382
844.0, 0.012402164858862847
845.0, 0.011965200925318319
846.0, 0.010864770709100757
847.0, 0.010869808453085982
848.0, 0.009892030636968025
849.0, 0.00934732630935188
850.0, 0.009109450279159532
851.0, 0.008836132790493249
852.0, 0.008253575256612408
853.0, 0.007342604855746687
854.0, 0.007101044971838875
855.0, 0.00656117977139687
856.0, 0.005693042403823726
857.0, 0.005777910235617013
858.0, 0.005479261554131959
859.0, 0.004628098101580576
860.0, 0.004527938023295109
861.0, 0.004341447451819175
862.0, 0.003798584322362277
863.0, 0.003428244574149157
864.0, 0.002751384327417326
865.0, 0.002396161885089612
866.0, 0.0024678722117373857
867.0, 0.0023343436875514494
868.0, 0.0017265923668415438
869.0, 0.0012186282492872122
870.0, 0.0015596908377065585
871.0, 0.0015215452429387807
872.0, 0.0010756741613032253
873.0, 0.0005417039712731172
874.0, 0.00017100729834643443
875.0, 8.315862112975087e-05
876.0, 0.0005881254989325312
877.0, 0.0005061040784752941
878.0, 0.0008107130362343439
879.0, 0.00049857305839456
880.0, 0.000706709282436026
881.0, 0.0008399514039044468
882.0, 0.0002874738479533494
883.0, 0.0006378406451071783
884.0, 0.0007783592719349732
885.0, 0.0006877432923880916
886.0, 0.0006527821526152619
887.0, 0.0008539547558004304
888.0, 0.0006593249708739878
889.0, 0.00032513562056225354
890.0, 0.00046167305210247626
891.0, 0.00019023525210363037
892.0, 0.00022901484468653416
893.0, 0.0005769827989718678
894.0, 0.000617890543444793
895.0, 0.0006371816297576946
896.0, 0.0007332217635007684
897.0, 0.0010610039460992808
898.0, 0.0016897352967362677
899.0, 0.0019234220624537092
900.0, 0.0026792867920282415
901.0, 0.0027373505300749153
902.0, 0.0035660793840860887
903.0, 0.004567582393326256
904.0, 0.00498454837710661
905.0, 0.0052444550212337225
906.0, 0.006266957341397852
907.0, 0.007476353425222813
908.0, 0.007913598540138381
909.0, 0.008561440174788135
910.0, 0.009983030994622893
911.0, 0.011345487471250394
912.0, 0.012415764554215072
913.0, 0.013816316102886401
914.0, 0.015596303057180358
915.0, 0.01716890422758175
916.0, 0.018650528342682906
917.0, 0.02160072388557525
918.0, 0.024507764406752352
919.0, 0.026187771632069184
920.0, 0.028067781805311665
921.0, 0.03169065566422784
922.0, 0.0356175106972819
923.0, 0.039405212508727895
924.0, 0.044021331890439684
925.0, 0.0491918171960092
926.0, 0.054465441246107006
927.0, 0.06070290754317067
928.0, 0.06826198822821844
929.0, 0.07698546246207617
930.0, 0.08708467773105985
931.0, 0.09709051204755577
932.0, 0.11056399401381901
933.0, 0.12577758019751942
934.0, 0.1436673903806293
935.0, 0.16487108295852052
936.0, 0.18982916349401413
937.0, 0.2201465233040759
938.0, 0.25633945429917976
939.0, 0.2971616582048097
940.0, 0.34599960738486835
941.0, 0.4003871865003188
942.0, 0.46019028443960147
943.0, 0.5246707882302742
944.0, 0.5951665759650194
945.0, 0.6721165114176372
946.0, 0.7538642624427928
947.0, 0.8336240807120485
948.0, 0.906423787794079
949.0, 0.9639999296247169
950.0, 0.9960030526163381
951.0, 0.994032030516354
952.0, 0.9530443003840788
953.0, 0.8774751226951252
954.0, 0.7800985913115472
955.0, 0.6743077860304348
956.0, 0.5706050349919306
957.0, 0.4806631485040555
958.0, 0.4011682399219653
959.0, 0.3333995625530697
960.0, 0.2785816288216573
961.0, 0.23267071498175987
962.0, 0.19332608219878547
963.0, 0.16411893042151623
964.0, 0.1383634132602805
965.0, 0.11859903035160135
966.0, 0.10199535518289367
967.0, 0.08760804499270612
968.0, 0.07531866743455111
969.0, 0.06504341795615746
970.0, 0.05637675180832135
971.0, 0.04829483389368957
972.0, 0.04048945681530942
973.0, 0.036375106030590035
974.0, 0.031162247467955533
975.0, 0.02701910142968082
976.0, 0.024120839793791798
977.0, 0.021468997735637464
978.0, 0.018996651487650174
979.0, 0.017302338025563812
980.0, 0.016713923674218308
981.0, 0.015939639945059758
982.0, 0.014905396552401699
983.0, 0.014410134948426334
984.0, 0.014217136795723463
985.0, 0.014366007466800362
986.0, 0.014826909895215273
987.0, 0.015230851676511096
988.0, 0.015244931364354942
989.0, 0.014836588487987065
990.0, 0.014482186102507079
991.0, 0.01437892002236344
992.0, 0.014444061002444756
993.0, 0.013387384527568887
994.0, 0.012254432349967155
995.0, 0.011427039796079215
996.0, 0.010030709956553282
997.0, 0.009247606059379968
998.0, 0.008111067153637798
999.0, 0.006897046124101267
1000.0, 0.005461036917155911
1001.0, 0.0048632366908041855
1002.0, 0.0036859688008311544
1003.0, 0.0021688010393531463
1004.0, 0.0012584807533216958
1005.0, 0.00046295686157289055
1006.0, 0.0004222238624619836
1007.0, 0.0001127750109019226
1008.0, 0.00023869090886004474
1009.0, 0.0003942245742064692
1010.0, 0.0006878531350128284
1011.0, 0.0013532666790123636
1012.0, 0.0014890556103679714
1013.0, 0.0010061884240074996
1014.0, 0.001044069089195251
1015.0, 0.0004128804228852636
1016.0, 0.00013713511542844302
1017.0, 0.00047243076850202366
1018.0, 0.00028515644313315496
1019.0, 0.0007790370525322208
1020.0, 0.0006881999793077586
1021.0, 0.001341039191764579
1022.0, 0.0024776490562288464
1023.0, 0.00268182609626442
1024.0, 0.0032138976181876693
1025.0, 0.004881190174206119
1026.0, 0.006213846967123391
1027.0, 0.008516739013885452
1028.0, 0.010173726790055486
1029.0, 0.011845459733333842
1030.0, 0.014271504495439569
1031.0, 0.016996692653010202
1032.0, 0.020032089806331168
1033.0, 0.023937748923566232
1034.0, 0.028548081605578167
1035.0, 0.032431376920407116
1036.0, 0.038772150809817184
1037.0, 0.04587728199248292
1038.0, 0.05347688831317719
1039.0, 0.062320626526962
1040.0, 0.07302695840866119
1041.0, 0.08549010418851109
1042.0, 0.09854459779710494
1043.0, 0.11428210992503342
1044.0, 0.13161059161075625
1045.0, 0.14964035020287306
1046.0, 0.1696529270795878
1047.0, 0.19013129438898066
1048.0, 0.21078497206024782
1049.0, 0.23147917891288297
1050.0, 0.25072951773243163
1051.0, 0.2664018100202142
1052.0, 0.2743863007715263
1053.0, 0.27681564832861255
1054.0, 0.2692695243243022
1055.0, 0.2523603736989483
1056.0, 0.22927406711554424
1057.0, 0.20278964169302668
1058.0, 0.17490307705588168
1059.0, 0.14798493967220344
1060.0, 0.1243744891315736
1061.0, 0.10461634143410029
1062.0, 0.08717130162664719
1063.0, 0.07313784276919637
1064.0, 0.06116037427529779
1065.0, 0.05189058469593306
1066.0, 0.0433286583605923
1067.0, 0.03641094946644571
1068.0, 0.03134176564661244
1069.0, 0.026861671815391983
1070.0, 0.022999662810048112
1071.0, 0.019617396769667502
1072.0, 0.017096831594475812
1073.0, 0.014842485940631889
1074.0, 0.012319244890747387
1075.0, 0.010771554278604977
1076.0, 0.009469892137750449
1077.0, 0.008122673284280004
1078.0, 0.007236561711296351
1079.0, 0.006527157107936709
1080.0, 0.005345423552639052
1081.0, 0.004967104743138552
1082.0, 0.003764179486784997
1083.0, 0.0034592926731303983
1084.0, 0.0033849399209780026
1085.0, 0.002896993036019001
1086.0, 0.0021903225815166124
1087.0, 0.001492434547182238
1088.0, 0.0013747361168597269
1089.0, 0.001683288986260643
1090.0, 0.0012693715381070518
1091.0, 0.0009133648323669316
1092.0, 0.000906000721492869
1093.0, 0.0010280748866235785
1094.0, 0.0013547853092687292
1095.0, 0.000775580770295798
1096.0, 0.000492555625243871
1097.0, 0.0006261313428382153
1098.0, 0.0005345501978713463
1099.0, 0.0004685216702916301
1100.0, 0.0005288074876942694
1101.0, 0.00044980288174117407
1102.0, 0.0004154614782368317
1103.0, 0.0005191293420221272
1104.0, 0.0007017835386090025
1105.0, 0.0003844405460170505
1106.0, 4.625458249001311e-05
1107.0, 0.0002085850023303598
1108.0, 0.0004010638670903027
1109.0, 0.0005346613823379644
1110.0, 0.0002097967821355085
1111.0, 0.00041051553767290535
1112.0, 0.0008179914254984129
1113.0, 0.0009802296252869244
1114.0, 0.0006579766696443096
1115.0, 0.0003410937691840536
1116.0, 0.00024055613801327548
1117.0, 0.0005015330513334479
1118.0, 0.0007067540823405745
1119.0, 0.0003850015170216817
1120.0, 0.00019133090984345397
1121.0, 0.0004184878455513071
1122.0, 0.00038022990220401456
1123.0, 0.0005822415811038796
1124.0, 0.00046368481246256084
1125.0, 0.0007397445412744793
1126.0, 0.000606212193850845
1127.0, 0.0010313286794225818
1128.0, 0.0013603215873132391
1129.0, 0.001612155899688933
1130.0, 0.0019561453527046353
1131.0, 0.001580734100700614
1132.0, 0.0016669029866487732
1133.0, 0.0018884888882680138
1134.0, 0.002042623801445674
1135.0, 0.0021556242127351135
1136.0, 0.002404269771242044
1137.0, 0.002479508320407627
1138.0, 0.0026118227166375915
1139.0, 0.0029733475577166653
1140.0, 0.003205730199296151
1141.0, 0.003239557006486095
1142.0, 0.003461301498433311
1143.0, 0.003736486492282204
1144.0, 0.004025636771150679
1145.0, 0.003494979127148465
1146.0, 0.00413828286025778
1147.0, 0.004344753510067754
1148.0, 0.0038364156487344357
1149.0, 0.0044943215841196935
1150.0, 0.004875747521667961
1151.0, 0.004542678748101934
1152.0, 0.004686740777036811
1153.0, 0.0044585230450916455
1154.0, 0.004450039131425434
1155.0, 0.004789364224343805
1156.0, 0.0049574680551079785
1157.0, 0.005075461791364911
1158.0, 0.0051868802171786575
1159.0, 0.00514142220299463
1160.0, 0.005018238107978108
1161.0, 0.005017650184834852
1162.0, 0.005288364547987847
1163.0, 0.005437525434582295
1164.0, 0.005200839849036954
1165.0, 0.0053294795947613225
1166.0, 0.005351881771572863
1167.0, 0.005411626920489026
1168.0, 0.0054925256191373836
1169.0, 0.004884856031606987
1170.0, 0.004901139033197514
1171.0, 0.0049549928957818784
1172.0, 0.004312073496589713
1173.0, 0.003951636717951052
1174.0, 0.004160150987810008
1175.0, 0.00415755868467125
1176.0, 0.004033615040948079
1177.0, 0.0034478789754306296
1178.0, 0.003213220312733758
1179.0, 0.0047245276044754515
1180.0, 0.003924470156559912
1181.0, 0.0032525647031717265
1182.0, 0.0031227706150118257
1183.0, 0.003096677285236693
1184.0, 0.002912408284859817
1185.0, 0.0029523576558589362
1186.0, 0.0029641936735226625
1187.0, 0.00261166673126189
1188.0, 0.00276116610060571
1189.0, 0.0029540611011693546
1190.0, 0.002466675158040572
1191.0, 0.0028195113367777747
1192.0, 0.002821599219661118
1193.0, 0.0025587246429910793
1194.0, 0.00235522811997234
1195.0, 0.001955506736847064
1196.0, 0.001771772176340228
1197.0, 0.002051762150140124
1198.0, 0.0021222279994171887
1199.0, 0.0017324704412665956
1200.0, 0.0015847378592986803
1201.0, 0.0016975865661706705
1202.0, 0.0017945587163366082
1203.0, 0.001959568324965923
1204.0, 0.0014299696322128074
1205.0, 0.0016486346551775777
1206.0, 0.002327855053845713
1207.0, 0.0020376314893284955
1208.0, 0.0016384927262714688
1209.0, 0.0014589824393021601
1210.0, 0.0015383547292504745
1211.0, 0.0018042751069617627
1212.0, 0.0014932056014565704
1213.0, 0.0012777369335062669
1214.0, 0.0015548771858911368
1215.0, 0.001187910145039162
1216.0, 0.0012095305443556449
1217.0, 0.001375092827733451
1218.0, 0.0014273719146196899
1219.0, 0.0011527255773724323
1220.0, 0.001116449077179972
1221.0, 0.0013822915319955558
1222.0, 0.0013178053766066567
1223.0, 0.001065223318837696
1224.0, 0.0011457231701861388
1225.0, 0.0013012543207650679
1226.0, 0.0013490031687983857
1227.0, 0.0013878456762619982
1228.0, 0.0012559532071339812
1229.0, 0.0010179624685250196
1230.0, 0.0012608404648702162
1231.0, 0.0010810240374060406
1232.0, 0.0009413450331783296
1233.0, 0.0007884692496675651
1234.0, 0.0004432966931111331
1235.0, 0.00018853001721131027
1236.0, 0.0007123692237893109
1237.0, 0.001337484681615856
1238.0, 0.0009046619995478647
1239.0, 0.000845455760049756
1240.0, 0.001126969838808698
1241.0, 0.0007142789364100407
1242.0, 0.0006684432951058996
1243.0, 0.0007019632533035787
1244.0, 0.0005919755030578926
1245.0, 0.0004405409132012189
1246.0, 0.00013537952630989736
1247.0, 0.0008705339910337985
1248.0, 0.0013290934833965293
1249.0, 0.0008466709065751628
1250.0, 0.0007281880635424775
1251.0, 0.000699481426579173
1252.0, 0.00042861742800727476
1253.0, 0.0005988957829364324
1254.0, 0.0007237825331297792
1255.0, 0.0006590440685918361
1256.0, 0.0008316194187372707
1257.0, 0.0008272426122823679
1258.0, 0.00044833158967489534
1259.0, 0.0007929060778908313
1260.0, 0.0005641986062492358
1261.0, 0.00023199634568489276
1262.0, 0.000387449245795447
1263.0, 0.0006559044697245042
1264.0, 0.0006930333218735384
1265.0, 0.0007150006105121822
1266.0, 0.0012933336519755758
1267.0, 0.0012323264113318858
1268.0, 0.0009156902050065936
1269.0, 0.001319570637561456
1270.0, 0.000931482242336452
1271.0, 0.0006880673563005197
1272.0, 0.0005813034850320843
1273.0, 0.0006249491139502687
1274.0, 0.00032586191938603664
1275.0, 0.0005010690249527545
1276.0, 0.000888477407770502
1277.0, 0.0008524090217294525
1278.0, 0.0005075122081886007
1279.0, 0.00022537223202081987
1280.0, 0.0004962914121010997
1281.0, 0.0006585724939303643
1282.0, 0.0004490228073988167
1283.0, 0.00035061711256938514
1284.0, 0.0007762753594291055
1285.0, 0.0007032168232405782
1286.0, 0.0006008921188279176
1287.0, 0.00032958932710170995
1288.0, 0.0002206653208837326
1289.0, 0.0006745808958203417
1290.0, 0.0007562139977518902
1291.0, 0.00040402410637642905
1292.0, 0.000551497959970885
1293.0, 0.0007757199875531481
1294.0, 0.0003006549528430148
1295.0, 9.545221637297819e-05
1296.0, 8.546186094628732e-06
1297.0, 7.363710493707077e-05
1298.0, 0.0005299234883683693
1299.0, 0.000716215155400404
1300.0, 0.00033862789801698844
1301.0, 0.0005948948396622318
1302.0, 0.0001444102618407467
1303.0, 6.539813973167858e-07
1304, 0.0
1305, 0.0
1306, 0.0
1307, 0.0
1308, 0.0
1309, 0.0
1310, 0.0
1311, 0.0
1312, 0.0
1313, 0.0
1314, 0.0
1315, 0.0
1316, 0.0
1317, 0.0
1318, 0.0
1319, 0.0
1320, 0.0
1321, 0.0
1322, 0.0
1323, 0.0
1324, 0.0
1325, 0.0
1326, 0.0
1327, 0.0
1328, 0.0
1329, 0.0
1330, 0.0
1331, 0.0
1332, 0.0
1333, 0.0
1334, 0.0
1335, 0.0
1336, 0.0
1337, 0.0
1338, 0.0
1339, 0.0
1340, 0.0
1341, 0.0
1342, 0.0
1343, 0.0
1344, 0.0
1345, 0.0
1346, 0.0
1347, 0.0
1348, 0.0
1349, 0.0
1350, 0.0
1351, 0.0
1352, 0.0
1353, 0.0
1354, 0.0
1355, 0.0
1356, 0.0
1357, 0.0
1358, 0.0
1359, 0.0
1360, 0.0
1361, 0.0
1362, 0.0
1363, 0.0
1364, 0.0
1365, 0.0
1366, 0.0
1367, 0.0
1368, 0.0
1369, 0.0
1370, 0.0
1371, 0.0
1372, 0.0
1373, 0.0
1374, 0.0
1375, 0.0
1376, 0.0
1377, 0.0
1378, 0.0
1379, 0.0
1380, 0.0
1381, 0.0
1382, 0.0
1383, 0.0
1384, 0.0
1385, 0.0
1386, 0.0
1387, 0.0
1388, 0.0
1389, 0.0
1390, 0.0
1391, 0.0
1392, 0.0
1393, 0.0
1394, 0.0
1395, 0.0
1396, 0.0
1397, 0.0
1398, 0.0
1399, 0.0
1400, 0.0
1401, 0.0
1402, 0.0
1403, 0.0
1404, 0.0
1405, 0.0
1406, 0.0
1407, 0.0
1408, 0.0
1409, 0.0
1410, 0.0
1411, 0.0
1412, 0.0
1413, 0.0
1414, 0.0
1415, 0.0
1416, 0.0
1417, 0.0
1418, 0.0
1419, 0.0
1420, 0.0
1421, 0.0
1422, 0.0
1423, 0.0
1424, 0.0
1425, 0.0
1426, 0.0
1427, 0.0
1428, 0.0
1429, 0.0
1430, 0.0
1431, 0.0
1432, 0.0
1433, 0.0
1434, 0.0
1435, 0.0
1436, 0.0
1437, 0.0
1438, 0.0
1439, 0.0
1440, 0.0
1441, 0.0
1442, 0.0
1443, 0.0
1444, 0.0
1445, 0.0
1446, 0.0
1447, 0.0
1448, 0.0
1449, 0.0
1450, 0.0
1451, 0.0
1452, 0.0
1453, 0.0
1454, 0.0
1455, 0.0
1456, 0.0
1457, 0.0
1458, 0.0
1459, 0.0
1460, 0.0
1461, 0.0
1462, 0.0
1463, 0.0
1464, 0.0
1465, 0.0
1466, 0.0
1467, 0.0
1468, 0.0
1469, 0.0
1470, 0.0
1471, 0.0
1472, 0.0
1473, 0.0
1474, 0.0
1475, 0.0
1476, 0.0
1477, 0.0
1478, 0.0
1479, 0.0
1480, 0.0
1481, 0.0
1482, 0.0
1483, 0.0
1484, 0.0
1485, 0.0
1486, 0.0
1487, 0.0
1488, 0.0
1489, 0.0
1490, 0.0
1491, 0.0
1492, 0.0
1493, 0.0
1494, 0.0
1495, 0.0
1496, 0.0
1497, 0.0
1498, 0.0
1499, 0.0
1500, 0.0
1501, 0.0
1502, 0.0
1503, 0.0
1504, 0.0
1505, 0.0
1506, 0.0
1507, 0.0
1508, 0.0
1509, 0.0
1510, 0.0
1511, 0.0
1512, 0.0
1513, 0.0
1514, 0.0
1515, 0.0
1516, 0.0
1517, 0.0
1518, 0.0
1519, 0.0
1520, 0.0
1521, 0.0
1522, 0.0
1523, 0.0
1524, 0.0
1525, 0.0
1526, 0.0
1527, 0.0
1528, 0.0
1529, 0.0
1530, 0.0
1531, 0.0
1532, 0.0
1533, 0.0
1534, 0.0
1535, 0.0
1536, 0.0
1537, 0.0
1538, 0.0
1539, 0.0
1540, 0.0
1541, 0.0
1542, 0.0
1543, 0.0
1544, 0.0
1545, 0.0
1546, 0.0
1547, 0.0
1548, 0.0
1549, 0.0
1550, 0.0
1551, 0.0
1552, 0.0
1553, 0.0
1554, 0.0
1555, 0.0
1556, 0.0
1557, 0.0
1558, 0.0
1559, 0.0
1560, 0.0
1561, 0.0
1562, 0.0
1563, 0.0
1564, 0.0
1565, 0.0
1566, 0.0
1567, 0.0
1568, 0.0
1569, 0.0
1570, 0.0
1571, 0.0
1572, 0.0
1573, 0.0
1574, 0.0
1575, 0.0
1576, 0.0
1577, 0.0
1578, 0.0
1579, 0.0
1580, 0.0
1581, 0.0
1582, 0.0
1583, 0.0
1584, 0.0
1585, 0.0
1586, 0.0
1587, 0.0
1588, 0.0
1589, 0.0
1590, 0.0
1591, 0.0
1592, 0.0
1593, 0.0
1594, 0.0
1595, 0.0
1596, 0.0
1597, 0.0
1598, 0.0
1599, 0.0
