30, 0.0
31, 0.0
32, 0.0
33, 0.0
34, 0.0
35, 0.0
36, 0.0
37, 0.0
38, 0.0
39, 0.0
40, 0.0
41, 0.0
42, 0.0
43, 0.0
44, 0.0
45, 0.0
46, 0.0
47, 0.0
48, 0.0
49, 0.0
50, 0.0
51, 0.0
52, 0.0
53, 0.0
54, 0.0
55, 0.0
56, 0.0
57, 0.0
58, 0.0
59, 0.0
60, 0.0
61, 0.0
62, 0.0
63, 0.0
64, 0.0
65, 0.0
66, 0.0
67, 0.0
68, 0.0
69, 0.0
70, 0.0
71, 0.0
72, 0.0
73, 0.0
74, 0.0
75, 0.0
76, 0.0
77, 0.0
78, 0.0
79, 0.0
80, 0.0
81, 0.0
82, 0.0
83, 0.0
84, 0.0
85, 0.0
86, 0.0
87, 0.0
88, 0.0
89, 0.0
90, 0.0
91, 0.0
92, 0.0
93, 0.0
94, 0.0
95, 0.0
96, 0.0
97, 0.0
98, 0.0
99, 0.0
100, 0.0
101, 0.0
102, 0.0
103, 0.0
104.0, 0.0017873480036416306
105.0, 0.017141249513931634
106.0, 0.04261225831673342
107.0, 0.07516894931347488
108.0, 0.11446156155163249
109.0, 0.1391380769552614
110.0, 0.08737796208607806
111.0, 0.040726821397340594
112.0, 0.01472838633961329
113.0, 0.0070731899437255965
114.0, 0.010457210076130733
115.0, 0.025764422371594424
116.0, 0.058851749465975337
117.0, 0.11038718313613767
118.0, 0.171493941502013
119.0, 0.22492802971143214
120.0, 0.28499091382593306
121.0, 0.3772094398907794
122.0, 0.5004589746437075
123.0, 0.564758721908818
124.0, 0.5257087978931658
125.0, 0.4503021731487768
126.0, 0.4279790623388606
127.0, 0.48559985161466235
128.0, 0.5669307566162612
129.0, 0.6118303902212289
130.0, 0.6052606198359565
131.0, 0.5573782985441439
132.0, 0.49451047027474004
133.0, 0.44421186339223484
134.0, 0.4361565857713069
135.0, 0.49354176029225866
136.0, 0.5713360312836058
137.0, 0.6551362066926484
138.0, 0.6869974574453035
139.0, 0.6100773374313271
140.0, 0.44435452459363683
141.0, 0.26901693592590814
142.0, 0.1391075223425287
143.0, 0.07924063769977631
144.0, 0.05673032092334979
145.0, 0.05603520819950692
146.0, 0.06337376117254931
147.0, 0.06421167167925272
148.0, 0.04392549261677878
149.0, 0.03877273160597754
150.0, 0.026715752633621196
151.0, 0.006718150175518017
152.0, 0.031063179254227916
153.0, 0.02832939831560061
154.0, 0.020400066189092448
155.0, 0.016613701938497514
156.0, 0.011397701622530811
157.0, 0.0072273201823447805
158.0, 0.005114766964021376
159.0, 0.026264034281066488
160.0, 0.05336714184865708
161.0, 0.056234838759218336
162.0, 0.07272820657440847
163.0, 0.1026967654485921
164.0, 0.13689366830866626
165.0, 0.16175080354269133
166.0, 0.21447737328714597
167.0, 0.26327533678515147
168.0, 0.3033698493202869
169.0, 0.35429599009463925
170.0, 0.40061860859453985
171.0, 0.4619202041061645
172.0, 0.5226283812587703
173.0, 0.5598208969712076
174.0, 0.5556242135023765
175.0, 0.5569567266375772
176.0, 0.54645906535159
177.0, 0.5201968358339266
178.0, 0.5141340060821543
179.0, 0.5294908896235184
180.0, 0.5497843517989461
181.0, 0.565973643898334
182.0, 0.5767733158120393
183.0, 0.5789023893704202
184.0, 0.5888733001594095
185.0, 0.593723842041471
186.0, 0.5888409703633207
187.0, 0.5978164498417281
188.0, 0.6295896778715558
189.0, 0.6849912753023346
190.0, 0.7582718109277563
191.0, 0.837678814940165
192.0, 0.8931990917959917
193.0, 0.8996627571490818
194.0, 0.8734410759586119
195.0, 0.8408531557668256
196.0, 0.8096359696702791
197.0, 0.7454311413132553
198.0, 0.6469918397455755
199.0, 0.5211895503787563
200.0, 0.3753649705001015
201.0, 0.25289482260698815
202.0, 0.15731537306760354
203.0, 0.09498659917982097
204.0, 0.06701719803882358
205.0, 0.05501248040694217
206.0, 0.05225740086159154
207.0, 0.06187343638052309
208.0, 0.07725566982499588
209.0, 0.07559054024728343
210.0, 0.07673205056975216
211.0, 0.0771987383890963
212.0, 0.07396211280160019
213.0, 0.06786522887082364
214.0, 0.08475097343196028
215.0, 0.09008144193940801
216.0, 0.09175595129562658
217.0, 0.10511179961682948
218.0, 0.11712251377383602
219.0, 0.10384292524886164
220.0, 0.07618689175530483
221.0, 0.04829216149821491
222.0, 0.02647388327160316
223.0, 0.01132745376237878
224.0, 0.006054868480031931
225.0, 0.011021385949087619
226.0, 0.0018177577956580463
227.0, 0.005468173020716169
228.0, 0.025401613265942986
229.0, 0.04164917255715571
230.0, 0.05575009479678918
231.0, 0.07753078661882798
232.0, 0.06979172776890244
233.0, 0.05028878026788435
234.0, 0.037678908543787845
235.0, 0.0353267105893625
236.0, 0.025170142764648414
237.0, 0.007774352563428125
238.0, 0.0005430697764376313
239.0, 0.009166696092339787
240.0, 0.024925644422865118
241.0, 0.03319411247624071
242.0, 0.04152776043458396
243.0, 0.05526669901270283
244.0, 0.08105890226963301
245.0, 0.12977262706384413
246.0, 0.15804857149780144
247.0, 0.18535190994600123
248.0, 0.21937996739704924
249.0, 0.2521716756343371
250.0, 0.28109821882775127
251.0, 0.28404146218996146
252.0, 0.28054249150239563
253.0, 0.27963346820431173
254.0, 0.26183129138255484
255.0, 0.24264093387711444
256.0, 0.20571072396248272
257.0, 0.16314759525920028
258.0, 0.13711002676287576
259.0, 0.10683863720216827
260.0, 0.09349986891742787
261.0, 0.08730952307255349
262.0, 0.0783332681992982
263.0, 0.07183468580991781
264.0, 0.07145233213998127
265.0, 0.06332034181871733
266.0, 0.06288082075988936
267.0, 0.07221123193430529
268.0, 0.06233250550551053
269.0, 0.06819199908183543
270.0, 0.07293324443674187
271.0, 0.07012507375841055
272.0, 0.06689934482550249
273.0, 0.0738697684237725
274.0, 0.07000200320052112
275.0, 0.07102319656072492
276.0, 0.07649668404088086
277.0, 0.0645713748655483
278.0, 0.06484724538248958
279.0, 0.07121695489322938
280.0, 0.07876059755011999
281.0, 0.08914423496047325
282.0, 0.11591692213753184
283.0, 0.1507286856948113
284.0, 0.17738336028573456
285.0, 0.19935184702741965
286.0, 0.23284435756934474
287.0, 0.25397556467321986
288.0, 0.2761072528572337
289.0, 0.29715886045458
290.0, 0.3168182544217989
291.0, 0.34091484847155407
292.0, 0.35118488126781583
293.0, 0.3719429063486518
294.0, 0.4002324215479869
295.0, 0.42667795849582396
296.0, 0.4578252182070277
297.0, 0.5107794698063469
298.0, 0.5549954251448659
299.0, 0.6034363438510542
300.0, 0.6789899143238131
301.0, 0.7640205192267332
302.0, 0.8297083574107949
303.0, 0.873142509233296
304.0, 0.8971412687113882
305.0, 0.8943686288508083
306.0, 0.8194523562505912
307.0, 0.7120361023003633
308.0, 0.6031389094774556
309.0, 0.5029491181448049
310.0, 0.3996856562596647
311.0, 0.3196317842020709
312.0, 0.2570632302138213
313.0, 0.20507711059372535
314.0, 0.15553542633027168
315.0, 0.10453354875482468
316.0, 0.08497540262039778
317.0, 0.06386155580284347
318.0, 0.03991082120521771
319.0, 0.02771668097945571
320.0, 0.011980548306957823
321.0, 0.007052464335936643
322.0, 0.002285740701122689
323.0, 0.008026935192354496
324.0, 0.016507351828198628
325.0, 0.004860641184636188
326.0, 0.008402334763882068
327.0, 0.01602073105531638
328.0, 0.017148843442865793
329.0, 0.0133123577442396
330.0, 0.00736619983059847
331.0, 0.0016633539254925955
332.0, 0.0006180440944550695
333.0, 0.007984665807867079
334.0, 0.01603703440439835
335.0, 0.005698721150325608
336.0, 0.017001003400717075
337.0, 0.020397813020596497
338.0, 0.02655577656623175
339.0, 0.036827953139971774
340.0, 0.06077840446676608
341.0, 0.07151492721707937
342.0, 0.08143506159740353
343.0, 0.10328955317137609
344.0, 0.11467929342041155
345.0, 0.1426714395744498
346.0, 0.1595612760573179
347.0, 0.1680471043268769
348.0, 0.18292021230399594
349.0, 0.19952056507262841
350.0, 0.22563421574314235
351.0, 0.24273910370704938
352.0, 0.2553883041932605
353.0, 0.26947848159721904
354.0, 0.2765586369782452
355.0, 0.28952231023343955
356.0, 0.3016741686617714
357.0, 0.3142394883144355
358.0, 0.3285890021307289
359.0, 0.3341313954727914
360.0, 0.339719488431688
361.0, 0.3396815066740905
362.0, 0.3342282122055924
363.0, 0.3287701150261721
364.0, 0.3389494026277014
365.0, 0.3511202814904305
366.0, 0.3564567030161796
367.0, 0.35214951618514095
368.0, 0.33948503635194016
369.0, 0.31927915668588286
370.0, 0.2918418971147705
371.0, 0.26473015769924685
372.0, 0.23227736728021992
373.0, 0.19104930444194934
374.0, 0.15886677024516063
375.0, 0.1314589614642027
376.0, 0.11499524926158078
377.0, 0.10546047498058594
378.0, 0.09796961172707126
379.0, 0.10006609296618445
380.0, 0.09059692561053648
381.0, 0.08951770084426679
382.0, 0.09226737389208743
383.0, 0.08952444403507184
384.0, 0.09038994882239376
385.0, 0.08588480802694802
386.0, 0.0788715710521965
387.0, 0.0743618208944882
388.0, 0.06925130018542379
389.0, 0.04583926847742291
390.0, 0.046694670301305266
391.0, 0.04788565080608649
392.0, 0.0341866135926383
393.0, 0.014216771770851804
394.0, 0.01379233709541531
395.0, 0.010708880420562256
396.0, 0.008060284869227276
397.0, 0.005903790873891716
398.0, 0.002205898751258484
399.0, 0.003228690371510203
400.0, 0.010454528118105058
401.0, 0.01686352256428826
402.0, 0.021695838460946422
403.0, 0.026254060301501635
404.0, 0.033918126748120156
405.0, 0.03819278477196644
406.0, 0.040347792136574974
407.0, 0.04895469929593072
408.0, 0.05803582730251935
409.0, 0.047302509598391426
410.0, 0.04880283989258428
411.0, 0.03989407911002465
412.0, 0.035758956656948754
413.0, 0.034119532156518834
414.0, 0.01787679319167069
415.0, 0.01860787530984557
416.0, 0.014070463880784815
417.0, 0.012081607136633792
418.0, 0.01750196511695998
419.0, 0.02677921999894719
420.0, 0.03761072938001597
421.0, 0.034173266014055
422.0, 0.052678100025620574
423.0, 0.07304399665287717
424.0, 0.07362582153901912
425.0, 0.08599627196253766
426.0, 0.09678062032081435
427.0, 0.11046878513799696
428.0, 0.11817257081180127
429.0, 0.11613977250189976
430.0, 0.12290143088854205
431.0, 0.12377875696103852
432.0, 0.11816724426907556
433.0, 0.11724619157240646
434.0, 0.12463542616085597
435.0, 0.1281161447544585
436.0, 0.11066659253047167
437.0, 0.10150812026476229
438.0, 0.09627811840154207
439.0, 0.08651697293091477
440.0, 0.07206713463617338
441.0, 0.05895669748891287
442.0, 0.06954364873927564
443.0, 0.08292684363735961
444.0, 0.08257369907915658
445.0, 0.06880847048116472
446.0, 0.07699078923955996
447.0, 0.08261869189371429
448.0, 0.08251959787174805
449.0, 0.08436485852051638
450.0, 0.08440359640664176
451.0, 0.06884468091780982
452.0, 0.06579723577240787
453.0, 0.05779629820012458
454.0, 0.04944812691342561
455.0, 0.044620781546095216
456.0, 0.04002189678709864
457.0, 0.036916245012128326
458.0, 0.03817988084651339
459.0, 0.047879343391520675
460.0, 0.05942855953455611
461.0, 0.06913044846988349
462.0, 0.08815818793568148
463.0, 0.10747790471471877
464.0, 0.12010213631133937
465.0, 0.14089285571532223
466.0, 0.17325632840588526
467.0, 0.20406088398559086
468.0, 0.24058203058228342
469.0, 0.2658791302071765
470.0, 0.2707093468298811
471.0, 0.2567096679734476
472.0, 0.2273017787597593
473.0, 0.18309045878874125
474.0, 0.13528707989794872
475.0, 0.10001773340129731
476.0, 0.0686365074286349
477.0, 0.04069832224081332
478.0, 0.02823045057904575
479.0, 0.017081067519851344
480.0, 0.008795017559697764
481.0, 0.004104153187978203
482.0, 0.0006720247488333383
483.0, 0.004356519718736744
484.0, 0.0021904449986279374
485.0, 0.014258933981526787
486.0, 0.015750461795851368
487.0, 0.0152163099752984
488.0, 0.017265510023162546
489.0, 0.011608506831475232
490.0, 0.007292102844096239
491.0, 0.010175724038410253
492.0, 0.00787142597772243
493.0, 0.003438132040793841
494.0, 0.014159224961841434
495.0, 0.019694683702144555
496.0, 0.02547016115997444
497.0, 0.03692250120549147
498.0, 0.05016705159069594
499.0, 0.05715601965353714
500.0, 0.053588524941133434
501.0, 0.057794014422079064
502.0, 0.05487408080104711
503.0, 0.05876114043852699
504.0, 0.06497498364541365
505.0, 0.061758672361579135
506.0, 0.05455535930708793
507.0, 0.06494894531423731
508.0, 0.056497811465485194
509.0, 0.04816453369127395
510.0, 0.04971034722467937
511.0, 0.048760230766994504
512.0, 0.0393788694005281
513.0, 0.03700392441654497
514.0, 0.030486439695630918
515.0, 0.025237948039170174
516.0, 0.026111003009321742
517.0, 0.022674678537807226
518.0, 0.02118286042462525
519.0, 0.02337135160240983
520.0, 0.02572247384068648
521.0, 0.030587008263244047
522.0, 0.04219362733816508
523.0, 0.05939794282675015
524.0, 0.0748051574300778
525.0, 0.09120896812149812
526.0, 0.12293381139815736
527.0, 0.16615240939175727
528.0, 0.20074370259128052
529.0, 0.2324287238337371
530.0, 0.27171011990766464
531.0, 0.3150379002206561
532.0, 0.36173508096496937
533.0, 0.40042987838720173
534.0, 0.42880665907361104
535.0, 0.49609873850145064
536.0, 0.5438966316492058
537.0, 0.5925023743453499
538.0, 0.6588372715124181
539.0, 0.7372648083471453
540.0, 0.8108561823051346
541.0, 0.8795228304530961
542.0, 0.9466027444295019
543.0, 0.9901351558414716
544.0, 0.997406204610618
545.0, 0.9678697643806451
546.0, 0.9017917448408693
547.0, 0.8056468224303838
548.0, 0.7056205683140454
549.0, 0.5971456261022219
550.0, 0.488397133127714
551.0, 0.3996000108077737
552.0, 0.33406393628084624
553.0, 0.2653348319032501
554.0, 0.22021811215131917
555.0, 0.19444506463412467
556.0, 0.1713959112399265
557.0, 0.1471039304545375
558.0, 0.1427495153211191
559.0, 0.14698844139181982
560.0, 0.14554366547731656
561.0, 0.13544517071436946
562.0, 0.1227398025270424
563.0, 0.10865394699550608
564.0, 0.08792716379624885
565.0, 0.06300249986801336
566.0, 0.04833925023415023
567.0, 0.026853332923435957
568.0, 0.007452430767342019
569.0, 0.017071897936824138
570.0, 0.013890806627808078
571.0, 0.024225366517264105
572.0, 0.02688249919811172
573.0, 0.03630609700869601
574.0, 0.05791991074413182
575.0, 0.06779539649864919
576.0, 0.07080294706492334
577.0, 0.06419563325153853
578.0, 0.06890461858577208
579.0, 0.0641599845229198
580.0, 0.05477155248641707
581.0, 0.06852512788607282
582.0, 0.07931829164580112
583.0, 0.09377414707610372
584.0, 0.10233275041546258
585.0, 0.11867876485231982
586.0, 0.1455498102915087
587.0, 0.16103249240740963
588.0, 0.16596827836680086
589.0, 0.17200166537179143
590.0, 0.1963358400336767
591.0, 0.22030408761976822
592.0, 0.23613046960660639
593.0, 0.2554798819736014
594.0, 0.281157237110721
595.0, 0.2970317671590314
596.0, 0.32319537392460457
597.0, 0.3416845781212004
598.0, 0.34370358198690354
599.0, 0.3449873718882413
600.0, 0.3430453090620312
601.0, 0.3197181102931724
602.0, 0.3056044338225634
603.0, 0.2955859938137224
604.0, 0.2778218294751131
605.0, 0.25288782680045435
606.0, 0.22586397828810054
607.0, 0.2020603831281129
608.0, 0.17530119916173612
609.0, 0.15494895428664762
610.0, 0.13494393254070583
611.0, 0.10720515964973161
612.0, 0.08182548561584957
613.0, 0.04777874847023168
614.0, 0.025834658353085106
615.0, 0.01620158293030786
616.0, 0.008552506413587211
617.0, 0.00039245942195853295
618.0, 0.0060882045875404545
619.0, 0.02299678170601456
620.0, 0.020813613582468377
621.0, 0.024967309238710624
622.0, 0.02648315542380227
623.0, 0.013037187826136427
624.0, 0.0037900116214635558
625.0, 0.0037583887898865642
626.0, 0.016533024518074018
627.0, 0.033973886679118076
628.0, 0.04815453241405504
629.0, 0.051177417389889374
630.0, 0.04954547762740537
631.0, 0.06307400494696228
632.0, 0.04777772774738882
633.0, 0.04143439811153218
634.0, 0.04992598645216031
635.0, 0.05477255536692444
636.0, 0.04641003704488833
637.0, 0.03877474839777944
638.0, 0.02694576342334613
639.0, 0.02111635414928557
640.0, 0.014388728470326953
641.0, 0.0060702899253004886
642.0, 0.0063226142989677775
643.0, 0.016737902941893278
644.0, 0.018505589847811144
645.0, 0.038694088849677455
646.0, 0.05319484583231006
647.0, 0.07652437318471354
648.0, 0.10328194288058713
649.0, 0.12190261561492316
650.0, 0.14259348541432362
651.0, 0.17926243742638434
652.0, 0.2126685168977614
653.0, 0.2484883024079087
654.0, 0.2845528309616167
655.0, 0.32209792997437575
656.0, 0.3639726358431811
657.0, 0.4041464555042398
658.0, 0.4476903286103022
659.0, 0.4847056282092929
660.0, 0.5188959287854191
661.0, 0.545311376996681
662.0, 0.5666790766733854
663.0, 0.596849174748149
664.0, 0.6289475273684415
665.0, 0.6577642074646746
666.0, 0.6995762016129803
667.0, 0.7382425702715918
668.0, 0.7745115262449175
669.0, 0.815896099442096
670.0, 0.8532861483823553
671.0, 0.8886173224797301
672.0, 0.9283149885431672
673.0, 0.9441459411945883
674.0, 0.9375347488811479
675.0, 0.9094342216527314
676.0, 0.8569490567532156
677.0, 0.7911367232251755
678.0, 0.7137963252077082
679.0, 0.6749669943463886
680.0, 0.6624525897425245
681.0, 0.6564241900830219
682.0, 0.6517397902961793
683.0, 0.6524399905957032
684.0, 0.6670292636836417
685.0, 0.6960251479623163
686.0, 0.7179661072327168
687.0, 0.7277237398453595
688.0, 0.7123135476707357
689.0, 0.6588542963557713
690.0, 0.5714511684629044
691.0, 0.4728575368254943
692.0, 0.3684522835425706
693.0, 0.27635903510070586
694.0, 0.2040438486816321
695.0, 0.14889772861782258
696.0, 0.10666313803181306
697.0, 0.07541098467269358
698.0, 0.05322099126887339
699.0, 0.03939655754508534
700.0, 0.021701025512399757
701.0, 0.010882981950251214
702.0, 0.006831539257720818
703.0, 0.0031618737521254946
704.0, 0.013137518241535528
705.0, 0.014690371829027092
706.0, 0.009962117960602253
707.0, 0.016546310173647764
708.0, 0.021607648988652032
709.0, 0.021795818679596003
710.0, 0.029850064420194413
711.0, 0.03754999887663079
712.0, 0.034960197507281014
713.0, 0.04279712687777676
714.0, 0.04898718176130444
715.0, 0.05897139249160879
716.0, 0.0702610472264046
717.0, 0.06955250956682052
718.0, 0.07061625643298726
719.0, 0.07508127090738964
720.0, 0.07882249333923814
721.0, 0.09232155483451816
722.0, 0.10598849762266
723.0, 0.11646086311061749
724.0, 0.12715156118029133
725.0, 0.13672512258054378
726.0, 0.17798850286461668
727.0, 0.20282168598243397
728.0, 0.22998209855799306
729.0, 0.2617161876416809
730.0, 0.2978513768931035
731.0, 0.33524844969478024
732.0, 0.365660755577542
733.0, 0.3990146222939445
734.0, 0.4103243836365263
735.0, 0.4087485485483263
736.0, 0.39354448348070853
737.0, 0.36802894757922466
738.0, 0.3310778390941063
739.0, 0.27930890777976164
740.0, 0.23739262364558478
741.0, 0.20104536401869222
742.0, 0.16590970539063782
743.0, 0.1261757282999381
744.0, 0.10055963835342745
745.0, 0.09055528695461512
746.0, 0.06782027895656711
747.0, 0.0479951193411858
748.0, 0.0384391509405477
749.0, 0.02971939668592126
750.0, 0.022819477058734227
751.0, 0.019533400967476265
752.0, 0.011798288308705418
753.0, 0.004576192715654039
754.0, 0.0012289755487580214
755.0, 0.0009753792065795517
756.0, 0.004182661909227125
757.0, 0.0017571630820617842
758.0, 0.003881928198752333
759.0, 0.007894364596982208
760.0, 0.004269294589943074
761.0, 0.013083266780329141
762.0, 0.004662446959324079
763.0, 0.007486276947266503
764.0, 0.0047323512131936364
765.0, 0.007376012571106061
766.0, 0.008946615815677558
767.0, 0.003449378118016057
768.0, 0.0025347569517489388
769.0, 0.007458497960540689
770.0, 0.0021589759456282784
771.0, 0.003661002877760486
772.0, 0.0024202101190910464
773.0, 0.0037148972111887284
774.0, 0.0028530791684962223
775.0, 0.0036870657719049195
776.0, 0.0063803970655643095
777.0, 0.005291328624791936
778.0, 0.016403617111701567
779.0, 0.016477034922380254
780.0, 0.0014036269017491474
781.0, 0.002449211316256505
782.0, 0.010306668883036984
783.0, 0.018524108629529093
784.0, 0.015161224860665646
785.0, 0.0030577578312304976
786.0, 0.008352796253121072
787.0, 0.010551257008553907
788.0, 0.0044817268905110496
789.0, 0.001275871746023083
790.0, 0.0045253678541714035
791.0, 0.010029888613448598
792.0, 0.019276795014090506
793.0, 0.015103260925017768
794.0, 0.005467595128632258
795.0, 0.0033451176818595834
796.0, 0.016106226046270822
797.0, 0.025008524145387356
798.0, 0.020498904654247203
799.0, 0.022227865721897843
800.0, 0.013234472865183615
801.0, 0.013565187804471676
802.0, 0.019916466484495052
803.0, 0.023519488279416335
804.0, 0.030463283914640045
805.0, 0.03260113184470487
806.0, 0.030968779676306835
807.0, 0.04435260996722415
808.0, 0.05071863640367273
809.0, 0.06714552178761406
810.0, 0.06928123175718157
811.0, 0.05433211129763256
812.0, 0.048563546668646956
813.0, 0.061831915685625224
814.0, 0.07358925223133457
815.0, 0.06907839413193219
816.0, 0.06831720486048391
817.0, 0.07298792692253697
818.0, 0.07177547195611694
819.0, 0.07594970327182415
820.0, 0.08256984260746564
821.0, 0.08643818494577227
822.0, 0.09337642125974649
823.0, 0.10118435042784049
824.0, 0.09321981890071009
825.0, 0.10230755005765652
826.0, 0.10541071268357186
827.0, 0.10207450876432171
828.0, 0.09645783418622844
829.0, 0.09105758059418605
830.0, 0.08579044012619247
831.0, 0.08174082626569648
832.0, 0.09408881923056531
833.0, 0.09073919389005851
834.0, 0.08685425414101103
835.0, 0.08468100842367576
836.0, 0.08827783467386019
837.0, 0.09846203434489417
838.0, 0.10256939602510531
839.0, 0.09340965527171394
840.0, 0.09462143943814293
841.0, 0.10496248796912291
842.0, 0.11412845226307014
843.0, 0.11807579208548956
844.0, 0.12412943836934269
845.0, 0.13338158816986503
846.0, 0.13825729944853762
847.0, 0.139728635307839
848.0, 0.15324114070911127
849.0, 0.16043493009431356
850.0, 0.1679420785702356
851.0, 0.18190417194704323
852.0, 0.1933463111682018
853.0, 0.19978841945725634
854.0, 0.21358085842784244
855.0, 0.22758370641074427
856.0, 0.22683792360902771
857.0, 0.23281036617561093
858.0, 0.22081501060246803
859.0, 0.22458568092347833
860.0, 0.22064929166358122
861.0, 0.19736798531789174
862.0, 0.1772054725108766
863.0, 0.17016696652158664
864.0, 0.16104955491022405
865.0, 0.13781180615306857
866.0, 0.12115423009686803
867.0, 0.10936803252909251
868.0, 0.09101859790418097
869.0, 0.07955928433010435
870.0, 0.07292490919009942
871.0, 0.0653207030536642
872.0, 0.06015231093213122
873.0, 0.05752455940203039
874.0, 0.050092606106950995
875.0, 0.05385486547831076
876.0, 0.053147018031988076
877.0, 0.052006825453551536
878.0, 0.05305366416355412
879.0, 0.05826770726558611
880.0, 0.06916050990695813
881.0, 0.07892423158566735
882.0, 0.08003704781639255
883.0, 0.07889372314292027
884.0, 0.08106186792905755
885.0, 0.08014279952650716
886.0, 0.08296281049048423
887.0, 0.08526588511404042
888.0, 0.08183134753925721
889.0, 0.0855000742189261
890.0, 0.0924071082073616
891.0, 0.08217385847379703
892.0, 0.08737837926376743
893.0, 0.09856953117692642
894.0, 0.08891891529172033
895.0, 0.08505861314509915
896.0, 0.07836783345825908
897.0, 0.0729188564407711
898.0, 0.07021324564362469
899.0, 0.06736657099783248
900.0, 0.06619854133818223
901.0, 0.05692226866009982
902.0, 0.06188182137306348
903.0, 0.06628487484737154
904.0, 0.05044270372968716
905.0, 0.04890214119755699
906.0, 0.038974880144396394
907.0, 0.02556727416264272
908.0, 0.026857744925434954
909.0, 0.029779324791911196
910.0, 0.02073700905563775
911.0, 0.012335335594731305
912.0, 0.02072956129148053
913.0, 0.016837401128374688
914.0, 0.014365515820412553
915.0, 0.005891739473730248
916.0, 0.0038859563872407667
917.0, 0.002424513094983433
918.0, 0.00651757478032291
919.0, 0.01789003181336209
920.0, 0.015047517921407665
921.0, 0.006078502202485937
922.0, 0.005601730213227499
923.0, 0.007746081781858663
924.0, 0.010856344434706407
925.0, 0.012678619333735546
926.0, 0.011698759472803707
927.0, 0.014603189937905521
928.0, 0.017536530428298145
929.0, 0.005680395023857667
930.0, 0.006732493268986455
931.0, 0.0035612707348428047
932.0, 0.0030892347483579856
933.0, 0.004016983869590828
934.0, 0.00685626892990918
935.0, 0.010342758625071422
936.0, 0.013595555577234453
937.0, 0.013701687060480028
938.0, 0.009850196290965615
939.0, 0.0013624295527430625
940.0, 0.006849152279577808
941.0, 0.005265043805511775
942.0, 0.006708948205158367
943.0, 0.0008723054006112898
944.0, 0.00931242354436914
945.0, 0.022541370154905847
946.0, 0.016850381385048185
947.0, 0.014275121990374312
948.0, 0.03806808695675929
949.0, 0.039113159822908805
950.0, 0.04075247795567691
951.0, 0.04763449565080212
952.0, 0.05227534588114076
953.0, 0.04980672365163352
954.0, 0.05173092049134464
955.0, 0.057987019169230505
956.0, 0.06203167501589252
957.0, 0.05890233568969268
958.0, 0.05251655244387092
959.0, 0.060355923207512374
960.0, 0.054892316127582275
961.0, 0.059130871922311666
962.0, 0.058319337993243306
963.0, 0.054475556869871544
964.0, 0.058766791609092824
965.0, 0.05537150683758889
966.0, 0.05028826793107143
967.0, 0.054492451803346165
968.0, 0.05618331281818039
969.0, 0.06005691294294684
970.0, 0.06279136661172308
971.0, 0.059192981952209935
972.0, 0.062305558334541995
973.0, 0.08022805719185679
974.0, 0.08333013641560626
975.0, 0.08943356731407041
976.0, 0.08743152926464057
977.0, 0.0805475006098041
978.0, 0.08958871326657529
979.0, 0.09202283274117763
980.0, 0.09043059734727987
981.0, 0.10252556452793168
982.0, 0.10066232150583761
983.0, 0.10396272090006389
984.0, 0.10369734796996667
985.0, 0.10586524991324858
986.0, 0.10758977258309073
987.0, 0.1039394832133649
988.0, 0.09958371559162442
989.0, 0.10166234205745121
990.0, 0.10431743709548554
991.0, 0.09263680728328288
992.0, 0.08228854351679465
993.0, 0.09342959247799451
994.0, 0.07558005492078292
995.0, 0.06921468990210841
996.0, 0.06146874985805188
997.0, 0.05795303486875329
998.0, 0.05579713878225397
999.0, 0.05141452940042055
1000.0, 0.05011376873558593
1001.0, 0.046756133267192385
1002.0, 0.05445273645747967
1003.0, 0.05294737100477098
1004.0, 0.046891737498787125
1005.0, 0.05726609654336664
1006.0, 0.06290977842197672
1007.0, 0.06067538293724129
1008.0, 0.06412958444007148
1009.0, 0.07705461993331887
1010.0, 0.08443238989264132
1011.0, 0.07838021304014521
1012.0, 0.07617769507166491
1013.0, 0.07915249062197406
1014.0, 0.07744881280176451
1015.0, 0.08206779654412576
1016.0, 0.08624366609920682
1017.0, 0.08873079979839554
1018.0, 0.08419272299992772
1019.0, 0.07776994105413275
1020.0, 0.07350382997976311
1021.0, 0.06115921248600894
1022.0, 0.05993302006285964
1023.0, 0.05743698056407431
1024.0, 0.048285072850247544
1025.0, 0.0655127886462942
1026.0, 0.05705111329334352
1027.0, 0.048485229194811595
1028.0, 0.04835041416882776
1029.0, 0.05245390592308107
1030.0, 0.052985039703424795
1031.0, 0.050267150102383695
1032.0, 0.05412385347634684
1033.0, 0.04935555374590626
1034.0, 0.03441700777712835
1035.0, 0.0369084431344234
1036.0, 0.03667007578839626
1037.0, 0.03725095965554762
1038.0, 0.0333622935193765
1039.0, 0.02247187896540687
1040.0, 0.023735809091174245
1041.0, 0.02533656264008855
1042.0, 0.016567883894678632
1043.0, 0.01546931303542417
1044.0, 0.015620106136985154
1045.0, 0.011492885526692516
1046.0, 0.01162353668488434
1047.0, 0.006062444170567907
1048.0, 0.002788240847833758
1049.0, 0.0026946889978179942
1050.0, 0.004462168217328647
1051.0, 0.010750670104095977
1052.0, 0.009932100363591408
1053.0, 0.0021519463379737667
1054.0, 0.0025536726681483503
1055.0, 0.006812666455715961
1056.0, 0.01867766906144085
1057.0, 0.026454002962756577
1058.0, 0.029880039929115653
1059.0, 0.029582386770449727
1060.0, 0.03242893135158115
1061.0, 0.03820453448050038
1062.0, 0.0518477393970245
1063.0, 0.040633766794964256
1064.0, 0.022222905893233922
1065.0, 0.031821467556289174
1066.0, 0.01976788250396648
1067.0, 0.02312114157877117
1068.0, 0.020381422793263618
1069.0, 0.01371104119113146
1070.0, 0.020257711634097644
1071.0, 0.01822270023743816
1072.0, 0.0038498373727569478
1073.0, 0.005976899957537647
1074.0, 0.006473936189426097
1075.0, 0.0020779222230694044
1076.0, 0.003092039883003714
1077.0, 0.004117188436670711
1078.0, 0.004247625725566319
1079.0, 0.0021323236964657464
1080.0, 0.0042090988370422095
1081.0, 0.0030527985629379834
1082.0, 0.00034543531666314054
1083.0, 0.0007868654523816861
1084.0, 0.0037838761008221595
1085.0, 0.009689152168683988
1086.0, 0.0042590204530810385
1087.0, 0.0006680040785854704
1088.0, 0.003895778621773086
1089.0, 0.016318667879811434
1090.0, 0.006285907859843616
1091.0, 0.012528804248313062
1092.0, 0.028387681767082656
1093.0, 0.02329974189018719
1094.0, 0.02213438861150025
1095.0, 0.026211083586462777
1096.0, 0.03490890970036472
1097.0, 0.042111366156608
1098.0, 0.0421897457487105
1099.0, 0.04268235016641447
1100.0, 0.04721014318227268
1101.0, 0.051469334385423775
1102.0, 0.04081337486425546
1103.0, 0.051409900839950604
1104.0, 0.04900855427095541
1105.0, 0.04141124968379665
1106.0, 0.04755195768976755
1107.0, 0.05839233531352892
1108.0, 0.0680301850794763
1109.0, 0.06827252574415565
1110.0, 0.08037940404928445
1111.0, 0.08972474689453955
1112.0, 0.08873494507690236
1113.0, 0.09029759930588442
1114.0, 0.09004869045788663
1115.0, 0.10029493415011896
1116.0, 0.0898830816796371
1117.0, 0.1030355512797879
1118.0, 0.0907349455438052
1119.0, 0.0986951467062683
1120.0, 0.10469711214780748
1121.0, 0.09872831372709104
1122.0, 0.08133894814964136
1123.0, 0.07665676878322304
1124.0, 0.08938078246575426
1125.0, 0.0965644742576043
1126.0, 0.0914944007860438
1127.0, 0.08685504762593053
1128.0, 0.08702369656590715
1129.0, 0.09094619664303027
1130.0, 0.0914025109975473
1131.0, 0.08202054389078046
1132.0, 0.07951034228050778
1133.0, 0.06428971808840148
1134.0, 0.05123697401388951
1135.0, 0.0432883783074269
1136.0, 0.02798927906635008
1137.0, 0.039524707548048564
1138.0, 0.030243842615837426
1139.0, 0.017450181502909487
1140.0, 0.0126165975464568
1141.0, 0.014100091067205606
1142.0, 0.02144775382567634
1143.0, 0.019714133838213646
1144.0, 0.0028680992044088282
1145.0, 0.006293802253494701
1146.0, 0.011163382436183669
1147.0, 0.018527540285785578
1148.0, 0.017608223808978182
1149.0, 0.01673923144354271
1150.0, 0.014195061928654856
1151.0, 0.02552616407404378
1152.0, 0.018389766806070983
1153.0, 0.02274508792656663
1154.0, 0.027101210856390685
1155.0, 0.025347729514330158
1156.0, 0.020004163803069637
1157.0, 0.025766793847138595
1158.0, 0.03195556527993282
1159.0, 0.033410956381292066
1160.0, 0.035563527685170314
1161.0, 0.03509957434156905
1162.0, 0.032944014514336685
1163.0, 0.029177549340656743
1164.0, 0.028427124743683384
1165.0, 0.025041705687345157
1166.0, 0.037018353588625305
1167.0, 0.03532095504566771
1168.0, 0.02481748740372374
1169.0, 0.023784451670279334
1170.0, 0.02195792539923367
1171.0, 0.021435076841508225
1172.0, 0.015375866080166892
1173.0, 0.017732910109482528
1174.0, 0.01831912471210596
1175.0, 0.0108174282238694
1176.0, 0.00655613302368543
1177.0, 0.013567627313990955
1178.0, 0.01150654625342128
1179.0, 0.0008122258585826873
1180.0, 0.005803082906113044
1181.0, 0.0041004301082811275
1182.0, 0.0029056883291976093
1183.0, 0.0015864210086209958
1184.0, 0.00927168366763231
1185.0, 0.019910677941691754
1186.0, 0.010308542138030912
1187.0, 0.0025042568912458027
1188.0, 0.004754437089701113
1189.0, 0.0008391289855159208
1190.0, 0.008690746504901415
1191.0, 0.014950238428109358
1192.0, 0.013238143972983589
1193.0, 0.017233270733333524
1194.0, 0.022964085953474114
1195.0, 0.019533413517433252
1196.0, 0.01911041427830475
1197.0, 0.026403497797462774
1198.0, 0.030003689020746845
1199.0, 0.033169464971667804
1200.0, 0.03325730018358106
1201.0, 0.03431758066891446
1202.0, 0.0333805675950384
1203.0, 0.031047716281678624
1204.0, 0.032247578393143135
1205.0, 0.03744334090202391
1206.0, 0.04370536599237365
1207.0, 0.03789639311853215
1208.0, 0.03242977165569893
1209.0, 0.039046108103650716
1210.0, 0.04745640354896056
1211.0, 0.051184179358868036
1212.0, 0.04872365077963018
1213.0, 0.04032335490225803
1214.0, 0.03439073401874704
1215.0, 0.03677626339882947
1216.0, 0.03866431138044286
1217.0, 0.030586093927151947
1218.0, 0.023821448823481542
1219.0, 0.023319687354626403
1220.0, 0.022168526342152987
1221.0, 0.023428005653139503
1222.0, 0.024954484264513653
1223.0, 0.02500794198308474
1224.0, 0.01821334313901678
1225.0, 0.01002308198990844
1226.0, 0.022424700294680078
1227.0, 0.017526759555830957
1228.0, 0.014166247683145648
1229.0, 0.023916043459646246
1230.0, 0.019588222796300667
1231.0, 0.011254994250875842
1232.0, 0.011913350197145008
1233.0, 0.01490362109483081
1234.0, 0.011995021773680736
1235.0, 0.006060932380570847
1236.0, 0.00738559675416242
1237.0, 0.0008555749642789952
1238.0, 0.00015100561720248905
1239.0, 0.009742871291562982
1240.0, 0.005676533157374843
1241.0, 0.0006089367267752998
1242.0, 0.0021408756758888275
1243.0, 0.00301991303633622
1244.0, 0.00113641646090245
1245.0, 0.00281073212000302
1246.0, 0.011773669201699623
1247.0, 0.018659230936129208
1248.0, 0.017206633047414144
1249.0, 0.0017717770853661057
1250.0, 0.010561306629364857
1251.0, 0.00358060256895917
1252.0, 0.002571510583932875
1253.0, 0.004574308577648016
1254.0, 0.011331980745724573
1255.0, 0.01961892359744221
1256.0, 0.01819851410516719
1257.0, 0.012117009598242771
1258.0, 0.009526291256632985
1259.0, 0.007492480787301185
1260.0, 0.0116582552353083
1261.0, 0.019650747924506842
1262.0, 0.010037683966081451
1263.0, 0.011924246854413763
1264.0, 0.01820206606516883
1265.0, 0.014093081472609612
1266.0, 0.017677128377853107
1267.0, 0.013475911052748878
1268.0, 0.01721744004145877
1269.0, 0.019669337632009183
1270.0, 0.025440082403384197
1271.0, 0.022862227432585095
1272.0, 0.017780732950957678
1273.0, 0.026489040654523285
1274.0, 0.02903814288185347
1275.0, 0.02273967902552218
1276.0, 0.02517207185590891
1277.0, 0.025950299677094137
1278.0, 0.018987273128956057
1279.0, 0.014033913623456504
1280.0, 0.012769681462512563
1281.0, 0.001874653729145991
1282.0, 0.0010514495051998857
1283.0, 0.005776779129169591
1284.0, 0.014005208534666237
1285.0, 0.005309581208028997
1286.0, 2.8367154090081444e-06
1287, 0.0
1288, 0.0
1289, 0.0
1290, 0.0
1291, 0.0
1292, 0.0
1293, 0.0
1294, 0.0
1295, 0.0
1296, 0.0
1297, 0.0
1298, 0.0
1299, 0.0
1300, 0.0
1301, 0.0
1302, 0.0
1303, 0.0
1304, 0.0
1305, 0.0
1306, 0.0
1307, 0.0
1308, 0.0
1309, 0.0
1310, 0.0
1311, 0.0
1312, 0.0
1313, 0.0
1314, 0.0
1315, 0.0
1316, 0.0
1317, 0.0
1318, 0.0
1319, 0.0
1320, 0.0
1321, 0.0
1322, 0.0
1323, 0.0
1324, 0.0
1325, 0.0
1326, 0.0
1327, 0.0
1328, 0.0
1329, 0.0
1330, 0.0
1331, 0.0
1332, 0.0
1333, 0.0
1334, 0.0
1335, 0.0
1336, 0.0
1337, 0.0
1338, 0.0
1339, 0.0
1340, 0.0
1341, 0.0
1342, 0.0
1343, 0.0
1344, 0.0
1345, 0.0
1346, 0.0
1347, 0.0
1348, 0.0
1349, 0.0
1350, 0.0
1351, 0.0
1352, 0.0
1353, 0.0
1354, 0.0
1355, 0.0
1356, 0.0
1357, 0.0
1358, 0.0
1359, 0.0
1360, 0.0
1361, 0.0
1362, 0.0
1363, 0.0
1364, 0.0
1365, 0.0
1366, 0.0
1367, 0.0
1368, 0.0
1369, 0.0
1370, 0.0
1371, 0.0
1372, 0.0
1373, 0.0
1374, 0.0
1375, 0.0
1376, 0.0
1377, 0.0
1378, 0.0
1379, 0.0
1380, 0.0
1381, 0.0
1382, 0.0
1383, 0.0
1384, 0.0
1385, 0.0
1386, 0.0
1387, 0.0
1388, 0.0
1389, 0.0
1390, 0.0
1391, 0.0
1392, 0.0
1393, 0.0
1394, 0.0
1395, 0.0
1396, 0.0
1397, 0.0
1398, 0.0
1399, 0.0
1400, 0.0
1401, 0.0
1402, 0.0
1403, 0.0
1404, 0.0
1405, 0.0
1406, 0.0
1407, 0.0
1408, 0.0
1409, 0.0
1410, 0.0
1411, 0.0
1412, 0.0
1413, 0.0
1414, 0.0
1415, 0.0
1416, 0.0
1417, 0.0
1418, 0.0
1419, 0.0
1420, 0.0
1421, 0.0
1422, 0.0
1423, 0.0
1424, 0.0
1425, 0.0
1426, 0.0
1427, 0.0
1428, 0.0
1429, 0.0
1430, 0.0
1431, 0.0
1432, 0.0
1433, 0.0
1434, 0.0
1435, 0.0
1436, 0.0
1437, 0.0
1438, 0.0
1439, 0.0
1440, 0.0
1441, 0.0
1442, 0.0
1443, 0.0
1444, 0.0
1445, 0.0
1446, 0.0
1447, 0.0
1448, 0.0
1449, 0.0
1450, 0.0
1451, 0.0
1452, 0.0
1453, 0.0
1454, 0.0
1455, 0.0
1456, 0.0
1457, 0.0
1458, 0.0
1459, 0.0
1460, 0.0
1461, 0.0
1462, 0.0
1463, 0.0
1464, 0.0
1465, 0.0
1466, 0.0
1467, 0.0
1468, 0.0
1469, 0.0
1470, 0.0
1471, 0.0
1472, 0.0
1473, 0.0
1474, 0.0
1475, 0.0
1476, 0.0
1477, 0.0
1478, 0.0
1479, 0.0
1480, 0.0
1481, 0.0
1482, 0.0
1483, 0.0
1484, 0.0
1485, 0.0
1486, 0.0
1487, 0.0
1488, 0.0
1489, 0.0
1490, 0.0
1491, 0.0
1492, 0.0
1493, 0.0
1494, 0.0
1495, 0.0
1496, 0.0
1497, 0.0
1498, 0.0
1499, 0.0
1500, 0.0
1501, 0.0
1502, 0.0
1503, 0.0
1504, 0.0
1505, 0.0
1506, 0.0
1507, 0.0
1508, 0.0
1509, 0.0
1510, 0.0
1511, 0.0
1512, 0.0
1513, 0.0
1514, 0.0
1515, 0.0
1516, 0.0
1517, 0.0
1518, 0.0
1519, 0.0
1520, 0.0
1521, 0.0
1522, 0.0
1523, 0.0
1524, 0.0
1525, 0.0
1526, 0.0
1527, 0.0
1528, 0.0
1529, 0.0
1530, 0.0
1531, 0.0
1532, 0.0
1533, 0.0
1534, 0.0
1535, 0.0
1536, 0.0
1537, 0.0
1538, 0.0
1539, 0.0
1540, 0.0
1541, 0.0
1542, 0.0
1543, 0.0
1544, 0.0
1545, 0.0
1546, 0.0
1547, 0.0
1548, 0.0
1549, 0.0
1550, 0.0
1551, 0.0
1552, 0.0
1553, 0.0
1554, 0.0
1555, 0.0
1556, 0.0
1557, 0.0
1558, 0.0
1559, 0.0
1560, 0.0
1561, 0.0
1562, 0.0
1563, 0.0
1564, 0.0
1565, 0.0
1566, 0.0
1567, 0.0
1568, 0.0
1569, 0.0
1570, 0.0
1571, 0.0
1572, 0.0
1573, 0.0
1574, 0.0
1575, 0.0
1576, 0.0
1577, 0.0
1578, 0.0
1579, 0.0
1580, 0.0
1581, 0.0
1582, 0.0
1583, 0.0
1584, 0.0
1585, 0.0
1586, 0.0
1587, 0.0
1588, 0.0
1589, 0.0
1590, 0.0
1591, 0.0
1592, 0.0
1593, 0.0
1594, 0.0
1595, 0.0
1596, 0.0
1597, 0.0
1598, 0.0
1599, 0.0
