30, 0.0
31, 0.0
32, 0.0
33, 0.0
34, 0.0
35, 0.0
36, 0.0
37, 0.0
38, 0.0
39, 0.0
40, 0.0
41, 0.0
42, 0.0
43, 0.0
44, 0.0
45, 0.0
46, 0.0
47, 0.0
48, 0.0
49, 0.0
50, 0.0
51, 0.0
52, 0.0
53, 0.0
54, 0.0
55, 0.0
56, 0.0
57, 0.0
58, 0.0
59, 0.0
60, 0.0
61, 0.0
62, 0.0
63, 0.0
64, 0.0
65, 0.0
66, 0.0
67, 0.0
68, 0.0
69, 0.0
70, 0.0
71, 0.0
72, 0.0
73, 0.0
74, 0.0
75, 0.0
76, 0.0
77, 0.0
78, 0.0
79, 0.0
80, 0.0
81, 0.0
82, 0.0
83, 0.0
84, 0.0
85, 0.0
86, 0.0
87, 0.0
88, 0.0
89, 0.0
90, 0.0
91, 0.0
92, 0.0
93, 0.0
94, 0.0
95, 0.0
96, 0.0
97, 0.0
98, 0.0
99, 0.0
100, 0.0
101, 0.0
102, 0.0
103, 0.0
104, 0.0
105, 0.0
106, 0.0
107, 0.0
108, 0.0
109, 0.0
110, 0.0
111, 0.0
112, 0.0
113, 0.0
114, 0.0
115, 0.0
116, 0.0
117, 0.0
118, 0.0
119, 0.0
120, 0.0
121, 0.0
122, 0.0
123, 0.0
124, 0.0
125, 0.0
126, 0.0
127, 0.0
128, 0.0
129, 0.0
130, 0.0
131, 0.0
132, 0.0
133, 0.0
134, 0.0
135, 0.0
136, 0.0
137, 0.0
138, 0.0
139, 0.0
140, 0.0
141, 0.0
142, 0.0
143, 0.0
144, 0.0
145, 0.0
146, 0.0
147, 0.0
148, 0.0
149, 0.0
150.0, 0.00015374130495900395
151.0, 0.0013170667574864837
152.0, 0.00012773838729374998
153.0, 0.0020456044145272224
154.0, 0.007221076963719727
155.0, 0.014149526325412543
156.0, 0.02173426436113307
157.0, 0.028070142052238605
158.0, 0.03777580199868562
159.0, 0.048667396399762385
160.0, 0.061808362011540906
161.0, 0.08016129556947267
162.0, 0.10698236115630981
163.0, 0.14177599770387547
164.0, 0.188019218132198
165.0, 0.23974814553693286
166.0, 0.2745443390528705
167.0, 0.2539504188875495
168.0, 0.1911013432233543
169.0, 0.12222746305143778
170.0, 0.0815057130161039
171.0, 0.05945820940881626
172.0, 0.047089636846567674
173.0, 0.039738951424715466
174.0, 0.03134780061322411
175.0, 0.027365857500141446
176.0, 0.021716328540512465
177.0, 0.015014437008659252
178.0, 0.011168724257067041
179.0, 0.010897958012152096
180.0, 0.010694980957749055
181.0, 0.007981537401634915
182.0, 0.004156507928169321
183.0, 0.0048958672987545245
184.0, 0.003062507743419455
185.0, 0.0012590059448047831
186.0, 0.00026169748161852997
187.0, 0.0019512780900793596
188.0, 0.005859049288647391
189.0, 0.0078120361226214335
190.0, 0.007524833326332523
191.0, 0.005363940723686027
192.0, 0.0009759664908949768
193.0, 0.00036662244056182166
194.0, 0.0007827186682480945
195.0, 0.00270925905211098
196.0, 0.004860578834419826
197.0, 0.0033718653169706025
198.0, 0.0061883392776857045
199.0, 0.012365027275349563
200.0, 0.01598689834544401
201.0, 0.01641852906991338
202.0, 0.020239826696680317
203.0, 0.02608921268841389
204.0, 0.03257699544814289
205.0, 0.04080941349638131
206.0, 0.04496773352518341
207.0, 0.052189591677658104
208.0, 0.06409519899223089
209.0, 0.07683455065449343
210.0, 0.09155434770557108
211.0, 0.1027571017369411
212.0, 0.10506028240849868
213.0, 0.09634237067418122
214.0, 0.07704880951487443
215.0, 0.06814470685304189
216.0, 0.06404781912433477
217.0, 0.06399832861610455
218.0, 0.07348653417248927
219.0, 0.08581815375503013
220.0, 0.09269523449158962
221.0, 0.09315432764090942
222.0, 0.0884577392452498
223.0, 0.07543100801723997
224.0, 0.06086896138051677
225.0, 0.05340707872403639
226.0, 0.05164053949764624
227.0, 0.04901642863499927
228.0, 0.05116015006189217
229.0, 0.057634501622354596
230.0, 0.0653746883503554
231.0, 0.0728340274260154
232.0, 0.0844593229197319
233.0, 0.10195543391171842
234.0, 0.12882765273827124
235.0, 0.16618923681360137
236.0, 0.21039089842626135
237.0, 0.25384755614584403
238.0, 0.28868611429225366
239.0, 0.31176723112698046
240.0, 0.32031764358908404
241.0, 0.3121399125508731
242.0, 0.30985217339670906
243.0, 0.31315532520849165
244.0, 0.3221594917958731
245.0, 0.33823825505697475
246.0, 0.3520651832508125
247.0, 0.37765587509860155
248.0, 0.41601349284870287
249.0, 0.4637026671507762
250.0, 0.518580526949439
251.0, 0.5987224814023606
252.0, 0.6982329234407304
253.0, 0.8136233548908807
254.0, 0.9344022344780826
255.0, 0.9993144198463201
256.0, 0.9016676265618709
257.0, 0.6862527587807911
258.0, 0.43950166393077217
259.0, 0.26847595689232695
260.0, 0.16998067414881884
261.0, 0.11336270222405796
262.0, 0.0760694938103682
263.0, 0.048462122209275746
264.0, 0.034458785058504776
265.0, 0.028547492133860524
266.0, 0.025462466272847987
267.0, 0.02290557086295444
268.0, 0.02076666115844674
269.0, 0.018023439134001756
270.0, 0.02111106177825033
271.0, 0.024528830387839942
272.0, 0.026426041551854157
273.0, 0.03381014446522347
274.0, 0.04201399745294891
275.0, 0.04967831975397629
276.0, 0.05854430659718624
277.0, 0.07075009019678628
278.0, 0.08595865187654218
279.0, 0.10653608972721705
280.0, 0.13254962742938808
281.0, 0.16228590388265202
282.0, 0.19115794137603442
283.0, 0.19799202447062803
284.0, 0.17247187657144303
285.0, 0.1230806953847374
286.0, 0.06879869298651749
287.0, 0.03112463305659748
288.0, 0.008395728348948807
289.0, 0.003221140872432478
290.0, 0.006936387214699517
291.0, 0.00558991307147776
292.0, 0.003912198767221547
293.0, 0.0010561061149125257
294.0, 0.005605584671948777
295.0, 0.01102280150938929
296.0, 0.01720016553057005
297.0, 0.024250606003817045
298.0, 0.03347942837246661
299.0, 0.04387176613098972
300.0, 0.05326021851927286
301.0, 0.06014569619366644
302.0, 0.06746970617387837
303.0, 0.0740139450016858
304.0, 0.08219484503521729
305.0, 0.09299558884708795
306.0, 0.10184076881028221
307.0, 0.11857837470144487
308.0, 0.13621034464796294
309.0, 0.15574085829946427
310.0, 0.1820893928807666
311.0, 0.20925297537267984
312.0, 0.23972654104137528
313.0, 0.27325634175917507
314.0, 0.3082064444095863
315.0, 0.34057008427544505
316.0, 0.35437996478135975
317.0, 0.340929616087
318.0, 0.2957477603672264
319.0, 0.23127754660382904
320.0, 0.1719402121541388
321.0, 0.12551603228254338
322.0, 0.0952915208630654
323.0, 0.07805696537232082
324.0, 0.06982298062772149
325.0, 0.06571915631753916
326.0, 0.06582378090086238
327.0, 0.06900194842613527
328.0, 0.07292887580430746
329.0, 0.07698843127268018
330.0, 0.0838776752653405
331.0, 0.08041797581258531
332.0, 0.07019711638219255
333.0, 0.05545434070734785
334.0, 0.037787951560632055
335.0, 0.02577491669306034
336.0, 0.021212073465965788
337.0, 0.021697341395053343
338.0, 0.02533246992425077
339.0, 0.031094238219703065
340.0, 0.03819429425329969
341.0, 0.04436427704695471
342.0, 0.04808307480142346
343.0, 0.04637468942772317
344.0, 0.03660029766593993
345.0, 0.023141357781829273
346.0, 0.010859013022972798
347.0, 0.0034041005754875354
348.0, 0.0008232641026605152
349.0, 0.00444255288847256
350.0, 0.006747400733168355
351.0, 0.008830841026987847
352.0, 0.009313649522751948
353.0, 0.008471896613416784
354.0, 0.008598032849323077
355.0, 0.007517506094103911
356.0, 0.007064659859598106
357.0, 0.004481940882830272
358.0, 0.0019946008013136405
359.0, 0.009728809761610847
360.0, 0.01863578862558344
361.0, 0.029699302965456503
362.0, 0.04077689395989474
363.0, 0.051124542974860104
364.0, 0.06371531154778336
365.0, 0.07945229815230728
366.0, 0.09809040964130031
367.0, 0.11955190606211932
368.0, 0.14108701125147974
369.0, 0.15634699291895973
370.0, 0.1753785790589797
371.0, 0.19285490387814977
372.0, 0.21236200925113688
373.0, 0.23956739072395133
374.0, 0.2722584429414142
375.0, 0.30612124838764443
376.0, 0.33992073963568264
377.0, 0.3712333668254701
378.0, 0.39682265763379465
379.0, 0.41550110948711433
380.0, 0.4362370165825315
381.0, 0.4618271955994895
382.0, 0.49731742902309484
383.0, 0.5409202779032118
384.0, 0.5808987462921381
385.0, 0.5977067700308392
386.0, 0.5850183827894679
387.0, 0.5491783257009715
388.0, 0.5002952528394472
389.0, 0.45023060273760834
390.0, 0.4096834344967407
391.0, 0.37959314694302076
392.0, 0.35932733508185094
393.0, 0.3508612493978906
394.0, 0.35820724000018195
395.0, 0.3697525483693878
396.0, 0.3858958334073613
397.0, 0.4071858982360221
398.0, 0.43362627852045477
399.0, 0.4660267759287122
400.0, 0.5067124570726738
401.0, 0.5500758766705729
402.0, 0.5851021353622992
403.0, 0.5983813438361889
404.0, 0.5802338629199612
405.0, 0.5365542428674603
406.0, 0.48187482965150014
407.0, 0.4275101921802163
408.0, 0.38044566168870103
409.0, 0.3447608627809376
410.0, 0.33258580844660734
411.0, 0.3399190676974866
412.0, 0.355027534912827
413.0, 0.37845607457404257
414.0, 0.4160222041881041
415.0, 0.4644445265301976
416.0, 0.522752451630311
417.0, 0.5806402169146091
418.0, 0.6402346084343049
419.0, 0.6942926863566006
420.0, 0.7176890623539166
421.0, 0.7113323610181539
422.0, 0.6607588414381403
423.0, 0.5879093353930244
424.0, 0.5183630394593213
425.0, 0.4646201534878376
426.0, 0.42810437923552014
427.0, 0.4076611913739706
428.0, 0.3900798520990019
429.0, 0.37012676341155737
430.0, 0.3514712776900984
431.0, 0.3361026877110472
432.0, 0.31323532924451414
433.0, 0.2804009356970087
434.0, 0.23437608684937083
435.0, 0.1757548271679993
436.0, 0.12037340674409425
437.0, 0.07587657053280907
438.0, 0.04294521040766846
439.0, 0.017281306137344195
440.0, 0.003677904663411381
441.0, 0.008453044947616391
442.0, 0.013024689256732797
443.0, 0.015391791629983612
444.0, 0.013344553709061752
445.0, 0.007982978599597288
446.0, 0.005413964427403531
447.0, 0.004420407383782224
448.0, 0.013620920051957613
449.0, 0.022289681887111997
450.0, 0.033240426504146374
451.0, 0.048932956736880015
452.0, 0.07038215163966224
453.0, 0.09713034421266538
454.0, 0.12381122942681612
455.0, 0.1499215304608919
456.0, 0.17482281732345895
457.0, 0.19241284320808427
458.0, 0.20706260976259191
459.0, 0.21175232143334113
460.0, 0.2116660367299754
461.0, 0.2103372348372966
462.0, 0.20241175815694912
463.0, 0.17900550634278245
464.0, 0.1490671221367861
465.0, 0.11878783655974767
466.0, 0.09052561552623391
467.0, 0.06635288799788287
468.0, 0.05079888519697058
469.0, 0.04248809515251588
470.0, 0.03413600743883861
471.0, 0.023366599037825373
472.0, 0.013292523277554756
473.0, 0.0075257638828901356
474.0, 0.0006293750580399312
475.0, 0.0026122535622508988
476.0, 0.0009537424173524695
477.0, 0.0018786995251954474
478.0, 0.006809538055791635
479.0, 0.015955124527144954
480.0, 0.022898563192888823
481.0, 0.030149896429374722
482.0, 0.039637092389008706
483.0, 0.05180397221707811
484.0, 0.06596541725106055
485.0, 0.07436652243209033
486.0, 0.08444245816533942
487.0, 0.09225749730058713
488.0, 0.09568696062238102
489.0, 0.09813494653258453
490.0, 0.1032669207084724
491.0, 0.11091478125873575
492.0, 0.12350365559013154
493.0, 0.1438071846928168
494.0, 0.17015767638643176
495.0, 0.19680772574473238
496.0, 0.23711449593420963
497.0, 0.2769120456920524
498.0, 0.32089385815280475
499.0, 0.36531151116325217
500.0, 0.39712848724105154
501.0, 0.41270827270540605
502.0, 0.40080246104120604
503.0, 0.37030090138241084
504.0, 0.32950565178606434
505.0, 0.2851940435607085
506.0, 0.24181224919218108
507.0, 0.20323203620666938
508.0, 0.170701822832041
509.0, 0.14561929968048423
510.0, 0.12343071961990908
511.0, 0.09977858986637315
512.0, 0.07973083605086533
513.0, 0.06520752372757518
514.0, 0.05595373286008104
515.0, 0.05057477192004821
516.0, 0.047340540767458285
517.0, 0.04605478885615817
518.0, 0.04976456873674052
519.0, 0.05145098111826999
520.0, 0.05270689219422283
521.0, 0.053232857076317495
522.0, 0.05056023801516405
523.0, 0.04364644803432868
524.0, 0.03167838331798599
525.0, 0.021875882165018765
526.0, 0.013968411294744033
527.0, 0.005513389898236577
528.0, 0.003151801019495607
529.0, 0.004165577958407887
530.0, 0.007912346804362869
531.0, 0.004046028145449883
532.0, 0.0019343103869281532
533.0, 0.007173047318324834
534.0, 0.017522325747019077
535.0, 0.02708267600067201
536.0, 0.03852329661714618
537.0, 0.050523320396468396
538.0, 0.057140450867928835
539.0, 0.05832937276704969
540.0, 0.06073281145570661
541.0, 0.06202180773824295
542.0, 0.0572811113333398
543.0, 0.05161720564183836
544.0, 0.05054736992819465
545.0, 0.05575925647141022
546.0, 0.06287963215103197
547.0, 0.06940855008218323
548.0, 0.08035654851675345
549.0, 0.09295735114964779
550.0, 0.10715246932801926
551.0, 0.1222093789216426
552.0, 0.1321896382863653
553.0, 0.13821777176601793
554.0, 0.14065912635426445
555.0, 0.13808414295695093
556.0, 0.13044773249192002
557.0, 0.1181215657638239
558.0, 0.10124444639458209
559.0, 0.09306387412688161
560.0, 0.08865370356985916
561.0, 0.08733855503213928
562.0, 0.09019413384531663
563.0, 0.09682982356796438
564.0, 0.10733966855676545
565.0, 0.11681647342564137
566.0, 0.13434689104656097
567.0, 0.1536909081432942
568.0, 0.17383570047476765
569.0, 0.19917263330553797
570.0, 0.22490993786216987
571.0, 0.2503333626156278
572.0, 0.2765319057461257
573.0, 0.30077993976166817
574.0, 0.32109018906533066
575.0, 0.33432957821159276
576.0, 0.3337017152196692
577.0, 0.3290744682842297
578.0, 0.31516490429746175
579.0, 0.2901980408412183
580.0, 0.25586742386596656
581.0, 0.21661746477447716
582.0, 0.17902899473494926
583.0, 0.14059429007055474
584.0, 0.10723308681706922
585.0, 0.08098035141311064
586.0, 0.05980720338689111
587.0, 0.04173749971998221
588.0, 0.02794757204227141
589.0, 0.016277440144992095
590.0, 0.006744465360055348
591.0, 0.0021269873784084945
592.0, 0.0005363699170224059
593.0, 0.005290722603255329
594.0, 0.010373011435613224
595.0, 0.010577080540276066
596.0, 0.009116038330354254
597.0, 0.009399050797324088
598.0, 0.008799463707160171
599.0, 0.004123979545693042
600.0, 0.0008698205813600135
601.0, 0.0038830622221595187
602.0, 0.009455639881569756
603.0, 0.01735455371620693
604.0, 0.026866322293119693
605.0, 0.03752668793207831
606.0, 0.049956493897527585
607.0, 0.061566958719073216
608.0, 0.07533819261593043
609.0, 0.09181519826478415
610.0, 0.11226442657704924
611.0, 0.13486395315947453
612.0, 0.1547742911797537
613.0, 0.17947102185444863
614.0, 0.20388464930480876
615.0, 0.22795208323942462
616.0, 0.25588184199200537
617.0, 0.28575147498265796
618.0, 0.3139363299577861
619.0, 0.3472038656283152
620.0, 0.38155158657049987
621.0, 0.41680092573114214
622.0, 0.45199283418570546
623.0, 0.48774379984431543
624.0, 0.5250066961800385
625.0, 0.558973850722526
626.0, 0.5874520472358916
627.0, 0.6116487758892266
628.0, 0.6282960516389208
629.0, 0.6358894018098523
630.0, 0.6372909237626712
631.0, 0.6339356051770787
632.0, 0.6160190037156907
633.0, 0.5898267784982602
634.0, 0.5587400476664062
635.0, 0.520115603055014
636.0, 0.4734397666089662
637.0, 0.4260295386787649
638.0, 0.38485641160164286
639.0, 0.34211645301111276
640.0, 0.30272752993098495
641.0, 0.26973173489494534
642.0, 0.2395997051111625
643.0, 0.20922111671524002
644.0, 0.18135947639021377
645.0, 0.15596719988407096
646.0, 0.132620236299707
647.0, 0.11287808232742345
648.0, 0.09539575670726588
649.0, 0.07922564828449986
650.0, 0.066002871068845
651.0, 0.0552704084281511
652.0, 0.04527402906561328
653.0, 0.036626820705647066
654.0, 0.030881176315424436
655.0, 0.02646823645976448
656.0, 0.02152990683150496
657.0, 0.01717037275149518
658.0, 0.014155296927248248
659.0, 0.013919135722258147
660.0, 0.01425311637489119
661.0, 0.013560312019659817
662.0, 0.013588361926101647
663.0, 0.01682423499013645
664.0, 0.017521054351156834
665.0, 0.020462584452134995
666.0, 0.023600326796843502
667.0, 0.02590596175998669
668.0, 0.029570696480654555
669.0, 0.03433933391108183
670.0, 0.036165105762667404
671.0, 0.04007874413178329
672.0, 0.0437595028680421
673.0, 0.04707136961964174
674.0, 0.05164723777494443
675.0, 0.05562950787109318
676.0, 0.0557515186163058
677.0, 0.053070276507751736
678.0, 0.05022762808934315
679.0, 0.047436562981931614
680.0, 0.0451376791011561
681.0, 0.041015953553462166
682.0, 0.034761803631784306
683.0, 0.029014797337513533
684.0, 0.02434786619230156
685.0, 0.02085513862512695
686.0, 0.016820187412033734
687.0, 0.012458465578629015
688.0, 0.010585302898687046
689.0, 0.010386559576336264
690.0, 0.008345149204233524
691.0, 0.007183568071262925
692.0, 0.004714090406587725
693.0, 0.003916568506614988
694.0, 0.0024385569960303755
695.0, 0.0007703322507595662
696.0, 0.001776246442929033
697.0, 0.002998860604166316
698.0, 0.002641517506013563
699.0, 0.0014087942081535436
700.0, 0.0013703644553965863
701.0, 0.00015262906045585532
702.0, 0.001295103255173895
703.0, 0.001052314206414247
704.0, 0.00013299327233101194
705.0, 0.0012241547235433007
706.0, 0.0021962590582126217
707.0, 0.0009788958209880141
708.0, 0.0010636989138915393
709.0, 0.0003458978631395131
710.0, 0.0017586440587170793
711.0, 0.0017396758982907764
712.0, 0.0004751611921528519
713.0, 0.0009610394130513288
714.0, 0.0005946540704393618
715.0, 7.854458113038192e-05
716.0, 8.228731260472496e-05
717.0, 0.0006066982357505186
718.0, 0.00037213433639933925
719.0, 0.0019125313050122035
720.0, 0.0011063602673847457
721.0, 0.0012374105221716154
722.0, 0.0024901335126994812
723.0, 0.0025586280519226522
724.0, 0.0013304598725203658
725.0, 0.0014147990587165943
726.0, 0.0002547407840729111
727.0, 0.002720682706509835
728.0, 0.0018243210421684522
729.0, 0.001692024638112349
730.0, 0.005451889894311051
731.0, 0.008599996236157856
732.0, 0.008233353537989454
733.0, 0.010776423238738337
734.0, 0.01167314103575233
735.0, 0.01250441460271584
736.0, 0.01278857746533783
737.0, 0.012471092652472088
738.0, 0.014022156107704667
739.0, 0.017867910055288667
740.0, 0.01923088914020467
741.0, 0.017681334461601052
742.0, 0.0201183121668971
743.0, 0.02265368721509032
744.0, 0.0246863875268541
745.0, 0.026448980168229667
746.0, 0.025970393150733333
747.0, 0.028305844056555274
748.0, 0.02891415456334505
749.0, 0.028330823358765928
750.0, 0.030671335053075656
751.0, 0.032436753502991196
752.0, 0.03254212843237059
753.0, 0.033973765378441705
754.0, 0.03310750034212393
755.0, 0.027899606285665953
756.0, 0.025027850890822836
757.0, 0.02310516382567552
758.0, 0.021970913577193153
759.0, 0.018432826550018242
760.0, 0.013263696469720053
761.0, 0.01412782503604457
762.0, 0.011121980637737195
763.0, 0.00999580466256262
764.0, 0.007901566428532712
765.0, 0.007537932295779223
766.0, 0.008585444813063814
767.0, 0.00945565069470268
768.0, 0.009865277528018867
769.0, 0.010463828049856922
770.0, 0.011619702794400992
771.0, 0.01324994610576834
772.0, 0.0148619123995436
773.0, 0.014798241826004921
774.0, 0.013232764430857214
775.0, 0.012000211997453023
776.0, 0.011116479763888949
777.0, 0.008541242619343066
778.0, 0.010257760973806965
779.0, 0.008015005497609784
780.0, 0.005788626287640073
781.0, 0.004555811341322896
782.0, 0.002235337112962984
783.0, 0.0004896052481103376
784.0, 0.002872804087318392
785.0, 0.0052649487449054205
786.0, 0.0035187459895398526
787.0, 0.0064154754255892465
788.0, 0.007449696892708688
789.0, 0.005433203915112242
790.0, 0.005318438643821837
791.0, 0.00447440673177671
792.0, 0.003303892296293697
793.0, 0.003821194461072313
794.0, 0.0027800384701274477
795.0, 0.0038064378907359912
796.0, 0.003377222938448241
797.0, 0.0006359750157536909
798.0, 0.0012986392517426986
799.0, 0.0011089954306246395
800.0, 0.0035599740073340856
801.0, 0.003377136325654533
802.0, 0.0024124189433741457
803.0, 0.0024202076829909274
804.0, 0.0028703689042158045
805.0, 0.004007749922476213
806.0, 0.004697647090430372
807.0, 0.00277487773732192
808.0, 0.003266167128841265
809.0, 0.005346552729007044
810.0, 0.0070053794430942765
811.0, 0.006033530158581187
812.0, 0.0049660682098275856
813.0, 0.005619563193848071
814.0, 0.006598755454867692
815.0, 0.00703709177004377
816.0, 0.007837810605579499
817.0, 0.00938824117751298
818.0, 0.01155187751375126
819.0, 0.010900679439675376
820.0, 0.012216623602541804
821.0, 0.017024436958638887
822.0, 0.021070203456383184
823.0, 0.023157392088292705
824.0, 0.02978960694020638
825.0, 0.032520694219240635
826.0, 0.03795658456784244
827.0, 0.04060303241415091
828.0, 0.04571251329542505
829.0, 0.05227728261995153
830.0, 0.056967622341117
831.0, 0.06380842124645505
832.0, 0.06777987995306435
833.0, 0.07381666740876086
834.0, 0.07671774464901575
835.0, 0.08594815559092192
836.0, 0.09041379848683365
837.0, 0.09369492642635043
838.0, 0.10064921962181157
839.0, 0.10605800469360284
840.0, 0.11623750137733574
841.0, 0.12885017604931168
842.0, 0.1396963635745434
843.0, 0.15249996548138933
844.0, 0.16566391793091784
845.0, 0.18111647471838774
846.0, 0.1994653912586595
847.0, 0.218163177445662
848.0, 0.24110930434884073
849.0, 0.26678391239445914
850.0, 0.29397759660210543
851.0, 0.32617955812427923
852.0, 0.3621168920506256
853.0, 0.3969407822745586
854.0, 0.430609041600265
855.0, 0.46769331747113757
856.0, 0.5095258984366617
857.0, 0.5533999431952454
858.0, 0.5957873488518374
859.0, 0.6397140468207907
860.0, 0.6760171918036558
861.0, 0.712535314811629
862.0, 0.7479011887571422
863.0, 0.7750192950621685
864.0, 0.796945317527945
865.0, 0.817123345506953
866.0, 0.8142770141567515
867.0, 0.8128618335407649
868.0, 0.8029187804082604
869.0, 0.7820280299595544
870.0, 0.7548021540232255
871.0, 0.725907689687858
872.0, 0.6938293814608433
873.0, 0.6573749161378412
874.0, 0.6254239244820344
875.0, 0.5839241240241675
876.0, 0.5478980575740646
877.0, 0.5080227860614077
878.0, 0.47004832413664194
879.0, 0.43610341575558814
880.0, 0.40203663533176465
881.0, 0.3684306975350766
882.0, 0.34062559398515185
883.0, 0.317314526253637
884.0, 0.2932693078283967
885.0, 0.27116025176404723
886.0, 0.2548408064049954
887.0, 0.23762220039415743
888.0, 0.2203901183243315
889.0, 0.20533492194084002
890.0, 0.19327986427946414
891.0, 0.18625923784611143
892.0, 0.17587781177233502
893.0, 0.1717711438989537
894.0, 0.16739315596243218
895.0, 0.16854730059005427
896.0, 0.16955556029352642
897.0, 0.16864375701996084
898.0, 0.17047617410312924
899.0, 0.17553920138466764
900.0, 0.17919916176426443
901.0, 0.17799779970602395
902.0, 0.1777452104300983
903.0, 0.16679789511302884
904.0, 0.15006234298576357
905.0, 0.1339178058084955
906.0, 0.12059998482375975
907.0, 0.10557756697994393
908.0, 0.08922750259616903
909.0, 0.0774389899629133
910.0, 0.06523385126002802
911.0, 0.05280009119815749
912.0, 0.04549001018556595
913.0, 0.04169378382993522
914.0, 0.03529604290832964
915.0, 0.030252620600796015
916.0, 0.028278915986998835
917.0, 0.026516235151332095
918.0, 0.024721773185729486
919.0, 0.02372023574023738
920.0, 0.018226603239960715
921.0, 0.019995463088392156
922.0, 0.018026105343689907
923.0, 0.01561040207918267
924.0, 0.01657217597269422
925.0, 0.017416557531661537
926.0, 0.018557969309927466
927.0, 0.01967421743973887
928.0, 0.019063551811744947
929.0, 0.022018710405705903
930.0, 0.023445138421013687
931.0, 0.025954528077368144
932.0, 0.03256280440264826
933.0, 0.033756296974631485
934.0, 0.031957471854408774
935.0, 0.03415910966648035
936.0, 0.03815922108207841
937.0, 0.04074120225771228
938.0, 0.04464934344685901
939.0, 0.044619593924327794
940.0, 0.04605989247259649
941.0, 0.04929341587328162
942.0, 0.049458377794503655
943.0, 0.04695319791014367
944.0, 0.04295090521795744
945.0, 0.038310528284540867
946.0, 0.033431723428859986
947.0, 0.027051568649314663
948.0, 0.018965231335746947
949.0, 0.01614131669304414
950.0, 0.01387979771796782
951.0, 0.009087684488719995
952.0, 0.0063180667057430515
953.0, 0.004243652700783014
954.0, 0.0027012290156290275
955.0, 0.002353453622191166
956.0, 0.00023291037678260145
957.0, 0.00495777148521964
958.0, 0.004829247407770206
959.0, 0.005792020723194742
960.0, 0.0041001292956706235
961.0, 0.003443330907915993
962.0, 0.0037540510662843604
963.0, 0.0038009250213469755
964.0, 0.0032069609170934633
965.0, 0.003350449404710476
966.0, 0.00428704994388734
967.0, 0.0031689450167542536
968.0, 0.00029867956497551276
969.0, 0.0005783879435377387
970.0, 0.0012934661522368053
971.0, 0.0025447468460696072
972.0, 0.0003130466812296784
973.0, 0.00016261802060977353
974.0, 0.0005161777509820865
975.0, 0.0013872819827849949
976.0, 0.0010096795808879743
977.0, 0.00032652335765724025
978.0, 0.00025815282333015746
979.0, 0.0007616553607123654
980.0, 0.0014108924654762545
981.0, 0.0006763441618606659
982.0, 0.00043867984081999927
983.0, 0.00020328251540175157
984.0, 0.0017739648900912677
985.0, 0.0019077679444146076
986.0, 0.001951361936560278
987.0, 0.0033150915595083945
988.0, 0.002828081872094912
989.0, 0.0022978727234389505
990.0, 0.0041588941789285775
991.0, 0.003587601251941558
992.0, 0.004001771957419387
993.0, 0.005181443773635118
994.0, 0.0034275874328367176
995.0, 0.0037579612613839117
996.0, 0.005628685420455335
997.0, 0.007301839508749987
998.0, 0.005891459759171507
999.0, 0.004097339629963333
1000.0, 0.007244749614218186
1001.0, 0.008286452008474908
1002.0, 0.007019845247810342
1003.0, 0.007846594626530605
1004.0, 0.008987223370793522
1005.0, 0.007530175554555248
1006.0, 0.0078111875427052824
1007.0, 0.007684432581736183
1008.0, 0.008395278189058214
1009.0, 0.009159057345276977
1010.0, 0.00889132739927024
1011.0, 0.009540034898867802
1012.0, 0.00931911493092611
1013.0, 0.010630130485142043
1014.0, 0.011181089757542475
1015.0, 0.012710950424363031
1016.0, 0.011560948261287776
1017.0, 0.011923999332302046
1018.0, 0.012271018264264457
1019.0, 0.010718241888311872
1020.0, 0.010232340321052833
1021.0, 0.010955584783364433
1022.0, 0.01064161438667607
1023.0, 0.009470146599965899
1024.0, 0.008583705171936564
1025.0, 0.01304539475672017
1026.0, 0.011341204073754397
1027.0, 0.011998786898951074
1028.0, 0.009640135889510949
1029.0, 0.008189307738440505
1030.0, 0.008994593021666929
1031.0, 0.009268573909754276
1032.0, 0.008922469970430523
1033.0, 0.008146018340811334
1034.0, 0.006718075974177115
1035.0, 0.00796219215398673
1036.0, 0.008066438467891445
1037.0, 0.00974257385560786
1038.0, 0.010863396048014035
1039.0, 0.008013981760572055
1040.0, 0.009296685569898272
1041.0, 0.009044791466204358
1042.0, 0.008413766823224918
1043.0, 0.009118126297484841
1044.0, 0.009028204175929236
1045.0, 0.008248482100585633
1046.0, 0.008680387308051369
1047.0, 0.008384496364775753
1048.0, 0.0075181934398598155
1049.0, 0.00789236244501979
1050.0, 0.006728975793253374
1051.0, 0.006501980855899197
1052.0, 0.007218117492033892
1053.0, 0.005949071084988943
1054.0, 0.005723137996221765
1055.0, 0.006680406567106435
1056.0, 0.007550227530180862
1057.0, 0.006592208664436645
1058.0, 0.0051440536238728995
1059.0, 0.00620467588957582
1060.0, 0.006633411169971422
1061.0, 0.005738287398725404
1062.0, 0.00656903633676335
1063.0, 0.005409496726407878
1064.0, 0.00587792507003695
1065.0, 0.004568124358984738
1066.0, 0.005442758976724079
1067.0, 0.006428660203889905
1068.0, 0.0057263246740685515
1069.0, 0.004658774527793017
1070.0, 0.005097998357568284
1071.0, 0.0058758468150179885
1072.0, 0.004763739051192831
1073.0, 0.00423471019240147
1074.0, 0.004364851133274813
1075.0, 0.0034055419679312787
1076.0, 0.004252087926808159
1077.0, 0.003542102654494164
1078.0, 0.003358658164275029
1079.0, 0.0034397570121855025
1080.0, 0.004417601722267103
1081.0, 0.00365274715498503
1082.0, 0.0032696975904828876
1083.0, 0.0043640947614186085
1084.0, 0.004301108751742182
1085.0, 0.0035090014263422123
1086.0, 0.003887091806534328
1087.0, 0.00392385245789431
1088.0, 0.0023017042962925715
1089.0, 0.0032254234151076634
1090.0, 0.00344511724955427
1091.0, 0.0038833591933047163
1092.0, 0.0031479546830255616
1093.0, 0.0019207262613094276
1094.0, 0.0027504250082087556
1095.0, 0.0028499537688076743
1096.0, 0.0023731390571321807
1097.0, 0.002632786514054354
1098.0, 0.00294439370499978
1099.0, 0.003490114017334519
1100.0, 0.002807179128006355
1101.0, 0.0007098273336200642
1102.0, 0.0021529031328447173
1103.0, 0.0021316423892617105
1104.0, 0.000769401592922332
1105.0, 0.0017936742448360567
1106.0, 0.002507883363351215
1107.0, 0.003386475486542701
1108.0, 0.00205452848257241
1109.0, 0.0021813550506633817
1110.0, 0.0023069244540663554
1111.0, 0.0012958041538207422
1112.0, 0.0018021391488425066
1113.0, 0.002232257451027936
1114.0, 0.0011685905378319842
1115.0, 0.0017326789487104874
1116.0, 0.002641301666966501
1117.0, 0.0014962138055555772
1118.0, 0.0015418437974779977
1119.0, 0.0024817263047477466
1120.0, 0.0005085786484913641
1121.0, 0.0020280394367279304
1122.0, 0.0015254322764225868
1123.0, 0.0026124061840212837
1124.0, 0.002918499159196023
1125.0, 0.0027683015239319893
1126.0, 0.0018307109987179464
1127.0, 0.00034166617856648546
1128.0, 0.000226739692545136
1129.0, 0.0004692370772885058
1130.0, 0.0019264198097484419
1131.0, 0.0010811967116299928
1132.0, 0.000258054513780615
1133.0, 0.00036068386579592415
1134.0, 0.0005370559177781906
1135.0, 0.0011261173886218142
1136.0, 0.0016719727986999218
1137.0, 0.001955449809887454
1138.0, 0.0013108366899194587
1139.0, 0.0005916331362949017
1140.0, 0.00017538723173389807
1141.0, 0.00044927150630510543
1142.0, 0.00113199205256052
1143.0, 0.00040212674287797956
1144.0, 0.00027295041164761806
1145.0, 0.0007015146755450521
1146.0, 0.0002399690642792322
1147.0, 0.0005021360562540397
1148.0, 0.0015237934655075462
1149.0, 0.0007276588167621407
1150.0, 0.0009067576545051717
1151.0, 0.00016547247155852574
1152.0, 0.0002579751409857773
1153.0, 0.0009194063717496416
1154.0, 0.001426163870753934
1155.0, 0.001928158604748492
1156.0, 0.0019357658531654709
1157.0, 0.0013512611645550019
1158.0, 0.0008890576530658527
1159.0, 8.054433570736403e-05
1160.0, 0.001195791722589491
1161.0, 0.004979062493373223
1162.0, 0.0015422756372609984
1163.0, 0.0002478871409830149
1164.0, 0.0006102940669642219
1165.0, 0.0026786080301881747
1166.0, 0.0021479308977623147
1167.0, 0.0009935584892158836
1168.0, 0.001248713169504638
1169.0, 0.0017916059507217738
1170.0, 0.002401236733706063
1171.0, 0.0024625357444642165
1172.0, 0.0019012954918085226
1173.0, 0.0011778500369685394
1174.0, 0.0017012667930173962
1175.0, 0.002133718245714743
1176.0, 0.0017310560713245217
1177.0, 0.00258052447678974
1178.0, 0.0030640757702018132
1179.0, 0.0018026995969411357
1180.0, 0.0015815426206276639
1181.0, 0.003998374846075756
1182.0, 0.0023484450816210153
1183.0, 0.0018215806470907895
1184.0, 0.002930586556092036
1185.0, 0.002409131301425682
1186.0, 0.0033304505223202665
1187.0, 0.002622984726362429
1188.0, 0.0034719681877443155
1189.0, 0.003669478183463168
1190.0, 0.0029159810066690293
1191.0, 0.0017810167393811633
1192.0, 0.001907855647350837
1193.0, 0.0022167107122629363
1194.0, 0.0010298701289803301
1195.0, 0.0022631572072944832
1196.0, 0.0031177031356398456
1197.0, 0.0020857994567630277
1198.0, 0.0014546689964283382
1199.0, 0.0030665010481113644
1200.0, 0.002829651443937385
1201.0, 0.0006952898536442525
1202.0, 0.00035599435253780157
1203.0, 0.0029634096773165034
1204.0, 0.0014793307578309645
1205.0, 0.0015999579851895664
1206.0, 0.000846618759762304
1207.0, 0.0028321119486622386
1208.0, 0.0024364044767394167
1209.0, 0.0031130160695875477
1210.0, 0.0015773220630086538
1211.0, 0.001482245339810452
1212.0, 0.0011236849547311958
1213.0, 0.0016244031144077645
1214.0, 0.0009071457855221751
1215.0, 0.0008176350193968499
1216.0, 0.0024827962245789668
1217.0, 0.0010491869008392206
1218.0, 0.0002799548755960605
1219.0, 0.0009338954885806098
1220.0, 0.002532141751495574
1221.0, 0.0018084141951030016
1222.0, 0.0001623141591590661
1223.0, 0.0006730777191183383
1224.0, 0.0006883640665688708
1225.0, 0.0013901888978126557
1226.0, 0.0014431229113089862
1227.0, 0.002956547766348979
1228.0, 0.0003784457737400608
1229.0, 0.0022867530539387284
1230.0, 0.00193163292575845
1231.0, 0.0030097931763652134
1232.0, 0.001674175888936838
1233.0, 0.0021890999745122625
1234.0, 0.002765600195993509
1235.0, 0.0016358729324149899
1236.0, 0.0023922879413524785
1237.0, 0.003201729397996344
1238.0, 0.0026793199591915017
1239.0, 0.0027337813160697457
1240.0, 0.0022633098929201075
1241.0, 0.0017768916346008908
1242.0, 0.0021527553257817125
1243.0, 0.0015095167434881849
1244.0, 0.00212729988822661
1245.0, 0.0018525676361408783
1246.0, 0.0009581686627488611
1247.0, 0.0004279461634769905
1248.0, 0.0018494870101623143
1249.0, 0.0032306476427784994
1250.0, 0.0018321197964189242
1251.0, 0.00045303940361816745
1252.0, 0.0020214616291973405
1253.0, 0.002623747780276294
1254.0, 0.0019070202495894313
1255.0, 0.0019854867262261156
1256.0, 0.00021355293531325647
1257.0, 0.001002540650345862
1258.0, 0.0015514209736265962
1259.0, 0.0007910665410050389
1260.0, 0.0008677525094289755
1261.0, 0.0004445308661490692
1262.0, 0.00043747927262797917
1263.0, 0.0004796504236652204
1264.0, 0.0007449200066251039
1265.0, 0.0011726162154870297
1266.0, 0.0013677965266079561
1267.0, 0.003246814081465678
1268.0, 0.0025273708336014337
1269.0, 0.0004140465023984326
1270.0, 0.000721330255752079
1271.0, 0.0007783422703405545
1272.0, 0.0005037065318363684
1273.0, 0.0012986265183661297
1274.0, 8.341664031614208e-05
1275.0, 0.0008428473369895954
1276.0, 0.0012100407617460023
1277.0, 0.0004508880301293349
1278.0, 1.4889307401095665e-05
1279.0, 0.0018772241526050653
1280.0, 0.0011422812276821789
1281.0, 0.0027840796976982027
1282.0, 0.0013535880587563585
1283.0, 0.00015628752464368387
1284.0, 0.0015802886185761254
1285.0, 0.002745400292956837
1286.0, 0.0009619214244903831
1287, 0.0
1288, 0.0
1289, 0.0
1290, 0.0
1291, 0.0
1292, 0.0
1293, 0.0
1294, 0.0
1295, 0.0
1296, 0.0
1297, 0.0
1298, 0.0
1299, 0.0
1300, 0.0
1301, 0.0
1302, 0.0
1303, 0.0
1304, 0.0
1305, 0.0
1306, 0.0
1307, 0.0
1308, 0.0
1309, 0.0
1310, 0.0
1311, 0.0
1312, 0.0
1313, 0.0
1314, 0.0
1315, 0.0
1316, 0.0
1317, 0.0
1318, 0.0
1319, 0.0
1320, 0.0
1321, 0.0
1322, 0.0
1323, 0.0
1324, 0.0
1325, 0.0
1326, 0.0
1327, 0.0
1328, 0.0
1329, 0.0
1330, 0.0
1331, 0.0
1332, 0.0
1333, 0.0
1334, 0.0
1335, 0.0
1336, 0.0
1337, 0.0
1338, 0.0
1339, 0.0
1340, 0.0
1341, 0.0
1342, 0.0
1343, 0.0
1344, 0.0
1345, 0.0
1346, 0.0
1347, 0.0
1348, 0.0
1349, 0.0
1350, 0.0
1351, 0.0
1352, 0.0
1353, 0.0
1354, 0.0
1355, 0.0
1356, 0.0
1357, 0.0
1358, 0.0
1359, 0.0
1360, 0.0
1361, 0.0
1362, 0.0
1363, 0.0
1364, 0.0
1365, 0.0
1366, 0.0
1367, 0.0
1368, 0.0
1369, 0.0
1370, 0.0
1371, 0.0
1372, 0.0
1373, 0.0
1374, 0.0
1375, 0.0
1376, 0.0
1377, 0.0
1378, 0.0
1379, 0.0
1380, 0.0
1381, 0.0
1382, 0.0
1383, 0.0
1384, 0.0
1385, 0.0
1386, 0.0
1387, 0.0
1388, 0.0
1389, 0.0
1390, 0.0
1391, 0.0
1392, 0.0
1393, 0.0
1394, 0.0
1395, 0.0
1396, 0.0
1397, 0.0
1398, 0.0
1399, 0.0
1400, 0.0
1401, 0.0
1402, 0.0
1403, 0.0
1404, 0.0
1405, 0.0
1406, 0.0
1407, 0.0
1408, 0.0
1409, 0.0
1410, 0.0
1411, 0.0
1412, 0.0
1413, 0.0
1414, 0.0
1415, 0.0
1416, 0.0
1417, 0.0
1418, 0.0
1419, 0.0
1420, 0.0
1421, 0.0
1422, 0.0
1423, 0.0
1424, 0.0
1425, 0.0
1426, 0.0
1427, 0.0
1428, 0.0
1429, 0.0
1430, 0.0
1431, 0.0
1432, 0.0
1433, 0.0
1434, 0.0
1435, 0.0
1436, 0.0
1437, 0.0
1438, 0.0
1439, 0.0
1440, 0.0
1441, 0.0
1442, 0.0
1443, 0.0
1444, 0.0
1445, 0.0
1446, 0.0
1447, 0.0
1448, 0.0
1449, 0.0
1450, 0.0
1451, 0.0
1452, 0.0
1453, 0.0
1454, 0.0
1455, 0.0
1456, 0.0
1457, 0.0
1458, 0.0
1459, 0.0
1460, 0.0
1461, 0.0
1462, 0.0
1463, 0.0
1464, 0.0
1465, 0.0
1466, 0.0
1467, 0.0
1468, 0.0
1469, 0.0
1470, 0.0
1471, 0.0
1472, 0.0
1473, 0.0
1474, 0.0
1475, 0.0
1476, 0.0
1477, 0.0
1478, 0.0
1479, 0.0
1480, 0.0
1481, 0.0
1482, 0.0
1483, 0.0
1484, 0.0
1485, 0.0
1486, 0.0
1487, 0.0
1488, 0.0
1489, 0.0
1490, 0.0
1491, 0.0
1492, 0.0
1493, 0.0
1494, 0.0
1495, 0.0
1496, 0.0
1497, 0.0
1498, 0.0
1499, 0.0
1500, 0.0
1501, 0.0
1502, 0.0
1503, 0.0
1504, 0.0
1505, 0.0
1506, 0.0
1507, 0.0
1508, 0.0
1509, 0.0
1510, 0.0
1511, 0.0
1512, 0.0
1513, 0.0
1514, 0.0
1515, 0.0
1516, 0.0
1517, 0.0
1518, 0.0
1519, 0.0
1520, 0.0
1521, 0.0
1522, 0.0
1523, 0.0
1524, 0.0
1525, 0.0
1526, 0.0
1527, 0.0
1528, 0.0
1529, 0.0
1530, 0.0
1531, 0.0
1532, 0.0
1533, 0.0
1534, 0.0
1535, 0.0
1536, 0.0
1537, 0.0
1538, 0.0
1539, 0.0
1540, 0.0
1541, 0.0
1542, 0.0
1543, 0.0
1544, 0.0
1545, 0.0
1546, 0.0
1547, 0.0
1548, 0.0
1549, 0.0
1550, 0.0
1551, 0.0
1552, 0.0
1553, 0.0
1554, 0.0
1555, 0.0
1556, 0.0
1557, 0.0
1558, 0.0
1559, 0.0
1560, 0.0
1561, 0.0
1562, 0.0
1563, 0.0
1564, 0.0
1565, 0.0
1566, 0.0
1567, 0.0
1568, 0.0
1569, 0.0
1570, 0.0
1571, 0.0
1572, 0.0
1573, 0.0
1574, 0.0
1575, 0.0
1576, 0.0
1577, 0.0
1578, 0.0
1579, 0.0
1580, 0.0
1581, 0.0
1582, 0.0
1583, 0.0
1584, 0.0
1585, 0.0
1586, 0.0
1587, 0.0
1588, 0.0
1589, 0.0
1590, 0.0
1591, 0.0
1592, 0.0
1593, 0.0
1594, 0.0
1595, 0.0
1596, 0.0
1597, 0.0
1598, 0.0
1599, 0.0
