30, 0.0
31, 0.0
32, 0.0
33, 0.0
34, 0.0
35, 0.0
36, 0.0
37, 0.0
38, 0.0
39, 0.0
40, 0.0
41, 0.0
42, 0.0
43, 0.0
44, 0.0
45, 0.0
46, 0.0
47, 0.0
48, 0.0
49, 0.0
50, 0.0
51, 0.0
52, 0.0
53, 0.0
54, 0.0
55, 0.0
56, 0.0
57, 0.0
58, 0.0
59, 0.0
60, 0.0
61, 0.0
62, 0.0
63, 0.0
64, 0.0
65, 0.0
66, 0.0
67, 0.0
68, 0.0
69, 0.0
70, 0.0
71, 0.0
72, 0.0
73, 0.0
74, 0.0
75, 0.0
76, 0.0
77, 0.0
78, 0.0
79, 0.0
80, 0.0
81, 0.0
82, 0.0
83, 0.0
84, 0.0
85, 0.0
86, 0.0
87, 0.0
88, 0.0
89, 0.0
90, 0.0
91, 0.0
92, 0.0
93, 0.0
94, 0.0
95, 0.0
96, 0.0
97, 0.0
98, 0.0
99, 0.0
100, 0.0
101, 0.0
102, 0.0
103, 0.0
104, 0.0
105, 0.0
106, 0.0
107, 0.0
108, 0.0
109, 0.0
110, 0.0
111, 0.0
112, 0.0
113, 0.0
114, 0.0
115, 0.0
116, 0.0
117, 0.0
118, 0.0
119, 0.0
120, 0.0
121, 0.0
122, 0.0
123, 0.0
124, 0.0
125, 0.0
126, 0.0
127, 0.0
128, 0.0
129, 0.0
130, 0.0
131, 0.0
132, 0.0
133, 0.0
134, 0.0
135, 0.0
136, 0.0
137, 0.0
138, 0.0
139, 0.0
140, 0.0
141, 0.0
142, 0.0
143, 0.0
144, 0.0
145, 0.0
146, 0.0
147, 0.0
148, 0.0
149, 0.0
150, 0.0
151, 0.0
152, 0.0
153, 0.0
154, 0.0
155, 0.0
156, 0.0
157, 0.0
158, 0.0
159, 0.0
160, 0.0
161, 0.0
162, 0.0
163, 0.0
164.0, 0.002716538908770985
165.0, 0.011172916243050564
166.0, 0.022494817607293206
167.0, 0.033079443455990655
168.0, 0.03928049392362919
169.0, 0.04411519147906692
170.0, 0.04705259952578231
171.0, 0.046240827026912415
172.0, 0.03986227255893807
173.0, 0.03398555507180346
174.0, 0.02844473516834098
175.0, 0.024850305698999514
176.0, 0.025502027484091267
177.0, 0.025052719205824456
178.0, 0.028404858241752515
179.0, 0.03659438053418312
180.0, 0.04703598991522555
181.0, 0.054810711372453136
182.0, 0.06581352640033752
183.0, 0.07988502996185783
184.0, 0.09365796006841205
185.0, 0.10164990706667422
186.0, 0.10826288973337518
187.0, 0.1113079065321248
188.0, 0.1135066735425333
189.0, 0.12087298345347212
190.0, 0.12844784010586066
191.0, 0.13279202815419708
192.0, 0.1351821022721246
193.0, 0.13827850726022478
194.0, 0.14313753133517815
195.0, 0.14194295702018975
196.0, 0.13414731216035908
197.0, 0.12244602583030169
198.0, 0.11095093546206958
199.0, 0.08996100907641182
200.0, 0.07305928741920104
201.0, 0.06443975292416396
202.0, 0.05836937087591386
203.0, 0.05748790486555585
204.0, 0.05826116067584445
205.0, 0.059148251300754885
206.0, 0.0644719567300653
207.0, 0.06696135461658553
208.0, 0.07103558644415156
209.0, 0.0754011390320753
210.0, 0.08174144035900871
211.0, 0.0944994819886053
212.0, 0.10266857779673688
213.0, 0.10927705706058538
214.0, 0.11181517257845301
215.0, 0.10768827228882867
216.0, 0.1062743406393526
217.0, 0.09330285302341387
218.0, 0.07817463443026965
219.0, 0.06681092236170924
220.0, 0.05209120699765942
221.0, 0.04265167023051153
222.0, 0.040459969624760964
223.0, 0.04089833480726126
224.0, 0.038222781593759
225.0, 0.040826141736572175
226.0, 0.046336945248980285
227.0, 0.052343141042591704
228.0, 0.057072152671751676
229.0, 0.05952887975670867
230.0, 0.059561832033023884
231.0, 0.05575987440574615
232.0, 0.04897123239916822
233.0, 0.04131867450810776
234.0, 0.03142383022769237
235.0, 0.023120655254403235
236.0, 0.017512132852538637
237.0, 0.012991047346342953
238.0, 0.002127436130187922
239.0, 0.004643197034305545
240.0, 0.0023403419681756717
241.0, 0.0023356092799733503
242.0, 0.002470860486323732
243.0, 0.0030168070181599786
244.0, 0.0032504205996313584
245.0, 0.003605958172657414
246.0, 0.0034709241929328925
247.0, 0.00188025949564633
248.0, 0.003696008914483944
249.0, 0.003673893171019239
250.0, 0.008943363280314158
251.0, 0.011012794330291701
252.0, 0.015874687133020864
253.0, 0.023037950179659886
254.0, 0.032052081891637635
255.0, 0.041310883190071056
256.0, 0.046734319155673415
257.0, 0.05197968983508903
258.0, 0.05770403636159862
259.0, 0.06157985082364765
260.0, 0.060593529234157235
261.0, 0.06162738033681002
262.0, 0.061081997053071616
263.0, 0.05638456920895986
264.0, 0.048125787381379535
265.0, 0.04411822655147954
266.0, 0.03875863940773347
267.0, 0.03242391827886592
268.0, 0.02508441898318462
269.0, 0.01703601685538997
270.0, 0.014431734726185658
271.0, 0.010522467246320862
272.0, 0.004827102937077114
273.0, 0.0016943112841378304
274.0, 0.006537000784322614
275.0, 0.008727503622084529
276.0, 0.010577163632167748
277.0, 0.012456261859265974
278.0, 0.013152581357113065
279.0, 0.015058781549073396
280.0, 0.02157237855433704
281.0, 0.029053797701506522
282.0, 0.03425056169499399
283.0, 0.038316043851609104
284.0, 0.04777309207629128
285.0, 0.05650569503056923
286.0, 0.0656043670166388
287.0, 0.07737186664314873
288.0, 0.0847157130683484
289.0, 0.09493149393149133
290.0, 0.10662314281739393
291.0, 0.1168909509330798
292.0, 0.12441914485028278
293.0, 0.13317334409079631
294.0, 0.14724707413455743
295.0, 0.15969535181001973
296.0, 0.1656098344983561
297.0, 0.17018290470174285
298.0, 0.1761273886262994
299.0, 0.1789021591891527
300.0, 0.1749593339064321
301.0, 0.16466633357869162
302.0, 0.15244966351641753
303.0, 0.13821857787924782
304.0, 0.12455982608842431
305.0, 0.10898346479492141
306.0, 0.09044016135939262
307.0, 0.0850635342355135
308.0, 0.07902176679030652
309.0, 0.07256254857774105
310.0, 0.07069233211605665
311.0, 0.07158874026411903
312.0, 0.06761797277414643
313.0, 0.06694347593719512
314.0, 0.06977653057940633
315.0, 0.07169796058647976
316.0, 0.07431543280664438
317.0, 0.07157694039259349
318.0, 0.06997851432895308
319.0, 0.07005483722142519
320.0, 0.06591586108188752
321.0, 0.06442953746849125
322.0, 0.061855628275298176
323.0, 0.06449361657850959
324.0, 0.061744856352407694
325.0, 0.06469267302554914
326.0, 0.06779007386995081
327.0, 0.06747642463896607
328.0, 0.06755949695852409
329.0, 0.07203267818406076
330.0, 0.07059247928123676
331.0, 0.06401470294185839
332.0, 0.0627788365451224
333.0, 0.07067855764993637
334.0, 0.08172865852070256
335.0, 0.07362596529120947
336.0, 0.07076402359056043
337.0, 0.07226130437378568
338.0, 0.07279969705706014
339.0, 0.07475919261319003
340.0, 0.07874027789708384
341.0, 0.08267084997175014
342.0, 0.08566187732933589
343.0, 0.08734841201937275
344.0, 0.08374466807502191
345.0, 0.0792742557830234
346.0, 0.07751272424097887
347.0, 0.07779497085662938
348.0, 0.07587017917064529
349.0, 0.07086869804672903
350.0, 0.06462558903396418
351.0, 0.05962031494395508
352.0, 0.057007844036016005
353.0, 0.05630067839436181
354.0, 0.05747309609254584
355.0, 0.05795449421728241
356.0, 0.05820530798741768
357.0, 0.06011503989476192
358.0, 0.0653091140812538
359.0, 0.07044477639158801
360.0, 0.07780810975162007
361.0, 0.0853086484830123
362.0, 0.08887820502097417
363.0, 0.08604278455294463
364.0, 0.08724802376943208
365.0, 0.09098906635392451
366.0, 0.09388860823825013
367.0, 0.09387735804161612
368.0, 0.08943851876091799
369.0, 0.09532513055850671
370.0, 0.09459131440899911
371.0, 0.08932825550094343
372.0, 0.08842672642455579
373.0, 0.0861521355847116
374.0, 0.08055557451679704
375.0, 0.07702043963478625
376.0, 0.07292031621996443
377.0, 0.06382704000532344
378.0, 0.062339546172398244
379.0, 0.05919697702976051
380.0, 0.05411350243267873
381.0, 0.05045255246375557
382.0, 0.05005627459903055
383.0, 0.05026909665635548
384.0, 0.04808682804204188
385.0, 0.04816755907950855
386.0, 0.050327841493720764
387.0, 0.04931684228895036
388.0, 0.04707953101206351
389.0, 0.04161515654094599
390.0, 0.03477952985524036
391.0, 0.02905744476207954
392.0, 0.024850164511782128
393.0, 0.01847567407310215
394.0, 0.013953826011043814
395.0, 0.008304988076285618
396.0, 0.0003959442577261723
397.0, 0.0031236797403299123
398.0, 0.0006082551213060734
399.0, 0.0011161073213457632
400.0, 0.0018235067502650909
401.0, 0.001720561811477464
402.0, 0.0022410263017507625
403.0, 0.00204280900304308
404.0, 0.0028199060596364655
405.0, 0.002066112632240842
406.0, 0.004185562862410618
407.0, 0.004229064784405019
408.0, 0.012590948993084859
409.0, 0.014787850926951607
410.0, 0.0138088146785878
411.0, 0.016709997578117353
412.0, 0.020966529178429533
413.0, 0.028428521690022274
414.0, 0.03154070796382672
415.0, 0.03579413313310452
416.0, 0.04464613458461033
417.0, 0.048564455381265956
418.0, 0.04891174510332898
419.0, 0.048102171654091114
420.0, 0.046124439297830944
421.0, 0.044960046659279496
422.0, 0.05078964157292513
423.0, 0.047071818808537745
424.0, 0.04849266927431309
425.0, 0.05276960522727162
426.0, 0.05664341499222982
427.0, 0.06859967091811578
428.0, 0.08162076229915018
429.0, 0.08724267513899617
430.0, 0.09329379206583366
431.0, 0.1074163945308624
432.0, 0.12278498290033411
433.0, 0.13461263169925097
434.0, 0.14922975788069415
435.0, 0.161221615163862
436.0, 0.1666220995815939
437.0, 0.1714185613461902
438.0, 0.16915289805439265
439.0, 0.16186844883644755
440.0, 0.14877768427327376
441.0, 0.1313949048593007
442.0, 0.11474183119656084
443.0, 0.09633578966610196
444.0, 0.07962451219442528
445.0, 0.0633466268195326
446.0, 0.049001109490499135
447.0, 0.04168981069908917
448.0, 0.030174203942838117
449.0, 0.019902359440809998
450.0, 0.012824673570911473
451.0, 0.008745266524981098
452.0, 0.0067293946127496675
453.0, 0.0030659009850451343
454.0, 0.005958597410084078
455.0, 0.0039059207570876667
456.0, 0.0042815773889304945
457.0, 0.004807737704095597
458.0, 0.005525564057423236
459.0, 0.006099109165631928
460.0, 0.006643462796188945
461.0, 0.006920525439754237
462.0, 0.005699691334195801
463.0, 0.007601125052496708
464.0, 0.007943349232458128
465.0, 0.009785720692862349
466.0, 0.010775555956304623
467.0, 0.023032672567014918
468.0, 0.028586596691667767
469.0, 0.03859928544904473
470.0, 0.0478206406276229
471.0, 0.05621108610081868
472.0, 0.06692747770849983
473.0, 0.07915542444361656
474.0, 0.09547795399205634
475.0, 0.11209073853468797
476.0, 0.12013716869984248
477.0, 0.1215727307481306
478.0, 0.13314234578870174
479.0, 0.14074663448141647
480.0, 0.14594472213692475
481.0, 0.14954255705031683
482.0, 0.15170074031503486
483.0, 0.15201975078838012
484.0, 0.14408701567397655
485.0, 0.13290022180500305
486.0, 0.12250726958461836
487.0, 0.11231087186622034
488.0, 0.09967122769759852
489.0, 0.08652218537986069
490.0, 0.0792046058381116
491.0, 0.0712687215492457
492.0, 0.06054482378045832
493.0, 0.050133979256943934
494.0, 0.04368363107182462
495.0, 0.042129600640005996
496.0, 0.03841082782110454
497.0, 0.029850552647274268
498.0, 0.021237974504917347
499.0, 0.0198719767400801
500.0, 0.015358566151825848
501.0, 0.012734123631455135
502.0, 0.010685595643166495
503.0, 0.009209476002621744
504.0, 0.011915624155384812
505.0, 0.00753475430813419
506.0, 0.003917571959661482
507.0, 0.00588411425613551
508.0, 0.007023603453207607
509.0, 0.0016801385723629481
510.0, 0.004383203933827726
511.0, 0.006979614137259097
512.0, 0.007352891791028997
513.0, 0.011274306963053487
514.0, 0.0202434082164358
515.0, 0.027163917637607223
516.0, 0.03165309962678685
517.0, 0.04066623082800785
518.0, 0.05070444655295829
519.0, 0.0596536503302329
520.0, 0.07214042595603591
521.0, 0.08780063801938043
522.0, 0.10339195576900526
523.0, 0.11498840953897459
524.0, 0.12444600249541012
525.0, 0.13705162824205555
526.0, 0.15201158808036247
527.0, 0.16095962681340584
528.0, 0.16176874134134614
529.0, 0.15480174110707143
530.0, 0.14138129147413947
531.0, 0.1233802082948551
532.0, 0.0997746262738376
533.0, 0.08467251700803477
534.0, 0.06941168860282113
535.0, 0.0515245861875683
536.0, 0.03839164843053893
537.0, 0.02857856385796839
538.0, 0.019505373023631225
539.0, 0.015318705345337916
540.0, 0.015117137793420901
541.0, 0.01202956370686912
542.0, 0.0023398115173015642
543.0, 0.00478070335696044
544.0, 0.002645757708731736
545.0, 0.005854189103682077
546.0, 0.014004837883872653
547.0, 0.007947561936284547
548.0, 0.010284702534601424
549.0, 0.019488559932979713
550.0, 0.02186679600849626
551.0, 0.020579593510726607
552.0, 0.023871035757466828
553.0, 0.022506711868642927
554.0, 0.02577498477569093
555.0, 0.02771841367470676
556.0, 0.02193697065064764
557.0, 0.01642705137014267
558.0, 0.02389862753352683
559.0, 0.019860900231110798
560.0, 0.022175576010671015
561.0, 0.02644382420173639
562.0, 0.031214812225097265
563.0, 0.037572793888678034
564.0, 0.0413831559499281
565.0, 0.049677703647102084
566.0, 0.0558767678858285
567.0, 0.06229260702312688
568.0, 0.07096515349180314
569.0, 0.08021897354916606
570.0, 0.09568708083637531
571.0, 0.11552670344224537
572.0, 0.1297862211782604
573.0, 0.147408577373706
574.0, 0.17519451142587608
575.0, 0.1986794440610698
576.0, 0.2288045124713571
577.0, 0.2612566387146081
578.0, 0.29926541878948665
579.0, 0.34250450806868127
580.0, 0.38833398551340226
581.0, 0.4440447637544572
582.0, 0.5069222980724227
583.0, 0.5616681781710035
584.0, 0.6235145873033272
585.0, 0.6973372978471442
586.0, 0.760055235618414
587.0, 0.824202001289909
588.0, 0.8804898621842068
589.0, 0.9283393787972195
590.0, 0.9666509345731773
591.0, 0.9914572267169053
592.0, 0.998331827738493
593.0, 0.9767438421888025
594.0, 0.9349416806101457
595.0, 0.8676538306183128
596.0, 0.7797515197646575
597.0, 0.6879435623240087
598.0, 0.6033476956697905
599.0, 0.5202179949002752
600.0, 0.4514823296929374
601.0, 0.39241200904656437
602.0, 0.3367436954232474
603.0, 0.2890962048845472
604.0, 0.25170242669314186
605.0, 0.2159730114085825
606.0, 0.1865385019304045
607.0, 0.16548333311444427
608.0, 0.14911309635171444
609.0, 0.13371027728988902
610.0, 0.12027868934168526
611.0, 0.10919110944540354
612.0, 0.10278329958998031
613.0, 0.09703908060894863
614.0, 0.08611835742032
615.0, 0.07714747625919319
616.0, 0.0728515869049707
617.0, 0.06834987258578744
618.0, 0.06540565957823744
619.0, 0.06279071891606783
620.0, 0.05756376554052084
621.0, 0.060039308542231204
622.0, 0.05428485115061759
623.0, 0.047567521458441425
624.0, 0.04382999829579496
625.0, 0.040069007043516784
626.0, 0.03302423486666184
627.0, 0.038323748793501075
628.0, 0.03352578631209441
629.0, 0.025143436684944523
630.0, 0.01901963302433719
631.0, 0.015254990482495687
632.0, 0.013286629285138726
633.0, 0.012987146864379554
634.0, 0.007675196619952756
635.0, 0.0035298013233776944
636.0, 0.0018634964553766041
637.0, 0.0026661211446136843
638.0, 0.003935959829122204
639.0, 0.0017696005539290013
640.0, 0.0026714176098614683
641.0, 0.0032806675314843714
642.0, 0.003376714058426331
643.0, 0.005056852626867961
644.0, 0.005546081894154545
645.0, 0.0067729606707271715
646.0, 0.002962932625310412
647.0, 0.0032095279546461323
648.0, 0.006375240249794431
649.0, 0.004402759252778685
650.0, 0.0016800371577812253
651.0, 0.0024952324058557986
652.0, 0.0014075729704517033
653.0, 0.0021423724976537273
654.0, 0.002994870582294465
655.0, 0.003272235720122631
656.0, 0.006784135063613865
657.0, 0.0027453558435715127
658.0, 0.0030607779139992485
659.0, 0.0037406950878073656
660.0, 0.010091788390514726
661.0, 0.010955691233602243
662.0, 0.013389847857585907
663.0, 0.009997154966303953
664.0, 0.010357800488572844
665.0, 0.012034977342642644
666.0, 0.01035672397367383
667.0, 0.005482468600871882
668.0, 0.0050426644269724735
669.0, 0.010860488552709246
670.0, 0.01320750844212906
671.0, 0.013254716983486852
672.0, 0.014751931741883969
673.0, 0.015740688852295962
674.0, 0.011301706671807722
675.0, 0.018754052789857655
676.0, 0.021181615516977084
677.0, 0.01889923485400471
678.0, 0.01492704376510127
679.0, 0.011906406695942666
680.0, 0.019580428044302767
681.0, 0.016114489286323825
682.0, 0.015937339212930408
683.0, 0.018375495329835054
684.0, 0.019467698755315527
685.0, 0.01855899785132456
686.0, 0.01661706470070944
687.0, 0.01573261529172414
688.0, 0.017134765583199207
689.0, 0.017281506546027302
690.0, 0.015073168082285992
691.0, 0.014548598652144926
692.0, 0.019503411870592346
693.0, 0.015079132351039883
694.0, 0.017749358743051145
695.0, 0.021962276746473403
696.0, 0.023251494190021427
697.0, 0.022031061466181515
698.0, 0.020391797609043815
699.0, 0.0194771918294791
700.0, 0.023456035159450352
701.0, 0.02277187566458357
702.0, 0.023502298746595634
703.0, 0.02944590326117215
704.0, 0.03160404944500387
705.0, 0.027473144365937667
706.0, 0.0326935969193316
707.0, 0.03494873306264988
708.0, 0.035978806014998685
709.0, 0.038283430090178205
710.0, 0.04126654274712085
711.0, 0.05168386250486975
712.0, 0.05785293297959714
713.0, 0.05504079879167686
714.0, 0.0566036267585091
715.0, 0.06696657669699835
716.0, 0.07480343331764674
717.0, 0.07579378268151621
718.0, 0.08725842173021134
719.0, 0.09632081332363258
720.0, 0.10099605345662507
721.0, 0.106828538620827
722.0, 0.117783266818998
723.0, 0.13205702838018396
724.0, 0.1508284407115147
725.0, 0.15916751439782748
726.0, 0.17037807887609133
727.0, 0.18208203107767873
728.0, 0.19018566036570284
729.0, 0.2040700284321888
730.0, 0.22712994295348735
731.0, 0.23334218764117265
732.0, 0.24258197517964308
733.0, 0.2534901543030332
734.0, 0.2627804727106882
735.0, 0.271591379573546
736.0, 0.2763287620807606
737.0, 0.2781808489324222
738.0, 0.2811132367328995
739.0, 0.2796480162545095
740.0, 0.27712362164265064
741.0, 0.27820778541067137
742.0, 0.27817554481733375
743.0, 0.27137986292715327
744.0, 0.27297135526187627
745.0, 0.26783939000939394
746.0, 0.2632218322010194
747.0, 0.2619045519089178
748.0, 0.2535308446129062
749.0, 0.23353011628814654
750.0, 0.21383089862572507
751.0, 0.1923851313996609
752.0, 0.17336062161823873
753.0, 0.1531682415996557
754.0, 0.13301389430226512
755.0, 0.12096902386713523
756.0, 0.10049227105560671
757.0, 0.08986229341574543
758.0, 0.07754329020718852
759.0, 0.06470088153269025
760.0, 0.055621238138417524
761.0, 0.05016507575084867
762.0, 0.04705219625499164
763.0, 0.03844578085101782
764.0, 0.037554499938153456
765.0, 0.031726709522810696
766.0, 0.026409480472267675
767.0, 0.024878729940756735
768.0, 0.01619670789264443
769.0, 0.01394729067579883
770.0, 0.014691866612313432
771.0, 0.008993399018210741
772.0, 0.0049287801209767414
773.0, 0.006282658250168962
774.0, 0.007736401478055075
775.0, 0.004596173421196678
776.0, 0.00787478382778576
777.0, 0.004515956173430426
778.0, 0.004273245411360219
779.0, 0.003986115948614232
780.0, 0.003207634928077037
781.0, 0.004295467810650556
782.0, 0.006509177328744546
783.0, 0.0058129346308084615
784.0, 0.003659102457401854
785.0, 0.002692035364566279
786.0, 0.003127821891492364
787.0, 0.005068941577349186
788.0, 0.003631660007615915
789.0, 0.008049781762817987
790.0, 0.009391604222903143
791.0, 0.005528464192851754
792.0, 0.001933611403619418
793.0, 0.002357104658078891
794.0, 0.00313694768587922
795.0, 0.006320586562381817
796.0, 0.010198232209084064
797.0, 0.01159243796687309
798.0, 0.014610183855739057
799.0, 0.01836049653294261
800.0, 0.01899344058687205
801.0, 0.01831171870752461
802.0, 0.02574815423741553
803.0, 0.03219385440934681
804.0, 0.030957506382351948
805.0, 0.029479960002163692
806.0, 0.030454866983935954
807.0, 0.034331180179274744
808.0, 0.039650243856877404
809.0, 0.040985697548534025
810.0, 0.03974758869232151
811.0, 0.05056478980610721
812.0, 0.054247135279865744
813.0, 0.04988205243812162
814.0, 0.048714367023158435
815.0, 0.053852528206484306
816.0, 0.053606006345057244
817.0, 0.051479783919239394
818.0, 0.04594789000117673
819.0, 0.04523779877802261
820.0, 0.045126204097512806
821.0, 0.04113360043936866
822.0, 0.03669401426305875
823.0, 0.03181388354492758
824.0, 0.0337775047016978
825.0, 0.030491282693094122
826.0, 0.0268368254721128
827.0, 0.02877095793038616
828.0, 0.03188609730473725
829.0, 0.027973534846813905
830.0, 0.023536591257583738
831.0, 0.024491737669345617
832.0, 0.028881254726763398
833.0, 0.030866586328863233
834.0, 0.030988221460400124
835.0, 0.027601611933869882
836.0, 0.021652466418699914
837.0, 0.025434396320833386
838.0, 0.021904295304456395
839.0, 0.02687762230318155
840.0, 0.02746721281011704
841.0, 0.026422514251482968
842.0, 0.027069734242251352
843.0, 0.025016743623881166
844.0, 0.02751493415061757
845.0, 0.026983315458357526
846.0, 0.02180911594966888
847.0, 0.027869511565458565
848.0, 0.036466163689879594
849.0, 0.03711056463966151
850.0, 0.033331872462530165
851.0, 0.030094072299538054
852.0, 0.027574260365993822
853.0, 0.028505358588886892
854.0, 0.028524081929977085
855.0, 0.024993083516712686
856.0, 0.02255041186071259
857.0, 0.02432973185643815
858.0, 0.023503025759540844
859.0, 0.024505845798547064
860.0, 0.016599407515580835
861.0, 0.018944719015293342
862.0, 0.019246560998969976
863.0, 0.01360979274681937
864.0, 0.012953282543300682
865.0, 0.018516779952674083
866.0, 0.020327671415597017
867.0, 0.014848706787846324
868.0, 0.014027098613623657
869.0, 0.01079244089936882
870.0, 0.00825335941481542
871.0, 0.008067193661579571
872.0, 0.004976240492885885
873.0, 0.004877836939571817
874.0, 0.0029833428342464227
875.0, 0.005807191295659995
876.0, 0.006961208456334131
877.0, 0.0062473909955690615
878.0, 0.006228105012934991
879.0, 0.005036756754520086
880.0, 0.0023217205849244845
881.0, 0.002480524435213813
882.0, 0.0046992583396375485
883.0, 0.006072966212569288
884.0, 0.0061500678920161376
885.0, 0.006915793695087243
886.0, 0.006655913685518347
887.0, 0.004254328031793362
888.0, 0.0022919808682010196
889.0, 0.002120737182856619
890.0, 0.0014619694651290822
891.0, 0.0024869321314561757
892.0, 0.004527556195981448
893.0, 0.005215837183347045
894.0, 0.005866165826276584
895.0, 0.003601063204152502
896.0, 0.009889859046579831
897.0, 0.0027643560305534855
898.0, 0.0033592171402396643
899.0, 0.0030288124656631427
900.0, 0.006981708979225319
901.0, 0.014292875629144969
902.0, 0.008750226285412643
903.0, 0.012343681695914138
904.0, 0.008643065413194737
905.0, 0.008138107265818043
906.0, 0.004508582630685775
907.0, 0.004916519764570422
908.0, 0.00918328881313907
909.0, 0.0071830959313347684
910.0, 0.0040207579111269974
911.0, 0.00268538480490747
912.0, 0.010614763059153737
913.0, 0.0075776372192091915
914.0, 0.006785170281916321
915.0, 0.008171181183904065
916.0, 0.0065268810072091525
917.0, 0.003551185888066826
918.0, 0.002110612014720841
919.0, 0.01167273401864284
920.0, 0.010253713651800096
921.0, 0.005753072512528872
922.0, 0.008429525041601769
923.0, 0.013290555360492496
924.0, 0.016250927981374678
925.0, 0.021357739557839824
926.0, 0.02380789706967512
927.0, 0.022276847186029833
928.0, 0.02161786158484749
929.0, 0.025804729257972333
930.0, 0.02812829866601446
931.0, 0.028384042630839674
932.0, 0.03154193656035506
933.0, 0.036212092591961995
934.0, 0.03661978976341901
935.0, 0.03301214258567182
936.0, 0.03874185109885935
937.0, 0.036446205388301414
938.0, 0.04096880013923401
939.0, 0.045234018008447376
940.0, 0.03907634331141134
941.0, 0.04285099452290936
942.0, 0.041658827969584776
943.0, 0.031921160673182014
944.0, 0.03928827966208832
945.0, 0.03799193254534876
946.0, 0.035261111976610075
947.0, 0.0369747988998101
948.0, 0.0378904446138552
949.0, 0.03912158139969071
950.0, 0.037725891194742324
951.0, 0.043400703561830394
952.0, 0.045994293408900405
953.0, 0.04840140219388635
954.0, 0.050310659713225646
955.0, 0.053221643666600274
956.0, 0.06657856774168405
957.0, 0.08993460972668313
958.0, 0.09457498230499886
959.0, 0.10573652191851919
960.0, 0.10878698417279559
961.0, 0.11946973017720755
962.0, 0.14061533646168517
963.0, 0.15990874979329692
964.0, 0.17129670687047222
965.0, 0.18276719476570563
966.0, 0.20125522143534222
967.0, 0.21617943739717732
968.0, 0.23425206419784675
969.0, 0.23864607080547884
970.0, 0.2402352232566059
971.0, 0.24264316036162234
972.0, 0.24355877000939344
973.0, 0.24328211338256536
974.0, 0.2351140618409266
975.0, 0.22150319517954517
976.0, 0.2139893017170548
977.0, 0.19535505099618358
978.0, 0.18311747795828273
979.0, 0.1705801512175698
980.0, 0.15541226701791216
981.0, 0.14595870102139144
982.0, 0.13519426294518092
983.0, 0.11992217242872408
984.0, 0.1100267885171677
985.0, 0.09047348861990183
986.0, 0.08417465788530057
987.0, 0.07988995947831087
988.0, 0.07262551395647852
989.0, 0.06953555658432525
990.0, 0.06889725525869653
991.0, 0.06595426108731288
992.0, 0.06350670189602528
993.0, 0.06884358175022873
994.0, 0.06986819988898416
995.0, 0.07300120966540921
996.0, 0.0741110496535742
997.0, 0.07434527718431543
998.0, 0.08077041972004491
999.0, 0.08505855005104061
1000.0, 0.08786898898879353
1001.0, 0.08932199993858828
1002.0, 0.0889753421663731
1003.0, 0.10036153012796793
1004.0, 0.09993457521722364
1005.0, 0.09991707831238018
1006.0, 0.10670168682237625
1007.0, 0.10179454065252898
1008.0, 0.106486072688062
1009.0, 0.10892221011039938
1010.0, 0.10456341647459554
1011.0, 0.10380316985809832
1012.0, 0.10261424863714184
1013.0, 0.09731135506325937
1014.0, 0.09384796339020585
1015.0, 0.09297586092766999
1016.0, 0.08757720510126574
1017.0, 0.07894551361458
1018.0, 0.07255279042311744
1019.0, 0.05997504936906796
1020.0, 0.055841108682568065
1021.0, 0.05198171033934271
1022.0, 0.046711844951504024
1023.0, 0.042065816489588674
1024.0, 0.035503730231854075
1025.0, 0.02896755342567492
1026.0, 0.025551180373715687
1027.0, 0.01560051156375725
1028.0, 0.01855655894911509
1029.0, 0.015553526124145853
1030.0, 0.012083577752923522
1031.0, 0.012437468726716866
1032.0, 0.012557501343408859
1033.0, 0.011821212514578967
1034.0, 0.013926242765854479
1035.0, 0.010280695385589698
1036.0, 0.008048980998555385
1037.0, 0.006013834126066536
1038.0, 0.004952582677451262
1039.0, 0.005524917344125834
1040.0, 0.00863377098474748
1041.0, 0.011788302020460162
1042.0, 0.011817394848278852
1043.0, 0.009796855734181532
1044.0, 0.007689041194410553
1045.0, 0.006574379633919717
1046.0, 0.00433119147164618
1047.0, 0.003411257655928735
1048.0, 0.002744056758155524
1049.0, 0.0034496112618721906
1050.0, 0.006990581654376891
1051.0, 0.005846144988462597
1052.0, 0.004048644464363158
1053.0, 0.007068430039699613
1054.0, 0.004897575969014181
1055.0, 0.0016861134563844137
1056.0, 0.001370551405898969
1057.0, 0.004178033261483971
1058.0, 0.006144588539542329
1059.0, 0.010345771567247655
1060.0, 0.013695842687610722
1061.0, 0.008389782929318553
1062.0, 0.008871635915164041
1063.0, 0.008237533433874006
1064.0, 0.007891753567314693
1065.0, 0.005863921567784359
1066.0, 0.004796894600784998
1067.0, 0.010015032172553994
1068.0, 0.01389557035029577
1069.0, 0.011414590975574438
1070.0, 0.009148748836296676
1071.0, 0.011222781450382833
1072.0, 0.006015246727749199
1073.0, 0.00648710337298436
1074.0, 0.003133104414650467
1075.0, 0.002226657853564459
1076.0, 0.00202675900146146
1077.0, 0.003547958115195684
1078.0, 0.004900277973394262
1079.0, 0.003302457213748561
1080.0, 0.0018173901902380862
1081.0, 0.005536264228548129
1082.0, 0.003130947349156692
1083.0, 0.004622825456876762
1084.0, 0.007605645854464214
1085.0, 0.003941876397948513
1086.0, 0.0015398446089255283
1087.0, 0.006828549268288471
1088.0, 0.010126880501243659
1089.0, 0.005722425674414683
1090.0, 0.007070803125511051
1091.0, 0.012216370791865628
1092.0, 0.013990305260682368
1093.0, 0.013713336578161569
1094.0, 0.01706361655747684
1095.0, 0.016182663195925893
1096.0, 0.018142396498332228
1097.0, 0.022419683679554235
1098.0, 0.02461412494083161
1099.0, 0.024163645953576573
1100.0, 0.021559081611112446
1101.0, 0.020018118285027083
1102.0, 0.023408561839163705
1103.0, 0.025787304801519795
1104.0, 0.02343981060669003
1105.0, 0.02037903291012597
1106.0, 0.022462669467020472
1107.0, 0.026745056741365864
1108.0, 0.025794535054262636
1109.0, 0.02353933319028284
1110.0, 0.0279497473002068
1111.0, 0.03172914989617047
1112.0, 0.024045455145776447
1113.0, 0.02488750125749684
1114.0, 0.027981314098854966
1115.0, 0.03082570843611704
1116.0, 0.02973343233143102
1117.0, 0.03019067662543155
1118.0, 0.03330856685785053
1119.0, 0.032333244125235375
1120.0, 0.03272024323771962
1121.0, 0.04331628142096865
1122.0, 0.03542325513255521
1123.0, 0.0372320617091891
1124.0, 0.03039499583808432
1125.0, 0.031115577559615505
1126.0, 0.03373850484197594
1127.0, 0.033452596199904774
1128.0, 0.03175381204865212
1129.0, 0.029850758280806546
1130.0, 0.02676630565372227
1131.0, 0.022727402154979197
1132.0, 0.02347497627680207
1133.0, 0.022072467963371707
1134.0, 0.018871762348784692
1135.0, 0.01688689023583651
1136.0, 0.016991453075600394
1137.0, 0.015567900859210141
1138.0, 0.013746383917196237
1139.0, 0.011109941485156098
1140.0, 0.0063710965551396935
1141.0, 0.005967476879260037
1142.0, 0.011873202692252359
1143.0, 0.017761176303381396
1144.0, 0.012872697639772866
1145.0, 0.01800703341900496
1146.0, 0.011657938550831333
1147.0, 0.009380612647929594
1148.0, 0.007720085431907486
1149.0, 0.007879051574396572
1150.0, 0.012970257410556687
1151.0, 0.013816816921157826
1152.0, 0.008345437477938311
1153.0, 0.006653765734978619
1154.0, 0.004837414666599459
1155.0, 0.001904809996608841
1156.0, 0.003124271006730611
1157.0, 0.002331167826383222
1158.0, 0.005729571071890408
1159.0, 0.008867760986265925
1160.0, 0.006397500227073034
1161.0, 0.00445646405762429
1162.0, 0.004909648330746605
1163.0, 0.008847796743374211
1164.0, 0.001649932864834416
1165.0, 0.0016641982685736837
1166.0, 0.006437181921682598
1167.0, 0.0034291665775366
1168.0, 0.010863643649446133
1169.0, 0.011644043845909108
1170.0, 0.011256180644892937
1171.0, 0.005449153798428505
1172.0, 0.0047464367012079066
1173.0, 0.004204125529185354
1174.0, 0.004782337588501551
1175.0, 0.004378061437715076
1176.0, 0.012469217089345027
1177.0, 0.009966126464152777
1178.0, 0.004769220674623274
1179.0, 0.003953602130415412
1180.0, 0.012228254872667033
1181.0, 0.00826630400342412
1182.0, 0.009161269952601863
1183.0, 0.012813119763623858
1184.0, 0.013860103724703173
1185.0, 0.02199945836197341
1186.0, 0.01189916612827777
1187.0, 0.0202484562561585
1188.0, 0.023325628899777757
1189.0, 0.02583331567643119
1190.0, 0.03479579018023101
1191.0, 0.033141240441470585
1192.0, 0.03328694135893548
1193.0, 0.03446147790158961
1194.0, 0.04155286723311023
1195.0, 0.04552342968089755
1196.0, 0.04296144547825369
1197.0, 0.05018159535857627
1198.0, 0.042018899363617454
1199.0, 0.03673510638141711
1200.0, 0.03813713022047632
1201.0, 0.04359567517876815
1202.0, 0.043957619028569025
1203.0, 0.03942747055554374
1204.0, 0.043941842909919884
1205.0, 0.03923074295472667
1206.0, 0.030414085099268663
1207.0, 0.027001853460822362
1208.0, 0.02713445545496688
1209.0, 0.03485813786943681
1210.0, 0.030271911453230372
1211.0, 0.027640254856821523
1212.0, 0.017151488069070537
1213.0, 0.02679662455771886
1214.0, 0.021120484264242484
1215.0, 0.01048325241121769
1216.0, 0.020826738744691542
1217.0, 0.020038450937714985
1218.0, 0.017898792459654457
1219.0, 0.021449315595679065
1220.0, 0.018797930734271117
1221.0, 0.018744255328934638
1222.0, 0.013640574744356496
1223.0, 0.012791357841146302
1224.0, 0.014233565796406094
1225.0, 0.01143352918832881
1226.0, 0.020591882955067566
1227.0, 0.02075607277707155
1228.0, 0.016518456719387307
1229.0, 0.01147824956150466
1230.0, 0.010204246345317367
1231.0, 0.012717063513712372
1232.0, 0.016802219285096325
1233.0, 0.01814408349339061
1234.0, 0.01058971225247604
1235.0, 0.01417376524690418
1236.0, 0.012669207154760664
1237.0, 0.004795847970627971
1238.0, 0.013442378856159976
1239.0, 0.018715993665833142
1240.0, 0.017037463609144446
1241.0, 0.010241196125198183
1242.0, 0.008873843227062849
1243.0, 0.010325725256599751
1244.0, 0.012363764711005898
1245.0, 0.012707966466874348
1246.0, 0.009825251721798961
1247.0, 0.010367866591863416
1248.0, 0.0032198888796447903
1249.0, 0.005473224267656237
1250.0, 0.007435595666072063
1251.0, 0.007511242593587227
1252.0, 0.01015984554154561
1253.0, 0.007190122966672166
1254.0, 0.004364117324402105
1255.0, 0.005709636966591377
1256.0, 0.007700302250304776
1257.0, 0.008254468209430705
1258.0, 0.011880507585836253
1259.0, 0.0067828543341668735
1260.0, 0.003926267311084079
1261.0, 0.001862276587520228
1262.0, 0.0057657157334126815
1263.0, 0.003999651639677637
1264.0, 0.0020843616890996288
1265.0, 0.0067276016057376065
1266.0, 0.0030771959373108292
1267.0, 0.005033261944314696
1268.0, 0.00426460318420982
1269.0, 0.0057889138038734675
1270.0, 0.004660705787061218
1271.0, 0.0068920369654600425
1272.0, 0.004186357752789001
1273.0, 0.0020844978506095414
1274.0, 0.008635745598896153
1275.0, 0.006995671742953218
1276.0, 0.0067837929555905965
1277.0, 0.009256302455633714
1278.0, 0.008911801625439574
1279.0, 0.007537238040723393
1280.0, 0.013346393654285119
1281.0, 0.012399654683252416
1282.0, 0.013879874805916107
1283.0, 0.01731580977517454
1284.0, 0.015644264317299882
1285.0, 0.013089226819727993
1286.0, 0.011629405974537889
1287.0, 0.011160197941539352
1288.0, 0.009201556732162115
1289.0, 0.012414645121977206
1290.0, 0.01886345479080965
1291.0, 0.010889109279554504
1292.0, 0.01192305015875596
1293.0, 0.013344370985937958
1294.0, 0.008944197961860963
1295.0, 0.016375307625854953
1296.0, 0.005880371440119674
1297.0, 0.006163241256946365
1298.0, 0.011588763192158713
1299.0, 0.008137732333905637
1300.0, 0.007642213216222202
1301.0, 0.009644592918138479
1302.0, 0.004973880217984457
1303.0, 0.0017332249181049083
1304.0, 0.002663272540368139
1305, 0.0
1306, 0.0
1307, 0.0
1308, 0.0
1309, 0.0
1310, 0.0
1311, 0.0
1312, 0.0
1313, 0.0
1314, 0.0
1315, 0.0
1316, 0.0
1317, 0.0
1318, 0.0
1319, 0.0
1320, 0.0
1321, 0.0
1322, 0.0
1323, 0.0
1324, 0.0
1325, 0.0
1326, 0.0
1327, 0.0
1328, 0.0
1329, 0.0
1330, 0.0
1331, 0.0
1332, 0.0
1333, 0.0
1334, 0.0
1335, 0.0
1336, 0.0
1337, 0.0
1338, 0.0
1339, 0.0
1340, 0.0
1341, 0.0
1342, 0.0
1343, 0.0
1344, 0.0
1345, 0.0
1346, 0.0
1347, 0.0
1348, 0.0
1349, 0.0
1350, 0.0
1351, 0.0
1352, 0.0
1353, 0.0
1354, 0.0
1355, 0.0
1356, 0.0
1357, 0.0
1358, 0.0
1359, 0.0
1360, 0.0
1361, 0.0
1362, 0.0
1363, 0.0
1364, 0.0
1365, 0.0
1366, 0.0
1367, 0.0
1368, 0.0
1369, 0.0
1370, 0.0
1371, 0.0
1372, 0.0
1373, 0.0
1374, 0.0
1375, 0.0
1376, 0.0
1377, 0.0
1378, 0.0
1379, 0.0
1380, 0.0
1381, 0.0
1382, 0.0
1383, 0.0
1384, 0.0
1385, 0.0
1386, 0.0
1387, 0.0
1388, 0.0
1389, 0.0
1390, 0.0
1391, 0.0
1392, 0.0
1393, 0.0
1394, 0.0
1395, 0.0
1396, 0.0
1397, 0.0
1398, 0.0
1399, 0.0
1400, 0.0
1401, 0.0
1402, 0.0
1403, 0.0
1404, 0.0
1405, 0.0
1406, 0.0
1407, 0.0
1408, 0.0
1409, 0.0
1410, 0.0
1411, 0.0
1412, 0.0
1413, 0.0
1414, 0.0
1415, 0.0
1416, 0.0
1417, 0.0
1418, 0.0
1419, 0.0
1420, 0.0
1421, 0.0
1422, 0.0
1423, 0.0
1424, 0.0
1425, 0.0
1426, 0.0
1427, 0.0
1428, 0.0
1429, 0.0
1430, 0.0
1431, 0.0
1432, 0.0
1433, 0.0
1434, 0.0
1435, 0.0
1436, 0.0
1437, 0.0
1438, 0.0
1439, 0.0
1440, 0.0
1441, 0.0
1442, 0.0
1443, 0.0
1444, 0.0
1445, 0.0
1446, 0.0
1447, 0.0
1448, 0.0
1449, 0.0
1450, 0.0
1451, 0.0
1452, 0.0
1453, 0.0
1454, 0.0
1455, 0.0
1456, 0.0
1457, 0.0
1458, 0.0
1459, 0.0
1460, 0.0
1461, 0.0
1462, 0.0
1463, 0.0
1464, 0.0
1465, 0.0
1466, 0.0
1467, 0.0
1468, 0.0
1469, 0.0
1470, 0.0
1471, 0.0
1472, 0.0
1473, 0.0
1474, 0.0
1475, 0.0
1476, 0.0
1477, 0.0
1478, 0.0
1479, 0.0
1480, 0.0
1481, 0.0
1482, 0.0
1483, 0.0
1484, 0.0
1485, 0.0
1486, 0.0
1487, 0.0
1488, 0.0
1489, 0.0
1490, 0.0
1491, 0.0
1492, 0.0
1493, 0.0
1494, 0.0
1495, 0.0
1496, 0.0
1497, 0.0
1498, 0.0
1499, 0.0
1500, 0.0
1501, 0.0
1502, 0.0
1503, 0.0
1504, 0.0
1505, 0.0
1506, 0.0
1507, 0.0
1508, 0.0
1509, 0.0
1510, 0.0
1511, 0.0
1512, 0.0
1513, 0.0
1514, 0.0
1515, 0.0
1516, 0.0
1517, 0.0
1518, 0.0
1519, 0.0
1520, 0.0
1521, 0.0
1522, 0.0
1523, 0.0
1524, 0.0
1525, 0.0
1526, 0.0
1527, 0.0
1528, 0.0
1529, 0.0
1530, 0.0
1531, 0.0
1532, 0.0
1533, 0.0
1534, 0.0
1535, 0.0
1536, 0.0
1537, 0.0
1538, 0.0
1539, 0.0
1540, 0.0
1541, 0.0
1542, 0.0
1543, 0.0
1544, 0.0
1545, 0.0
1546, 0.0
1547, 0.0
1548, 0.0
1549, 0.0
1550, 0.0
1551, 0.0
1552, 0.0
1553, 0.0
1554, 0.0
1555, 0.0
1556, 0.0
1557, 0.0
1558, 0.0
1559, 0.0
1560, 0.0
1561, 0.0
1562, 0.0
1563, 0.0
1564, 0.0
1565, 0.0
1566, 0.0
1567, 0.0
1568, 0.0
1569, 0.0
1570, 0.0
1571, 0.0
1572, 0.0
1573, 0.0
1574, 0.0
1575, 0.0
1576, 0.0
1577, 0.0
1578, 0.0
1579, 0.0
1580, 0.0
1581, 0.0
1582, 0.0
1583, 0.0
1584, 0.0
1585, 0.0
1586, 0.0
1587, 0.0
1588, 0.0
1589, 0.0
1590, 0.0
1591, 0.0
1592, 0.0
1593, 0.0
1594, 0.0
1595, 0.0
1596, 0.0
1597, 0.0
1598, 0.0
1599, 0.0
