30, 0.0
31, 0.0
32, 0.0
33, 0.0
34, 0.0
35, 0.0
36, 0.0
37, 0.0
38, 0.0
39, 0.0
40, 0.0
41, 0.0
42, 0.0
43, 0.0
44, 0.0
45, 0.0
46, 0.0
47, 0.0
48, 0.0
49, 0.0
50, 0.0
51, 0.0
52, 0.0
53, 0.0
54, 0.0
55, 0.0
56, 0.0
57, 0.0
58, 0.0
59, 0.0
60, 0.0
61, 0.0
62, 0.0
63, 0.0
64, 0.0
65, 0.0
66, 0.0
67, 0.0
68, 0.0
69, 0.0
70, 0.0
71, 0.0
72, 0.0
73, 0.0
74, 0.0
75, 0.0
76, 0.0
77, 0.0
78, 0.0
79, 0.0
80, 0.0
81, 0.0
82, 0.0
83, 0.0
84, 0.0
85, 0.0
86, 0.0
87, 0.0
88, 0.0
89, 0.0
90, 0.0
91, 0.0
92, 0.0
93, 0.0
94, 0.0
95, 0.0
96, 0.0
97, 0.0
98, 0.0
99, 0.0
100, 0.0
101, 0.0
102, 0.0
103, 0.0
104, 0.0
105, 0.0
106, 0.0
107, 0.0
108, 0.0
109, 0.0
110, 0.0
111, 0.0
112, 0.0
113, 0.0
114, 0.0
115, 0.0
116, 0.0
117, 0.0
118, 0.0
119, 0.0
120, 0.0
121, 0.0
122, 0.0
123, 0.0
124, 0.0
125, 0.0
126, 0.0
127, 0.0
128, 0.0
129, 0.0
130, 0.0
131, 0.0
132, 0.0
133, 0.0
134, 0.0
135, 0.0
136, 0.0
137, 0.0
138, 0.0
139, 0.0
140, 0.0
141, 0.0
142, 0.0
143, 0.0
144.0, 2.7422554283289347e-06
145.0, 0.0001480632674328374
146.0, 0.001676475306841188
147.0, 0.0034697612511166162
148.0, 0.005122801103289221
149.0, 0.007640999505863961
150.0, 0.011024607704350637
151.0, 0.014578484203349177
152.0, 0.01704311762446146
153.0, 0.018865410910778965
154.0, 0.019481975300279227
155.0, 0.019711711417921232
156.0, 0.021139433780038564
157.0, 0.022864035069017255
158.0, 0.019511877005319117
159.0, 0.015257869832496216
160.0, 0.013253371579002561
161.0, 0.009892408885523115
162.0, 0.005646214459984791
163.0, 0.0029303262334547785
164.0, 0.002228871002717029
165.0, 0.000668972009358408
166.0, 0.00033727152993020783
167.0, 0.0006694339107491662
168.0, 0.0014540591107274543
169.0, 0.003188400655820103
170.0, 0.002528965791806154
171.0, 0.0007365662620086
172.0, 0.0018853149130294339
173.0, 0.004659568992989683
174.0, 0.005323580395935564
175.0, 0.008538997430680836
176.0, 0.012817910219269403
177.0, 0.016717433123295256
178.0, 0.021381959947879677
179.0, 0.02783479220823325
180.0, 0.03193464810898125
181.0, 0.03498020240110294
182.0, 0.040562262714743294
183.0, 0.04377975734548556
184.0, 0.04754890094586103
185.0, 0.0526487067199235
186.0, 0.058034582643622455
187.0, 0.062285347533781
188.0, 0.0682430489104695
189.0, 0.0729279066115956
190.0, 0.07570821354244009
191.0, 0.07905269881591963
192.0, 0.08983233979985196
193.0, 0.09691288095205144
194.0, 0.10256820176793782
195.0, 0.11334813203836115
196.0, 0.12314527764151569
197.0, 0.12971992540872995
198.0, 0.1362985721935273
199.0, 0.1446424451063667
200.0, 0.1507460401857195
201.0, 0.15901204112015074
202.0, 0.16577723519937318
203.0, 0.16976662944940055
204.0, 0.17399771529993696
205.0, 0.17831094369951314
206.0, 0.18169142049227172
207.0, 0.18459406880465676
208.0, 0.18731707117800792
209.0, 0.18875256347607738
210.0, 0.19090928642806318
211.0, 0.1940096239332266
212.0, 0.1970496563443998
213.0, 0.19830648681125407
214.0, 0.20056643508495478
215.0, 0.20139489070954963
216.0, 0.20114163693143014
217.0, 0.20053758429128574
218.0, 0.19772189117822475
219.0, 0.1972436531951063
220.0, 0.19445701416788566
221.0, 0.18857487410361914
222.0, 0.18387135267885132
223.0, 0.17534646156322614
224.0, 0.16720921354379706
225.0, 0.15658038822330078
226.0, 0.14195332659565268
227.0, 0.1294412107270044
228.0, 0.1162771378632292
229.0, 0.10371061472062307
230.0, 0.09200883228419438
231.0, 0.08041225351351082
232.0, 0.07167625562428673
233.0, 0.0658016269393675
234.0, 0.06039442783694096
235.0, 0.05399024835389788
236.0, 0.04864396254939721
237.0, 0.047206813481027975
238.0, 0.04622011867781097
239.0, 0.044354510002476956
240.0, 0.04342113331309994
241.0, 0.04069547738077923
242.0, 0.039782502464690596
243.0, 0.040600978518503715
244.0, 0.04118219599312278
245.0, 0.040700895108671475
246.0, 0.03865910124397359
247.0, 0.038563797040733885
248.0, 0.03895202670648265
249.0, 0.036258849438239586
250.0, 0.036734055746353654
251.0, 0.035474839574105375
252.0, 0.03402014196670717
253.0, 0.03408497766668262
254.0, 0.033365486278096844
255.0, 0.03339243698924543
256.0, 0.035005514155019034
257.0, 0.036731900055132174
258.0, 0.037209502295650426
259.0, 0.03989523177715755
260.0, 0.0421791495513956
261.0, 0.04469527701221255
262.0, 0.04761852581623131
263.0, 0.049778235819670086
264.0, 0.053209001366107685
265.0, 0.055543646361715396
266.0, 0.058293540276277665
267.0, 0.06235216858351179
268.0, 0.0650824012231654
269.0, 0.06788551544846946
270.0, 0.0700847101118448
271.0, 0.07108033781015495
272.0, 0.07099684125890339
273.0, 0.07138763493773614
274.0, 0.07106309233384375
275.0, 0.07162752439004968
276.0, 0.07358987142087306
277.0, 0.07518264816393785
278.0, 0.0714528362012007
279.0, 0.07044777854730426
280.0, 0.07189506313873185
281.0, 0.0723330711218277
282.0, 0.07313909511449498
283.0, 0.07318895235035953
284.0, 0.0727175990268912
285.0, 0.07051525485274912
286.0, 0.0654604279574024
287.0, 0.06137288759282821
288.0, 0.055122610425416246
289.0, 0.048043806213011485
290.0, 0.04178163749731691
291.0, 0.03569980998092707
292.0, 0.02984265407952999
293.0, 0.024606527046915586
294.0, 0.02062287369242083
295.0, 0.01746725877388654
296.0, 0.013475963427575888
297.0, 0.012243721002642855
298.0, 0.010094466571646971
299.0, 0.007171976769925147
300.0, 0.005451116431449124
301.0, 0.004218094998548551
302.0, 0.0025680056292683943
303.0, 0.001609859461294041
304.0, 0.0012691939115619193
305.0, 4.306773552345501e-05
306.0, 0.0010581595880944674
307.0, 0.0015874081123057897
308.0, 0.0011928453028880379
309.0, 0.0006112866829025876
310.0, 0.002233227952825327
311.0, 0.00270089407666833
312.0, 0.0022933116503439563
313.0, 0.002087441715037505
314.0, 0.0024632885291808603
315.0, 0.002578480605130953
316.0, 0.001961380236899802
317.0, 0.0014270744235535915
318.0, 0.0010681508509683127
319.0, 0.0007419076706370695
320.0, 0.0008605452605247201
321.0, 0.0006097754775021369
322.0, 0.0013645298978250638
323.0, 0.0011172741959422946
324.0, 0.0013847438504792046
325.0, 0.0025732110117118816
326.0, 0.0026436148525429866
327.0, 0.0031866960507314006
328.0, 0.004389150855375763
329.0, 0.004874831395180956
330.0, 0.00602294658934964
331.0, 0.006052377256063317
332.0, 0.005489787283410175
333.0, 0.005241626320054414
334.0, 0.005850954979580379
335.0, 0.006634243251431907
336.0, 0.006784767888095768
337.0, 0.007303498940624553
338.0, 0.008960428618202095
339.0, 0.010024638326742358
340.0, 0.009896964160506826
341.0, 0.010325552029575623
342.0, 0.011411880588124744
343.0, 0.012354704947787943
344.0, 0.013204792293327062
345.0, 0.014306051988399295
346.0, 0.015126503728966742
347.0, 0.016305046138480835
348.0, 0.018066568911544345
349.0, 0.019390052494092144
350.0, 0.02068402979433169
351.0, 0.02152660617091039
352.0, 0.02302335363265317
353.0, 0.025264557200878893
354.0, 0.025117391964742414
355.0, 0.02551339124745058
356.0, 0.02572730559712055
357.0, 0.02556741078151578
358.0, 0.025362099869435033
359.0, 0.024654410591174816
360.0, 0.022038458250222232
361.0, 0.020075211747557643
362.0, 0.018599148476776926
363.0, 0.01591109849949508
364.0, 0.013910545682497185
365.0, 0.011478838840708074
366.0, 0.00987543844414797
367.0, 0.00821600882980321
368.0, 0.005217153758880322
369.0, 0.004102406148203673
370.0, 0.003797756821886937
371.0, 0.0029743065791434623
372.0, 0.001377346644637155
373.0, 0.00021760724951590534
374.0, 0.0005882021894469961
375.0, 0.0014550487958703087
376.0, 0.002302979749319651
377.0, 0.002511308656159152
378.0, 0.002449835410537421
379.0, 0.003348847349025012
380.0, 0.002304554830788329
381.0, 0.002036430200961949
382.0, 0.001473480013551348
383.0, 0.0005971358446225897
384.0, 0.00011162142215309504
385.0, 0.0009009843593347248
386.0, 0.002033936355493972
387.0, 0.003752752079412494
388.0, 0.004094594611361711
389.0, 0.00600677765604129
390.0, 0.006115288211877096
391.0, 0.007216846613698412
392.0, 0.008753648452261117
393.0, 0.009795313807172103
394.0, 0.012467720710630053
395.0, 0.013023947999432569
396.0, 0.014782694178362558
397.0, 0.016998688809141065
398.0, 0.018591781230018027
399.0, 0.022873587175093364
400.0, 0.02433703767010198
401.0, 0.02683164490156261
402.0, 0.030652827795785178
403.0, 0.03445095883654173
404.0, 0.03753519298167188
405.0, 0.041595229424950565
406.0, 0.047941144061610035
407.0, 0.0535892560649329
408.0, 0.05796687967063766
409.0, 0.06523135960552214
410.0, 0.07440652096167903
411.0, 0.08340588184288236
412.0, 0.09327817129548323
413.0, 0.10490302583318939
414.0, 0.11783831302194166
415.0, 0.13202399616672567
416.0, 0.14825760848951197
417.0, 0.16670318745359786
418.0, 0.18529993068941367
419.0, 0.20303559244646993
420.0, 0.22409410577150252
421.0, 0.24434248703738112
422.0, 0.2683319021188605
423.0, 0.29360832136740117
424.0, 0.31623416036329516
425.0, 0.33990257712806426
426.0, 0.3621833457882894
427.0, 0.38990311676724193
428.0, 0.41531456633698066
429.0, 0.43458345961129474
430.0, 0.4568463838670578
431.0, 0.4763611378244265
432.0, 0.49254556565582713
433.0, 0.5042143752955055
434.0, 0.5102195472489376
435.0, 0.5096616167272031
436.0, 0.49858880681076706
437.0, 0.47699464956781296
438.0, 0.4482959506210098
439.0, 0.41483486588606294
440.0, 0.3776214133930369
441.0, 0.3392825138763066
442.0, 0.3037800341954083
443.0, 0.27362769935121606
444.0, 0.24547909557833003
445.0, 0.21695991992543323
446.0, 0.19590054392830372
447.0, 0.17634204727359232
448.0, 0.15889367127745185
449.0, 0.14463327216254873
450.0, 0.1333972739801349
451.0, 0.12412990320462562
452.0, 0.11553338418945906
453.0, 0.11168829792838994
454.0, 0.10982691910810477
455.0, 0.10805806494117119
456.0, 0.10733313452100426
457.0, 0.10848592132596513
458.0, 0.11147212828347637
459.0, 0.11491396893346859
460.0, 0.11923663116986973
461.0, 0.12448923568066267
462.0, 0.12866610686194255
463.0, 0.13432457384208923
464.0, 0.1405989711429867
465.0, 0.14865061314790862
466.0, 0.15659475582002239
467.0, 0.16170930314606516
468.0, 0.16899689013498537
469.0, 0.17586846966804287
470.0, 0.18080850710538798
471.0, 0.183969613300628
472.0, 0.18551124353852702
473.0, 0.18451953169762192
474.0, 0.1816553816364874
475.0, 0.17598152035165793
476.0, 0.1663362137543857
477.0, 0.15447521781186985
478.0, 0.1438067649953325
479.0, 0.13092560395262445
480.0, 0.11849142520719584
481.0, 0.10536782828887095
482.0, 0.09326781990709024
483.0, 0.08348000554989503
484.0, 0.07237139884450014
485.0, 0.06372098501476488
486.0, 0.0559217275134835
487.0, 0.04896881164817703
488.0, 0.043258421271388216
489.0, 0.03827729690986357
490.0, 0.033053611202897265
491.0, 0.029611443801801567
492.0, 0.026427434193251713
493.0, 0.02260247761407482
494.0, 0.018668987280909998
495.0, 0.016520105022767614
496.0, 0.015122261257219511
497.0, 0.013530474324614176
498.0, 0.011090105562095524
499.0, 0.00879197151317033
500.0, 0.008045845258579801
501.0, 0.00642619579150064
502.0, 0.005073397181120186
503.0, 0.0044577323472445515
504.0, 0.003494672584706716
505.0, 0.0017820103945642692
506.0, 0.0013070631724545867
507.0, 0.0016327675123097723
508.0, 0.0009632619264179379
509.0, 0.0002110464797266277
510.0, 0.000137465425628139
511.0, 0.0005933807507659662
512.0, 0.0004756634228572164
513.0, 0.0012803029092986345
514.0, 0.0014513371652916164
515.0, 0.0011114691669519153
516.0, 0.0012846309463180386
517.0, 0.0019414342188519259
518.0, 0.0018802760480163619
519.0, 0.002224269699772313
520.0, 0.0026405446239021603
521.0, 0.002508648622089933
522.0, 0.001677724309191991
523.0, 0.00111233803940764
524.0, 0.0012451918616803886
525.0, 0.0009834046323780872
526.0, 0.0007722791087223902
527.0, 0.0007469824079942434
528.0, 0.0003927752975119237
529.0, 0.0003752355367112823
530.0, 0.0005404788359711518
531.0, 0.0009523823421270805
532.0, 0.0008562574451120397
533.0, 0.0009579971430145682
534.0, 0.0015414906297568712
535.0, 0.0031124108182975442
536.0, 0.0033834386551870586
537.0, 0.0032492415343337378
538.0, 0.003711836125003196
539.0, 0.004845922159195434
540.0, 0.005573115832034404
541.0, 0.006004263526022997
542.0, 0.0069914331458525705
543.0, 0.00816154497380404
544.0, 0.008928365613390546
545.0, 0.009486137051352553
546.0, 0.010433036366688832
547.0, 0.010927963476231274
548.0, 0.01200291413527625
549.0, 0.013102969109935868
550.0, 0.014047416334003688
551.0, 0.01528295099294188
552.0, 0.0169188790903024
553.0, 0.01813933435408885
554.0, 0.01911348299697924
555.0, 0.02028512227033002
556.0, 0.021293600197335647
557.0, 0.02172675987990236
558.0, 0.02259559425619008
559.0, 0.024394461942161258
560.0, 0.026153180865882912
561.0, 0.02740018202229421
562.0, 0.02769180561795169
563.0, 0.027562738274511327
564.0, 0.030193463190561303
565.0, 0.0317232205784544
566.0, 0.031466360546987135
567.0, 0.03190746875759709
568.0, 0.03359198936250535
569.0, 0.03379490104397281
570.0, 0.032958977571829765
571.0, 0.03324920663205538
572.0, 0.0334644891092314
573.0, 0.033294318749048174
574.0, 0.033652038917955165
575.0, 0.03445661177112175
576.0, 0.03320662101287854
577.0, 0.03173233201586754
578.0, 0.031080062882674613
579.0, 0.029525140588199713
580.0, 0.027209372138903218
581.0, 0.02668076259165755
582.0, 0.026284679520232977
583.0, 0.02352913905131148
584.0, 0.02154587749587471
585.0, 0.020590839134401434
586.0, 0.019055625518492814
587.0, 0.016901458910042952
588.0, 0.01568619375243092
589.0, 0.014095003074298326
590.0, 0.012620370875517947
591.0, 0.012248628172313017
592.0, 0.012120750416197203
593.0, 0.010618205298578692
594.0, 0.009130678005962385
595.0, 0.008053984297646519
596.0, 0.007190652947754918
597.0, 0.007229145375009173
598.0, 0.006839891169734907
599.0, 0.005353138344059544
600.0, 0.005349060707338085
601.0, 0.004797840642900593
602.0, 0.004664971636977508
603.0, 0.00487325234481231
604.0, 0.004492083274841472
605.0, 0.0035241426233118046
606.0, 0.0037270470806502385
607.0, 0.0037080201899844355
608.0, 0.003773099672000447
609.0, 0.0032314114825494882
610.0, 0.0028131101133758796
611.0, 0.0031793106865745666
612.0, 0.0033237312335898505
613.0, 0.0038553232146089633
614.0, 0.0035869138042842804
615.0, 0.0030082821818714816
616.0, 0.002690243781089883
617.0, 0.0029565154937113334
618.0, 0.0037138045828170978
619.0, 0.0031557935227459174
620.0, 0.0029507817303555247
621.0, 0.0033123909964870857
622.0, 0.0038264678393836083
623.0, 0.004220974068255259
624.0, 0.004528994774417425
625.0, 0.0045293031417916185
626.0, 0.004511811663919488
627.0, 0.0048667434509277185
628.0, 0.004567999073182914
629.0, 0.004053399453694401
630.0, 0.004138609103396075
631.0, 0.004079851542766003
632.0, 0.003957725463579264
633.0, 0.003235761697158485
634.0, 0.0037484770138150516
635.0, 0.004402095521074976
636.0, 0.003906679847530338
637.0, 0.0036889267636685302
638.0, 0.00399976842221221
639.0, 0.003244655870214367
640.0, 0.002817469030434858
641.0, 0.002641009858773812
642.0, 0.0028999394051358327
643.0, 0.003731812718764259
644.0, 0.0026469240759578027
645.0, 0.002400724405335985
646.0, 0.0029341842327034713
647.0, 0.002995384149221272
648.0, 0.002459878003058596
649.0, 0.002207873101657544
650.0, 0.0024990191677438404
651.0, 0.0024210703331612733
652.0, 0.0012610187947888199
653.0, 0.0014353915448488905
654.0, 0.0018661750415967394
655.0, 0.0014747204750388565
656.0, 0.0006748123071534618
657.0, 0.0009030446688511509
658.0, 0.0011041018351907435
659.0, 0.0010574622054382865
660.0, 0.00101921923597184
661.0, 0.000984947063848953
662.0, 0.0010002461236114195
663.0, 0.0011455181224157823
664.0, 0.0009729985190967988
665.0, 0.0009532989233446292
666.0, 0.0005898312939450443
667.0, 0.00028016881181120595
668.0, 7.158142383958216e-05
669.0, 0.00038391256016397557
670.0, 4.1175594000034115e-05
671.0, 1.051793518584713e-05
672.0, 2.920230050438116e-05
673.0, 6.1751084941754e-05
674.0, 4.682715180284592e-05
675.0, 8.686894115835154e-05
676.0, 0.00026171918784010886
677.0, 0.00037825663079642854
678.0, 0.00086893347510732
679.0, 0.001545515135039452
680.0, 0.0011932566452117915
681.0, 0.0005787063485511163
682.0, 0.00043956975283616966
683.0, 0.0005104991877076521
684.0, 0.0009536352583274147
685.0, 0.0004355885029071414
686.0, 0.00015131725804693396
687.0, 0.0005461340386336362
688.0, 0.000587058868034856
689.0, 0.0007928513854624789
690.0, 0.0017654903666128004
691.0, 0.001522569459702154
692.0, 0.0017788821413718535
693.0, 0.0021712552655851415
694.0, 0.002868806132311526
695.0, 0.0034580427809474943
696.0, 0.003939180926488133
697.0, 0.00525811048874798
698.0, 0.005884754534993887
699.0, 0.007709915666591868
700.0, 0.008977311608215525
701.0, 0.010555803724854151
702.0, 0.012648389351226851
703.0, 0.014604102948801531
704.0, 0.018026440397989837
705.0, 0.021336480264620542
706.0, 0.024327954751046602
707.0, 0.027696754052779167
708.0, 0.031108143708806022
709.0, 0.035072611959513056
710.0, 0.04021619582028589
711.0, 0.044624897663279914
712.0, 0.052069746862937576
713.0, 0.05751679926605745
714.0, 0.06405063628555399
715.0, 0.07257966240645557
716.0, 0.08129262029467377
717.0, 0.08986495231854562
718.0, 0.10019113743640319
719.0, 0.1111778936407073
720.0, 0.12310305463083582
721.0, 0.1343959387743526
722.0, 0.1460746415325601
723.0, 0.1578675694144015
724.0, 0.16938549601357217
725.0, 0.18108258827910373
726.0, 0.19278270086756497
727.0, 0.20112348049742054
728.0, 0.20741474660490178
729.0, 0.2137906715545943
730.0, 0.21776558225188855
731.0, 0.21835555461229775
732.0, 0.21823794245738545
733.0, 0.21221726575779298
734.0, 0.20838266980208717
735.0, 0.20222475503903217
736.0, 0.19066536396005657
737.0, 0.17660815931173807
738.0, 0.16273640811682688
739.0, 0.1484102701120732
740.0, 0.13330635764539858
741.0, 0.11749166773205441
742.0, 0.10370579230842328
743.0, 0.08971137943356128
744.0, 0.07689990173424098
745.0, 0.06596637059562561
746.0, 0.05451006719099351
747.0, 0.0455315779481715
748.0, 0.03766238682559575
749.0, 0.030546638856792777
750.0, 0.024331012149146868
751.0, 0.018927090244020842
752.0, 0.014238597633336451
753.0, 0.01004578604595527
754.0, 0.005631086497415175
755.0, 0.00250295200362817
756.0, 0.0008150106482605912
757.0, 0.0011411279037835675
758.0, 0.0023966641021404373
759.0, 0.0030518993270289537
760.0, 0.0038825396537851826
761.0, 0.0042715070908375735
762.0, 0.004901728640931808
763.0, 0.0035857066471746027
764.0, 0.0017408368825187726
765.0, 0.0005278203810000076
766.0, 0.0005266842695472844
767.0, 0.002752564814302709
768.0, 0.006556998885337652
769.0, 0.01130469333790481
770.0, 0.01802069708443488
771.0, 0.02264556311829342
772.0, 0.029970310213793584
773.0, 0.04123539086427349
774.0, 0.05547127672861554
775.0, 0.0727765561847595
776.0, 0.09385844645559144
777.0, 0.11864814559083038
778.0, 0.15265279051910663
779.0, 0.1904264958643763
780.0, 0.23046321194060165
781.0, 0.2707895237093482
782.0, 0.31077064572422036
783.0, 0.35253413703894676
784.0, 0.398389356573957
785.0, 0.4475636372442078
786.0, 0.5075636673759074
787.0, 0.5766738275266949
788.0, 0.6524233036871123
789.0, 0.7322026940350734
790.0, 0.8164218630746449
791.0, 0.903896944788638
792.0, 0.971970037227255
793.0, 0.9996381190898901
794.0, 0.9779305618927966
795.0, 0.9109831484433705
796.0, 0.8158776110507299
797.0, 0.712227799925749
798.0, 0.6176922716002031
799.0, 0.5431576318248825
800.0, 0.4875132794205213
801.0, 0.44970413288209443
802.0, 0.42456480192002166
803.0, 0.40913022438272995
804.0, 0.4043000601964545
805.0, 0.4104663233307744
806.0, 0.42333376701580216
807.0, 0.4380718736821283
808.0, 0.4554363821271821
809.0, 0.46541363056588325
810.0, 0.4782387480325072
811.0, 0.4933852907832999
812.0, 0.5140776875478382
813.0, 0.5380135628467103
814.0, 0.5655526562897712
815.0, 0.6040611452238551
816.0, 0.6439065604459839
817.0, 0.6839617114731328
818.0, 0.7261085383049815
819.0, 0.7503193365077502
820.0, 0.7412630643785868
821.0, 0.6935597277366456
822.0, 0.6108104975921707
823.0, 0.5078569483756641
824.0, 0.40387794230342433
825.0, 0.31316167707571463
826.0, 0.23838760223381117
827.0, 0.1821246744766921
828.0, 0.14000314715094017
829.0, 0.1074987207695639
830.0, 0.08422459733596929
831.0, 0.06976020386115114
832.0, 0.057862698783949514
833.0, 0.05004250279933143
834.0, 0.04214072843307908
835.0, 0.038015653109674745
836.0, 0.03477327697366072
837.0, 0.029990347744069144
838.0, 0.024405433602700477
839.0, 0.018879046529429736
840.0, 0.013254275962652842
841.0, 0.00857341818926561
842.0, 0.005585733282057672
843.0, 0.0026150487271350085
844.0, 0.0008438543330136493
845.0, 0.0005422856403716125
846.0, 0.002004223880614471
847.0, 0.0018937180944377078
848.0, 0.0008446915167068617
849.0, 0.00242325242268569
850.0, 0.004439975945436946
851.0, 0.008876553437755801
852.0, 0.013544432078046903
853.0, 0.01787595120890222
854.0, 0.02254627023567852
855.0, 0.028362589167932065
856.0, 0.03586454060884045
857.0, 0.04402045043589368
858.0, 0.05370383597181435
859.0, 0.06527232660115578
860.0, 0.07673869941948586
861.0, 0.08804098583134712
862.0, 0.100828757053819
863.0, 0.11388183993461053
864.0, 0.12639782739641733
865.0, 0.14005274880778001
866.0, 0.15160574146717629
867.0, 0.16238288801472966
868.0, 0.17250830857260935
869.0, 0.18054290751369229
870.0, 0.18773942453818915
871.0, 0.19164406681726753
872.0, 0.18989927263512674
873.0, 0.18362351598175114
874.0, 0.17362690430676112
875.0, 0.16288461283982322
876.0, 0.14783528224454012
877.0, 0.13035692155809597
878.0, 0.114945171657887
879.0, 0.1015216587505951
880.0, 0.08897304117818522
881.0, 0.07744906551405657
882.0, 0.06781679090454876
883.0, 0.06092137972109471
884.0, 0.05590053705230784
885.0, 0.050425360424605256
886.0, 0.044735716529619184
887.0, 0.039345595470293475
888.0, 0.032733636971832424
889.0, 0.0272391541013182
890.0, 0.024536615789253674
891.0, 0.022052125188222776
892.0, 0.020694757446309324
893.0, 0.018759867920012413
894.0, 0.01584785318353251
895.0, 0.014757307524561256
896.0, 0.01290450454252847
897.0, 0.01136631284793904
898.0, 0.010280077813581489
899.0, 0.008950827196873396
900.0, 0.007981740451425214
901.0, 0.006719264463709308
902.0, 0.0064537502593459565
903.0, 0.004713882516751022
904.0, 0.00484577882546205
905.0, 0.0038873843480541023
906.0, 0.0018109620231559161
907.0, 0.0009924790373310552
908.0, 0.0009190911402210867
909.0, 0.00010440206807921687
910.0, 0.00010984237548406905
911.0, 0.0004853886834956179
912.0, 0.0006160897257850289
913.0, 0.00128324391675249
914.0, 0.0011486400340783964
915.0, 0.0013222577349474413
916.0, 0.0016237592880429216
917.0, 0.0015741053814992728
918.0, 0.0017281631048179267
919.0, 0.001858767305928272
920.0, 0.0015772348818921208
921.0, 0.001278145387052077
922.0, 0.001011936548891573
923.0, 0.0014250659349872871
924.0, 0.001242098017134787
925.0, 0.0005269424942954998
926.0, 0.00017435958757992887
927.0, 6.228119032953248e-05
928.0, 0.0003872850514035652
929.0, 0.0004014373341369738
930.0, 0.0008323309581659299
931.0, 0.0010218229744864567
932.0, 0.0005402626112472679
933.0, 0.0016663953426971489
934.0, 0.0022319057297863036
935.0, 0.0022366548945793826
936.0, 0.0027225145973578876
937.0, 0.002992295946682548
938.0, 0.0028755701952385363
939.0, 0.004089253846933323
940.0, 0.0037505130057145604
941.0, 0.004082729306346248
942.0, 0.004800240689096911
943.0, 0.004939198432391994
944.0, 0.005575660499808773
945.0, 0.00664863850010705
946.0, 0.0070640738946932055
947.0, 0.007209907774951702
948.0, 0.007896824597048656
949.0, 0.00792703132253297
950.0, 0.00863479642715033
951.0, 0.009560860343432889
952.0, 0.009336015451096639
953.0, 0.009958376902635267
954.0, 0.010556888165362793
955.0, 0.010502292865565288
956.0, 0.010834750715815036
957.0, 0.01194296482591032
958.0, 0.01228733133783142
959.0, 0.011727190708609855
960.0, 0.011969510518587868
961.0, 0.012057176853364104
962.0, 0.011158827004397392
963.0, 0.01129568681475378
964.0, 0.011673447383307358
965.0, 0.011575453684750733
966.0, 0.011448226986089258
967.0, 0.011303798452062386
968.0, 0.01091463091815982
969.0, 0.01062619452932126
970.0, 0.009830660177289884
971.0, 0.009318148204923231
972.0, 0.009292070196146775
973.0, 0.009251624570868387
974.0, 0.008930040673626113
975.0, 0.008016991458014622
976.0, 0.007712905076483114
977.0, 0.007902829108870772
978.0, 0.007374575539096504
979.0, 0.00645630909684874
980.0, 0.005856908515664244
981.0, 0.005575294577346343
982.0, 0.005327800832832942
983.0, 0.00486033612709489
984.0, 0.004739661756304157
985.0, 0.0045088067951222785
986.0, 0.004197405683304272
987.0, 0.00379492285998637
988.0, 0.003587539000714607
989.0, 0.0038160899634493996
990.0, 0.003800182770713176
991.0, 0.003529977150784488
992.0, 0.003313300551961508
993.0, 0.0032009842284044404
994.0, 0.0025366370336352743
995.0, 0.002870625931203876
996.0, 0.0030971030385788705
997.0, 0.002803837097356985
998.0, 0.0023762649174136697
999.0, 0.0025704337823679968
1000.0, 0.002778539989168516
1001.0, 0.0018705200980588864
1002.0, 0.0021703605042437857
1003.0, 0.002036507243615151
1004.0, 0.002356052791847365
1005.0, 0.0023699509524726546
1006.0, 0.002026412726617769
1007.0, 0.0022726899169271198
1008.0, 0.0024971901034400784
1009.0, 0.0022195028368740878
1010.0, 0.0022056507100161244
1011.0, 0.0024620866047247833
1012.0, 0.0021052950064702775
1013.0, 0.0017616432869794363
1014.0, 0.0021158272212327164
1015.0, 0.0018087720580308925
1016.0, 0.0019715746657380973
1017.0, 0.0019109058068411617
1018.0, 0.0023081458260814976
1019.0, 0.0022425236614072096
1020.0, 0.0020334637319688845
1021.0, 0.0019987572390719214
1022.0, 0.0015994428238349507
1023.0, 0.0012175405942031878
1024.0, 0.0015319088648787676
1025.0, 0.0015309320389232032
1026.0, 0.0020157618207722644
1027.0, 0.002256572425012792
1028.0, 0.0011213278708991302
1029.0, 0.0011631867365912037
1030.0, 0.0010162573716843977
1031.0, 0.001460896562593201
1032.0, 0.0023117506994419397
1033.0, 0.0018291814317607014
1034.0, 0.0008577001478289639
1035.0, 0.0012120703987960372
1036.0, 0.0010389421320702804
1037.0, 0.0017810938540114623
1038.0, 0.0013584093870719408
1039.0, 0.0017243264511502098
1040.0, 0.0014773468996598222
1041.0, 0.0007661541224198108
1042.0, 0.0009215943591966092
1043.0, 0.0013467706133694361
1044.0, 0.0009995401360857015
1045.0, 0.0010808577728051532
1046.0, 0.0015573247050864206
1047.0, 0.0010642186646747747
1048.0, 0.0008204890468952196
1049.0, 0.001154043672053803
1050.0, 0.0010993178001011052
1051.0, 0.0013569389373235812
1052.0, 0.0007752639210419433
1053.0, 0.0007152931672905349
1054.0, 0.0004298900231856315
1055.0, 0.00039097743207843876
1056.0, 0.0007089259096294865
1057.0, 0.0005860734039920766
1058.0, 0.00031655635238549785
1059.0, 0.0004626289454937013
1060.0, 0.0006908277626067636
1061.0, 0.0008804969955457564
1062.0, 0.00011184705212210093
1063.0, 0.0005216631214213859
1064.0, 0.0006461113181706937
1065.0, 0.00037571251932936174
1066.0, 0.0005177491417873878
1067.0, 0.0005608370607005052
1068.0, 0.00027458198978481664
1069.0, 0.00022789765921817022
1070.0, 0.0001593749679711196
1071.0, 0.00010754850291033316
1072.0, 0.0005167902367372598
1073.0, 0.00044320703757603325
1074.0, 4.1398703290660774e-05
1075.0, 0.00014110893320606516
1076.0, 0.00012351500757548577
1077.0, 0.00042627833753350786
1078.0, 0.0001628413184320671
1079.0, 0.0004156651238736602
1080.0, 0.00012854034522084576
1081.0, 0.00013340595552167455
1082.0, 0.0003322082297025023
1083.0, 0.0001697742396224248
1084.0, 0.00013124421705813943
1085.0, 6.117926772757847e-05
1086.0, 0.00019385794790243273
1087.0, 0.0003967601801361011
1088.0, 0.000235538822391315
1089.0, 0.0003143503897936346
1090.0, 0.000365822729344421
1091.0, 0.00016455012145808463
1092.0, 0.00019669775572745812
1093.0, 0.0004883888353288644
1094.0, 0.00022201077369925107
1095.0, 0.0003566839145141938
1096.0, 0.0007733014783869722
1097.0, 0.0008238115095897567
1098.0, 0.00033215821229509046
1099.0, 0.0002836132759425476
1100.0, 0.0010242416235737386
1101.0, 0.001058492265071028
1102.0, 0.0009429133780733923
1103.0, 0.0008864439818614287
1104.0, 0.0011722404903634347
1105.0, 0.0010309328982130348
1106.0, 0.0007053761816103194
1107.0, 0.0013142214406569011
1108.0, 0.0012174958246147533
1109.0, 0.0008437146946898328
1110.0, 0.000897518051869957
1111.0, 0.001005903848574487
1112.0, 0.0009109462496541729
1113.0, 0.0009557339132834367
1114.0, 0.0011170573874418161
1115.0, 0.0010886425913781857
1116.0, 0.0015527017705713846
1117.0, 0.001837020567871205
1118.0, 0.0014798899270969672
1119.0, 0.000985336652180652
1120.0, 0.0011205395925777094
1121.0, 0.0008168852162325534
1122.0, 0.0005345824348616579
1123.0, 0.0010722214926248946
1124.0, 0.0007748603168186006
1125.0, 0.000512472596607371
1126.0, 0.0006549659659883053
1127.0, 0.00047154302708111144
1128.0, 0.0003823393937207072
1129.0, 0.0006164059403881439
1130.0, 0.000589625720040374
1131.0, 0.000618284560841118
1132.0, 0.00014627064527975725
1133.0, 0.0004941904802774324
1134.0, 0.0003462277015230271
1135.0, 7.05682467380264e-05
1136.0, 5.053854110572294e-05
1137.0, 0.0003018659178397758
1138.0, 0.00029698997541967336
1139.0, 0.00015181930745434793
1140.0, 0.00010598781100059603
1141.0, 0.00036953032714484964
1142.0, 0.0007856427950742472
1143.0, 0.0005276099730848328
1144.0, 0.00018959584840844645
1145.0, 0.00024874561579430143
1146.0, 0.0005219358269776798
1147.0, 0.0002814164631705016
1148.0, 0.0001716524056436708
1149.0, 0.0005660204200128282
1150.0, 0.00011770636998592688
1151.0, 0.00033245945568588877
1152.0, 0.00045592501373933783
1153.0, 0.00034971891548521726
1154.0, 0.00023425875444484136
1155.0, 3.147763237425282e-05
1156.0, 6.657452733736238e-05
1157.0, 0.00035679388039913066
1158.0, 0.00016666210083685792
1159.0, 0.00023107057934000744
1160.0, 0.000264614318301277
1161.0, 0.0002630003478642807
1162.0, 0.00019564447265188185
1163.0, 0.0007567740993271911
1164.0, 0.0009010336596115627
1165.0, 0.0006544312866413835
1166.0, 0.0006444631594529605
1167.0, 0.00026079348388192384
1168.0, 0.00039534903582549895
1169.0, 0.0002656085706766324
1170.0, 0.00024687722391716736
1171.0, 0.0005957775296176012
1172.0, 0.0007819213908866298
1173.0, 0.0005512863453182559
1174.0, 0.0005003616091718163
1175.0, 0.0009279475591535562
1176.0, 0.0008082814200965595
1177.0, 0.00045475882355322945
1178.0, 0.0006161073586138084
1179.0, 0.0009039269265377908
1180.0, 0.0006814296072681106
1181.0, 0.000439207602052879
1182.0, 0.001611622059032605
1183.0, 0.0013188470455673996
1184.0, 0.0010233257767193584
1185.0, 0.00048705050340175924
1186.0, 0.0009781348883164012
1187.0, 0.00017697973553880468
1188.0, 0.0005713760075471245
1189.0, 0.0006632445313389651
1190.0, 0.0005318577320522364
1191.0, 0.0006295474072606309
1192.0, 0.0005658544098162746
1193.0, 0.0010612392655700749
1194.0, 0.0012181425409206548
1195.0, 0.0008673462780729286
1196.0, 0.0006804745496325755
1197.0, 0.0009015284651284572
1198.0, 0.0009936510756383063
1199.0, 0.0004892221165656292
1200.0, 0.0007313629678155219
1201.0, 0.0009797830730393145
1202.0, 0.001036226016812298
1203.0, 0.0005525537524120383
1204.0, 0.0009240053276313964
1205.0, 0.0013015109341180415
1206.0, 0.0011263513852993743
1207.0, 0.0005715342944517925
1208.0, 0.001299131882927669
1209.0, 0.0007412384113493456
1210.0, 0.00037816793876982116
1211.0, 0.00028348015473578437
1212.0, 0.0007556956504480436
1213.0, 0.0004626468176961606
1214.0, 5.863577984571731e-05
1215.0, 0.00026711037921239226
1216.0, 0.0006351808410054823
1217.0, 0.0008690350847643886
1218.0, 0.001136585292266192
1219.0, 0.0008475522126255957
1220.0, 0.0006234062920189473
1221.0, 0.0006702446370000734
1222.0, 0.0007105852748152105
1223.0, 0.0004362868506844571
1224.0, 0.00040638887861313205
1225.0, 0.0008033464547946698
1226.0, 0.0007676748355452028
1227.0, 0.0008253920842583788
1228.0, 0.0005521188993402107
1229.0, 0.0005666034357304473
1230.0, 0.0010033675425271376
1231.0, 0.0008275955932779722
1232.0, 0.0008805807054571124
1233.0, 0.0009706589386603231
1234.0, 0.0012370555963117284
1235.0, 0.00129350594591205
1236.0, 0.0008034745087684818
1237.0, 0.0007892480801665046
1238.0, 0.0016534600302957863
1239.0, 0.0017852747099474794
1240.0, 0.0005885821843181686
1241.0, 0.00038105801064568733
1242.0, 0.0012700639784453383
1243.0, 0.001126678086555916
1244.0, 0.0007567350251698912
1245.0, 0.001429489181309149
1246.0, 0.0013049309184584444
1247.0, 0.0004807403267567022
1248.0, 0.0009233571974258338
1249.0, 0.0009645100967611857
1250.0, 0.0007776020877875417
1251.0, 0.000848272690011035
1252.0, 0.0010054522695618965
1253.0, 0.0011701827718731159
1254.0, 0.0009077230199648175
1255.0, 0.0011600064164729953
1256.0, 0.000521797281860657
1257.0, 0.000634975338653661
1258.0, 0.000758431507449465
1259.0, 0.0012188683494324544
1260.0, 0.0011173581763233163
1261.0, 0.0006818489642477819
1262.0, 0.0008292171432932314
1263.0, 0.0007322447050865898
1264.0, 0.0005686084953125691
1265.0, 0.0006149920155502629
1266.0, 0.0005232054745347
1267.0, 0.0008666733904805588
1268.0, 0.0007887640866229297
1269.0, 0.0006723545384231673
1270.0, 0.0007692651260176397
1271.0, 0.0006640110264502283
1272.0, 0.0009576257947125197
1273.0, 0.0008887720771002527
1274.0, 0.0003777887015900259
1275.0, 0.00043140323423463794
1276.0, 0.0006305581021768831
1277.0, 0.0004956564230264905
1278.0, 4.889728520303077e-05
1279.0, 0.00016957931939318488
1280.0, 0.0007515897955920842
1281.0, 0.00032937776211764585
1282.0, 0.00022940470781141227
1283.0, 0.00017930125553092743
1284.0, 5.293253825668815e-05
1285.0, 0.00010958479934715349
1286.0, 2.1085615003589395e-05
1287, 0.0
1288, 0.0
1289, 0.0
1290, 0.0
1291, 0.0
1292, 0.0
1293, 0.0
1294, 0.0
1295, 0.0
1296, 0.0
1297, 0.0
1298, 0.0
1299, 0.0
1300, 0.0
1301, 0.0
1302, 0.0
1303, 0.0
1304, 0.0
1305, 0.0
1306, 0.0
1307, 0.0
1308, 0.0
1309, 0.0
1310, 0.0
1311, 0.0
1312, 0.0
1313, 0.0
1314, 0.0
1315, 0.0
1316, 0.0
1317, 0.0
1318, 0.0
1319, 0.0
1320, 0.0
1321, 0.0
1322, 0.0
1323, 0.0
1324, 0.0
1325, 0.0
1326, 0.0
1327, 0.0
1328, 0.0
1329, 0.0
1330, 0.0
1331, 0.0
1332, 0.0
1333, 0.0
1334, 0.0
1335, 0.0
1336, 0.0
1337, 0.0
1338, 0.0
1339, 0.0
1340, 0.0
1341, 0.0
1342, 0.0
1343, 0.0
1344, 0.0
1345, 0.0
1346, 0.0
1347, 0.0
1348, 0.0
1349, 0.0
1350, 0.0
1351, 0.0
1352, 0.0
1353, 0.0
1354, 0.0
1355, 0.0
1356, 0.0
1357, 0.0
1358, 0.0
1359, 0.0
1360, 0.0
1361, 0.0
1362, 0.0
1363, 0.0
1364, 0.0
1365, 0.0
1366, 0.0
1367, 0.0
1368, 0.0
1369, 0.0
1370, 0.0
1371, 0.0
1372, 0.0
1373, 0.0
1374, 0.0
1375, 0.0
1376, 0.0
1377, 0.0
1378, 0.0
1379, 0.0
1380, 0.0
1381, 0.0
1382, 0.0
1383, 0.0
1384, 0.0
1385, 0.0
1386, 0.0
1387, 0.0
1388, 0.0
1389, 0.0
1390, 0.0
1391, 0.0
1392, 0.0
1393, 0.0
1394, 0.0
1395, 0.0
1396, 0.0
1397, 0.0
1398, 0.0
1399, 0.0
1400, 0.0
1401, 0.0
1402, 0.0
1403, 0.0
1404, 0.0
1405, 0.0
1406, 0.0
1407, 0.0
1408, 0.0
1409, 0.0
1410, 0.0
1411, 0.0
1412, 0.0
1413, 0.0
1414, 0.0
1415, 0.0
1416, 0.0
1417, 0.0
1418, 0.0
1419, 0.0
1420, 0.0
1421, 0.0
1422, 0.0
1423, 0.0
1424, 0.0
1425, 0.0
1426, 0.0
1427, 0.0
1428, 0.0
1429, 0.0
1430, 0.0
1431, 0.0
1432, 0.0
1433, 0.0
1434, 0.0
1435, 0.0
1436, 0.0
1437, 0.0
1438, 0.0
1439, 0.0
1440, 0.0
1441, 0.0
1442, 0.0
1443, 0.0
1444, 0.0
1445, 0.0
1446, 0.0
1447, 0.0
1448, 0.0
1449, 0.0
1450, 0.0
1451, 0.0
1452, 0.0
1453, 0.0
1454, 0.0
1455, 0.0
1456, 0.0
1457, 0.0
1458, 0.0
1459, 0.0
1460, 0.0
1461, 0.0
1462, 0.0
1463, 0.0
1464, 0.0
1465, 0.0
1466, 0.0
1467, 0.0
1468, 0.0
1469, 0.0
1470, 0.0
1471, 0.0
1472, 0.0
1473, 0.0
1474, 0.0
1475, 0.0
1476, 0.0
1477, 0.0
1478, 0.0
1479, 0.0
1480, 0.0
1481, 0.0
1482, 0.0
1483, 0.0
1484, 0.0
1485, 0.0
1486, 0.0
1487, 0.0
1488, 0.0
1489, 0.0
1490, 0.0
1491, 0.0
1492, 0.0
1493, 0.0
1494, 0.0
1495, 0.0
1496, 0.0
1497, 0.0
1498, 0.0
1499, 0.0
1500, 0.0
1501, 0.0
1502, 0.0
1503, 0.0
1504, 0.0
1505, 0.0
1506, 0.0
1507, 0.0
1508, 0.0
1509, 0.0
1510, 0.0
1511, 0.0
1512, 0.0
1513, 0.0
1514, 0.0
1515, 0.0
1516, 0.0
1517, 0.0
1518, 0.0
1519, 0.0
1520, 0.0
1521, 0.0
1522, 0.0
1523, 0.0
1524, 0.0
1525, 0.0
1526, 0.0
1527, 0.0
1528, 0.0
1529, 0.0
1530, 0.0
1531, 0.0
1532, 0.0
1533, 0.0
1534, 0.0
1535, 0.0
1536, 0.0
1537, 0.0
1538, 0.0
1539, 0.0
1540, 0.0
1541, 0.0
1542, 0.0
1543, 0.0
1544, 0.0
1545, 0.0
1546, 0.0
1547, 0.0
1548, 0.0
1549, 0.0
1550, 0.0
1551, 0.0
1552, 0.0
1553, 0.0
1554, 0.0
1555, 0.0
1556, 0.0
1557, 0.0
1558, 0.0
1559, 0.0
1560, 0.0
1561, 0.0
1562, 0.0
1563, 0.0
1564, 0.0
1565, 0.0
1566, 0.0
1567, 0.0
1568, 0.0
1569, 0.0
1570, 0.0
1571, 0.0
1572, 0.0
1573, 0.0
1574, 0.0
1575, 0.0
1576, 0.0
1577, 0.0
1578, 0.0
1579, 0.0
1580, 0.0
1581, 0.0
1582, 0.0
1583, 0.0
1584, 0.0
1585, 0.0
1586, 0.0
1587, 0.0
1588, 0.0
1589, 0.0
1590, 0.0
1591, 0.0
1592, 0.0
1593, 0.0
1594, 0.0
1595, 0.0
1596, 0.0
1597, 0.0
1598, 0.0
1599, 0.0
