30, 0.0
31, 0.0
32, 0.0
33, 0.0
34, 0.0
35, 0.0
36, 0.0
37, 0.0
38, 0.0
39, 0.0
40, 0.0
41, 0.0
42, 0.0
43, 0.0
44, 0.0
45, 0.0
46, 0.0
47, 0.0
48, 0.0
49, 0.0
50, 0.0
51, 0.0
52, 0.0
53, 0.0
54, 0.0
55, 0.0
56, 0.0
57, 0.0
58, 0.0
59, 0.0
60, 0.0
61, 0.0
62, 0.0
63, 0.0
64, 0.0
65, 0.0
66, 0.0
67, 0.0
68, 0.0
69, 0.0
70, 0.0
71, 0.0
72, 0.0
73, 0.0
74, 0.0
75, 0.0
76, 0.0
77, 0.0
78, 0.0
79, 0.0
80, 0.0
81, 0.0
82, 0.0
83, 0.0
84, 0.0
85, 0.0
86, 0.0
87, 0.0
88, 0.0
89, 0.0
90, 0.0
91, 0.0
92, 0.0
93, 0.0
94, 0.0
95, 0.0
96, 0.0
97, 0.0
98, 0.0
99, 0.0
100, 0.0
101, 0.0
102, 0.0
103, 0.0
104, 0.0
105, 0.0
106, 0.0
107, 0.0
108, 0.0
109, 0.0
110, 0.0
111, 0.0
112, 0.0
113, 0.0
114, 0.0
115, 0.0
116, 0.0
117, 0.0
118, 0.0
119, 0.0
120, 0.0
121, 0.0
122, 0.0
123, 0.0
124, 0.0
125, 0.0
126, 0.0
127, 0.0
128, 0.0
129, 0.0
130, 0.0
131, 0.0
132, 0.0
133, 0.0
134, 0.0
135, 0.0
136.0, 0.00030771895549850655
137.0, 0.00013668102868250975
138.0, 0.00015085807915789137
139.0, 0.0014906329014073134
140.0, 0.004402026645320447
141.0, 0.006659678720993765
142.0, 0.009668852789829785
143.0, 0.011942476095271576
144.0, 0.011910464450196495
145.0, 0.014001943510244282
146.0, 0.01929679540252393
147.0, 0.02175661395315553
148.0, 0.022102465100992126
149.0, 0.026385607869817532
150.0, 0.030192614441637674
151.0, 0.03458625688462859
152.0, 0.03835470021146211
153.0, 0.04059680711091442
154.0, 0.049968475382053956
155.0, 0.05862770765302962
156.0, 0.06765717457177721
157.0, 0.07809159090831162
158.0, 0.08656357621318628
159.0, 0.09148908884655353
160.0, 0.09245311421259171
161.0, 0.09054780021672536
162.0, 0.08728720159679208
163.0, 0.07811561352893605
164.0, 0.06824775368653047
165.0, 0.06022185470443996
166.0, 0.05434349272500689
167.0, 0.04905295962583143
168.0, 0.04801303920903886
169.0, 0.04923290657323908
170.0, 0.04987558013019197
171.0, 0.04919375431881834
172.0, 0.05074299645129188
173.0, 0.053713374795610204
174.0, 0.05636116983476364
175.0, 0.05699388403951879
176.0, 0.05342282029197877
177.0, 0.04991790414561249
178.0, 0.046900357682536295
179.0, 0.04356143311572228
180.0, 0.04045187816690461
181.0, 0.03897201036009798
182.0, 0.036998746571494254
183.0, 0.03427986053129767
184.0, 0.03333112737263442
185.0, 0.03153175960942896
186.0, 0.029944139669020493
187.0, 0.028672494640685938
188.0, 0.027112353261049247
189.0, 0.026442540401446155
190.0, 0.02510522134641188
191.0, 0.023527689818668495
192.0, 0.022418413631512587
193.0, 0.02161560527515235
194.0, 0.02029420619679792
195.0, 0.01960157728501289
196.0, 0.020012241698968893
197.0, 0.02065887205242304
198.0, 0.019365701593538474
199.0, 0.01849632728620525
200.0, 0.018294159978287386
201.0, 0.018097404764531193
202.0, 0.017791001529949356
203.0, 0.01883563736735796
204.0, 0.02030346320207362
205.0, 0.02052064650889069
206.0, 0.018839743308052135
207.0, 0.01953206308418971
208.0, 0.020476924743408346
209.0, 0.020973419698018053
210.0, 0.02194917595509369
211.0, 0.024743272892897097
212.0, 0.024817262023833313
213.0, 0.025210273640251503
214.0, 0.027461191734338107
215.0, 0.028294359168614256
216.0, 0.028046090878583105
217.0, 0.02904914250263031
218.0, 0.030336385751975115
219.0, 0.03020829474286882
220.0, 0.033090220471312014
221.0, 0.031726344612480105
222.0, 0.030376830851176522
223.0, 0.031371253122699144
224.0, 0.02896533921453366
225.0, 0.028036042729925797
226.0, 0.026052751774751866
227.0, 0.023957237163927978
228.0, 0.02416164999008503
229.0, 0.022174878959755315
230.0, 0.020266940003298678
231.0, 0.019216768002907274
232.0, 0.018084223673754844
233.0, 0.014138147113568806
234.0, 0.013740587381972948
235.0, 0.013008748670743451
236.0, 0.011637806494553012
237.0, 0.011418475355399605
238.0, 0.009741885717528334
239.0, 0.007337359457637117
240.0, 0.0054194982846272255
241.0, 0.004484504047045451
242.0, 0.00413739141512029
243.0, 0.003298107319183896
244.0, 0.00294645638886284
245.0, 0.0030313619088378147
246.0, 0.0027697944428040954
247.0, 0.0003700400514102212
248.0, 0.0007209044067993321
249.0, 0.0007698631440626194
250.0, 0.00180163202013672
251.0, 0.0032424419104177173
252.0, 0.0022247023876833076
253.0, 0.0011782032337033523
254.0, 0.0013838901627271452
255.0, 0.0026392918426804694
256.0, 0.0032858555527234684
257.0, 0.00319283389010325
258.0, 0.004132893090419315
259.0, 0.004830491505445591
260.0, 0.0021020245136164377
261.0, 0.002820969986320765
262.0, 0.0023419326715345464
263.0, 0.0014967576974725641
264.0, 0.0021935236494722388
265.0, 0.0033268090217550626
266.0, 0.0037312200526265923
267.0, 0.0027968237661357117
268.0, 0.0016813340685278475
269.0, 0.0018926765270671853
270.0, 0.0013817609891245638
271.0, 0.000302543807136873
272.0, 0.0015495055408351413
273.0, 0.0016528631492486753
274.0, 0.001904309553003664
275.0, 0.0031389623716229814
276.0, 0.004818668723124482
277.0, 0.006779788087705924
278.0, 0.008670655636910215
279.0, 0.009393539077396153
280.0, 0.012597630948753186
281.0, 0.014989823980288983
282.0, 0.016130715281123975
283.0, 0.018694610021789196
284.0, 0.020951626918096312
285.0, 0.023379833353005575
286.0, 0.026537338177560547
287.0, 0.030380724361412054
288.0, 0.034128056203816634
289.0, 0.03841967190100088
290.0, 0.03974440977644395
291.0, 0.041766826365446603
292.0, 0.04787920238119606
293.0, 0.050582907059128476
294.0, 0.053639986824654894
295.0, 0.056143284536443565
296.0, 0.05816582945530348
297.0, 0.061436426756193596
298.0, 0.06538597928609774
299.0, 0.06833754901596206
300.0, 0.0709202946758502
301.0, 0.07340670279507544
302.0, 0.07481546441138934
303.0, 0.07651083992393852
304.0, 0.07737725926829725
305.0, 0.07654281350790687
306.0, 0.07545022412259385
307.0, 0.07782115418578789
308.0, 0.0762293168042299
309.0, 0.0764627618889268
310.0, 0.07764825563477994
311.0, 0.07481213572205361
312.0, 0.07427335061434355
313.0, 0.07549272449501188
314.0, 0.07603919893067286
315.0, 0.07533128624249695
316.0, 0.07497874916123082
317.0, 0.07666564195024494
318.0, 0.07978967285586643
319.0, 0.08197909306191417
320.0, 0.08279007590337939
321.0, 0.08424614387768772
322.0, 0.08474349107425339
323.0, 0.08979000342723223
324.0, 0.09523572082905214
325.0, 0.09592706738714207
326.0, 0.09818713283989013
327.0, 0.09902285955877801
328.0, 0.10238757225246414
329.0, 0.10804164476463561
330.0, 0.1126135714639394
331.0, 0.11686496816867667
332.0, 0.11736359087745915
333.0, 0.11710898069401264
334.0, 0.11801574664979689
335.0, 0.11920826710898191
336.0, 0.12180393847832169
337.0, 0.1241792321407479
338.0, 0.12444499640594923
339.0, 0.1223376246338448
340.0, 0.12029893076773965
341.0, 0.12066183212966676
342.0, 0.11963304405120775
343.0, 0.11765775365092479
344.0, 0.11635889441237186
345.0, 0.11466686672645149
346.0, 0.11306069296713846
347.0, 0.11155042746269796
348.0, 0.11096197842338361
349.0, 0.1105502393563025
350.0, 0.10493966625971289
351.0, 0.10568585747977897
352.0, 0.10826537170427346
353.0, 0.10917056731893576
354.0, 0.10862154617673994
355.0, 0.10777878585402884
356.0, 0.10817442355670531
357.0, 0.10998676900663683
358.0, 0.11235659850236351
359.0, 0.11426496924175951
360.0, 0.11574478921492584
361.0, 0.11906634727606068
362.0, 0.12063674604036387
363.0, 0.12174724298974916
364.0, 0.12774138651129865
365.0, 0.13124439534125013
366.0, 0.1339252986564436
367.0, 0.13743696377145834
368.0, 0.1412718862034029
369.0, 0.14284039663010342
370.0, 0.1422096390791036
371.0, 0.14110896895185646
372.0, 0.14049428602544267
373.0, 0.14003814791429053
374.0, 0.13783834410665144
375.0, 0.13448364476258953
376.0, 0.13394392829463111
377.0, 0.13416819508735384
378.0, 0.12935278965140012
379.0, 0.11379577575944756
380.0, 0.10520105513185957
381.0, 0.09911668536959857
382.0, 0.09301543860546896
383.0, 0.08707937402552145
384.0, 0.08240145823015908
385.0, 0.07620190857314244
386.0, 0.07085834448000457
387.0, 0.0661988966669239
388.0, 0.061420155723069914
389.0, 0.058368408833637725
390.0, 0.05603509070155111
391.0, 0.05324492429528072
392.0, 0.04941578430590536
393.0, 0.04522215345645743
394.0, 0.043581517414298235
395.0, 0.04236175164993272
396.0, 0.04050056915143055
397.0, 0.038315151499949435
398.0, 0.036304363500761744
399.0, 0.0344477625635566
400.0, 0.033881115386900154
401.0, 0.032938668925197985
402.0, 0.03161191381974945
403.0, 0.02990335569235228
404.0, 0.02553301090864125
405.0, 0.025015142463724445
406.0, 0.02500178850163564
407.0, 0.023595408733338166
408.0, 0.021321138336236185
409.0, 0.020924997381601168
410.0, 0.020501035749529002
411.0, 0.018403739556736992
412.0, 0.016913713217639813
413.0, 0.017228438207157176
414.0, 0.015401458843731859
415.0, 0.014533363879701647
416.0, 0.013752641704085798
417.0, 0.011368385282540364
418.0, 0.00853643293407317
419.0, 0.010098095052353269
420.0, 0.007985384848622486
421.0, 0.006433293351064458
422.0, 0.004464811347003641
423.0, 0.0018868595514329727
424.0, 0.003660668144689337
425.0, 0.0036080170094101474
426.0, 0.0022589363005447263
427.0, 0.0006460354024058442
428.0, 0.0003487891706390361
429.0, 4.2021642349469725e-06
430.0, 0.0014159075210714183
431.0, 0.001620396097927822
432.0, 0.0012777745419215842
433.0, 0.0020331606593531936
434.0, 0.003910800589195749
435.0, 0.002337520927150006
436.0, 0.0021018257664832717
437.0, 0.0027039782717040335
438.0, 0.0030276717283008953
439.0, 0.003644289675980063
440.0, 0.0028080884150240553
441.0, 0.0026244385207175795
442.0, 0.0022615258253252113
443.0, 0.0018048925067880098
444.0, 0.0024056005714687832
445.0, 0.002309877396496549
446.0, 0.003094589507846959
447.0, 0.0021208547905500344
448.0, 0.00035436252295628265
449.0, 0.0006767652921636861
450.0, 0.00011241380242871525
451.0, 0.00010086441398241973
452.0, 0.0009611675883410074
453.0, 0.002279533255403353
454.0, 0.002505889412627863
455.0, 0.0046408770304205834
456.0, 0.006037812799097417
457.0, 0.0064370864124396
458.0, 0.007270865709648861
459.0, 0.008902049040307504
460.0, 0.00928081526575195
461.0, 0.011274205763965916
462.0, 0.012635454134304254
463.0, 0.012383437323087918
464.0, 0.012281793953074552
465.0, 0.015122622903718895
466.0, 0.01793626132437276
467.0, 0.01762594404201474
468.0, 0.017866173920619514
469.0, 0.01983508674668863
470.0, 0.02084967310775564
471.0, 0.021749117934282733
472.0, 0.02264430893115552
473.0, 0.02421333132466336
474.0, 0.02505003257820572
475.0, 0.02308464672150443
476.0, 0.02000346552365052
477.0, 0.020856040340781867
478.0, 0.0207322760131137
479.0, 0.01880205087628087
480.0, 0.018286154556955224
481.0, 0.020185213027734
482.0, 0.018233938035697443
483.0, 0.017718304410190473
484.0, 0.018425598229946483
485.0, 0.018548775471590163
486.0, 0.018273671111725294
487.0, 0.018802492850492424
488.0, 0.017977014924405853
489.0, 0.017637120834902622
490.0, 0.018047165115550202
491.0, 0.01749809322654303
492.0, 0.017448133040673695
493.0, 0.01630196318141351
494.0, 0.01699413172528419
495.0, 0.018864558070727094
496.0, 0.01948574710076195
497.0, 0.01948692560348521
498.0, 0.019726998674539472
499.0, 0.019532327868276304
500.0, 0.018113855369979767
501.0, 0.017025126224600968
502.0, 0.01960848278357203
503.0, 0.01761650115376574
504.0, 0.017321454564410057
505.0, 0.0178020072178456
506.0, 0.017234389048428785
507.0, 0.01548290207359134
508.0, 0.014267273077001224
509.0, 0.015185882800191172
510.0, 0.014346812994858616
511.0, 0.013699155528661848
512.0, 0.014967544893870624
513.0, 0.012344147566598029
514.0, 0.014028722740660042
515.0, 0.015683879401129877
516.0, 0.015746351796372803
517.0, 0.01538355241696544
518.0, 0.01615207634442269
519.0, 0.016678475635051964
520.0, 0.01623434829671486
521.0, 0.017845513927196643
522.0, 0.02136372663932491
523.0, 0.024101149070000712
524.0, 0.02504059646821411
525.0, 0.027081726969806926
526.0, 0.030911124954593538
527.0, 0.0354770557821631
528.0, 0.03965439016005852
529.0, 0.04326334116087818
530.0, 0.04673328723947036
531.0, 0.051947741262496606
532.0, 0.05929386178237045
533.0, 0.06645538688006862
534.0, 0.07135703259355068
535.0, 0.07584984943948743
536.0, 0.08115234312875451
537.0, 0.09108450056425026
538.0, 0.09851827145493362
539.0, 0.10098090879284086
540.0, 0.1073846779419744
541.0, 0.111887400918236
542.0, 0.11313058723883361
543.0, 0.11352520702505021
544.0, 0.11303145951123868
545.0, 0.10994239523136864
546.0, 0.10520309337896894
547.0, 0.09726076766838221
548.0, 0.08585142910915923
549.0, 0.0757061047014639
550.0, 0.06864077191792915
551.0, 0.06126663639025096
552.0, 0.052778759165224676
553.0, 0.045548542328312486
554.0, 0.03975312972781392
555.0, 0.034645078377180095
556.0, 0.029494487155238686
557.0, 0.02460858490774823
558.0, 0.02313167075679933
559.0, 0.020585354583961196
560.0, 0.0165494144223557
561.0, 0.013411090057591453
562.0, 0.012511370276955024
563.0, 0.012535621511388468
564.0, 0.010191127245291804
565.0, 0.009061988874843855
566.0, 0.008652543923247455
567.0, 0.006810727008208455
568.0, 0.004056293318145525
569.0, 0.006017857011081229
570.0, 0.004926459910432654
571.0, 0.002872312513785899
572.0, 0.0021778800386974724
573.0, 0.0017224495418936125
574.0, 0.0006974445785154038
575.0, 0.00011967538993889963
576.0, 0.000645650311442401
577.0, 0.0006466573267988854
578.0, 0.00010719436395786267
579.0, 0.0011024085922435767
580.0, 0.0007562055273238962
581.0, 8.977169161791023e-05
582.0, 0.0007276157982620262
583.0, 0.0004971815962700773
584.0, 0.0015701562545466122
585.0, 0.0006392242004774188
586.0, 0.0003441329057919275
587.0, 0.0012203156543013842
588.0, 0.0006170803497144528
589.0, 0.0005063837894349651
590.0, 0.0008904636007881045
591.0, 0.0003277568049873036
592.0, 0.0011762610640477585
593.0, 0.0020890383939636387
594.0, 0.001392722388882358
595.0, 0.0003600472314860211
596.0, 0.0017247836502835663
597.0, 0.002165633864662514
598.0, 0.0007313447639051494
599.0, 8.93168801227292e-05
600.0, 8.980124208398252e-05
601.0, 0.0005709478985916719
602.0, 0.001202705791000464
603.0, 0.0011843900904120947
604.0, 0.0018057651414500257
605.0, 0.002157435481855137
606.0, 0.0011017775007523595
607.0, 5.8790654144357765e-05
608.0, 0.0029133898863285164
609.0, 0.0028379995444281648
610.0, 0.001857474946772239
611.0, 0.0027915953910731643
612.0, 0.004978033389800092
613.0, 0.006304012138518654
614.0, 0.00661149984218374
615.0, 0.007165318709648352
616.0, 0.009144794330165991
617.0, 0.009825615186346412
618.0, 0.009408454928205849
619.0, 0.010542768860295818
620.0, 0.01253318527210376
621.0, 0.013722875196375519
622.0, 0.015095217808086538
623.0, 0.015768166816445862
624.0, 0.016007952577573883
625.0, 0.017016009986563316
626.0, 0.01781474176824109
627.0, 0.01680946322382894
628.0, 0.0161758377478715
629.0, 0.015749097093619463
630.0, 0.015452309630570645
631.0, 0.015798228397738114
632.0, 0.014286800190093827
633.0, 0.01181070999689417
634.0, 0.010619994162615581
635.0, 0.009125775597795984
636.0, 0.007297800711565221
637.0, 0.007697545554306237
638.0, 0.00765836915274579
639.0, 0.00533156752215577
640.0, 0.005397356199150446
641.0, 0.005455751263352565
642.0, 0.00363183089156978
643.0, 0.003428793307218368
644.0, 0.004071829320704431
645.0, 0.0034583642553228672
646.0, 0.003445369270197278
647.0, 0.002712311353227279
648.0, 0.0010445400898557165
649.0, 0.001057344316600552
650.0, 0.002417037029695465
651.0, 0.0012907602540948794
652.0, 0.001230114554809399
653.0, 0.002206611612421285
654.0, 0.0019442130607474858
655.0, 0.0003973114142123513
656.0, 0.00042014451830398286
657.0, 0.000501061896949934
658.0, 0.0015442985324106984
659.0, 0.0020336210539221734
660.0, 0.0011564358786840853
661.0, 0.0001726789930795889
662.0, 0.00013128620066935615
663.0, 5.216682509866504e-05
664.0, 0.0007850210186843773
665.0, 0.000592531696726562
666.0, 0.0011306534457364594
667.0, 0.0013892076161938305
668.0, 0.0006442570695686419
669.0, 0.0005927232990098845
670.0, 0.001101346937215631
671.0, 0.0007355286899636008
672.0, 0.00017899884810263454
673.0, 0.00025885667790587414
674.0, 0.0014427252317482917
675.0, 0.0025771988476830806
676.0, 0.0011359632026944364
677.0, 0.000701697172891765
678.0, 0.0017364615466104675
679.0, 0.0017711647579523242
680.0, 0.0011333348982997473
681.0, 0.00010416777011443691
682.0, 0.0017084446921498727
683.0, 0.002678410153029969
684.0, 0.0019744213993591535
685.0, 0.0014665456827271676
686.0, 0.001617720791499609
687.0, 0.0027352185652468725
688.0, 0.0024745224998049963
689.0, 0.0035672157201842736
690.0, 0.0043234306794564395
691.0, 0.0036983426724861365
692.0, 0.005146416788731696
693.0, 0.005278840554924883
694.0, 0.005857907434477641
695.0, 0.005613008684440782
696.0, 0.005903844523733824
697.0, 0.00744442714397768
698.0, 0.008311422539154383
699.0, 0.007910806365584248
700.0, 0.0080544731246805
701.0, 0.007731363281840476
702.0, 0.007900506667277277
703.0, 0.008911748868212811
704.0, 0.009655366769520158
705.0, 0.00979904728890846
706.0, 0.01209359692722093
707.0, 0.012430738796707365
708.0, 0.012507878068405049
709.0, 0.012930470833347158
710.0, 0.012995815725340837
711.0, 0.01358239261186437
712.0, 0.014315285846491957
713.0, 0.01471201766401446
714.0, 0.016642494605695418
715.0, 0.01869830113699186
716.0, 0.018940170642592444
717.0, 0.017903562308958638
718.0, 0.01885107506748227
719.0, 0.02038592927037914
720.0, 0.020614165138355248
721.0, 0.019425155935872514
722.0, 0.019421241872003583
723.0, 0.020983059171824792
724.0, 0.01925467275542031
725.0, 0.01905961954085867
726.0, 0.019269235204204888
727.0, 0.01854901204832351
728.0, 0.017345168600520607
729.0, 0.017430188305809807
730.0, 0.019102639853254912
731.0, 0.018104264146105064
732.0, 0.01715911581428229
733.0, 0.016566261200535646
734.0, 0.015543200736892462
735.0, 0.01493162636646784
736.0, 0.015245005286316136
737.0, 0.014635519934519078
738.0, 0.014746010310499984
739.0, 0.014032518280936861
740.0, 0.014233927592910036
741.0, 0.014969291184439237
742.0, 0.014610550034003453
743.0, 0.012563185921818435
744.0, 0.011712532345886636
745.0, 0.010741635203401453
746.0, 0.010235181785234472
747.0, 0.009352783438641103
748.0, 0.008715385615720786
749.0, 0.009466980825328465
750.0, 0.009719406489380963
751.0, 0.009756528298769104
752.0, 0.009035300145530464
753.0, 0.00830584421386208
754.0, 0.008110707402079727
755.0, 0.008208178404798063
756.0, 0.007986859593380333
757.0, 0.007178484769138773
758.0, 0.006149879431374495
759.0, 0.005864003969458006
760.0, 0.005007770446947652
761.0, 0.004405914761595112
762.0, 0.004826002612196793
763.0, 0.003709612936177177
764.0, 0.0028461611769142444
765.0, 0.0036379207911961427
766.0, 0.0030625330162641533
767.0, 0.0021640410546336
768.0, 0.002503833231781381
769.0, 0.0031571389455662987
770.0, 0.0011908493023960237
771.0, 0.000334348387069119
772.0, 0.0003885027346161911
773.0, 0.0002384707415324458
774.0, 0.0013726130056043123
775.0, 0.0018986360398635486
776.0, 0.0022030770777105193
777.0, 0.001999076767738426
778.0, 0.0019964291456317372
779.0, 0.0015561705089792701
780.0, 0.00102245177758882
781.0, 0.0007461671862192362
782.0, 0.0007710608364168936
783.0, 0.0010197616689022436
784.0, 7.341006949050793e-05
785.0, 0.0002494808671767365
786.0, 0.00016551185598348258
787.0, 0.0010216029080251292
788.0, 0.0010349996568179117
789.0, 0.0004220202974435822
790.0, 0.0004796148451696701
791.0, 6.242841473436411e-05
792.0, 0.0022106377966634493
793.0, 0.002199893455082126
794.0, 0.0025477424086785883
795.0, 0.0030362389982724874
796.0, 0.0013057003026704977
797.0, 0.001373217537333919
798.0, 0.001959411714005145
799.0, 0.0019622447658680323
800.0, 0.0005205087335669908
801.0, 0.0005183454073313946
802.0, 0.0010995303812866653
803.0, 0.000433770475540962
804.0, 0.0014687912182572613
805.0, 0.000288062300880367
806.0, 0.0013138651640016972
807.0, 0.00213032695687084
808.0, 0.0015520633233515727
809.0, 0.0008963496270069618
810.0, 0.0010902548902474443
811.0, 0.0005263224581480892
812.0, 0.0006455205714806939
813.0, 0.0012377805048531614
814.0, 0.0014092575944505213
815.0, 0.0003976991867087496
816.0, 0.0005371859227074595
817.0, 0.0013814800203771978
818.0, 0.000637523286389285
819.0, 0.0012508171675716848
820.0, 0.0009110862640975488
821.0, 0.0014110051137140199
822.0, 0.0007015490074586423
823.0, 0.000269847570293307
824.0, 0.001481985957920744
825.0, 0.0013989555833165857
826.0, 0.0007855422666796501
827.0, 0.0019609597373258423
828.0, 0.0037843992162060022
829.0, 0.004821026813480023
830.0, 0.005727563180047508
831.0, 0.008147535005163575
832.0, 0.011603292764635828
833.0, 0.014949964900063714
834.0, 0.01717230222531484
835.0, 0.01862924235150332
836.0, 0.02102356792742466
837.0, 0.02562309625416868
838.0, 0.030766433309197174
839.0, 0.03167412394213372
840.0, 0.03409584173725121
841.0, 0.04000533209000448
842.0, 0.040636660567374694
843.0, 0.04355630407656923
844.0, 0.048138665674787154
845.0, 0.048874358310573775
846.0, 0.048798021340609454
847.0, 0.049423903645161686
848.0, 0.04934607721517716
849.0, 0.050036532710585564
850.0, 0.05027817274030909
851.0, 0.050363461358316874
852.0, 0.049791205302391145
853.0, 0.04754609800391239
854.0, 0.04670865428418804
855.0, 0.04556075490394837
856.0, 0.044942517238553824
857.0, 0.04344218116027247
858.0, 0.04158183261273051
859.0, 0.039911943607065584
860.0, 0.03857151097912076
861.0, 0.03855476392629441
862.0, 0.03976247468215164
863.0, 0.040172607105894036
864.0, 0.0400648032532885
865.0, 0.04134181848290516
866.0, 0.041582140379733845
867.0, 0.040208817096273546
868.0, 0.04255681954106314
869.0, 0.04729977747157607
870.0, 0.049369576926457145
871.0, 0.050492717783539295
872.0, 0.05455816764621514
873.0, 0.05909716018636818
874.0, 0.06287231089839758
875.0, 0.06793754059171829
876.0, 0.07291633334782946
877.0, 0.08024039149594986
878.0, 0.0824283742440769
879.0, 0.09112366444405849
880.0, 0.10169486416456884
881.0, 0.11013544917540219
882.0, 0.11916508822527215
883.0, 0.1303637937999795
884.0, 0.14332252399397577
885.0, 0.15801674541375005
886.0, 0.17168189261753786
887.0, 0.18874198903346123
888.0, 0.20903060797054035
889.0, 0.23138490221256294
890.0, 0.2570287648852224
891.0, 0.28647346546964814
892.0, 0.3187321138497082
893.0, 0.3561437341029173
894.0, 0.39576554425972893
895.0, 0.4408620693451989
896.0, 0.48936355419942623
897.0, 0.5389885642193264
898.0, 0.5946910478327758
899.0, 0.6570264835246242
900.0, 0.7107135722508521
901.0, 0.7714806277061755
902.0, 0.8332400789142943
903.0, 0.8850901605244825
904.0, 0.932455967129046
905.0, 0.9758647201670256
906.0, 0.9968147736346449
907.0, 0.9967548247821727
908.0, 0.9714669864341607
909.0, 0.9340187393552608
910.0, 0.8762006159554901
911.0, 0.8092954108893762
912.0, 0.7373171178301672
913.0, 0.6576977999627992
914.0, 0.5846426755830911
915.0, 0.515659371140569
916.0, 0.455832305606338
917.0, 0.40577653702678984
918.0, 0.35998012261786905
919.0, 0.31856991423731484
920.0, 0.2830737989856554
921.0, 0.2511283059050669
922.0, 0.22031457836854473
923.0, 0.1970229047469671
924.0, 0.17484354999054785
925.0, 0.15529220032681101
926.0, 0.13902960472053094
927.0, 0.12485829481018297
928.0, 0.11172892016812819
929.0, 0.09911377769980766
930.0, 0.08814124549100599
931.0, 0.08093037464723503
932.0, 0.07179902631282976
933.0, 0.0628955770588727
934.0, 0.06120141494493674
935.0, 0.05732446693722921
936.0, 0.049057522839459064
937.0, 0.04557579772712783
938.0, 0.041013084121560066
939.0, 0.03908692174060746
940.0, 0.03703343322238538
941.0, 0.033991167911341026
942.0, 0.03181163595424935
943.0, 0.02954103845786197
944.0, 0.02632944799270037
945.0, 0.02407859028262021
946.0, 0.0247077746180978
947.0, 0.022731634602192234
948.0, 0.020130049850185287
949.0, 0.018065634109680755
950.0, 0.016063752897479886
951.0, 0.015039318108498753
952.0, 0.013692390497330405
953.0, 0.01141769926938652
954.0, 0.01106325566836531
955.0, 0.009367460057290944
956.0, 0.009522039861678743
957.0, 0.008456818674073769
958.0, 0.006351457957838423
959.0, 0.006150577610858899
960.0, 0.0062961416029370465
961.0, 0.004985884666606588
962.0, 0.00414437626695567
963.0, 0.0023992809925532433
964.0, 0.001906055336329445
965.0, 0.0035152148430512456
966.0, 0.0019295130616156207
967.0, 0.0003205045436447929
968.0, 0.00025728120431730347
969.0, 0.00026020654965347673
970.0, 6.202427743568035e-05
971.0, 0.002701178039963212
972.0, 0.0018292707564443857
973.0, 0.003027535077215222
974.0, 0.0022768390028099416
975.0, 0.001855945305589745
976.0, 0.003621614411036974
977.0, 0.004673416341271165
978.0, 0.0029989829034531967
979.0, 0.0020067671883856933
980.0, 0.0020397457425472758
981.0, 0.0031857601872435507
982.0, 0.002116497858570389
983.0, 0.002721134358892432
984.0, 0.0015785738763245591
985.0, 0.00045004507220039783
986.0, 0.0004800486520349409
987.0, 0.0020126625700481143
988.0, 0.0015878411365479426
989.0, 0.001932302113704689
990.0, 0.0012428900193417922
991.0, 0.002880969909598258
992.0, 0.004001611508235029
993.0, 0.0048581058715682955
994.0, 0.006223000729514139
995.0, 0.007775994734849534
996.0, 0.009951048162316031
997.0, 0.011461379159319177
998.0, 0.013495093374767949
999.0, 0.013336314023753487
1000.0, 0.014192158739698988
1001.0, 0.015674293179031164
1002.0, 0.016042345733068043
1003.0, 0.016401217283272207
1004.0, 0.01870298740639735
1005.0, 0.020946276717090866
1006.0, 0.021800846735967588
1007.0, 0.024897189764178103
1008.0, 0.027512318937049324
1009.0, 0.029595808677213207
1010.0, 0.03036115099728327
1011.0, 0.03184747888840894
1012.0, 0.03511135385469097
1013.0, 0.037883827658046494
1014.0, 0.03941932975925546
1015.0, 0.042163169505060896
1016.0, 0.045572002372969836
1017.0, 0.04504306988034307
1018.0, 0.04831181377831973
1019.0, 0.05227029796493796
1020.0, 0.05261443131176225
1021.0, 0.05383854498239275
1022.0, 0.05766454929313746
1023.0, 0.05718750781846367
1024.0, 0.05911971016812818
1025.0, 0.05572553927262299
1026.0, 0.05687840737931692
1027.0, 0.05527162572247583
1028.0, 0.05233315149949084
1029.0, 0.04920334666837409
1030.0, 0.04538374427880652
1031.0, 0.04036059480808269
1032.0, 0.034204805812317704
1033.0, 0.03186242353995252
1034.0, 0.028684840976584972
1035.0, 0.02410502699841682
1036.0, 0.021821658072449342
1037.0, 0.01835419193015573
1038.0, 0.015648345480989357
1039.0, 0.01393204566796684
1040.0, 0.011284308569402147
1041.0, 0.010369413930465435
1042.0, 0.008927208220180298
1043.0, 0.007350402540471522
1044.0, 0.006187444578301554
1045.0, 0.007022476665397215
1046.0, 0.0057379464370477095
1047.0, 0.00343008106146427
1048.0, 0.0032026674477990203
1049.0, 0.004227832705047026
1050.0, 0.004229857825359562
1051.0, 0.004706434577587461
1052.0, 0.004990481606493273
1053.0, 0.002247313797610325
1054.0, 0.002946027875748108
1055.0, 0.0029526833103772675
1056.0, 0.0029109056895617585
1057.0, 0.0029947342770596757
1058.0, 0.0028290106969166974
1059.0, 0.003064772333256274
1060.0, 0.001567021095873989
1061.0, 0.00039793303647879313
1062.0, 0.0017704905212296393
1063.0, 0.002802525509326436
1064.0, 0.0008665355175228877
1065.0, 0.0008839352499572783
1066.0, 0.00113175150820966
1067.0, 0.0009937133318178122
1068.0, 0.0014656220763444496
1069.0, 0.00019664116433690444
1070.0, 0.00025059984458770913
1071.0, 0.001622934115510865
1072.0, 0.000998599650484682
1073.0, 0.0016285141392818913
1074.0, 0.002676140425563133
1075.0, 0.0011643057696134663
1076.0, 0.0014006200029201105
1077.0, 0.0026868656442762297
1078.0, 0.0009210548100546489
1079.0, 0.00033027348010212793
1080.0, 0.0006968613177369155
1081.0, 0.0012450274844764758
1082.0, 0.003237295632792342
1083.0, 0.002257112420435353
1084.0, 0.0010759649264033882
1085.0, 0.00031939887378531763
1086.0, 0.00033058782986478743
1087.0, 0.0008882499039046888
1088.0, 0.0014025644887228255
1089.0, 0.0008436104638133194
1090.0, 0.0021246888228527686
1091.0, 0.0005595830238217953
1092.0, 0.0009198429853485479
1093.0, 0.0006371496390121632
1094.0, 0.0011230500738356054
1095.0, 0.0004112364363886267
1096.0, 0.0004896109260910904
1097.0, 0.00121672538609379
1098.0, 0.0011446779897226933
1099.0, 0.0018732001179980855
1100.0, 0.0015742268289155755
1101.0, 0.00036478228861980716
1102.0, 0.0006481633797377236
1103.0, 0.001036807755444922
1104.0, 0.0005458393513928367
1105.0, 0.00036626121623011595
1106.0, 0.0024027784589008105
1107.0, 0.002225865835759276
1108.0, 0.0004956174377088612
1109.0, 0.0008725645306433883
1110.0, 0.0012217468147059044
1111.0, 0.0015152359642922626
1112.0, 0.0008370713236594641
1113.0, 0.0001642038288132109
1114.0, 0.0004810681925056685
1115.0, 0.00042901512578194116
1116.0, 0.0005993755323239092
1117.0, 0.0018192430248980824
1118.0, 0.0016170203172428124
1119.0, 0.0002967639524949236
1120.0, 0.00011543922360599755
1121.0, 0.0001421936931156173
1122.0, 0.0016532574619387871
1123.0, 0.0016513541212548968
1124.0, 0.0018295065053761125
1125.0, 0.002564417655439923
1126.0, 0.0031091792144497814
1127.0, 0.0023803957565518914
1128.0, 0.001349708517952795
1129.0, 0.0009534936529957721
1130.0, 0.00022593353664248373
1131.0, 0.001330909321774776
1132.0, 0.001700624857136512
1133.0, 0.002417588817732696
1134.0, 0.0011026522741646857
1135.0, 0.0004287078615081122
1136.0, 0.0013317955970129575
1137.0, 0.002230223469426815
1138.0, 0.0026390622677710065
1139.0, 0.0027157473689398927
1140.0, 0.0021593878949279915
1141.0, 0.0015817315303177774
1142.0, 0.0001355425293914814
1143.0, 0.0008619170334025977
1144.0, 0.0027038463196084658
1145.0, 0.004077047119114093
1146.0, 0.0033665210576255588
1147.0, 0.0008845716852527404
1148.0, 0.0011662149338548518
1149.0, 0.0024033872314945318
1150.0, 0.0014372020770389263
1151.0, 0.0015986932509209437
1152.0, 0.0038663371996489277
1153.0, 0.004083859277548107
1154.0, 0.0033020523663837647
1155.0, 0.0021541240082029634
1156.0, 0.0020665245975370126
1157.0, 0.0018964204725840544
1158.0, 0.0019008165500993346
1159.0, 0.001989650835432376
1160.0, 0.0021040951340385006
1161.0, 0.002991160341610767
1162.0, 0.0032732377526644707
1163.0, 0.0030233944039407268
1164.0, 0.004103330339685803
1165.0, 0.003356744335109748
1166.0, 0.0004898453402611884
1167.0, 0.002061730889204922
1168.0, 0.002290822176685788
1169.0, 0.0008570794504093154
1170.0, 0.0013277891054996962
1171.0, 0.0020757428637664063
1172.0, 0.002385125624660521
1173.0, 0.002953282144872267
1174.0, 0.002401114849829102
1175.0, 0.0033877275265342083
1176.0, 0.0021211569979358723
1177.0, 0.0005646507290748072
1178.0, 0.0031175157474445216
1179.0, 0.002993775231499401
1180.0, 0.0014433352679283844
1181.0, 0.001802002765063585
1182.0, 0.001725353867170057
1183.0, 0.002681324943198743
1184.0, 0.003311705868996073
1185.0, 0.0007054969481672052
1186.0, 0.0010415326981567615
1187.0, 0.0019468766065868334
1188.0, 0.0011058172149731645
1189.0, 0.001882159050824001
1190.0, 0.002479802520719699
1191.0, 0.0004144186933465784
1192.0, 0.0015912887829511572
1193.0, 0.0010036544531296812
1194.0, 0.0004014032842791232
1195.0, 0.0007421136542345034
1196.0, 0.0017274385043024646
1197.0, 0.0032701007964793406
1198.0, 0.002079326865696029
1199.0, 0.0019511532995682888
1200.0, 0.0023016407686872508
1201.0, 0.0015131167109569891
1202.0, 0.0009350282055610525
1203.0, 0.001783780677294941
1204.0, 0.0009188137913604521
1205.0, 0.0005437834296452233
1206.0, 0.0005350532766672327
1207.0, 0.0010250201866097634
1208.0, 0.0016583562358217449
1209.0, 0.0005082034165684266
1210.0, 0.00015080225391325358
1211.0, 0.0007927542588300514
1212.0, 0.0006504938070421197
1213.0, 0.00023615121095789073
1214.0, 0.00026930271224264715
1215.0, 0.0007961169140757008
1216.0, 0.0023237871067210703
1217.0, 0.0014730303623013252
1218.0, 0.0007261909476749483
1219.0, 0.00014328656966191685
1220.0, 0.0007155499918760682
1221.0, 0.002242795521968652
1222.0, 0.0016388690389858578
1223.0, 0.0006098609357250632
1224.0, 0.0028683796438372412
1225.0, 0.0022856868647295214
1226.0, 0.001289920988273405
1227.0, 0.0015444585746959253
1228.0, 0.0008759469454219242
1229.0, 0.00015106564575523054
1230.0, 0.0013618296520364116
1231.0, 0.0016208020432672474
1232.0, 0.0014265959756648372
1233.0, 0.0014294601801114512
1234.0, 0.001323983319073479
1235.0, 0.002485872933726122
1236.0, 0.0019898438229911776
1237.0, 0.0009573806473026722
1238.0, 0.0018337941018337638
1239.0, 0.0031776017466607575
1240.0, 0.0006229275528221773
1241.0, 0.0006159698247716605
1242.0, 0.002566801180452283
1243.0, 0.003351431837640773
1244.0, 0.0035821342320397167
1245.0, 0.0033107306835854816
1246.0, 0.0033442838637281398
1247.0, 0.0032178768667783506
1248.0, 0.002244674828004401
1249.0, 0.00315114026535894
1250.0, 0.003145433655673597
1251.0, 0.0015263602528103395
1252.0, 0.0006335538805147839
1253.0, 0.0020500566495627267
1254.0, 0.0024150197823214555
1255.0, 0.0027065024765953937
1256.0, 0.002822701231552056
1257.0, 0.002710050658336029
1258.0, 0.00191271379753953
1259.0, 0.0010873027807662527
1260.0, 0.0021568855294288483
1261.0, 0.0034579701899243114
1262.0, 0.0021743876686048974
1263.0, 0.0022541615283537767
1264.0, 0.004117737321404851
1265.0, 0.0035693656239774068
1266.0, 0.004541409058144528
1267.0, 0.0035976960969547876
1268.0, 0.003449222112365389
1269.0, 0.002272895941078839
1270.0, 0.00224262622996751
1271.0, 0.0032403199937651467
1272.0, 0.004410482604101879
1273.0, 0.0026418246169550574
1274.0, 0.0013657298869684871
1275.0, 0.002894427559215116
1276.0, 0.002488327442396796
1277.0, 0.0042191030671432355
1278.0, 0.0026086427537772594
1279.0, 0.0027234022530916568
1280.0, 0.002840102416651563
1281.0, 0.002239353767427286
1282.0, 0.00248096404193403
1283.0, 0.0009330605063603579
1284.0, 0.0011945766975874764
1285.0, 0.002838872825167219
1286.0, 0.003647059922834011
1287.0, 0.0026677296873972825
1288.0, 0.001317595974495039
1289.0, 0.0006941355484765316
1290.0, 0.0009222321537033857
1291.0, 0.0018953518619245588
1292.0, 0.0013274613638088264
1293.0, 0.0006255449794511144
1294.0, 0.0005174572196959491
1295.0, 0.0018757999834040275
1296.0, 0.002802501841668458
1297.0, 0.00012555071770566485
1298.0, 0.000914531630761356
1299.0, 0.0033821720368094406
1300.0, 0.002036746450673916
1301.0, 0.00029843726749537896
1302.0, 0.002077793122917394
1303.0, 0.0027624998170920944
1304.0, 0.0004896025625744404
1305, 0.0
1306, 0.0
1307, 0.0
1308, 0.0
1309, 0.0
1310, 0.0
1311, 0.0
1312, 0.0
1313, 0.0
1314, 0.0
1315, 0.0
1316, 0.0
1317, 0.0
1318, 0.0
1319, 0.0
1320, 0.0
1321, 0.0
1322, 0.0
1323, 0.0
1324, 0.0
1325, 0.0
1326, 0.0
1327, 0.0
1328, 0.0
1329, 0.0
1330, 0.0
1331, 0.0
1332, 0.0
1333, 0.0
1334, 0.0
1335, 0.0
1336, 0.0
1337, 0.0
1338, 0.0
1339, 0.0
1340, 0.0
1341, 0.0
1342, 0.0
1343, 0.0
1344, 0.0
1345, 0.0
1346, 0.0
1347, 0.0
1348, 0.0
1349, 0.0
1350, 0.0
1351, 0.0
1352, 0.0
1353, 0.0
1354, 0.0
1355, 0.0
1356, 0.0
1357, 0.0
1358, 0.0
1359, 0.0
1360, 0.0
1361, 0.0
1362, 0.0
1363, 0.0
1364, 0.0
1365, 0.0
1366, 0.0
1367, 0.0
1368, 0.0
1369, 0.0
1370, 0.0
1371, 0.0
1372, 0.0
1373, 0.0
1374, 0.0
1375, 0.0
1376, 0.0
1377, 0.0
1378, 0.0
1379, 0.0
1380, 0.0
1381, 0.0
1382, 0.0
1383, 0.0
1384, 0.0
1385, 0.0
1386, 0.0
1387, 0.0
1388, 0.0
1389, 0.0
1390, 0.0
1391, 0.0
1392, 0.0
1393, 0.0
1394, 0.0
1395, 0.0
1396, 0.0
1397, 0.0
1398, 0.0
1399, 0.0
1400, 0.0
1401, 0.0
1402, 0.0
1403, 0.0
1404, 0.0
1405, 0.0
1406, 0.0
1407, 0.0
1408, 0.0
1409, 0.0
1410, 0.0
1411, 0.0
1412, 0.0
1413, 0.0
1414, 0.0
1415, 0.0
1416, 0.0
1417, 0.0
1418, 0.0
1419, 0.0
1420, 0.0
1421, 0.0
1422, 0.0
1423, 0.0
1424, 0.0
1425, 0.0
1426, 0.0
1427, 0.0
1428, 0.0
1429, 0.0
1430, 0.0
1431, 0.0
1432, 0.0
1433, 0.0
1434, 0.0
1435, 0.0
1436, 0.0
1437, 0.0
1438, 0.0
1439, 0.0
1440, 0.0
1441, 0.0
1442, 0.0
1443, 0.0
1444, 0.0
1445, 0.0
1446, 0.0
1447, 0.0
1448, 0.0
1449, 0.0
1450, 0.0
1451, 0.0
1452, 0.0
1453, 0.0
1454, 0.0
1455, 0.0
1456, 0.0
1457, 0.0
1458, 0.0
1459, 0.0
1460, 0.0
1461, 0.0
1462, 0.0
1463, 0.0
1464, 0.0
1465, 0.0
1466, 0.0
1467, 0.0
1468, 0.0
1469, 0.0
1470, 0.0
1471, 0.0
1472, 0.0
1473, 0.0
1474, 0.0
1475, 0.0
1476, 0.0
1477, 0.0
1478, 0.0
1479, 0.0
1480, 0.0
1481, 0.0
1482, 0.0
1483, 0.0
1484, 0.0
1485, 0.0
1486, 0.0
1487, 0.0
1488, 0.0
1489, 0.0
1490, 0.0
1491, 0.0
1492, 0.0
1493, 0.0
1494, 0.0
1495, 0.0
1496, 0.0
1497, 0.0
1498, 0.0
1499, 0.0
1500, 0.0
1501, 0.0
1502, 0.0
1503, 0.0
1504, 0.0
1505, 0.0
1506, 0.0
1507, 0.0
1508, 0.0
1509, 0.0
1510, 0.0
1511, 0.0
1512, 0.0
1513, 0.0
1514, 0.0
1515, 0.0
1516, 0.0
1517, 0.0
1518, 0.0
1519, 0.0
1520, 0.0
1521, 0.0
1522, 0.0
1523, 0.0
1524, 0.0
1525, 0.0
1526, 0.0
1527, 0.0
1528, 0.0
1529, 0.0
1530, 0.0
1531, 0.0
1532, 0.0
1533, 0.0
1534, 0.0
1535, 0.0
1536, 0.0
1537, 0.0
1538, 0.0
1539, 0.0
1540, 0.0
1541, 0.0
1542, 0.0
1543, 0.0
1544, 0.0
1545, 0.0
1546, 0.0
1547, 0.0
1548, 0.0
1549, 0.0
1550, 0.0
1551, 0.0
1552, 0.0
1553, 0.0
1554, 0.0
1555, 0.0
1556, 0.0
1557, 0.0
1558, 0.0
1559, 0.0
1560, 0.0
1561, 0.0
1562, 0.0
1563, 0.0
1564, 0.0
1565, 0.0
1566, 0.0
1567, 0.0
1568, 0.0
1569, 0.0
1570, 0.0
1571, 0.0
1572, 0.0
1573, 0.0
1574, 0.0
1575, 0.0
1576, 0.0
1577, 0.0
1578, 0.0
1579, 0.0
1580, 0.0
1581, 0.0
1582, 0.0
1583, 0.0
1584, 0.0
1585, 0.0
1586, 0.0
1587, 0.0
1588, 0.0
1589, 0.0
1590, 0.0
1591, 0.0
1592, 0.0
1593, 0.0
1594, 0.0
1595, 0.0
1596, 0.0
1597, 0.0
1598, 0.0
1599, 0.0
