30, 0.0
31, 0.0
32, 0.0
33, 0.0
34, 0.0
35, 0.0
36, 0.0
37, 0.0
38, 0.0
39, 0.0
40, 0.0
41, 0.0
42, 0.0
43, 0.0
44, 0.0
45, 0.0
46, 0.0
47, 0.0
48, 0.0
49, 0.0
50, 0.0
51, 0.0
52, 0.0
53, 0.0
54, 0.0
55, 0.0
56, 0.0
57, 0.0
58, 0.0
59, 0.0
60, 0.0
61, 0.0
62, 0.0
63, 0.0
64, 0.0
65, 0.0
66, 0.0
67, 0.0
68, 0.0
69, 0.0
70, 0.0
71, 0.0
72, 0.0
73, 0.0
74, 0.0
75, 0.0
76, 0.0
77, 0.0
78, 0.0
79, 0.0
80, 0.0
81, 0.0
82, 0.0
83, 0.0
84, 0.0
85, 0.0
86, 0.0
87, 0.0
88, 0.0
89, 0.0
90, 0.0
91, 0.0
92, 0.0
93, 0.0
94, 0.0
95, 0.0
96, 0.0
97, 0.0
98, 0.0
99, 0.0
100, 0.0
101, 0.0
102, 0.0
103, 0.0
104, 0.0
105, 0.0
106, 0.0
107, 0.0
108, 0.0
109, 0.0
110, 0.0
111, 0.0
112, 0.0
113, 0.0
114, 0.0
115, 0.0
116, 0.0
117, 0.0
118, 0.0
119, 0.0
120, 0.0
121, 0.0
122, 0.0
123, 0.0
124, 0.0
125, 0.0
126, 0.0
127, 0.0
128, 0.0
129, 0.0
130.0, 0.0001539487985452664
131.0, 0.0023655803601880824
132.0, 0.0016143908079265907
133.0, 0.0007107085129626986
134.0, 0.004497258971224604
135.0, 0.003667384359614135
136.0, 0.0038257807268648075
137.0, 0.006416331350813496
138.0, 0.010469713384099954
139.0, 0.01330090354622453
140.0, 0.012345151301255701
141.0, 0.008974763286055235
142.0, 0.006133944772377194
143.0, 0.008089006058947211
144.0, 0.005675192579620543
145.0, 0.0030793536116621493
146.0, 0.0026981684887971698
147.0, 0.0013167738339109009
148.0, 0.0024415944929469797
149.0, 0.003940581147097855
150.0, 0.003675681314201273
151.0, 0.001112479079393833
152.0, 0.00042670540685785875
153.0, 0.0005126870830737302
154.0, 0.0021713695751030106
155.0, 0.005823238005011719
156.0, 0.0021594580391112624
157.0, 0.002068548734416659
158.0, 0.004507359936326038
159.0, 0.005295676181995584
160.0, 0.0033476155741571792
161.0, 0.0024057668898907563
162.0, 0.001985329455529511
163.0, 0.0013975431366937718
164.0, 0.002103374897544092
165.0, 0.00217763431319954
166.0, 0.0018857891611330606
167.0, 0.001307227072170277
168.0, 0.00030966609562473773
169.0, 0.0006495561376151305
170.0, 0.0019369479893397593
171.0, 0.0028986097244828183
172.0, 0.0031709233167921953
173.0, 0.0030685268090799287
174.0, 0.0031922627995874388
175.0, 0.003260976792435868
176.0, 0.003064877923704572
177.0, 0.0032310876536208156
178.0, 0.0027813254171797433
179.0, 0.00281815982162869
180.0, 0.0035254598886385316
181.0, 0.0025029015709567394
182.0, 0.0031630375633238408
183.0, 0.002334041632923157
184.0, 0.0014977895002752546
185.0, 0.0046568400370035545
186.0, 0.002424310561030209
187.0, 0.0004335473979075684
188.0, 0.0015225340372986324
189.0, 0.003632784065510355
190.0, 0.00039151904075347785
191.0, 0.00043680239799762305
192.0, 0.0025323197913916973
193.0, 0.002062901617908516
194.0, 0.0012568857593565307
195.0, 0.0010363019216747713
196.0, 0.0022719435519137706
197.0, 0.003564403590576729
198.0, 0.001844197774097929
199.0, 0.00028780639031823497
200.0, 0.001437126045877883
201.0, 0.003358573785925711
202.0, 0.0028959491852227964
203.0, 0.0034976551979472776
204.0, 0.0033443984025726577
205.0, 0.002511474942393274
206.0, 0.0018927427632356424
207.0, 0.0027311587022837403
208.0, 0.0021803803460995084
209.0, 0.0022400277390053924
210.0, 0.0031804733653077125
211.0, 0.0018675271168342173
212.0, 0.0006106082849119083
213.0, 0.0012133165833399433
214.0, 0.0004515366316057367
215.0, 0.0018484361378127245
216.0, 0.0005028281965957852
217.0, 0.000996044069928671
218.0, 0.0022795307198246115
219.0, 0.0006721820631349814
220.0, 0.0015273217354321677
221.0, 0.0007171256830353857
222.0, 0.0002690131823274558
223.0, 0.0012423642992536504
224.0, 0.002149930858809303
225.0, 0.001242109083778488
226.0, 0.00021212557288279553
227.0, 0.00038493638030877926
228.0, 0.0017529709748445646
229.0, 0.0006843594049808933
230.0, 0.0006150375643649594
231.0, 0.0005311564590651918
232.0, 0.00030426435857854473
233.0, 3.683070029651197e-05
234.0, 0.0007966103336651439
235.0, 0.0006135697514340397
236.0, 0.0008305365967134603
237.0, 0.0019101688620293464
238.0, 0.00044801170950302854
239.0, 0.0007830114023245838
240.0, 0.0027105135175019444
241.0, 0.0029083135922665705
242.0, 0.001011928469062828
243.0, 0.00034282312609422525
244.0, 0.00021535890163780047
245.0, 0.001199252023872105
246.0, 0.0012384402528976097
247.0, 0.0024215235877798813
248.0, 0.00187480289982987
249.0, 0.0005603217950343224
250.0, 0.0017359662137039532
251.0, 0.0008223469940972596
252.0, 0.001118731360283753
253.0, 0.0017182738614530647
254.0, 0.0013903112393319106
255.0, 0.00040662552998692314
256.0, 0.00041103098748373015
257.0, 9.709479460128354e-05
258.0, 0.001101453743589278
259.0, 0.0019678365932941054
260.0, 0.00023616429063459774
261.0, 0.0014896424206616741
262.0, 0.0033620918824045754
263.0, 0.0037793129339628684
264.0, 0.004808641279454221
265.0, 0.007484218260734381
266.0, 0.011155926560353722
267.0, 0.01654403191018931
268.0, 0.024747518611761568
269.0, 0.034035259875655206
270.0, 0.04134053295982097
271.0, 0.04567953039359873
272.0, 0.049135805571713105
273.0, 0.056910007862813784
274.0, 0.061247162421517336
275.0, 0.0704651164275433
276.0, 0.0824578602078913
277.0, 0.09059822851006293
278.0, 0.10495675836054011
279.0, 0.12325774702750443
280.0, 0.14710340206572012
281.0, 0.1806103160481746
282.0, 0.22719685848128623
283.0, 0.28542456000489996
284.0, 0.3261423664876913
285.0, 0.3214968499452938
286.0, 0.2606740734948325
287.0, 0.18554011347362914
288.0, 0.12554003636462888
289.0, 0.08318488716459388
290.0, 0.054892057295856805
291.0, 0.03884590057331885
292.0, 0.028591135342078904
293.0, 0.020252640665248768
294.0, 0.014838028469756244
295.0, 0.01291700838279887
296.0, 0.007810217491800966
297.0, 0.006937717060219252
298.0, 0.00561744413921149
299.0, 0.00232769306633603
300.0, 0.0023470934427719187
301.0, 0.0031182842270661626
302.0, 0.002641479876428274
303.0, 0.0020128591121773747
304.0, 0.002991677004367836
305.0, 0.004253670211848814
306.0, 0.006485000198042323
307.0, 0.007529159137799492
308.0, 0.009736298223974323
309.0, 0.016194990298281458
310.0, 0.016157909684301405
311.0, 0.018636548308738208
312.0, 0.02242421084024282
313.0, 0.0255056541907099
314.0, 0.03097506422085895
315.0, 0.03722114975162054
316.0, 0.040129568336160326
317.0, 0.04608857934612282
318.0, 0.059898684575717974
319.0, 0.06007526716363662
320.0, 0.10068476994477081
321.0, 0.11922493645590583
322.0, 0.10144635588544766
323.0, 0.10710749334481937
324.0, 0.11194012370435372
325.0, 0.10988058397281436
326.0, 0.09906468473884046
327.0, 0.08237994356343079
328.0, 0.07515198973429595
329.0, 0.06942991626656941
330.0, 0.0682872182077869
331.0, 0.0718720815758142
332.0, 0.07750167759637712
333.0, 0.08494541692996786
334.0, 0.09216093192735948
335.0, 0.09944151277652703
336.0, 0.10858890665228883
337.0, 0.12146069112993217
338.0, 0.1377050243921265
339.0, 0.1600852845154915
340.0, 0.18666130140612178
341.0, 0.21618397319692545
342.0, 0.25775015187147443
343.0, 0.31601685375558125
344.0, 0.3838074793487461
345.0, 0.44920337887861767
346.0, 0.48774010486095426
347.0, 0.4604304863734898
348.0, 0.3894737230521941
349.0, 0.30535268380575936
350.0, 0.23105161464537402
351.0, 0.17781540297363468
352.0, 0.1353664600514238
353.0, 0.11247127423742904
354.0, 0.10128438577990397
355.0, 0.09303484784314206
356.0, 0.0900702135525174
357.0, 0.09057932377008411
358.0, 0.09219775633812467
359.0, 0.09789315499576595
360.0, 0.11008024392819565
361.0, 0.12035321880758212
362.0, 0.12890119579890272
363.0, 0.14193424487497056
364.0, 0.15766180014352185
365.0, 0.16955624823360904
366.0, 0.1822046785948331
367.0, 0.1946525940646877
368.0, 0.2094907966906036
369.0, 0.23080092894005413
370.0, 0.2634602578386341
371.0, 0.3042042739191303
372.0, 0.3532711693544776
373.0, 0.3967834349663903
374.0, 0.4119633172284168
375.0, 0.3771997473919002
376.0, 0.30849502890578534
377.0, 0.23251277123595274
378.0, 0.16632229081616406
379.0, 0.11675477310242051
380.0, 0.08366188906442643
381.0, 0.060510220972657416
382.0, 0.0440089934719682
383.0, 0.03299579319563317
384.0, 0.026147998905734205
385.0, 0.020893918772642336
386.0, 0.015776000097293436
387.0, 0.011219245188186407
388.0, 0.008161620265239068
389.0, 0.006815728611683697
390.0, 0.005648435343736908
391.0, 0.004447840187653312
392.0, 0.0020606068154094596
393.0, 0.00036034213475056876
394.0, 0.0006423513162421225
395.0, 0.0004946243922053095
396.0, 0.0006019735601227891
397.0, 0.00031807866428786393
398.0, 0.00042388220951971456
399.0, 0.0002983848519163063
400.0, 0.0028536321278481744
401.0, 0.003206496379091299
402.0, 0.002266721164324972
403.0, 0.0030597274027349655
404.0, 0.0027956021765943827
405.0, 0.0027917431287460466
406.0, 0.001411793405231334
407.0, 0.00111784182137301
408.0, 0.003670598361668138
409.0, 0.0011605647668700234
410.0, 0.001809006209015193
411.0, 0.0013331182103183165
412.0, 0.0009005431699767142
413.0, 0.0015587428720376176
414.0, 0.0006972936557671487
415.0, 0.0011519565822732344
416.0, 0.00039565695658617093
417.0, 0.0017732370431768267
418.0, 0.0025165553429771694
419.0, 0.004849251819633535
420.0, 0.009993553419538299
421.0, 0.013987549563550002
422.0, 0.017665086127708295
423.0, 0.024628966241124633
424.0, 0.028849885668977615
425.0, 0.03358799126130198
426.0, 0.038138847653745755
427.0, 0.042491807343957404
428.0, 0.048693602204395586
429.0, 0.05842947391015427
430.0, 0.06845198375100436
431.0, 0.08154437686606031
432.0, 0.10227312827602096
433.0, 0.13345557359014565
434.0, 0.17426735698230586
435.0, 0.2235519017992992
436.0, 0.24851584829464882
437.0, 0.22728617136140852
438.0, 0.16906380033270066
439.0, 0.11638355543433647
440.0, 0.08215908990108484
441.0, 0.0642120000143269
442.0, 0.05688676823086462
443.0, 0.055601975122728735
444.0, 0.05820773690848104
445.0, 0.05901384236626562
446.0, 0.06240561811086288
447.0, 0.07025801489799467
448.0, 0.08007721435728578
449.0, 0.08972142271588159
450.0, 0.10331593276844452
451.0, 0.11973904422155122
452.0, 0.1381674807832463
453.0, 0.1572137235989804
454.0, 0.16882357446813936
455.0, 0.1653179720372249
456.0, 0.15107864412658242
457.0, 0.13038322305161043
458.0, 0.10547432909691286
459.0, 0.0914049362601379
460.0, 0.07845116730881666
461.0, 0.07315401177081735
462.0, 0.0773188518781249
463.0, 0.08480390508794187
464.0, 0.09733616570705055
465.0, 0.10986469150216573
466.0, 0.1188363970665112
467.0, 0.12917353835215425
468.0, 0.14694156539434952
469.0, 0.16221289163182154
470.0, 0.19007677181286592
471.0, 0.22004804140980794
472.0, 0.2558799510620485
473.0, 0.31063514221804234
474.0, 0.37661469491450317
475.0, 0.45994915174016815
476.0, 0.5492011930068973
477.0, 0.6164174114137935
478.0, 0.6213006835705449
479.0, 0.5428797723141814
480.0, 0.4189741078786445
481.0, 0.29630193828764867
482.0, 0.20021216897773
483.0, 0.13369785582340613
484.0, 0.09174853552765283
485.0, 0.06634843730314685
486.0, 0.0480986620177053
487.0, 0.03580738563783613
488.0, 0.029612815302345736
489.0, 0.024988124392690776
490.0, 0.021316769479482637
491.0, 0.015523707415704621
492.0, 0.013410660951332405
493.0, 0.015775092972983407
494.0, 0.01255815688409337
495.0, 0.01002796418682332
496.0, 0.01133490161264257
497.0, 0.012807063725680684
498.0, 0.012755443230291872
499.0, 0.013477489160531674
500.0, 0.015540831302367466
501.0, 0.016963418117285384
502.0, 0.017395398038244247
503.0, 0.01771116945666998
504.0, 0.018532327496003566
505.0, 0.019971347855416623
506.0, 0.022867165931248854
507.0, 0.02597223520722175
508.0, 0.028319082105264046
509.0, 0.030123521523461004
510.0, 0.032806724876702706
511.0, 0.036716291671379464
512.0, 0.04354413547429341
513.0, 0.048700609749142795
514.0, 0.05141530739035341
515.0, 0.061319393919455636
516.0, 0.0696805955837942
517.0, 0.07697903022462584
518.0, 0.08590195326612757
519.0, 0.09746325382432224
520.0, 0.10966978146124551
521.0, 0.11824883862195949
522.0, 0.1320201860204588
523.0, 0.14726857942283603
524.0, 0.15932670001825086
525.0, 0.1675476877304618
526.0, 0.1710513496345729
527.0, 0.1636438195761579
528.0, 0.1511501093120483
529.0, 0.13347974447113609
530.0, 0.11027000196661044
531.0, 0.09189910198535872
532.0, 0.07257441272841937
533.0, 0.05534995930091896
534.0, 0.04224119122606775
535.0, 0.032933633027896286
536.0, 0.02551241950134306
537.0, 0.01996248638290052
538.0, 0.012801687251276644
539.0, 0.008827001949865796
540.0, 0.007982638357437531
541.0, 0.0047002833731765396
542.0, 0.002504926828097268
543.0, 0.0027697236091667795
544.0, 0.002109531151022646
545.0, 0.00039737241530802566
546.0, 0.0007820503776908021
547.0, 0.0018765686633657535
548.0, 0.003287893656628833
549.0, 0.0037023229788059387
550.0, 0.0028600592087352616
551.0, 0.0020764477762468835
552.0, 0.003301055569504938
553.0, 0.004410040103904046
554.0, 0.0037964533488192833
555.0, 0.0030550710931039815
556.0, 0.0024413232614398594
557.0, 0.000995360905162852
558.0, 0.00026365342628145613
559.0, 0.0007873235441861708
560.0, 0.0007885633474377373
561.0, 0.0018396328690511523
562.0, 0.0002630148045974157
563.0, 0.0011903437966399662
564.0, 0.005637924052723568
565.0, 0.008464194398757997
566.0, 0.009967149367841169
567.0, 0.01185444816506721
568.0, 0.015186933905567516
569.0, 0.023445154463839137
570.0, 0.028039245315384667
571.0, 0.03644426852889987
572.0, 0.05061719651761558
573.0, 0.06719666253876166
574.0, 0.08472694487180397
575.0, 0.10492069477813595
576.0, 0.12698388829833976
577.0, 0.1502986371502148
578.0, 0.17666197025341174
579.0, 0.208677899293396
580.0, 0.24333176980981988
581.0, 0.28987620812716997
582.0, 0.3475987898040258
583.0, 0.4127885847221875
584.0, 0.48502123580857426
585.0, 0.5695038200407775
586.0, 0.6492538112643595
587.0, 0.7081442474810062
588.0, 0.7124023097067633
589.0, 0.6475340667635632
590.0, 0.5346912354608802
591.0, 0.41015486686224556
592.0, 0.30782848216487396
593.0, 0.23011144716972243
594.0, 0.17423295431464889
595.0, 0.13635171080667044
596.0, 0.108673486662955
597.0, 0.08936997438906993
598.0, 0.07475241384538485
599.0, 0.06326632124518933
600.0, 0.05433103059035307
601.0, 0.04766769300352454
602.0, 0.043026072907031025
603.0, 0.03832019977738572
604.0, 0.035978123816476436
605.0, 0.035271598207979066
606.0, 0.0323918806268667
607.0, 0.025941510426162204
608.0, 0.025595219372902416
609.0, 0.02234367123074261
610.0, 0.0175441274301318
611.0, 0.014321654717607069
612.0, 0.013463263539730104
613.0, 0.013039482444250058
614.0, 0.010127787757723192
615.0, 0.008041522202324142
616.0, 0.008345722142641038
617.0, 0.009255093647803976
618.0, 0.007769731335534995
619.0, 0.005598585006621795
620.0, 0.006341461658385245
621.0, 0.006999018785288866
622.0, 0.0065791698723033564
623.0, 0.0064701800378981975
624.0, 0.008677690226519777
625.0, 0.00905468869174004
626.0, 0.006073939458354189
627.0, 0.006041674322382859
628.0, 0.007878254451322734
629.0, 0.009002682580991518
630.0, 0.015180157731745251
631.0, 0.013977043605252324
632.0, 0.014769634262886897
633.0, 0.01613833845315664
634.0, 0.016353891684923
635.0, 0.017978202870784988
636.0, 0.021437983067388984
637.0, 0.023368024472094653
638.0, 0.027363582360423445
639.0, 0.03172803621254564
640.0, 0.03396088376264617
641.0, 0.035846879287225804
642.0, 0.04251662212548312
643.0, 0.04437586021672274
644.0, 0.04831129187073775
645.0, 0.055274779302372144
646.0, 0.0625414065479541
647.0, 0.07079698364431032
648.0, 0.07967896061452542
649.0, 0.09387400656136762
650.0, 0.10954043262752654
651.0, 0.12856944409954987
652.0, 0.15391191329155296
653.0, 0.18204325247399117
654.0, 0.21319028955310584
655.0, 0.2551414996086475
656.0, 0.2945720832036278
657.0, 0.3339341901755121
658.0, 0.38583361886978507
659.0, 0.4459631165201931
660.0, 0.5165419556870103
661.0, 0.5898336066003828
662.0, 0.6783638529103989
663.0, 0.7753614398988481
664.0, 0.8617888185572865
665.0, 0.9495145434932598
666.0, 0.9962843561259483
667.0, 0.977675710223189
668.0, 0.8955629709688478
669.0, 0.7669485848360902
670.0, 0.6217637610239969
671.0, 0.486504842087593
672.0, 0.3822478256067637
673.0, 0.30228333938876006
674.0, 0.24317186342383526
675.0, 0.19918600959191188
676.0, 0.16290543843514008
677.0, 0.144760668610286
678.0, 0.1328441336310171
679.0, 0.12799005396948365
680.0, 0.12748823584770166
681.0, 0.1310410126528828
682.0, 0.140731441225626
683.0, 0.14980094690527865
684.0, 0.15314804271244484
685.0, 0.13862033998186238
686.0, 0.11009748280411727
687.0, 0.08040394085636185
688.0, 0.059552383382482255
689.0, 0.04543581111795688
690.0, 0.03311837111007322
691.0, 0.025744637593526173
692.0, 0.021594476667161796
693.0, 0.017531748686529038
694.0, 0.013121179400309407
695.0, 0.011220114481890114
696.0, 0.007343524574537629
697.0, 0.005370464328337275
698.0, 0.004902062274479381
699.0, 0.0039998269466956496
700.0, 0.002651303878523833
701.0, 0.0024429224655779097
702.0, 0.0008773661221306323
703.0, 0.00011605414062513282
704.0, 0.0007098619338875617
705.0, 0.0009375423093779793
706.0, 0.0007641970935641417
707.0, 0.0010747066566851743
708.0, 0.0014070749794645237
709.0, 0.0009679626715576587
710.0, 0.0017207731882455622
711.0, 0.0030206002294840017
712.0, 0.0023983928826588063
713.0, 0.0009356238000394632
714.0, 0.00033721405014886874
715.0, 0.0004298702507002308
716.0, 0.002025349077132021
717.0, 0.0034005059770608756
718.0, 0.003568693001395078
719.0, 0.0016622952186643516
720.0, 0.0008633502012705845
721.0, 0.000480015737589182
722.0, 0.0013144664737752075
723.0, 0.0019517476958657695
724.0, 0.0016697071594325228
725.0, 0.007685525341922051
726.0, 0.006677009703151195
727.0, 0.009576740579171215
728.0, 0.010794465438525289
729.0, 0.007948037683571375
730.0, 0.005748184366360922
731.0, 0.00884905109696748
732.0, 0.013882345125046412
733.0, 0.015101977467392048
734.0, 0.013763405743348826
735.0, 0.01456423748731268
736.0, 0.01904310846756348
737.0, 0.022487370369935696
738.0, 0.021329341787411048
739.0, 0.026045527525591083
740.0, 0.03001674280241544
741.0, 0.03378077026410017
742.0, 0.03873706270635801
743.0, 0.04301800202477448
744.0, 0.04387367812012153
745.0, 0.04551783114307158
746.0, 0.04609234797595402
747.0, 0.047221993441807816
748.0, 0.04750425689859844
749.0, 0.045801763421288284
750.0, 0.04429089126390817
751.0, 0.04045246525046095
752.0, 0.040206915462924285
753.0, 0.03581638393101985
754.0, 0.030407312973333878
755.0, 0.028097901438417564
756.0, 0.026106217252641454
757.0, 0.021747752851378456
758.0, 0.018721360559083536
759.0, 0.018620644253188313
760.0, 0.01749977798160952
761.0, 0.015332945854178718
762.0, 0.01431892990238095
763.0, 0.01267463461319209
764.0, 0.012080703716278245
765.0, 0.013230464358966177
766.0, 0.011566979432020461
767.0, 0.010556151208675063
768.0, 0.011645425244943983
769.0, 0.010304349376294498
770.0, 0.009937132739177894
771.0, 0.008450560365632428
772.0, 0.009710100719014212
773.0, 0.009584930946666837
774.0, 0.006990244928744731
775.0, 0.005257127530284689
776.0, 0.005764186060525115
777.0, 0.005513255483317438
778.0, 0.005067325749677652
779.0, 0.0047146809052971885
780.0, 0.004165468777320053
781.0, 0.0027606059017762476
782.0, 0.0007196386206236809
783.0, 0.0010992851147067838
784.0, 0.0030521211417189015
785.0, 0.0026234396401469727
786.0, 0.002517083265017045
787.0, 0.0033206672931872985
788.0, 0.0029118482875184243
789.0, 0.002139271329484498
790.0, 0.004296240611398522
791.0, 0.005360094640062043
792.0, 0.0071370174183223115
793.0, 0.008370241786021086
794.0, 0.007675510092934848
795.0, 0.007163201406322755
796.0, 0.009058841511908609
797.0, 0.008135901954459011
798.0, 0.010369100353523812
799.0, 0.013294554448781559
800.0, 0.015463836250964385
801.0, 0.018658485009828245
802.0, 0.023705030193129247
803.0, 0.024308342857278103
804.0, 0.028220477369275077
805.0, 0.033272802060301455
806.0, 0.0373107504447382
807.0, 0.041957348263071396
808.0, 0.04849467962849113
809.0, 0.05455370610705149
810.0, 0.06240723531863604
811.0, 0.06843261725046335
812.0, 0.07514247797068231
813.0, 0.08236203744162196
814.0, 0.08912065990630859
815.0, 0.0971834260300597
816.0, 0.1105309571067902
817.0, 0.1221318181467509
818.0, 0.14210790710899096
819.0, 0.1602352391685863
820.0, 0.18316686201884322
821.0, 0.21527385480582278
822.0, 0.24568348943337884
823.0, 0.2827558306611944
824.0, 0.3208917935652341
825.0, 0.36095690603269515
826.0, 0.4143925463519047
827.0, 0.4687677070818107
828.0, 0.5132960364728703
829.0, 0.5606147733107193
830.0, 0.5951214108380637
831.0, 0.6154911032969158
832.0, 0.6068461057676893
833.0, 0.5655087899868048
834.0, 0.5046091512364141
835.0, 0.4370287804080873
836.0, 0.3657139657114822
837.0, 0.29956345266015527
838.0, 0.24371446143391376
839.0, 0.1994368002230331
840.0, 0.17290305255235353
841.0, 0.154044167233141
842.0, 0.12849989337112058
843.0, 0.10213484424727035
844.0, 0.08516529802179075
845.0, 0.07289962984137506
846.0, 0.06386722899206515
847.0, 0.05712755275978544
848.0, 0.05107617068493888
849.0, 0.04483739605873531
850.0, 0.03897902238692515
851.0, 0.03316306812954729
852.0, 0.028188802906911538
853.0, 0.025399351660833104
854.0, 0.022434732295089965
855.0, 0.020533462585838824
856.0, 0.02050865692549093
857.0, 0.016779973218256507
858.0, 0.015696620740915428
859.0, 0.012222965423408243
860.0, 0.010490085976505144
861.0, 0.011024006091663548
862.0, 0.010399867251948334
863.0, 0.007885337312181032
864.0, 0.006852431633811944
865.0, 0.006121846002418096
866.0, 0.005651488989232401
867.0, 0.004976498536783246
868.0, 0.0017550038876090585
869.0, 0.0008135004058448297
870.0, 0.003537948718659925
871.0, 0.0026160058060013063
872.0, 0.0018896045364856556
873.0, 0.0005932843153858361
874.0, 0.0018890018627552938
875.0, 0.001008416722994944
876.0, 0.00043647132298193966
877.0, 0.0003513790400406185
878.0, 0.0009622712265609416
879.0, 0.0011948180709697438
880.0, 0.0014325850735171725
881.0, 0.0010036051007212298
882.0, 0.0009042360517483394
883.0, 0.0005135757511554074
884.0, 0.0007749480940804206
885.0, 0.0005135463773769324
886.0, 0.003066476468549035
887.0, 0.0016272482982777941
888.0, 0.0015255359200095169
889.0, 0.002079714565887369
890.0, 0.002375818560078381
891.0, 0.0014085396557584455
892.0, 0.0008076420172066994
893.0, 0.001102613516270774
894.0, 0.00207106075028439
895.0, 0.00046681018439943063
896.0, 0.0004604131094720542
897.0, 0.001768879184063804
898.0, 0.0022730426149723945
899.0, 0.0019251037901165352
900.0, 0.002357844883187329
901.0, 0.0022321811968886757
902.0, 0.0007459605048084928
903.0, 0.0013888101138873764
904.0, 0.002681873268860847
905.0, 0.0034919941388959
906.0, 0.003620956660056724
907.0, 0.004711442224297908
908.0, 0.01030435079460416
909.0, 0.0033890987260292087
910.0, 0.0047277513743238814
911.0, 0.004685260763698206
912.0, 0.0023765487307803477
913.0, 0.003141473832278982
914.0, 0.005227404326413876
915.0, 0.002950818036318885
916.0, 0.002080941094216718
917.0, 0.004115837761992483
918.0, 0.005366955315521375
919.0, 0.007299713822650114
920.0, 0.007275298158295983
921.0, 0.006195456498796821
922.0, 0.008233439256074686
923.0, 0.009681844816757976
924.0, 0.011355453531693793
925.0, 0.009379043638084044
926.0, 0.011807863854029207
927.0, 0.014121755780781182
928.0, 0.014832893507786122
929.0, 0.016590646562484802
930.0, 0.018698698546559554
931.0, 0.021241244222075895
932.0, 0.020322781275351785
933.0, 0.022412503557264808
934.0, 0.025743154413587137
935.0, 0.028068188086369985
936.0, 0.028392594548756898
937.0, 0.028205760831352063
938.0, 0.029103017192625532
939.0, 0.02689767636658188
940.0, 0.03324121329259563
941.0, 0.0293701526101636
942.0, 0.02116880649459377
943.0, 0.01722936625979053
944.0, 0.01541554875041478
945.0, 0.0125090746367209
946.0, 0.010637468074859303
947.0, 0.007734120466036636
948.0, 0.008581796729485747
949.0, 0.007314117400195517
950.0, 0.006191466155177552
951.0, 0.00542562160510968
952.0, 0.004626425371186108
953.0, 0.004954911660393359
954.0, 0.004380454065801853
955.0, 0.00344671686712333
956.0, 0.0022518229631408094
957.0, 0.005027588064144946
958.0, 0.005104150588668402
959.0, 0.004248383013654047
960.0, 0.006344962242752691
961.0, 0.00819217311075526
962.0, 0.007560240462231924
963.0, 0.0071479592582446225
964.0, 0.0098554347448704
965.0, 0.012333854757861128
966.0, 0.012044906104956883
967.0, 0.011587786258799962
968.0, 0.01266415856364768
969.0, 0.014435229610689996
970.0, 0.019165953814961008
971.0, 0.017709231220650285
972.0, 0.015308779123405366
973.0, 0.015806198313766485
974.0, 0.01460331712465832
975.0, 0.01404132426301392
976.0, 0.014582143504090393
977.0, 0.011425029608563592
978.0, 0.009501895438430325
979.0, 0.007309593816979855
980.0, 0.004979427077482657
981.0, 0.0044797783204742
982.0, 0.004929779741263818
983.0, 0.0040600877194153125
984.0, 0.00151812957798491
985.0, 0.0004456447085232308
986.0, 0.00022706941860662375
987.0, 0.0014123436802288853
988.0, 0.000481126065489862
989.0, 0.00022185757988599965
990.0, 0.0006199084717855057
991.0, 0.0004910467115839967
992.0, 0.0008914119741019124
993.0, 0.0012744044492743144
994.0, 0.0006988998298414113
995.0, 0.00030651789910525137
996.0, 0.0009877472491357751
997.0, 0.0036287227376377747
998.0, 0.0022648999396652643
999.0, 0.0006863218567897577
1000.0, 0.0016163365725563878
1001.0, 0.0033346251984816204
1002.0, 0.004105456308966503
1003.0, 0.0020841941578055904
1004.0, 0.0037117761888758607
1005.0, 0.0035019377076772446
1006.0, 0.0028470968945654516
1007.0, 0.00359696495222014
1008.0, 0.004201966646373803
1009.0, 0.004542443002940353
1010.0, 0.005607349200115651
1011.0, 0.004634886223539645
1012.0, 0.002512972914164613
1013.0, 0.001618223850173711
1014.0, 0.003964650693583091
1015.0, 0.004143835668183503
1016.0, 0.002921614737608258
1017.0, 0.003790461541595038
1018.0, 0.0060336207960352195
1019.0, 0.005956317440931959
1020.0, 0.0044820709836206046
1021.0, 0.005230002879372393
1022.0, 0.002087239166675396
1023.0, 0.004553915344130203
1024.0, 0.006172978746146086
1025.0, 0.0044689935661058975
1026.0, 0.004283991838155524
1027.0, 0.00615889327215468
1028.0, 0.005108298156987052
1029.0, 0.0051241321808988905
1030.0, 0.005903049354446636
1031.0, 0.0058289612495966
1032.0, 0.003542866109891761
1033.0, 0.002806395611624111
1034.0, 0.004716439967153483
1035.0, 0.0061764134147123855
1036.0, 0.005630302203716119
1037.0, 0.003954459284788702
1038.0, 0.0022546598140419094
1039.0, 0.004467060608308339
1040.0, 0.003093635655939364
1041.0, 0.002917191754954919
1042.0, 0.0013069701075125576
1043.0, 0.0005813004367220679
1044.0, 0.0013674620032833953
1045.0, 0.0008910066781263354
1046.0, 0.0006160217613572482
1047.0, 0.002891776632978186
1048.0, 0.0021683745603977094
1049.0, 0.0018360526820666247
1050.0, 0.0031254710405884357
1051.0, 0.0025090552736579874
1052.0, 0.0005908858430121331
1053.0, 0.0005328934109081991
1054.0, 0.0005934724295221579
1055.0, 0.0027279532861471056
1056.0, 0.00043914725566549103
1057.0, 0.0003830745033248389
1058.0, 0.0015409923702590274
1059.0, 0.0010242290613302143
1060.0, 0.001539954881867703
1061.0, 0.001506498837233823
1062.0, 0.0019559162746545507
1063.0, 0.000973044164216407
1064.0, 0.0017427166575249005
1065.0, 0.0020285614135830254
1066.0, 0.0010184157011796555
1067.0, 0.002209954787961477
1068.0, 0.0022012268657877017
1069.0, 0.00030716337837993746
1070.0, 0.0004880640334352203
1071.0, 0.0012254606769971112
1072.0, 0.0010301555901714968
1073.0, 0.00084889276919262
1074.0, 0.001718778411576259
1075.0, 0.0015052533020942604
1076.0, 0.0005252101234844653
1077.0, 0.0016585331685885687
1078.0, 0.00029328060102763487
1079.0, 0.0015683725916344304
1080.0, 0.0006334330974591296
1081.0, 0.0011041690774067259
1082.0, 0.002760405172127321
1083.0, 0.002668320762270969
1084.0, 0.00230721235526438
1085.0, 0.0008842957289905821
1086.0, 0.0017959932811702553
1087.0, 0.0017879563576456653
1088.0, 0.0003408602340164966
1089.0, 0.0009181989677785896
1090.0, 0.0034326143792798186
1091.0, 0.003546745481228068
1092.0, 0.002575709237361114
1093.0, 0.0030432853734182353
1094.0, 0.004389244453505892
1095.0, 0.0063642220092374364
1096.0, 0.005983318489547512
1097.0, 0.005612399680108176
1098.0, 0.007539194259511688
1099.0, 0.00953470844638385
1100.0, 0.009488790274088695
1101.0, 0.010040215765725934
1102.0, 0.010643700055749557
1103.0, 0.011855463837910401
1104.0, 0.012962105089885866
1105.0, 0.012544565177024247
1106.0, 0.012362262030425512
1107.0, 0.01254578961039322
1108.0, 0.01350300382824088
1109.0, 0.015047728364094414
1110.0, 0.015205387218276023
1111.0, 0.015030059007789375
1112.0, 0.013965931772828179
1113.0, 0.013246183026171364
1114.0, 0.011482834658328719
1115.0, 0.011184479094141947
1116.0, 0.011271562167623837
1117.0, 0.010094556607281435
1118.0, 0.009193808019979629
1119.0, 0.008580711555227306
1120.0, 0.00642565554181281
1121.0, 0.007675947952043058
1122.0, 0.005374591374960569
1123.0, 0.00586175611496999
1124.0, 0.004891659356729819
1125.0, 0.003636873000797859
1126.0, 0.004346652961681352
1127.0, 0.0049856119009112675
1128.0, 0.005704811108281522
1129.0, 0.005894216465189875
1130.0, 0.0016027411537565012
1131.0, 0.0011736728528525893
1132.0, 0.002320306450633778
1133.0, 0.002613147804874504
1134.0, 0.0042553658472228115
1135.0, 0.0049954846475747956
1136.0, 0.0035359756046551795
1137.0, 0.0018054142295096025
1138.0, 0.0005706289329845563
1139.0, 0.0008201372989989661
1140.0, 0.003205609691324394
1141.0, 0.0019774492654124893
1142.0, 0.0007850517762218075
1143.0, 0.0013855473059747301
1144.0, 0.0009592577150190515
1145.0, 0.00011897332486631534
1146.0, 0.0005212842025797585
1147.0, 0.00013268329565317493
1148.0, 0.00103930389393193
1149.0, 0.0007035128901507542
1150.0, 0.001532269490611097
1151.0, 0.0004893405075243647
1152.0, 0.0013167148424498832
1153.0, 0.0008135896123940218
1154.0, 0.0012375782001611466
1155.0, 0.0006791764017058546
1156.0, 0.0008416929016839117
1157.0, 0.0006401173008007846
1158.0, 0.0011281935309955535
1159.0, 0.0028954973373316547
1160.0, 0.0019176640985712522
1161.0, 0.0022385948949652495
1162.0, 0.0032202492098594416
1163.0, 0.003673921435877944
1164.0, 0.0024253251438029412
1165.0, 0.0018309828483790455
1166.0, 0.0029924014025510524
1167.0, 0.0034666211446628273
1168.0, 0.0046152976591413335
1169.0, 0.004516763115331702
1170.0, 0.002708354599361301
1171.0, 0.0028260108772147885
1172.0, 0.003892274858246093
1173.0, 0.005328163645624904
1174.0, 0.00790566701974235
1175.0, 0.006350045831308823
1176.0, 0.006069020719808429
1177.0, 0.00697020647370118
1178.0, 0.006175317259603411
1179.0, 0.007902312812482555
1180.0, 0.01035762193494311
1181.0, 0.009552844821637922
1182.0, 0.010136485931398832
1183.0, 0.013884169269638168
1184.0, 0.014344781209043587
1185.0, 0.013411173621725234
1186.0, 0.01641482504387232
1187.0, 0.01554889013657378
1188.0, 0.016170388205437855
1189.0, 0.01712712264794638
1190.0, 0.01725162681718942
1191.0, 0.016865781791596417
1192.0, 0.015064409670445
1193.0, 0.013200538440927183
1194.0, 0.014554897579948451
1195.0, 0.013227240417041597
1196.0, 0.016113314044650807
1197.0, 0.013363748384323968
1198.0, 0.012554123104982325
1199.0, 0.013122264840471428
1200.0, 0.011076371118424395
1201.0, 0.011820154926875492
1202.0, 0.013478560948800263
1203.0, 0.013329202318938853
1204.0, 0.013521295171124366
1205.0, 0.013866702799967448
1206.0, 0.013006635246867189
1207.0, 0.014128797934165997
1208.0, 0.015869661213958212
1209.0, 0.014232619713000234
1210.0, 0.013137286060216288
1211.0, 0.012203645591426145
1212.0, 0.010908729174701561
1213.0, 0.011960354682034645
1214.0, 0.013227825410088767
1215.0, 0.011402453596506788
1216.0, 0.009424877337478196
1217.0, 0.010266731888491754
1218.0, 0.007032676072784558
1219.0, 0.007231061105981521
1220.0, 0.006401804398297115
1221.0, 0.0055855420640270855
1222.0, 0.0064541599643467016
1223.0, 0.003962284333676583
1224.0, 0.005141556761585754
1225.0, 0.0036508663466381162
1226.0, 0.0026225899425052863
1227.0, 0.005234085395472084
1228.0, 0.0038013536769121677
1229.0, 0.002255892452020986
1230.0, 0.0030129850447414303
1231.0, 0.000322685333713764
1232.0, 0.00034465458431215314
1233.0, 0.00021338562390785788
1234.0, 0.00016025299150810375
1235.0, 0.0023335094465558267
1236.0, 0.0013757010803248633
1237.0, 0.00041722866714570257
1238.0, 0.0005100618513907551
1239.0, 0.0002985160848459106
1240.0, 0.0014676664603042028
1241.0, 0.0025812114616508047
1242.0, 0.003892345545469947
1243.0, 0.003274732259652901
1244.0, 0.0029733024090821394
1245.0, 0.0016254995743822484
1246.0, 0.000725087435825194
1247.0, 0.0024466139052162278
1248.0, 0.0015157887567355621
1249.0, 0.0011490080302317752
1250.0, 0.002372685851623109
1251.0, 0.0028969924763080726
1252.0, 0.003100107607505026
1253.0, 0.0032230209573413998
1254.0, 0.0027332961335985017
1255.0, 0.002149500489309708
1256.0, 0.0034871055241282567
1257.0, 0.001999882884331979
1258.0, 0.0022414680092259997
1259.0, 0.002484302086492025
1260.0, 0.003175934382245337
1261.0, 0.0029369783358645864
1262.0, 0.002087631893908552
1263.0, 0.000613779145271184
1264.0, 0.0007072249684827786
1265.0, 0.0025926288000637284
1266.0, 0.002793581379449807
1267.0, 0.002970387807846286
1268.0, 0.0030287787959788655
1269.0, 0.0005169506698354376
1270.0, 0.004409994195902541
1271.0, 0.0037214474135206007
1272.0, 0.001621681088546182
1273.0, 0.0040042111845552154
1274.0, 0.004200151952319343
1275.0, 0.003041202167855188
1276.0, 0.0011185269489081549
1277.0, 0.00027283721099531443
1278.0, 0.0022885373331800233
1279.0, 0.0036585488961425818
1280.0, 0.0018613996954246264
1281.0, 4.411154688246341e-05
1282, 0.0
1283, 0.0
1284, 0.0
1285, 0.0
1286, 0.0
1287, 0.0
1288, 0.0
1289, 0.0
1290, 0.0
1291, 0.0
1292, 0.0
1293, 0.0
1294, 0.0
1295, 0.0
1296, 0.0
1297, 0.0
1298, 0.0
1299, 0.0
1300, 0.0
1301, 0.0
1302, 0.0
1303, 0.0
1304, 0.0
1305, 0.0
1306, 0.0
1307, 0.0
1308, 0.0
1309, 0.0
1310, 0.0
1311, 0.0
1312, 0.0
1313, 0.0
1314, 0.0
1315, 0.0
1316, 0.0
1317, 0.0
1318, 0.0
1319, 0.0
1320, 0.0
1321, 0.0
1322, 0.0
1323, 0.0
1324, 0.0
1325, 0.0
1326, 0.0
1327, 0.0
1328, 0.0
1329, 0.0
1330, 0.0
1331, 0.0
1332, 0.0
1333, 0.0
1334, 0.0
1335, 0.0
1336, 0.0
1337, 0.0
1338, 0.0
1339, 0.0
1340, 0.0
1341, 0.0
1342, 0.0
1343, 0.0
1344, 0.0
1345, 0.0
1346, 0.0
1347, 0.0
1348, 0.0
1349, 0.0
1350, 0.0
1351, 0.0
1352, 0.0
1353, 0.0
1354, 0.0
1355, 0.0
1356, 0.0
1357, 0.0
1358, 0.0
1359, 0.0
1360, 0.0
1361, 0.0
1362, 0.0
1363, 0.0
1364, 0.0
1365, 0.0
1366, 0.0
1367, 0.0
1368, 0.0
1369, 0.0
1370, 0.0
1371, 0.0
1372, 0.0
1373, 0.0
1374, 0.0
1375, 0.0
1376, 0.0
1377, 0.0
1378, 0.0
1379, 0.0
1380, 0.0
1381, 0.0
1382, 0.0
1383, 0.0
1384, 0.0
1385, 0.0
1386, 0.0
1387, 0.0
1388, 0.0
1389, 0.0
1390, 0.0
1391, 0.0
1392, 0.0
1393, 0.0
1394, 0.0
1395, 0.0
1396, 0.0
1397, 0.0
1398, 0.0
1399, 0.0
1400, 0.0
1401, 0.0
1402, 0.0
1403, 0.0
1404, 0.0
1405, 0.0
1406, 0.0
1407, 0.0
1408, 0.0
1409, 0.0
1410, 0.0
1411, 0.0
1412, 0.0
1413, 0.0
1414, 0.0
1415, 0.0
1416, 0.0
1417, 0.0
1418, 0.0
1419, 0.0
1420, 0.0
1421, 0.0
1422, 0.0
1423, 0.0
1424, 0.0
1425, 0.0
1426, 0.0
1427, 0.0
1428, 0.0
1429, 0.0
1430, 0.0
1431, 0.0
1432, 0.0
1433, 0.0
1434, 0.0
1435, 0.0
1436, 0.0
1437, 0.0
1438, 0.0
1439, 0.0
1440, 0.0
1441, 0.0
1442, 0.0
1443, 0.0
1444, 0.0
1445, 0.0
1446, 0.0
1447, 0.0
1448, 0.0
1449, 0.0
1450, 0.0
1451, 0.0
1452, 0.0
1453, 0.0
1454, 0.0
1455, 0.0
1456, 0.0
1457, 0.0
1458, 0.0
1459, 0.0
1460, 0.0
1461, 0.0
1462, 0.0
1463, 0.0
1464, 0.0
1465, 0.0
1466, 0.0
1467, 0.0
1468, 0.0
1469, 0.0
1470, 0.0
1471, 0.0
1472, 0.0
1473, 0.0
1474, 0.0
1475, 0.0
1476, 0.0
1477, 0.0
1478, 0.0
1479, 0.0
1480, 0.0
1481, 0.0
1482, 0.0
1483, 0.0
1484, 0.0
1485, 0.0
1486, 0.0
1487, 0.0
1488, 0.0
1489, 0.0
1490, 0.0
1491, 0.0
1492, 0.0
1493, 0.0
1494, 0.0
1495, 0.0
1496, 0.0
1497, 0.0
1498, 0.0
1499, 0.0
1500, 0.0
1501, 0.0
1502, 0.0
1503, 0.0
1504, 0.0
1505, 0.0
1506, 0.0
1507, 0.0
1508, 0.0
1509, 0.0
1510, 0.0
1511, 0.0
1512, 0.0
1513, 0.0
1514, 0.0
1515, 0.0
1516, 0.0
1517, 0.0
1518, 0.0
1519, 0.0
1520, 0.0
1521, 0.0
1522, 0.0
1523, 0.0
1524, 0.0
1525, 0.0
1526, 0.0
1527, 0.0
1528, 0.0
1529, 0.0
1530, 0.0
1531, 0.0
1532, 0.0
1533, 0.0
1534, 0.0
1535, 0.0
1536, 0.0
1537, 0.0
1538, 0.0
1539, 0.0
1540, 0.0
1541, 0.0
1542, 0.0
1543, 0.0
1544, 0.0
1545, 0.0
1546, 0.0
1547, 0.0
1548, 0.0
1549, 0.0
1550, 0.0
1551, 0.0
1552, 0.0
1553, 0.0
1554, 0.0
1555, 0.0
1556, 0.0
1557, 0.0
1558, 0.0
1559, 0.0
1560, 0.0
1561, 0.0
1562, 0.0
1563, 0.0
1564, 0.0
1565, 0.0
1566, 0.0
1567, 0.0
1568, 0.0
1569, 0.0
1570, 0.0
1571, 0.0
1572, 0.0
1573, 0.0
1574, 0.0
1575, 0.0
1576, 0.0
1577, 0.0
1578, 0.0
1579, 0.0
1580, 0.0
1581, 0.0
1582, 0.0
1583, 0.0
1584, 0.0
1585, 0.0
1586, 0.0
1587, 0.0
1588, 0.0
1589, 0.0
1590, 0.0
1591, 0.0
1592, 0.0
1593, 0.0
1594, 0.0
1595, 0.0
1596, 0.0
1597, 0.0
1598, 0.0
1599, 0.0
