30, 0.0
31, 0.0
32, 0.0
33, 0.0
34, 0.0
35, 0.0
36, 0.0
37, 0.0
38, 0.0
39, 0.0
40, 0.0
41, 0.0
42, 0.0
43, 0.0
44, 0.0
45, 0.0
46, 0.0
47, 0.0
48, 0.0
49, 0.0
50, 0.0
51, 0.0
52, 0.0
53, 0.0
54, 0.0
55, 0.0
56, 0.0
57, 0.0
58, 0.0
59, 0.0
60, 0.0
61, 0.0
62, 0.0
63, 0.0
64, 0.0
65, 0.0
66, 0.0
67, 0.0
68, 0.0
69, 0.0
70, 0.0
71, 0.0
72, 0.0
73, 0.0
74, 0.0
75, 0.0
76, 0.0
77, 0.0
78, 0.0
79, 0.0
80, 0.0
81, 0.0
82, 0.0
83, 0.0
84, 0.0
85, 0.0
86, 0.0
87, 0.0
88, 0.0
89, 0.0
90, 0.0
91, 0.0
92, 0.0
93, 0.0
94, 0.0
95, 0.0
96, 0.0
97, 0.0
98, 0.0
99, 0.0
100, 0.0
101, 0.0
102, 0.0
103, 0.0
104, 0.0
105, 0.0
106, 0.0
107, 0.0
108, 0.0
109, 0.0
110, 0.0
111, 0.0
112, 0.0
113, 0.0
114, 0.0
115, 0.0
116, 0.0
117, 0.0
118, 0.0
119, 0.0
120, 0.0
121, 0.0
122, 0.0
123, 0.0
124, 0.0
125, 0.0
126, 0.0
127, 0.0
128, 0.0
129, 0.0
130, 0.0
131, 0.0
132, 0.0
133.0, 0.0009561814435604928
134.0, 0.00013878008095292763
135.0, 0.0026285051588659583
136.0, 0.009820596810567022
137.0, 0.02510362543442174
138.0, 0.045917004301623904
139.0, 0.05844739335934525
140.0, 0.05904650444206946
141.0, 0.06108575574868236
142.0, 0.060218697983082846
143.0, 0.048333140405214706
144.0, 0.037618573451407775
145.0, 0.02594339915674044
146.0, 0.015230515966269396
147.0, 0.008805718131375484
148.0, 0.0011501165126519112
149.0, 0.0046319203949871
150.0, 0.004095844884539426
151.0, 0.0024128233354453513
152.0, 0.0032389362891102978
153.0, 0.01047795711983158
154.0, 0.018514332425440993
155.0, 0.020081683427459366
156.0, 0.015319436608222185
157.0, 0.005599182483544313
158.0, 0.00355273204887669
159.0, 0.01187292584297687
160.0, 0.024880105194745598
161.0, 0.03386951622609148
162.0, 0.03434418235707576
163.0, 0.03667788780261495
164.0, 0.04754429130317273
165.0, 0.05332335931022858
166.0, 0.06208844521947061
167.0, 0.06787828498946256
168.0, 0.0715000157400642
169.0, 0.08462669906842823
170.0, 0.0935843069216751
171.0, 0.10547601662904367
172.0, 0.1194722308059202
173.0, 0.12837780834675616
174.0, 0.13370248370804766
175.0, 0.1305797210939498
176.0, 0.13385979238305906
177.0, 0.15022185903879273
178.0, 0.16597860403496442
179.0, 0.1689173861621104
180.0, 0.16829378791687052
181.0, 0.16678956897233685
182.0, 0.15844360645881278
183.0, 0.14974173387496326
184.0, 0.13396246714757976
185.0, 0.14605826264808633
186.0, 0.13171698738010545
187.0, 0.13289617831370767
188.0, 0.13841710168829893
189.0, 0.13321096441279567
190.0, 0.1354353283288044
191.0, 0.12763051576356416
192.0, 0.13154234519990562
193.0, 0.1293467489946133
194.0, 0.12124623381517823
195.0, 0.13452807811813905
196.0, 0.1220445081987323
197.0, 0.11970960853413994
198.0, 0.11792343058201558
199.0, 0.13628574668959947
200.0, 0.13237732520796025
201.0, 0.12172674062208706
202.0, 0.11170759944481726
203.0, 0.1083409516943773
204.0, 0.11945865486496933
205.0, 0.11287810884165451
206.0, 0.11025749665819083
207.0, 0.11707870816803985
208.0, 0.11975511500718422
209.0, 0.11248918748729937
210.0, 0.12018873051761661
211.0, 0.1273241100654355
212.0, 0.12280331436923402
213.0, 0.12205525816286675
214.0, 0.11501396818240413
215.0, 0.10652428582441784
216.0, 0.09894883358366363
217.0, 0.09159079932452589
218.0, 0.08602823246457773
219.0, 0.07407675540068333
220.0, 0.06965104681347055
221.0, 0.07538898325741929
222.0, 0.06858022937925592
223.0, 0.07070176396613283
224.0, 0.07192541537871368
225.0, 0.06722194267834668
226.0, 0.06195571236179999
227.0, 0.07081012697852523
228.0, 0.07078111717489591
229.0, 0.07196891107561533
230.0, 0.08252139840456267
231.0, 0.08451662036002992
232.0, 0.08194621106949704
233.0, 0.08615985775765825
234.0, 0.08888911823659248
235.0, 0.08067671441429217
236.0, 0.095847898191905
237.0, 0.09279077345319087
238.0, 0.08349907086339153
239.0, 0.07911288629493313
240.0, 0.06411628411130021
241.0, 0.05650112980022988
242.0, 0.05965782518308727
243.0, 0.06452620935368919
244.0, 0.058777320492912837
245.0, 0.06925530465239892
246.0, 0.06606042917183502
247.0, 0.06641957843219225
248.0, 0.07802970159354929
249.0, 0.06907447467462859
250.0, 0.07285320388009703
251.0, 0.06884739572792575
252.0, 0.05320656802297307
253.0, 0.0461240716460301
254.0, 0.06533306224390553
255.0, 0.07244727161154188
256.0, 0.06314356537137619
257.0, 0.052518895379009986
258.0, 0.05295301648345435
259.0, 0.045017544432849214
260.0, 0.04721321952366114
261.0, 0.052479351963066995
262.0, 0.04923745578510501
263.0, 0.03872838970623699
264.0, 0.03735445104680996
265.0, 0.03873163544021168
266.0, 0.03942520685911512
267.0, 0.040796771663150384
268.0, 0.042258968020040415
269.0, 0.045700947821277274
270.0, 0.045538593681885106
271.0, 0.03800052752387916
272.0, 0.02676096952419339
273.0, 0.03665660694345941
274.0, 0.03567820318805844
275.0, 0.02104702834673829
276.0, 0.009562118198443917
277.0, 0.00815615802407717
278.0, 0.016498217208075858
279.0, 0.014828425791153316
280.0, 0.007208004042385341
281.0, 0.009244129614085989
282.0, 0.000779585032207368
283.0, 0.004432371961515977
284.0, 0.012300776833347455
285.0, 0.02145469543522475
286.0, 0.005964357314020757
287.0, 0.004728838272265977
288.0, 0.01067667460420558
289.0, 0.009200694607075446
290.0, 0.001974395183365616
291.0, 0.003775837439120897
292.0, 0.0007348961476537005
293.0, 0.00542635826935099
294.0, 0.011333616972060118
295.0, 0.008530094631388742
296.0, 0.012034733560216454
297.0, 0.01609343899892197
298.0, 0.025214982036151457
299.0, 0.036518181340484346
300.0, 0.04251892810792568
301.0, 0.04592220189815242
302.0, 0.03889829641792399
303.0, 0.039892811237287495
304.0, 0.05083899600362573
305.0, 0.04461655905550689
306.0, 0.04300063512904989
307.0, 0.052864067671225756
308.0, 0.060049696511359676
309.0, 0.05310074968301891
310.0, 0.05246663859637603
311.0, 0.05484605885718876
312.0, 0.05983486807850448
313.0, 0.06094826679425536
314.0, 0.05397050401101977
315.0, 0.061589163332065135
316.0, 0.05928060806977841
317.0, 0.055853452854379995
318.0, 0.05853142439884152
319.0, 0.05927676289237696
320.0, 0.0549002011029764
321.0, 0.05488165358064412
322.0, 0.049953096041669816
323.0, 0.040951142029356846
324.0, 0.04239216222016231
325.0, 0.04417099960021913
326.0, 0.044169575837718626
327.0, 0.04418207876508212
328.0, 0.04347113426623645
329.0, 0.03807680074769501
330.0, 0.04015727651489882
331.0, 0.036415672170197644
332.0, 0.02731078113744054
333.0, 0.021159717697530937
334.0, 0.02639640229842354
335.0, 0.042985567518104756
336.0, 0.04163180392133333
337.0, 0.03310531553199012
338.0, 0.04094151802788351
339.0, 0.04773458539587094
340.0, 0.03802114679298902
341.0, 0.03674108159791008
342.0, 0.04180069454380704
343.0, 0.029926098803349243
344.0, 0.012533348758590435
345.0, 0.012669481376756093
346.0, 0.01389089927553239
347.0, 0.010168790698783974
348.0, 0.009971495089908652
349.0, 0.007702358207176451
350.0, 0.014758134451438372
351.0, 0.008448740360431757
352.0, 0.00966218225914456
353.0, 0.012975239965953253
354.0, 0.006942454829672204
355.0, 0.007968346643406728
356.0, 0.004085084715782082
357.0, 0.009610103798703872
358.0, 0.020340329852518442
359.0, 0.01237667838650163
360.0, 0.020683131198249396
361.0, 0.033194606532440614
362.0, 0.03774336520852204
363.0, 0.04079770677095489
364.0, 0.05615577333124502
365.0, 0.0636257372116538
366.0, 0.08105341456624227
367.0, 0.10188869936826626
368.0, 0.10088871495384434
369.0, 0.12206089801908158
370.0, 0.14545281564483695
371.0, 0.15634943148865488
372.0, 0.16404384160880914
373.0, 0.18702486965459966
374.0, 0.19515241131877112
375.0, 0.2242756049962685
376.0, 0.245802918591626
377.0, 0.24875300648846996
378.0, 0.2647055021031481
379.0, 0.28443826961604946
380.0, 0.28422126355119637
381.0, 0.2788924769584843
382.0, 0.27844420140492143
383.0, 0.2668762161751827
384.0, 0.24201637241248006
385.0, 0.24363734706628343
386.0, 0.23303121443395985
387.0, 0.19640571215218422
388.0, 0.1725646960081132
389.0, 0.17123382981904278
390.0, 0.14200931444841328
391.0, 0.124481638936724
392.0, 0.11718226619340168
393.0, 0.09478344584566062
394.0, 0.07903461172636399
395.0, 0.08244222205936831
396.0, 0.07312902263562758
397.0, 0.05576097872516956
398.0, 0.05317440905044372
399.0, 0.06243004115190297
400.0, 0.06673874484718977
401.0, 0.0676927237641745
402.0, 0.06961904705691341
403.0, 0.07516440407996924
404.0, 0.08446354215228591
405.0, 0.08448560851278838
406.0, 0.07892136232425333
407.0, 0.07280819459270975
408.0, 0.07092810114177216
409.0, 0.07415828704735103
410.0, 0.06694660200503687
411.0, 0.06572225933192644
412.0, 0.06250124422797886
413.0, 0.056207438685717814
414.0, 0.07276124778201695
415.0, 0.06979980351041101
416.0, 0.06396466754276507
417.0, 0.06692957541105446
418.0, 0.07397023689004237
419.0, 0.06759730218328287
420.0, 0.06816692212843957
421.0, 0.07116849064291879
422.0, 0.069396690474677
423.0, 0.063418818756111
424.0, 0.06553107669134735
425.0, 0.07994353479605036
426.0, 0.082976014205487
427.0, 0.08176352410283336
428.0, 0.09287897950132856
429.0, 0.11441389072872094
430.0, 0.12640428505733195
431.0, 0.1528496165078903
432.0, 0.17954231406929064
433.0, 0.1929847661062366
434.0, 0.19879968074657128
435.0, 0.21606079526615177
436.0, 0.22530682470527713
437.0, 0.23659137828701662
438.0, 0.24593572811120076
439.0, 0.24885074907751367
440.0, 0.24811602436845356
441.0, 0.23935192823348578
442.0, 0.22234773381973738
443.0, 0.20272751240028752
444.0, 0.18467601094346747
445.0, 0.16870758950058787
446.0, 0.1490111702857955
447.0, 0.12912098417020243
448.0, 0.10620991702545363
449.0, 0.08593917583299099
450.0, 0.07299337000634093
451.0, 0.06065121778922305
452.0, 0.05300380630556936
453.0, 0.05131404457188504
454.0, 0.0441668983787533
455.0, 0.030401653708901463
456.0, 0.025905539812471276
457.0, 0.017518353538610736
458.0, 0.009731894223770604
459.0, 0.007548987910556398
460.0, 0.010132778210824832
461.0, 0.011267508999337572
462.0, 0.00954683774942273
463.0, 0.011601627955503901
464.0, 0.008545715175730573
465.0, 0.008952752091514037
466.0, 0.01568883735711428
467.0, 0.006435460668603162
468.0, 0.0003879857655377922
469.0, 0.002346980208229054
470.0, 0.005072110536801019
471.0, 0.0067822247196330735
472.0, 0.003444855664454368
473.0, 0.005654295289494715
474.0, 0.004302952074543651
475.0, 0.0006135457593647205
476.0, 0.006486689812721546
477.0, 0.00804157068119133
478.0, 0.010156782246969285
479.0, 0.004113045215249945
480.0, 0.005893845480113331
481.0, 0.0022365310332231048
482.0, 0.004649498570246505
483.0, 0.014806970711118864
484.0, 0.017067713984596923
485.0, 0.008086148331663478
486.0, 0.0057250157894350945
487.0, 0.01125780152387652
488.0, 0.015104638328083
489.0, 0.014946574636140091
490.0, 0.018820016747720967
491.0, 0.015746588336559342
492.0, 0.01891770479145212
493.0, 0.027774335552473207
494.0, 0.025677962466336753
495.0, 0.02993584388662267
496.0, 0.036211640517899976
497.0, 0.034255662843052426
498.0, 0.03536161293098938
499.0, 0.0443325056944748
500.0, 0.04458052069252707
501.0, 0.04532944271649975
502.0, 0.04322248891130779
503.0, 0.03310556402653748
504.0, 0.027789539430808148
505.0, 0.03742795144300932
506.0, 0.03477658426245992
507.0, 0.026196085928938427
508.0, 0.020518010308834413
509.0, 0.019330373702490092
510.0, 0.01817468991107654
511.0, 0.010650712901994286
512.0, 0.009778823529758639
513.0, 0.015153509540989131
514.0, 0.02120680682697946
515.0, 0.018240006037914702
516.0, 0.00789915595001415
517.0, 0.01065931134994066
518.0, 0.01902911421694685
519.0, 0.018648193050018188
520.0, 0.012375364119245127
521.0, 0.01932616410618746
522.0, 0.014685938541440914
523.0, 0.01636548865267105
524.0, 0.020727008893912154
525.0, 0.01966090027362362
526.0, 0.022975964342447554
527.0, 0.01903075337775221
528.0, 0.013688353801851294
529.0, 0.009979799846175618
530.0, 0.012900283301806158
531.0, 0.0078061408990140815
532.0, 0.0015725038950662015
533.0, 0.003978181736005193
534.0, 0.0021558901595059
535.0, 0.0016641554780744507
536.0, 0.001776324036191647
537.0, 0.003739332293817814
538.0, 0.009567299563808902
539.0, 0.013150263738253032
540.0, 0.004219944844080644
541.0, 0.005825026635702719
542.0, 0.005985113926245362
543.0, 0.0028477247583915785
544.0, 0.001759206347689685
545.0, 0.003437430332902114
546.0, 0.012745321855534252
547.0, 0.017207283823191692
548.0, 0.01978103238087413
549.0, 0.018095831632413455
550.0, 0.018295768687513193
551.0, 0.034136981235479154
552.0, 0.025766292078692556
553.0, 0.042003283829051795
554.0, 0.05239306097478624
555.0, 0.05449070579723595
556.0, 0.05808168540168583
557.0, 0.058495336954159434
558.0, 0.07057684250221642
559.0, 0.07435520678414487
560.0, 0.08221560785181582
561.0, 0.08462755120452582
562.0, 0.0724375975633132
563.0, 0.0633624092604834
564.0, 0.07785956786670245
565.0, 0.06804047420076498
566.0, 0.05691932618667647
567.0, 0.05378772757616953
568.0, 0.05245764006883498
569.0, 0.0527570215442255
570.0, 0.04556219263181889
571.0, 0.047125130198383255
572.0, 0.048598666956707205
573.0, 0.048323006439052636
574.0, 0.04896934452698455
575.0, 0.04564167184463457
576.0, 0.056164998905068896
577.0, 0.051314790898802067
578.0, 0.04994913176004372
579.0, 0.05664400042510357
580.0, 0.05977617993240134
581.0, 0.051423085810143765
582.0, 0.05856308939440289
583.0, 0.056375596702043056
584.0, 0.051377174560475206
585.0, 0.05222576332562113
586.0, 0.054217218986217765
587.0, 0.05016414886850668
588.0, 0.05460634100105616
589.0, 0.06045463649651787
590.0, 0.050430372802293615
591.0, 0.0371431237748754
592.0, 0.0343057091082269
593.0, 0.0344040525571591
594.0, 0.043030264189739736
595.0, 0.03853257837659915
596.0, 0.04017385567050511
597.0, 0.04274200298672701
598.0, 0.03731579313333873
599.0, 0.03772007135686426
600.0, 0.049728180780372944
601.0, 0.04935332759388711
602.0, 0.050986091771426045
603.0, 0.06021152952376039
604.0, 0.06794076972909596
605.0, 0.06462465930549868
606.0, 0.059713657700892674
607.0, 0.06255794645695117
608.0, 0.051971086687931656
609.0, 0.047361461118255774
610.0, 0.05106234889989845
611.0, 0.04055246684343
612.0, 0.03254208240726594
613.0, 0.017440671173458797
614.0, 0.024041614170685833
615.0, 0.03012637750078142
616.0, 0.03078686067941313
617.0, 0.037212426817063396
618.0, 0.04237069818669744
619.0, 0.048265062309741306
620.0, 0.05581371804655894
621.0, 0.05851170500663312
622.0, 0.0636588352081616
623.0, 0.07687797973928236
624.0, 0.08716557316602606
625.0, 0.09480317544684373
626.0, 0.11985695538767492
627.0, 0.12553923616176513
628.0, 0.1303969852419232
629.0, 0.14759913019414567
630.0, 0.16099989681380403
631.0, 0.1685869734277995
632.0, 0.17743579439735988
633.0, 0.17951029525226314
634.0, 0.18183426771095154
635.0, 0.18429183138581326
636.0, 0.17979429202937697
637.0, 0.16748539291853481
638.0, 0.16612795221605328
639.0, 0.15340108358625706
640.0, 0.13089092903962093
641.0, 0.11119945678919055
642.0, 0.09796239274209623
643.0, 0.08471018423614739
644.0, 0.06811122669590805
645.0, 0.06070238131446955
646.0, 0.05558257787643904
647.0, 0.05258569154915924
648.0, 0.04905512500946052
649.0, 0.03886202326818746
650.0, 0.022542752625826282
651.0, 0.01235765594660761
652.0, 0.01783907382586432
653.0, 0.018198677320474765
654.0, 0.012747123445915031
655.0, 0.00795792635175163
656.0, 0.004159911735000254
657.0, 0.005360925011958914
658.0, 0.007170899351406706
659.0, 0.01094557277578793
660.0, 0.0038935846107166425
661.0, 0.004719338789415929
662.0, 0.0013548604461906186
663.0, 0.003042276371331312
664.0, 0.0010170899866204393
665.0, 0.008621663047480056
666.0, 0.010798577636780061
667.0, 0.005335031661964222
668.0, 0.002549878745667149
669.0, 0.006005034674318064
670.0, 0.003141372493485159
671.0, 0.0023502653914940423
672.0, 0.0070313653289903
673.0, 0.008502186789054499
674.0, 0.004183224880332242
675.0, 0.0007667599033535012
676.0, 0.0027749190124909894
677.0, 0.006630975865827683
678.0, 0.003165373264232172
679.0, 0.001629664962864342
680.0, 0.0012860213406940824
681.0, 0.001793146393872739
682.0, 0.0025348038175557835
683.0, 0.0009384136416960643
684.0, 0.00124788522675299
685.0, 0.003498924603397185
686.0, 0.0018944134676497017
687.0, 0.004359258109401542
688.0, 0.006054411873545194
689.0, 0.0025906914146827326
690.0, 0.0053420390799358685
691.0, 0.0026444392626798706
692.0, 0.0031274072669289898
693.0, 0.006617174030124335
694.0, 0.006207791749060143
695.0, 0.006654649828996607
696.0, 0.0018145570141848168
697.0, 0.007302799084455792
698.0, 0.013820476632141004
699.0, 0.005806069609413845
700.0, 0.0006207591216518256
701.0, 0.007367558910458488
702.0, 0.016058312583608212
703.0, 0.01191442641762936
704.0, 0.017473787222434638
705.0, 0.01447688600798837
706.0, 0.01805419528945708
707.0, 0.018592469783639095
708.0, 0.015158778689325931
709.0, 0.01686872181861179
710.0, 0.0232119461291583
711.0, 0.020377225128068697
712.0, 0.023328541787400948
713.0, 0.018561502430818916
714.0, 0.018010783644244247
715.0, 0.016626638996414814
716.0, 0.013519772256821033
717.0, 0.02004913539842712
718.0, 0.01312920821783013
719.0, 0.01642052799581361
720.0, 0.02297196903794666
721.0, 0.01995843883981357
722.0, 0.02077563710427464
723.0, 0.02692528617660438
724.0, 0.02322457114651975
725.0, 0.02743037048469761
726.0, 0.01912506843154386
727.0, 0.0074379623498730795
728.0, 0.008300830126298203
729.0, 0.011583153556947579
730.0, 0.006877874016814161
731.0, 0.002139944147459415
732.0, 0.014930322700615721
733.0, 0.010952788891734112
734.0, 0.01173563663768376
735.0, 0.012685395514390966
736.0, 0.0037670911809487033
737.0, 0.0009752908584895448
738.0, 0.005772115818284784
739.0, 0.0016393331442584634
740.0, 0.002955812844045486
741.0, 0.0031540051497641205
742.0, 0.0006225170957063197
743.0, 0.0045697329353672905
744.0, 0.007483895346745954
745.0, 0.002727881110116028
746.0, 0.0010759753172643574
747.0, 0.004926158437810922
748.0, 0.0022910038163658783
749.0, 0.003375365172582511
750.0, 0.004973265175320407
751.0, 0.005040226960859209
752.0, 0.002875424904806525
753.0, 0.003969401983551718
754.0, 0.009202187613696435
755.0, 0.011915070435612211
756.0, 0.00233325741038179
757.0, 0.0018618946023152062
758.0, 0.005509699839350469
759.0, 0.013412029966215
760.0, 0.012583163821819355
761.0, 0.006121932614029834
762.0, 0.009191811126036127
763.0, 0.007828858432381142
764.0, 0.010107302200267083
765.0, 0.015004767024122956
766.0, 0.012603346807121924
767.0, 0.004670305188170289
768.0, 0.001642195866012217
769.0, 0.009820625728624214
770.0, 0.0031873806706710374
771.0, 0.007855136858505163
772.0, 0.011606119481385764
773.0, 0.009203856799452006
774.0, 0.010359511248970766
775.0, 0.014554545443658567
776.0, 0.009753707825974697
777.0, 0.012622897098908887
778.0, 0.015409387423544006
779.0, 0.02078268570458589
780.0, 0.01963904914189074
781.0, 0.014788730865900983
782.0, 0.014988697307122226
783.0, 0.01623438031434283
784.0, 0.013207395652617547
785.0, 0.014483379942799416
786.0, 0.027704850446862186
787.0, 0.02685840336485587
788.0, 0.023137333946031468
789.0, 0.027506337589158047
790.0, 0.02804586989042248
791.0, 0.02522805413288449
792.0, 0.031532568830409224
793.0, 0.031265530198344625
794.0, 0.034904343695973686
795.0, 0.030610004858574742
796.0, 0.03209554380935855
797.0, 0.03885902390588317
798.0, 0.03732790565660525
799.0, 0.04089828244600282
800.0, 0.03925697337500364
801.0, 0.035785710302723574
802.0, 0.04126149973084575
803.0, 0.03813331436994806
804.0, 0.03830156469464515
805.0, 0.034421002204521635
806.0, 0.02796356696863212
807.0, 0.03517740499029453
808.0, 0.03714497671725748
809.0, 0.03246479679225175
810.0, 0.03717334656789895
811.0, 0.03659750232033806
812.0, 0.03269901610701291
813.0, 0.03626162300329136
814.0, 0.038789244204096615
815.0, 0.03835183585693867
816.0, 0.03640228748473992
817.0, 0.03569518195588208
818.0, 0.038131939669494165
819.0, 0.040972195981461935
820.0, 0.03929910014923212
821.0, 0.03249399628484887
822.0, 0.029460702108337667
823.0, 0.034241406684642976
824.0, 0.03497883564163569
825.0, 0.04344224695941093
826.0, 0.040159705228699875
827.0, 0.037659743425769034
828.0, 0.036025032803471434
829.0, 0.042004337181456394
830.0, 0.035318760678471735
831.0, 0.03343935838352142
832.0, 0.03203945392711416
833.0, 0.035854453869970174
834.0, 0.03546993609381639
835.0, 0.03793454113548261
836.0, 0.03595988768862679
837.0, 0.030401126223106267
838.0, 0.03217055047905261
839.0, 0.03739503612694704
840.0, 0.033295963909272835
841.0, 0.026656005330190375
842.0, 0.03298003338537368
843.0, 0.033960092264927515
844.0, 0.032163453676656975
845.0, 0.02736466575097298
846.0, 0.023044015000226854
847.0, 0.03222531864922867
848.0, 0.03252314255809811
849.0, 0.02592522368580192
850.0, 0.014700563039604963
851.0, 0.021283186428063528
852.0, 0.02742792058389608
853.0, 0.023035241864564675
854.0, 0.021940080409556122
855.0, 0.02403480276256717
856.0, 0.011119087199006509
857.0, 0.01616755552466655
858.0, 0.012858093101713328
859.0, 0.021543544683153677
860.0, 0.01892730333560061
861.0, 0.019421528431700807
862.0, 0.018871071011749476
863.0, 0.014387234791674416
864.0, 0.025021936028712045
865.0, 0.02121809977833355
866.0, 0.0249560784849866
867.0, 0.028008026881398456
868.0, 0.022220914285103425
869.0, 0.017457165242912426
870.0, 0.013668470153665914
871.0, 0.01260240561338556
872.0, 0.01982523358795474
873.0, 0.02562325963947549
874.0, 0.011474568562795235
875.0, 0.022958904246812788
876.0, 0.026508216176213836
877.0, 0.004915053007259546
878.0, 0.02172857011454114
879.0, 0.00801443368399941
880.0, 0.009508161588913386
881.0, 0.011938656935757005
882.0, 0.014756315121275348
883.0, 0.017267572925685298
884.0, 0.019063147011532996
885.0, 0.008800081588256797
886.0, 0.01145388965475127
887.0, 0.020829830947767178
888.0, 0.01717478335759135
889.0, 0.0038180858979365816
890.0, 0.0014390779825209277
891.0, 0.007162163584768164
892.0, 0.018151572986902408
893.0, 0.005297122988460725
894.0, 0.004911521466225471
895.0, 0.003959162013590254
896.0, 0.0010591219116802585
897.0, 0.00018204125094618465
898.0, 0.0015957217355132356
899.0, 0.0024491418934765538
900.0, 0.00022403299456768042
901.0, 0.0008325636343558501
902.0, 0.0047711751042842495
903.0, 0.0018866784090143854
904.0, 0.0016245439594433303
905.0, 0.0013883549592073
906.0, 0.003182285100004519
907.0, 0.0019498126212452208
908.0, 0.000847965246316682
909.0, 0.0011418935293385298
910.0, 0.00455358173715445
911.0, 0.00235381409083386
912.0, 0.0009906460862610968
913.0, 0.004955110991162684
914.0, 0.008680818070678425
915.0, 0.005954643055876399
916.0, 0.002123002730774728
917.0, 0.003385606659877887
918.0, 0.004306722871854481
919.0, 0.0023087958598443864
920.0, 0.0019154833953870908
921.0, 0.004248559413554513
922.0, 0.0011821633822469597
923.0, 0.006426013270432294
924.0, 0.0042265082438767716
925.0, 0.009918019115457104
926.0, 0.008777995421606547
927.0, 0.004348303734235484
928.0, 0.00033605443720047604
929.0, 0.004075561546499172
930.0, 0.012356278732607612
931.0, 0.02758609096023665
932.0, 0.016599343992307766
933.0, 0.018627960842390975
934.0, 0.024406514646375624
935.0, 0.023240867682117444
936.0, 0.03159523380328323
937.0, 0.04562944290354155
938.0, 0.05348182069271107
939.0, 0.051501110486113416
940.0, 0.056796066930540574
941.0, 0.05600707177505193
942.0, 0.06288060586467498
943.0, 0.07249564311897033
944.0, 0.08545597315147042
945.0, 0.09782227231581281
946.0, 0.1067199881870736
947.0, 0.1130062344921556
948.0, 0.1141874265613011
949.0, 0.12936532023714759
950.0, 0.13820080382747565
951.0, 0.14345741659376113
952.0, 0.15635531591206242
953.0, 0.16430298366889942
954.0, 0.16383706984102867
955.0, 0.17148636699720898
956.0, 0.18280858363571942
957.0, 0.18340868781947203
958.0, 0.198522827191697
959.0, 0.2020768039639523
960.0, 0.21513593510276585
961.0, 0.22467249308565432
962.0, 0.23129219762202313
963.0, 0.24589229055870337
964.0, 0.266564043278718
965.0, 0.2842336376882315
966.0, 0.3098828206844891
967.0, 0.34643390052509776
968.0, 0.3724608962170617
969.0, 0.4145718546184179
970.0, 0.4624522932747987
971.0, 0.5072293104006363
972.0, 0.5575862601724538
973.0, 0.6087090425453816
974.0, 0.6579924563602518
975.0, 0.7220090671111303
976.0, 0.7881383771527996
977.0, 0.846121577172184
978.0, 0.9101839530234597
979.0, 0.9628439580259398
980.0, 0.9938822890684206
981.0, 0.9999805982309782
982.0, 0.9967149259449819
983.0, 0.9824584923229844
984.0, 0.9334363290355793
985.0, 0.8724412338182025
986.0, 0.8035014515862552
987.0, 0.7272245897634633
988.0, 0.6648197297903737
989.0, 0.6121405128235083
990.0, 0.5659339128056591
991.0, 0.5119229750934464
992.0, 0.457391467153007
993.0, 0.4282392151544354
994.0, 0.3829868973924382
995.0, 0.3592398727825415
996.0, 0.33398206211315196
997.0, 0.31004459116047095
998.0, 0.29066275804223385
999.0, 0.2704666634490295
1000.0, 0.2691640334499691
1001.0, 0.2457084030226064
1002.0, 0.2347921852825471
1003.0, 0.22925305833587312
1004.0, 0.2173679035134088
1005.0, 0.2036018010597783
1006.0, 0.19099235710168916
1007.0, 0.1945815720990679
1008.0, 0.19591682075975317
1009.0, 0.19498731520579712
1010.0, 0.19590729999114642
1011.0, 0.17956671127312615
1012.0, 0.17487078685683727
1013.0, 0.18022026248160147
1014.0, 0.17457944558682653
1015.0, 0.17322611579686129
1016.0, 0.18158069137697785
1017.0, 0.1810469377873519
1018.0, 0.17408304002041744
1019.0, 0.16746644211986447
1020.0, 0.16182474853034295
1021.0, 0.15987132499738727
1022.0, 0.15547893224903225
1023.0, 0.13746554170982517
1024.0, 0.13910973059979947
1025.0, 0.13181718138580403
1026.0, 0.11855233003676482
1027.0, 0.11314652155243728
1028.0, 0.1167811316704407
1029.0, 0.10440553780356142
1030.0, 0.08825836433165873
1031.0, 0.08836038187028551
1032.0, 0.08405785944167006
1033.0, 0.07131613504372628
1034.0, 0.07315104448356172
1035.0, 0.07133583267128125
1036.0, 0.06941586296296064
1037.0, 0.06459647211053884
1038.0, 0.06310430085442005
1039.0, 0.05843177477043384
1040.0, 0.05814489768847775
1041.0, 0.0554024400087561
1042.0, 0.05170677593231948
1043.0, 0.047874913919937416
1044.0, 0.046591739742229535
1045.0, 0.04662688413549462
1046.0, 0.04109552946450091
1047.0, 0.045677697296646544
1048.0, 0.051568996269233204
1049.0, 0.04678157026819932
1050.0, 0.04481950377653772
1051.0, 0.04371275624113093
1052.0, 0.03936138519921152
1053.0, 0.034697693577155735
1054.0, 0.02721765558107802
1055.0, 0.02186449226509728
1056.0, 0.013631892488285812
1057.0, 0.010174473091958238
1058.0, 0.014184674624642422
1059.0, 0.008859336032002547
1060.0, 0.01041852270066557
1061.0, 0.010777837161581701
1062.0, 0.007017143244732337
1063.0, 0.003288616259954176
1064.0, 0.00450038047697259
1065.0, 0.001521390437539101
1066.0, 0.002620910191721051
1067.0, 0.00079685901654845
1068.0, 0.0020958605453016204
1069.0, 0.00018968774737099443
1070.0, 0.00264665905278794
1071.0, 0.007985704667064967
1072.0, 0.009599581775276355
1073.0, 0.004241876403141801
1074.0, 0.006621757724688142
1075.0, 0.011102033623247668
1076.0, 0.000514190436673495
1077.0, 0.002717767495654411
1078.0, 0.0009421134282317355
1079.0, 0.0006848148848486279
1080.0, 0.00751013493940367
1081.0, 0.007806903728961658
1082.0, 0.002105991410763333
1083.0, 0.005422097529203861
1084.0, 0.002577494887234227
1085.0, 0.0073123635534371526
1086.0, 0.009254819952081677
1087.0, 0.009755334629237016
1088.0, 0.0188540025731703
1089.0, 0.013434841193857279
1090.0, 0.01565089338765389
1091.0, 0.02013812914722072
1092.0, 0.019044585549755796
1093.0, 0.02227872982118835
1094.0, 0.02112160242638073
1095.0, 0.02536183873883322
1096.0, 0.024175492628383477
1097.0, 0.024430873649895754
1098.0, 0.026839617269574314
1099.0, 0.027724839096958477
1100.0, 0.02974527612557468
1101.0, 0.023382176359822156
1102.0, 0.015948516433315896
1103.0, 0.018227031416066703
1104.0, 0.02500759743376011
1105.0, 0.023275544636144594
1106.0, 0.021935467919724123
1107.0, 0.029999403578810382
1108.0, 0.03278363283516289
1109.0, 0.031630631631027875
1110.0, 0.031990742177641106
1111.0, 0.0388673480164583
1112.0, 0.0445114831353859
1113.0, 0.03977207445594446
1114.0, 0.04313937515916064
1115.0, 0.044387597491511534
1116.0, 0.05174696961868192
1117.0, 0.05298746545999655
1118.0, 0.055305616971676214
1119.0, 0.04517701565399831
1120.0, 0.04301526504266879
1121.0, 0.042777932563413536
1122.0, 0.03920680149691469
1123.0, 0.032914215038850406
1124.0, 0.03303187771608491
1125.0, 0.031895715574257
1126.0, 0.02771939342669818
1127.0, 0.022339739661375896
1128.0, 0.014818303905583226
1129.0, 0.019647168046874098
1130.0, 0.013913165729288041
1131.0, 0.010177753199613776
1132.0, 0.015181390621780203
1133.0, 0.022511320642620906
1134.0, 0.006319981774858479
1135.0, 0.006110445941893177
1136.0, 0.0013684540479395582
1137.0, 0.002648201701885629
1138.0, 0.00164846658758332
1139.0, 0.006878447017049587
1140.0, 0.0036030895251702175
1141.0, 0.00500954334114179
1142.0, 0.001173653273149701
1143.0, 0.0008881392236526964
1144.0, 0.004584317838502182
1145.0, 0.0005120736944996993
1146.0, 0.005326117805902783
1147.0, 0.005102435579288859
1148.0, 0.00466958616260627
1149.0, 0.013658324777498456
1150.0, 0.004855327262750927
1151.0, 0.011066495138334265
1152.0, 0.010969245430366597
1153.0, 0.0018365388550567999
1154.0, 0.008131069092171624
1155.0, 0.007369080553784854
1156.0, 0.007279533769624683
1157.0, 0.01051678174625287
1158.0, 0.009569660939505278
1159.0, 0.0061281807739092704
1160.0, 0.004062649758850137
1161.0, 0.010103911247788757
1162.0, 0.012174697563965433
1163.0, 0.0037524109636662964
1164.0, 0.010381514201662584
1165.0, 0.004054709190603658
1166.0, 0.00582562235902427
1167.0, 0.004594575894682537
1168.0, 0.006470634389780562
1169.0, 0.0032546469164555247
1170.0, 0.004775133200384042
1171.0, 0.01607619721219928
1172.0, 0.01758801053081876
1173.0, 0.016855706289658136
1174.0, 0.010816759831110915
1175.0, 0.0018445201299524144
1176.0, 0.0041929727408686526
1177.0, 0.015615943484366577
1178.0, 0.022548977062949453
1179.0, 0.019580276322485445
1180.0, 0.016654079481989506
1181.0, 0.00820918734141569
1182.0, 0.010387793259413459
1183.0, 0.01924441110104319
1184.0, 0.013239835007914171
1185.0, 0.01690805336334158
1186.0, 0.018279538156339883
1187.0, 0.016949630523720463
1188.0, 0.01570603976269921
1189.0, 0.01698536094276774
1190.0, 0.016745502084396076
1191.0, 0.016114466617560854
1192.0, 0.016859872808616286
1193.0, 0.016391854988723722
1194.0, 0.01317454995162675
1195.0, 0.011423182731187073
1196.0, 0.012249224433116958
1197.0, 0.01039279108137704
1198.0, 0.008969063080652128
1199.0, 0.015190228906030157
1200.0, 0.017548882926751726
1201.0, 0.011304944177824764
1202.0, 0.013127215750247804
1203.0, 0.007219770444563881
1204.0, 0.0067908180528921695
1205.0, 0.012452980280328502
1206.0, 0.006040181005438603
1207.0, 0.012934249571021343
1208.0, 0.012808724082210808
1209.0, 0.016329306701837243
1210.0, 0.015724901764313126
1211.0, 0.007583920269431242
1212.0, 0.009637027559566337
1213.0, 0.015523860130223546
1214.0, 0.012293634772320754
1215.0, 0.00877307473751727
1216.0, 0.01464699401594332
1217.0, 0.01908367482393092
1218.0, 0.009307440624064835
1219.0, 0.0024062861992291762
1220.0, 0.007047190152476558
1221.0, 0.011186644972293837
1222.0, 0.014267043195071875
1223.0, 0.0069297949296825865
1224.0, 0.00817267711929496
1225.0, 0.010500705996903312
1226.0, 0.0005755237177813651
1227.0, 0.005290920722908626
1228.0, 0.006059536714990714
1229.0, 0.005750162532699857
1230.0, 0.007401911931845974
1231.0, 0.008223541335909542
1232.0, 0.012379833620630052
1233.0, 0.004691955680418231
1234.0, 0.0072033747010426625
1235.0, 0.010970705014500723
1236.0, 0.01347395707544187
1237.0, 0.01561947187762511
1238.0, 0.01218628370113634
1239.0, 0.009091735582838089
1240.0, 0.0005802278829056208
1241.0, 0.0022588889188572456
1242.0, 0.007097219954978834
1243.0, 0.012025455577846048
1244.0, 0.012003966376629259
1245.0, 0.005958348154879459
1246.0, 0.005795638093754537
1247.0, 0.0032498656430343404
1248.0, 0.007028999711668817
1249.0, 0.001555461770240933
1250.0, 0.006341451586058219
1251.0, 0.002223374886499655
1252.0, 0.004402473296181071
1253.0, 0.008944675723164321
1254.0, 0.007778921515711961
1255.0, 0.011661923997154957
1256.0, 0.007047380390905996
1257.0, 0.007781041073105794
1258.0, 0.00552693563945893
1259.0, 0.005922567454495719
1260.0, 0.012900339429740344
1261.0, 0.011426740270908443
1262.0, 0.0040278108873710574
1263.0, 0.00027218540723528584
1264.0, 0.004364458369430957
1265.0, 0.007323733055008191
1266.0, 0.0019436235137009978
1267.0, 0.004894411016968038
1268.0, 0.009149202653139074
1269.0, 0.0047302314262405625
1270.0, 0.0037304696727785726
1271.0, 0.0054353940732311075
1272.0, 0.004996614033665972
1273.0, 0.0051217374438121185
1274.0, 0.006618390521697729
1275.0, 0.0049241088275788466
1276.0, 0.0033545114996746533
1277.0, 0.008164211816396365
1278.0, 0.008336657582562556
1279.0, 0.005589455566295548
1280.0, 0.005220570596096044
1281.0, 0.007189524869017598
1282.0, 0.0017777120334284329
1283.0, 0.005940806358057898
1284.0, 0.0020900716416890107
1285.0, 0.0032793043825309594
1286.0, 0.0017737548011943678
1287, 0.0
1288, 0.0
1289, 0.0
1290, 0.0
1291, 0.0
1292, 0.0
1293, 0.0
1294, 0.0
1295, 0.0
1296, 0.0
1297, 0.0
1298, 0.0
1299, 0.0
1300, 0.0
1301, 0.0
1302, 0.0
1303, 0.0
1304, 0.0
1305, 0.0
1306, 0.0
1307, 0.0
1308, 0.0
1309, 0.0
1310, 0.0
1311, 0.0
1312, 0.0
1313, 0.0
1314, 0.0
1315, 0.0
1316, 0.0
1317, 0.0
1318, 0.0
1319, 0.0
1320, 0.0
1321, 0.0
1322, 0.0
1323, 0.0
1324, 0.0
1325, 0.0
1326, 0.0
1327, 0.0
1328, 0.0
1329, 0.0
1330, 0.0
1331, 0.0
1332, 0.0
1333, 0.0
1334, 0.0
1335, 0.0
1336, 0.0
1337, 0.0
1338, 0.0
1339, 0.0
1340, 0.0
1341, 0.0
1342, 0.0
1343, 0.0
1344, 0.0
1345, 0.0
1346, 0.0
1347, 0.0
1348, 0.0
1349, 0.0
1350, 0.0
1351, 0.0
1352, 0.0
1353, 0.0
1354, 0.0
1355, 0.0
1356, 0.0
1357, 0.0
1358, 0.0
1359, 0.0
1360, 0.0
1361, 0.0
1362, 0.0
1363, 0.0
1364, 0.0
1365, 0.0
1366, 0.0
1367, 0.0
1368, 0.0
1369, 0.0
1370, 0.0
1371, 0.0
1372, 0.0
1373, 0.0
1374, 0.0
1375, 0.0
1376, 0.0
1377, 0.0
1378, 0.0
1379, 0.0
1380, 0.0
1381, 0.0
1382, 0.0
1383, 0.0
1384, 0.0
1385, 0.0
1386, 0.0
1387, 0.0
1388, 0.0
1389, 0.0
1390, 0.0
1391, 0.0
1392, 0.0
1393, 0.0
1394, 0.0
1395, 0.0
1396, 0.0
1397, 0.0
1398, 0.0
1399, 0.0
1400, 0.0
1401, 0.0
1402, 0.0
1403, 0.0
1404, 0.0
1405, 0.0
1406, 0.0
1407, 0.0
1408, 0.0
1409, 0.0
1410, 0.0
1411, 0.0
1412, 0.0
1413, 0.0
1414, 0.0
1415, 0.0
1416, 0.0
1417, 0.0
1418, 0.0
1419, 0.0
1420, 0.0
1421, 0.0
1422, 0.0
1423, 0.0
1424, 0.0
1425, 0.0
1426, 0.0
1427, 0.0
1428, 0.0
1429, 0.0
1430, 0.0
1431, 0.0
1432, 0.0
1433, 0.0
1434, 0.0
1435, 0.0
1436, 0.0
1437, 0.0
1438, 0.0
1439, 0.0
1440, 0.0
1441, 0.0
1442, 0.0
1443, 0.0
1444, 0.0
1445, 0.0
1446, 0.0
1447, 0.0
1448, 0.0
1449, 0.0
1450, 0.0
1451, 0.0
1452, 0.0
1453, 0.0
1454, 0.0
1455, 0.0
1456, 0.0
1457, 0.0
1458, 0.0
1459, 0.0
1460, 0.0
1461, 0.0
1462, 0.0
1463, 0.0
1464, 0.0
1465, 0.0
1466, 0.0
1467, 0.0
1468, 0.0
1469, 0.0
1470, 0.0
1471, 0.0
1472, 0.0
1473, 0.0
1474, 0.0
1475, 0.0
1476, 0.0
1477, 0.0
1478, 0.0
1479, 0.0
1480, 0.0
1481, 0.0
1482, 0.0
1483, 0.0
1484, 0.0
1485, 0.0
1486, 0.0
1487, 0.0
1488, 0.0
1489, 0.0
1490, 0.0
1491, 0.0
1492, 0.0
1493, 0.0
1494, 0.0
1495, 0.0
1496, 0.0
1497, 0.0
1498, 0.0
1499, 0.0
1500, 0.0
1501, 0.0
1502, 0.0
1503, 0.0
1504, 0.0
1505, 0.0
1506, 0.0
1507, 0.0
1508, 0.0
1509, 0.0
1510, 0.0
1511, 0.0
1512, 0.0
1513, 0.0
1514, 0.0
1515, 0.0
1516, 0.0
1517, 0.0
1518, 0.0
1519, 0.0
1520, 0.0
1521, 0.0
1522, 0.0
1523, 0.0
1524, 0.0
1525, 0.0
1526, 0.0
1527, 0.0
1528, 0.0
1529, 0.0
1530, 0.0
1531, 0.0
1532, 0.0
1533, 0.0
1534, 0.0
1535, 0.0
1536, 0.0
1537, 0.0
1538, 0.0
1539, 0.0
1540, 0.0
1541, 0.0
1542, 0.0
1543, 0.0
1544, 0.0
1545, 0.0
1546, 0.0
1547, 0.0
1548, 0.0
1549, 0.0
1550, 0.0
1551, 0.0
1552, 0.0
1553, 0.0
1554, 0.0
1555, 0.0
1556, 0.0
1557, 0.0
1558, 0.0
1559, 0.0
1560, 0.0
1561, 0.0
1562, 0.0
1563, 0.0
1564, 0.0
1565, 0.0
1566, 0.0
1567, 0.0
1568, 0.0
1569, 0.0
1570, 0.0
1571, 0.0
1572, 0.0
1573, 0.0
1574, 0.0
1575, 0.0
1576, 0.0
1577, 0.0
1578, 0.0
1579, 0.0
1580, 0.0
1581, 0.0
1582, 0.0
1583, 0.0
1584, 0.0
1585, 0.0
1586, 0.0
1587, 0.0
1588, 0.0
1589, 0.0
1590, 0.0
1591, 0.0
1592, 0.0
1593, 0.0
1594, 0.0
1595, 0.0
1596, 0.0
1597, 0.0
1598, 0.0
1599, 0.0
