30, 0.0
31, 0.0
32, 0.0
33, 0.0
34, 0.0
35, 0.0
36, 0.0
37, 0.0
38, 0.0
39, 0.0
40, 0.0
41, 0.0
42, 0.0
43, 0.0
44, 0.0
45, 0.0
46, 0.0
47, 0.0
48, 0.0
49, 0.0
50, 0.0
51, 0.0
52, 0.0
53, 0.0
54, 0.0
55, 0.0
56, 0.0
57, 0.0
58, 0.0
59, 0.0
60, 0.0
61, 0.0
62, 0.0
63, 0.0
64, 0.0
65, 0.0
66, 0.0
67, 0.0
68, 0.0
69, 0.0
70, 0.0
71, 0.0
72, 0.0
73, 0.0
74, 0.0
75, 0.0
76, 0.0
77, 0.0
78, 0.0
79, 0.0
80, 0.0
81, 0.0
82, 0.0
83, 0.0
84, 0.0
85, 0.0
86, 0.0
87, 0.0
88, 0.0
89, 0.0
90, 0.0
91, 0.0
92, 0.0
93, 0.0
94, 0.0
95, 0.0
96, 0.0
97, 0.0
98, 0.0
99, 0.0
100, 0.0
101, 0.0
102, 0.0
103, 0.0
104, 0.0
105, 0.0
106, 0.0
107, 0.0
108, 0.0
109, 0.0
110, 0.0
111, 0.0
112, 0.0
113, 0.0
114, 0.0
115, 0.0
116, 0.0
117, 0.0
118, 0.0
119, 0.0
120, 0.0
121, 0.0
122, 0.0
123, 0.0
124, 0.0
125, 0.0
126, 0.0
127, 0.0
128, 0.0
129, 0.0
130, 0.0
131, 0.0
132, 0.0
133, 0.0
134, 0.0
135, 0.0
136, 0.0
137, 0.0
138, 0.0
139, 0.0
140, 0.0
141, 0.0
142, 0.0
143, 0.0
144, 0.0
145, 0.0
146, 0.0
147, 0.0
148, 0.0
149, 0.0
150, 0.0
151, 0.0
152, 0.0
153, 0.0
154, 0.0
155, 0.0
156, 0.0
157, 0.0
158, 0.0
159, 0.0
160, 0.0
161, 0.0
162, 0.0
163, 0.0
164, 0.0
165, 0.0
166, 0.0
167, 0.0
168, 0.0
169, 0.0
170, 0.0
171, 0.0
172, 0.0
173.0, 0.0013747343730012695
174.0, 0.0008623355447894081
175.0, 0.0028284853127199597
176.0, 0.008880292848088719
177.0, 0.0065051333116785135
178.0, 0.017295741746738643
179.0, 0.005771788735235917
180.0, 0.005055556894160476
181.0, 0.008455017264457805
182.0, 0.010031417532780387
183.0, 0.008599163087667809
184.0, 0.009620575920499943
185.0, 0.010817346781298285
186.0, 0.0019888878574469537
187.0, 0.011397780004664852
188.0, 0.0009839303208791339
189.0, 0.00301508969661219
190.0, 0.0018163179789452521
191.0, 0.001682867940084802
192.0, 0.0010849498255410528
193.0, 0.004006673271753138
194.0, 0.0013232605989914974
195.0, 0.0023228829540033044
196.0, 0.002941494402998214
197.0, 0.010289901662948953
198.0, 0.005846542874158299
199.0, 0.013271746318805
200.0, 0.019188814382230045
201.0, 0.024212311319792106
202.0, 0.02198057279916513
203.0, 0.038488800331924394
204.0, 0.05514161288260498
205.0, 0.0595991287591143
206.0, 0.057245388320301446
207.0, 0.08524642477348916
208.0, 0.104490812911644
209.0, 0.11616379042439072
210.0, 0.13083979167484858
211.0, 0.14674359251725277
212.0, 0.16115812947493452
213.0, 0.16921268393026473
214.0, 0.1750429778045286
215.0, 0.1888418672065247
216.0, 0.19464448928931027
217.0, 0.1981259214579116
218.0, 0.20874742651656789
219.0, 0.22944727392987838
220.0, 0.2401490532876432
221.0, 0.2446398819319104
222.0, 0.24660445233795586
223.0, 0.24674485271787386
224.0, 0.24255165424953665
225.0, 0.23936213864564457
226.0, 0.23808215309021113
227.0, 0.23252273526320025
228.0, 0.21396943079133918
229.0, 0.2002249199361404
230.0, 0.18397938327371935
231.0, 0.1668565355411532
232.0, 0.15500220613543464
233.0, 0.15727171283495736
234.0, 0.14975713788272974
235.0, 0.12737315677157882
236.0, 0.10336986108356483
237.0, 0.09984698852522104
238.0, 0.09383852952937988
239.0, 0.09698462993594095
240.0, 0.09933286444710901
241.0, 0.08601872975302355
242.0, 0.09384854855778278
243.0, 0.09592942937153807
244.0, 0.09507026703039288
245.0, 0.09401021176437749
246.0, 0.0830622096417128
247.0, 0.08999599328373133
248.0, 0.09255865125567037
249.0, 0.09227181269955312
250.0, 0.10595024458415474
251.0, 0.11214622754351017
252.0, 0.1192077503849705
253.0, 0.13136442615398153
254.0, 0.14403563727036486
255.0, 0.138180943087055
256.0, 0.14919060358792824
257.0, 0.15984967737052594
258.0, 0.16926734778951058
259.0, 0.19048385299979326
260.0, 0.2112446015128648
261.0, 0.22176282190048344
262.0, 0.23307164450626464
263.0, 0.2522240727562277
264.0, 0.264193100012714
265.0, 0.2874860106458681
266.0, 0.30560185361336784
267.0, 0.32313956534129834
268.0, 0.3604799415987128
269.0, 0.3564089182034938
270.0, 0.37184393216606015
271.0, 0.4035775155732365
272.0, 0.43244959129128063
273.0, 0.46349792549311314
274.0, 0.4928888878981974
275.0, 0.5125452559954741
276.0, 0.5317268050593872
277.0, 0.5712039052096577
278.0, 0.5974564387762207
279.0, 0.6124399232088334
280.0, 0.6237095497384264
281.0, 0.6349066425715449
282.0, 0.6450883211668843
283.0, 0.6701031089877957
284.0, 0.6881827276790792
285.0, 0.6951257006312511
286.0, 0.7043742130830365
287.0, 0.7026837676769992
288.0, 0.7020053912884894
289.0, 0.7028126118985676
290.0, 0.6979486732518356
291.0, 0.681777133043464
292.0, 0.6601665317083135
293.0, 0.6462143862227359
294.0, 0.6348583911658625
295.0, 0.6135655227902147
296.0, 0.59416925619707
297.0, 0.5721181466272355
298.0, 0.5544032348330101
299.0, 0.5392879107138733
300.0, 0.5115693681651214
301.0, 0.48759278124605154
302.0, 0.4574462214429354
303.0, 0.4183931726098407
304.0, 0.38071431162913094
305.0, 0.3668224107078466
306.0, 0.3329291319132251
307.0, 0.30114669726498783
308.0, 0.2795138184364979
309.0, 0.2469316262413943
310.0, 0.22558946004419403
311.0, 0.19945870256079742
312.0, 0.17279462121927344
313.0, 0.15183059132850976
314.0, 0.1253867614534088
315.0, 0.10250352264925643
316.0, 0.08088987560686596
317.0, 0.06357720706768569
318.0, 0.055100625730614375
319.0, 0.04366272712345741
320.0, 0.03339994647379494
321.0, 0.01624783613638045
322.0, 0.002286665615124468
323.0, 0.011300538817591159
324.0, 0.0024091873365159645
325.0, 0.007298353246148705
326.0, 0.009172982371820728
327.0, 0.01438474903086326
328.0, 0.009680999000203937
329.0, 0.009299797764078412
330.0, 0.012440965459724965
331.0, 0.01718793970227061
332.0, 0.021495130107234726
333.0, 0.002106856414831319
334.0, 0.0012573261334475963
335.0, 0.0021166593448088875
336.0, 0.008451678937379008
337.0, 0.02258159616175868
338.0, 0.027562330779806424
339.0, 0.03596711056356541
340.0, 0.04919778278815938
341.0, 0.06155668886964078
342.0, 0.07424369952801359
343.0, 0.09348380891254875
344.0, 0.11258337118890131
345.0, 0.12457163239922334
346.0, 0.1314636433158324
347.0, 0.14841865121095807
348.0, 0.16016566884205394
349.0, 0.17027066540516328
350.0, 0.1847623737793563
351.0, 0.20153331284722004
352.0, 0.21433228305142102
353.0, 0.2242881085521807
354.0, 0.2364538587130965
355.0, 0.24867652234233767
356.0, 0.24698263590397185
357.0, 0.25403266520202844
358.0, 0.2608625729911741
359.0, 0.2695483140996226
360.0, 0.2844829919316357
361.0, 0.2740757841526193
362.0, 0.27997460436316296
363.0, 0.28625249210751974
364.0, 0.28120123455767854
365.0, 0.2702397376939426
366.0, 0.2787609959279136
367.0, 0.2762856895561054
368.0, 0.27405485287556225
369.0, 0.2815230988339985
370.0, 0.27893139661021865
371.0, 0.26552944363757935
372.0, 0.25985784474834106
373.0, 0.2546025009767788
374.0, 0.23917453221406823
375.0, 0.22873312432299142
376.0, 0.22161133230463784
377.0, 0.20559155212462982
378.0, 0.18905612802788396
379.0, 0.18431754173727022
380.0, 0.16496801800437144
381.0, 0.14804857443274913
382.0, 0.13743276630003243
383.0, 0.12962361135579278
384.0, 0.12116899351797816
385.0, 0.10977485565210944
386.0, 0.09478139573171862
387.0, 0.08181458505904705
388.0, 0.07153205450528644
389.0, 0.05801593525340835
390.0, 0.04499127513909628
391.0, 0.031914091400203584
392.0, 0.02482438137820218
393.0, 0.021148454164779864
394.0, 0.0046965857799670255
395.0, 0.01088197122837921
396.0, 0.019424013776220547
397.0, 0.024379366812569865
398.0, 0.02788470380136038
399.0, 0.028720885503170375
400.0, 0.016244536738908154
401.0, 0.013556922323805568
402.0, 0.010605518137319263
403.0, 0.009315985445179864
404.0, 0.01200750319867873
405.0, 0.033623900276930234
406.0, 0.04695573139440364
407.0, 0.05250030743235346
408.0, 0.07112793056092721
409.0, 0.08597234394035953
410.0, 0.10648459171274524
411.0, 0.12796943263876653
412.0, 0.14875920583598012
413.0, 0.16821425379442548
414.0, 0.16758243821446622
415.0, 0.18610046391187074
416.0, 0.20890763036442944
417.0, 0.2206035947694885
418.0, 0.22278037851053992
419.0, 0.23281592548280244
420.0, 0.23316747973837407
421.0, 0.2312740466294783
422.0, 0.23455262638651253
423.0, 0.23946178228381293
424.0, 0.23157052464003322
425.0, 0.22527334055848464
426.0, 0.21359771462189225
427.0, 0.19709778673286912
428.0, 0.18917421997439746
429.0, 0.18148120336848578
430.0, 0.16695661840913525
431.0, 0.15635891599334745
432.0, 0.15051172507786365
433.0, 0.1329469452500078
434.0, 0.12106985465393952
435.0, 0.10638538590122529
436.0, 0.09722376385945378
437.0, 0.0971293309860373
438.0, 0.09527915433130828
439.0, 0.0948907621386102
440.0, 0.09581967709038647
441.0, 0.09859061928572209
442.0, 0.10170497838676125
443.0, 0.1012460334053456
444.0, 0.10173140383529036
445.0, 0.11432687022605866
446.0, 0.13190141078415657
447.0, 0.14498439295011814
448.0, 0.15233796768871213
449.0, 0.1804387511800136
450.0, 0.20645414388078234
451.0, 0.22708911402959187
452.0, 0.2488486188963851
453.0, 0.274781833225752
454.0, 0.3040078705879307
455.0, 0.3401361388058094
456.0, 0.37465160178322426
457.0, 0.40291662993134325
458.0, 0.43281459540079725
459.0, 0.469677344268459
460.0, 0.5102474912466826
461.0, 0.5612166232528393
462.0, 0.6136535956434822
463.0, 0.6518791965615347
464.0, 0.7083819867489156
465.0, 0.7470172179907265
466.0, 0.7806754713751007
467.0, 0.8233703859673555
468.0, 0.8707819156348607
469.0, 0.8963091513742206
470.0, 0.9306878693138912
471.0, 0.9531588460614401
472.0, 0.9678243262286224
473.0, 0.9987847410212606
474.0, 0.988237123500388
475.0, 0.9900847040046743
476.0, 0.988503062411498
477.0, 0.9730427132656841
478.0, 0.9567759707474061
479.0, 0.9383381853352062
480.0, 0.9211295077963584
481.0, 0.8854633093846191
482.0, 0.8399598367244588
483.0, 0.8044215422175439
484.0, 0.763259043187851
485.0, 0.726521600445877
486.0, 0.6864293204029904
487.0, 0.6453265055629736
488.0, 0.6109993965474186
489.0, 0.5851835290912802
490.0, 0.5559390914060617
491.0, 0.5315124241312095
492.0, 0.50238938087747
493.0, 0.4697919396627687
494.0, 0.4629726382090669
495.0, 0.43665822101246693
496.0, 0.42136756061472747
497.0, 0.41647914643342493
498.0, 0.40571515902916405
499.0, 0.38090076121436306
500.0, 0.3742471446604205
501.0, 0.3710082347849887
502.0, 0.3602950729251851
503.0, 0.3402479545621601
504.0, 0.31867501619065786
505.0, 0.3105652953569177
506.0, 0.30179329521366366
507.0, 0.2782870090331705
508.0, 0.2558604188335253
509.0, 0.25553777572766234
510.0, 0.23759513094034046
511.0, 0.23008931853504377
512.0, 0.22020744309406107
513.0, 0.2025684490843054
514.0, 0.18303377654351896
515.0, 0.16482999185006572
516.0, 0.1525800197930921
517.0, 0.13842367828714838
518.0, 0.12007203507810997
519.0, 0.10161262141918659
520.0, 0.08988438447707711
521.0, 0.07992039772423949
522.0, 0.060645379984095464
523.0, 0.04515250577926426
524.0, 0.04181059122647987
525.0, 0.03950137006578391
526.0, 0.02349562343700989
527.0, 0.009972906599626227
528.0, 0.003848395179548737
529.0, 0.013963038103123016
530.0, 0.013058387523246354
531.0, 0.017173634892679746
532.0, 0.023598887559353725
533.0, 0.023568235378349716
534.0, 0.02420699298531073
535.0, 0.0305505384319251
536.0, 0.026802860492511925
537.0, 0.022433446804284995
538.0, 0.007817471303831602
539.0, 0.010492931252724758
540.0, 0.024066390429387168
541.0, 0.036822835619586054
542.0, 0.05819883975422091
543.0, 0.08110587784239767
544.0, 0.1132468070593345
545.0, 0.14674231950295416
546.0, 0.16826292341388369
547.0, 0.19363639742638794
548.0, 0.23517213602337084
549.0, 0.2793834411151843
550.0, 0.31799366021929076
551.0, 0.35258295551181285
552.0, 0.39445043069614133
553.0, 0.4391196219493686
554.0, 0.4641084321087561
555.0, 0.4884125419822106
556.0, 0.5141136336730584
557.0, 0.5130939094822838
558.0, 0.5008637282041268
559.0, 0.47813531250043245
560.0, 0.4530084033759091
561.0, 0.4242775752831619
562.0, 0.3867965562629628
563.0, 0.34529730967069766
564.0, 0.31949214237842977
565.0, 0.28786956571912964
566.0, 0.25951619591823655
567.0, 0.2508030300770985
568.0, 0.2553256518638637
569.0, 0.23068660262080254
570.0, 0.21067863200200856
571.0, 0.21692956179090384
572.0, 0.2276743661268892
573.0, 0.22202105707806458
574.0, 0.23562281117083148
575.0, 0.23624318263880656
576.0, 0.24256341973230838
577.0, 0.2538753586076769
578.0, 0.26066249436465355
579.0, 0.2593793051077008
580.0, 0.25398745742946266
581.0, 0.24348755040127373
582.0, 0.22718443218837453
583.0, 0.21223769282832292
584.0, 0.20584670330467167
585.0, 0.19935067262483347
586.0, 0.18055661960834657
587.0, 0.1670643701176203
588.0, 0.16478714208530423
589.0, 0.16266133501357208
590.0, 0.14562461402593174
591.0, 0.11495699213756055
592.0, 0.10218372545466392
593.0, 0.08790095351633972
594.0, 0.07084653078926605
595.0, 0.06347305795864928
596.0, 0.05307947034610835
597.0, 0.03991899606016348
598.0, 0.031245753733041986
599.0, 0.02681330813024029
600.0, 0.018231289734117744
601.0, 0.0018384970396865517
602.0, 0.0024400342619721994
603.0, 0.0020371703736189206
604.0, 0.006086345140738161
605.0, 0.004704761585110981
606.0, 0.008063596248839304
607.0, 0.0031578244410637724
608.0, 0.0036812566472186137
609.0, 0.007237195639755028
610.0, 0.015894349702329082
611.0, 0.016712612210823152
612.0, 0.004950206143807649
613.0, 0.0179971600543398
614.0, 0.02641402125396585
615.0, 0.027712878857694113
616.0, 0.028533816591199922
617.0, 0.03268881571808522
618.0, 0.03736657220145147
619.0, 0.036660889899377866
620.0, 0.03688193911929016
621.0, 0.043032660155258445
622.0, 0.05305973697092067
623.0, 0.06141587454362828
624.0, 0.06385709086752672
625.0, 0.06284865068465607
626.0, 0.07257604005366788
627.0, 0.08381206304739922
628.0, 0.08992834080066815
629.0, 0.09638741985006409
630.0, 0.10363118611560612
631.0, 0.11353316761174216
632.0, 0.12445701789522069
633.0, 0.1311815326781823
634.0, 0.14007582140595626
635.0, 0.16706345267049943
636.0, 0.17662292568986626
637.0, 0.18498729865327326
638.0, 0.2009001680038951
639.0, 0.21483873088077327
640.0, 0.22314713895616767
641.0, 0.2408003871973471
642.0, 0.25158032521331436
643.0, 0.28908464671317147
644.0, 0.2946433139043237
645.0, 0.2835688552459866
646.0, 0.30688722201693325
647.0, 0.3210149041537273
648.0, 0.32975036118860357
649.0, 0.33358319284900034
650.0, 0.34107307158290273
651.0, 0.3574006967649536
652.0, 0.37351754003714205
653.0, 0.37343404216523113
654.0, 0.39092795216194787
655.0, 0.4027505048150465
656.0, 0.41287503567895595
657.0, 0.42143658142796286
658.0, 0.4125859303089892
659.0, 0.4028410761641432
660.0, 0.40920791835658876
661.0, 0.4172910037147057
662.0, 0.41902718419359336
663.0, 0.4109187833550979
664.0, 0.39481285853860404
665.0, 0.3903866873981933
666.0, 0.3747804642591965
667.0, 0.36240750102780533
668.0, 0.3490281334241135
669.0, 0.3279594272612871
670.0, 0.3071014917054936
671.0, 0.28753817951430294
672.0, 0.2743097317982596
673.0, 0.2565632996165369
674.0, 0.2390274163179064
675.0, 0.22844377946246514
676.0, 0.21810446715992804
677.0, 0.20444227426037515
678.0, 0.1771873607676173
679.0, 0.15231049180347797
680.0, 0.1404388972194004
681.0, 0.13314587685260817
682.0, 0.1158782134404677
683.0, 0.09776167398192706
684.0, 0.09266050904172259
685.0, 0.08815410694338834
686.0, 0.07681375767453423
687.0, 0.0617140854413528
688.0, 0.052316554865516486
689.0, 0.04810546939031513
690.0, 0.04509696965318648
691.0, 0.038148608443955866
692.0, 0.028938290424683998
693.0, 0.02148366860964446
694.0, 0.01653884659647722
695.0, 0.020447507343067405
696.0, 0.02400781664413707
697.0, 0.01807763345351286
698.0, 0.010321380469235131
699.0, 0.008110635221275732
700.0, 0.0031288899241853144
701.0, 0.0030542027254051047
702.0, 0.0015252073216310742
703.0, 0.0003356963927406759
704.0, 0.001154819513884265
705.0, 0.004604445045831982
706.0, 0.006922910480431037
707.0, 0.0036951685190543698
708.0, 0.0023199722120749717
709.0, 0.0021932253163973346
710.0, 0.004706903993464904
711.0, 0.006301130840083015
712.0, 0.0009369167051186929
713.0, 0.0014941433675755946
714.0, 0.007749277659403567
715.0, 0.005562228203255705
716.0, 0.0007271805242615678
717.0, 0.004009688288171896
718.0, 0.0032018391332349246
719.0, 0.004687350599638694
720.0, 0.004909411180612907
721.0, 0.00405045793569597
722.0, 0.0014631932833394112
723.0, 0.0016193809275975972
724.0, 0.0009160677822171941
725.0, 0.005408189315074376
726.0, 0.004476354837608663
727.0, 0.0025389537732410077
728.0, 0.0021502263661807002
729.0, 0.00246764064442807
730.0, 0.005193488851002831
731.0, 0.0052517054574703565
732.0, 0.00615405710331656
733.0, 0.004914788918495937
734.0, 0.005141085123612188
735.0, 0.010024862377406282
736.0, 0.01688043684977045
737.0, 0.018477926162167282
738.0, 0.009717475748802669
739.0, 0.01588956685245182
740.0, 0.016559302524160952
741.0, 0.01297177928661963
742.0, 0.01444742862050735
743.0, 0.01827246072108651
744.0, 0.021683087931173562
745.0, 0.014499498917627085
746.0, 0.023568609296449203
747.0, 0.032258008076138364
748.0, 0.029043476847901907
749.0, 0.0287230515167225
750.0, 0.02690999113153177
751.0, 0.022948825423301296
752.0, 0.03086618286096688
753.0, 0.026187852493142212
754.0, 0.04075638468680806
755.0, 0.02998825821358803
756.0, 0.03252599520636298
757.0, 0.0359028583022444
758.0, 0.03726969747070806
759.0, 0.040113001489649955
760.0, 0.04082094595298352
761.0, 0.04316516530814708
762.0, 0.0376359713380604
763.0, 0.04297142866794912
764.0, 0.043746609098333035
765.0, 0.03400030819866906
766.0, 0.03395276746577782
767.0, 0.03716308075262793
768.0, 0.03223617819000797
769.0, 0.03111862506901674
770.0, 0.03377933919122871
771.0, 0.03911288530406605
772.0, 0.0429685918369976
773.0, 0.04142583362746421
774.0, 0.03790879794153391
775.0, 0.04053098734128753
776.0, 0.032086872745787566
777.0, 0.04689721629632838
778.0, 0.03321198623325885
779.0, 0.03605177911161085
780.0, 0.04332206638214885
781.0, 0.04015390208286187
782.0, 0.04515365410414438
783.0, 0.04184602006249785
784.0, 0.04841459884648725
785.0, 0.042982359351248715
786.0, 0.04246794103401607
787.0, 0.04575432030938626
788.0, 0.03800026031501236
789.0, 0.04858342771491516
790.0, 0.04670199469668123
791.0, 0.035717690659403854
792.0, 0.037727739002243015
793.0, 0.04458422101564507
794.0, 0.04168739888455869
795.0, 0.05018468242803994
796.0, 0.04791176842814414
797.0, 0.04804992132263581
798.0, 0.04539353574207465
799.0, 0.041123322341263605
800.0, 0.04173364575996894
801.0, 0.044545716515668424
802.0, 0.04207248604673469
803.0, 0.05155399962546007
804.0, 0.052133714619567666
805.0, 0.04566561994415986
806.0, 0.04595824810825975
807.0, 0.05462333476760063
808.0, 0.05090656655002535
809.0, 0.048488938455526646
810.0, 0.04967480927857752
811.0, 0.04974095456188081
812.0, 0.05118241866538436
813.0, 0.054603683141923855
814.0, 0.056578711190793336
815.0, 0.05422911503850718
816.0, 0.05253465229672517
817.0, 0.046667278243278876
818.0, 0.04172769103821694
819.0, 0.04971508063807763
820.0, 0.06273868868342723
821.0, 0.06001593185433974
822.0, 0.05663278616295717
823.0, 0.052896190001528745
824.0, 0.04832626440315719
825.0, 0.050146304808776174
826.0, 0.05452707740721497
827.0, 0.053048180757915515
828.0, 0.046750302542187344
829.0, 0.044582925832515004
830.0, 0.04946776749351665
831.0, 0.04474144337035149
832.0, 0.039532456077485977
833.0, 0.03999913011152637
834.0, 0.04076221763866617
835.0, 0.03726959412404259
836.0, 0.04081960305524056
837.0, 0.039378975216390735
838.0, 0.03763474761112151
839.0, 0.040892216988846784
840.0, 0.04269689296289769
841.0, 0.037713876772576906
842.0, 0.03451895429538436
843.0, 0.03288409448988078
844.0, 0.036331165183620825
845.0, 0.03550082291118057
846.0, 0.030869069340636372
847.0, 0.027106184627872253
848.0, 0.027301452441615724
849.0, 0.030615301809408822
850.0, 0.02985631718962611
851.0, 0.028932001599709076
852.0, 0.024372610229384212
853.0, 0.02293824679373736
854.0, 0.019642386026254646
855.0, 0.022430346418606795
856.0, 0.01860000276380153
857.0, 0.02192394661675906
858.0, 0.019724413226328966
859.0, 0.011967348081785048
860.0, 0.013031111278128015
861.0, 0.014255086675829778
862.0, 0.008894605341699866
863.0, 0.007064542673365814
864.0, 0.00048605719300636574
865.0, 0.00438072163650868
866.0, 0.003238540334228776
867.0, 0.0018461547804858136
868.0, 0.001820212386205075
869.0, 0.0027802821149232786
870.0, 0.0023735155421766565
871.0, 0.002063883541380199
872.0, 0.0003879336835491188
873.0, 0.0027092869334431353
874.0, 0.004313086945694769
875.0, 0.002783633079170314
876.0, 0.0015230946606197688
877.0, 0.0005262647933672863
878.0, 0.001994730602348944
879.0, 0.0012139163959460344
880.0, 0.005031629670496766
881.0, 0.005897517954649582
882.0, 0.0013266463819951795
883.0, 0.003137925761065869
884.0, 0.004679207968547195
885.0, 0.006458355132233201
886.0, 0.0018546352064094983
887.0, 0.002817137203881639
888.0, 0.011310972266654878
889.0, 0.01744065304042665
890.0, 0.01808820544632414
891.0, 0.0183105522103356
892.0, 0.01937781802753649
893.0, 0.03243898561984559
894.0, 0.03819044968633947
895.0, 0.04840421065326154
896.0, 0.0547927090526594
897.0, 0.05801094750571318
898.0, 0.06501261317507921
899.0, 0.06763345697126151
900.0, 0.07775641672686188
901.0, 0.0692036192563309
902.0, 0.07359603864230607
903.0, 0.08008824324663426
904.0, 0.08145484597668154
905.0, 0.08329199198530288
906.0, 0.08612567349959253
907.0, 0.08368295426872521
908.0, 0.09545147887815536
909.0, 0.09404277430597806
910.0, 0.09235943673605589
911.0, 0.09229558661963069
912.0, 0.08734941684148356
913.0, 0.08003729609973163
914.0, 0.07676329789021857
915.0, 0.07718594062246613
916.0, 0.07718144302171559
917.0, 0.06889309303701954
918.0, 0.056603633819884
919.0, 0.050950820181239365
920.0, 0.049965721818507676
921.0, 0.04251285699192049
922.0, 0.04214675716129962
923.0, 0.04062222785585608
924.0, 0.039994098834623903
925.0, 0.0383030679016124
926.0, 0.037598105155833936
927.0, 0.035120032574332855
928.0, 0.02669433578137465
929.0, 0.017674809167300187
930.0, 0.027398050839146718
931.0, 0.015815419507179497
932.0, 0.015707999414534046
933.0, 0.012119830013347032
934.0, 0.002381709090947898
935.0, 0.0017342668443522593
936.0, 0.008979358190955248
937.0, 0.010459531300964244
938.0, 0.0025646977594302543
939.0, 0.009667300564879846
940.0, 0.004803815878544702
941.0, 0.0010775775878583765
942.0, 0.006525641154354701
943.0, 0.011064084844061121
944.0, 0.010905642584643447
945.0, 0.00786897484001323
946.0, 0.004260595496071819
947.0, 0.013597868205116057
948.0, 0.01636881707087825
949.0, 0.016517204924505306
950.0, 0.015444995956027645
951.0, 0.006960252164429508
952.0, 0.005183206633015997
953.0, 0.01835817354272518
954.0, 0.01455896850565272
955.0, 0.013560304926076013
956.0, 0.0076422851850871795
957.0, 0.0030370041254600684
958.0, 0.0019378730996909939
959.0, 0.004756497983311007
960.0, 0.006079252978113055
961.0, 0.0005639623657039761
962.0, 0.008074938481424796
963.0, 0.009726271839763337
964.0, 0.004943476212462262
965.0, 0.005574437410696808
966.0, 0.010369982097425684
967.0, 0.008275466718457612
968.0, 0.0008518698253145282
969.0, 0.008249824279995275
970.0, 0.009877313451510494
971.0, 0.02411059464783455
972.0, 0.034344363408906904
973.0, 0.03909306985039121
974.0, 0.04709815934562512
975.0, 0.06012085616611881
976.0, 0.07838714541907633
977.0, 0.08367833153006567
978.0, 0.1040832960448088
979.0, 0.12857878491198288
980.0, 0.14994828427601833
981.0, 0.16598519808183596
982.0, 0.1842366486914955
983.0, 0.21075792122596942
984.0, 0.23311999195326327
985.0, 0.26037162952113485
986.0, 0.2928221917219097
987.0, 0.31152738678289416
988.0, 0.32875579552008827
989.0, 0.3475052729678982
990.0, 0.36406681679641384
991.0, 0.38184063451538813
992.0, 0.3963254435825048
993.0, 0.38587967782331534
994.0, 0.40104896746579527
995.0, 0.4041584831756619
996.0, 0.408745480466948
997.0, 0.4015612020005531
998.0, 0.38753407720427185
999.0, 0.3783364301407832
1000.0, 0.3568857950672504
1001.0, 0.33500077782635046
1002.0, 0.3323657178713865
1003.0, 0.32091590875264653
1004.0, 0.30094177922112086
1005.0, 0.2877301011507395
1006.0, 0.2727064314835022
1007.0, 0.25321194618188264
1008.0, 0.24264683536219855
1009.0, 0.2301672593561547
1010.0, 0.2251208490252179
1011.0, 0.21726236599556012
1012.0, 0.21267784201816034
1013.0, 0.19898999082467636
1014.0, 0.18461811302415213
1015.0, 0.17373759897558583
1016.0, 0.1601542741736084
1017.0, 0.15089479001203834
1018.0, 0.13931111222949855
1019.0, 0.12304531017088659
1020.0, 0.11732751972465673
1021.0, 0.11330030780948347
1022.0, 0.10849836563893463
1023.0, 0.10306283079849615
1024.0, 0.0977023286954017
1025.0, 0.0943819802553245
1026.0, 0.08806335016651483
1027.0, 0.08308849712675943
1028.0, 0.08500180655902342
1029.0, 0.08256542774821789
1030.0, 0.07689683497850731
1031.0, 0.07277993231281614
1032.0, 0.07138302247350838
1033.0, 0.07450467184102262
1034.0, 0.08156489900718232
1035.0, 0.07385600522656227
1036.0, 0.07191276053376294
1037.0, 0.08027049644450916
1038.0, 0.0857063909949954
1039.0, 0.09138056676917045
1040.0, 0.09231729318701774
1041.0, 0.09434640230510023
1042.0, 0.10481594981273039
1043.0, 0.10161365965692962
1044.0, 0.1100742963068994
1045.0, 0.12111894113225714
1046.0, 0.1213386256129048
1047.0, 0.12197469133695682
1048.0, 0.1347463648992627
1049.0, 0.13904332663604255
1050.0, 0.13421520621463792
1051.0, 0.14633514247770174
1052.0, 0.1470564451680706
1053.0, 0.1372276860947792
1054.0, 0.14752608580727736
1055.0, 0.14371928586253377
1056.0, 0.1424365908912821
1057.0, 0.14113841434213706
1058.0, 0.1386178101277369
1059.0, 0.1367420997593921
1060.0, 0.12875532277232543
1061.0, 0.11967570966003903
1062.0, 0.10948283433502862
1063.0, 0.11790519312658154
1064.0, 0.11099167836649244
1065.0, 0.10284047064605875
1066.0, 0.09989366818716602
1067.0, 0.09840582048831203
1068.0, 0.09487904172189493
1069.0, 0.08741198820089004
1070.0, 0.07500074857754584
1071.0, 0.07138024669193713
1072.0, 0.06484025880462728
1073.0, 0.06871000336393189
1074.0, 0.07264252897440464
1075.0, 0.06131674445447645
1076.0, 0.05696350859484783
1077.0, 0.06533710771564726
1078.0, 0.06263865158937491
1079.0, 0.056714688818362176
1080.0, 0.05687668547567285
1081.0, 0.05752645430725807
1082.0, 0.049737917999519855
1083.0, 0.05930350821791731
1084.0, 0.05913831535602235
1085.0, 0.05143649107688243
1086.0, 0.05289926100924049
1087.0, 0.05364948895806941
1088.0, 0.04939062559894577
1089.0, 0.05898698632841844
1090.0, 0.05324973248535035
1091.0, 0.04605387982390119
1092.0, 0.041497084847343206
1093.0, 0.040227906523574095
1094.0, 0.043409061791782284
1095.0, 0.04043844671802018
1096.0, 0.03057480018270497
1097.0, 0.02779833147036289
1098.0, 0.022797720222119563
1099.0, 0.022906188255865306
1100.0, 0.015762495386119513
1101.0, 0.02291532259199072
1102.0, 0.02138451334794809
1103.0, 0.021388011023811725
1104.0, 0.01727748157514169
1105.0, 0.008668160421832263
1106.0, 0.009461794753358886
1107.0, 0.008916007850671806
1108.0, 0.0020017453234313443
1109.0, 0.0005225719695836501
1110.0, 0.0039030653709054373
1111.0, 0.004615680820871113
1112.0, 0.0013399515292649533
1113.0, 0.0017773552419273991
1114.0, 0.0018333892410297389
1115.0, 0.004599247807996438
1116.0, 0.011404290861109478
1117.0, 0.0009309540353683375
1118.0, 0.00416575637185714
1119.0, 0.010290633972234214
1120.0, 0.0014617205945796458
1121.0, 0.004841013358307613
1122.0, 0.007301005310486579
1123.0, 0.005376712712384775
1124.0, 0.006627086829866965
1125.0, 0.0034959769738918223
1126.0, 0.010754233504828419
1127.0, 0.0034982845690448286
1128.0, 0.01058001795776082
1129.0, 0.0008399012703485271
1130.0, 0.002965158192394578
1131.0, 0.00504520625604101
1132.0, 0.0033304078096079836
1133.0, 0.0035654750677895277
1134.0, 0.00905044964486776
1135.0, 0.015044063986650003
1136.0, 0.01463364960532887
1137.0, 0.012095080793571784
1138.0, 0.014234598019658954
1139.0, 0.009962049234310929
1140.0, 0.01140712956719732
1141.0, 0.019600245548507797
1142.0, 0.019079515377733412
1143.0, 0.0206878745110701
1144.0, 0.02017832600137017
1145.0, 0.014330333033311469
1146.0, 0.01556113497687676
1147.0, 0.016368452724425817
1148.0, 0.024593856903923083
1149.0, 0.0215283404607234
1150.0, 0.02630713420483055
1151.0, 0.03560561858660189
1152.0, 0.031202268037249292
1153.0, 0.03130803877853698
1154.0, 0.036347225751060454
1155.0, 0.03661857274044569
1156.0, 0.034986416851549365
1157.0, 0.032633605934626095
1158.0, 0.03565529161328902
1159.0, 0.03930413267456199
1160.0, 0.03697131912476774
1161.0, 0.03588705435800004
1162.0, 0.04026361004876458
1163.0, 0.037410960001119695
1164.0, 0.03570275270866488
1165.0, 0.038877502625753825
1166.0, 0.04166411931049229
1167.0, 0.04549492504772357
1168.0, 0.04602765239364002
1169.0, 0.049872065257800344
1170.0, 0.06022799002959578
1171.0, 0.05218159896236873
1172.0, 0.05677979241415329
1173.0, 0.059031880197920585
1174.0, 0.06292640980729103
1175.0, 0.0665670077987757
1176.0, 0.06983251587264497
1177.0, 0.07536807108005752
1178.0, 0.07931303120076802
1179.0, 0.09194247550710259
1180.0, 0.08978765526395105
1181.0, 0.09400981190983741
1182.0, 0.09585397520880463
1183.0, 0.10781288435684708
1184.0, 0.11145457133719734
1185.0, 0.1131548636002034
1186.0, 0.11333200347957573
1187.0, 0.10851321614456534
1188.0, 0.10431822488095917
1189.0, 0.09912591961834229
1190.0, 0.0902535010164091
1191.0, 0.08290708549072545
1192.0, 0.06961310165034014
1193.0, 0.05534928786637394
1194.0, 0.054307833637989876
1195.0, 0.047602772106970274
1196.0, 0.04060701072919871
1197.0, 0.03834056868969491
1198.0, 0.035175392807635576
1199.0, 0.026824701009311436
1200.0, 0.016957030277783836
1201.0, 0.01640003811960855
1202.0, 0.017219091316112416
1203.0, 0.006817443438476952
1204.0, 0.010213231731543818
1205.0, 0.013478094352361327
1206.0, 0.009409338926106882
1207.0, 0.004451724044507158
1208.0, 0.0041822683877166915
1209.0, 0.0021807781211679632
1210.0, 0.0019416054619043111
1211.0, 0.0020361205026012083
1212.0, 0.0034320729041476283
1213.0, 0.0033167794921402905
1214.0, 0.003190159366457254
1215.0, 0.00915168183502653
1216.0, 0.0019211925887382202
1217.0, 0.004677326501512409
1218.0, 0.007705749960476801
1219.0, 0.0027869578954123403
1220.0, 0.0017260840215921234
1221.0, 0.004004416385223453
1222.0, 0.004857890900479906
1223.0, 0.006305740170425239
1224.0, 0.0021752004819023192
1225.0, 0.0069941253251185045
1226.0, 0.005700855982669213
1227.0, 0.008707333691115454
1228.0, 0.012290696187988812
1229.0, 0.01262296751565967
1230.0, 0.00974522125478904
1231.0, 0.010010042312803199
1232.0, 0.01348081685116774
1233.0, 0.010922315321830571
1234.0, 0.0049674077573713
1235.0, 0.008612370710387948
1236.0, 0.014632661084052085
1237.0, 0.008931200065621587
1238.0, 0.016142922487300464
1239.0, 0.01580671187402066
1240.0, 0.018040324460199382
1241.0, 0.018120373207617984
1242.0, 0.011481028822018572
1243.0, 0.012904198621556985
1244.0, 0.01713809591081555
1245.0, 0.018088910408862745
1246.0, 0.020706730241538934
1247.0, 0.022030663747927146
1248.0, 0.024133273119469847
1249.0, 0.025148147858519175
1250.0, 0.022641383002900535
1251.0, 0.01877704121239089
1252.0, 0.023028022772421584
1253.0, 0.027121586612765248
1254.0, 0.01769791010091106
1255.0, 0.013719188470561432
1256.0, 0.021159965587449557
1257.0, 0.022567521283536587
1258.0, 0.014764702386549478
1259.0, 0.010200395339537996
1260.0, 0.010621552447543385
1261.0, 0.02004862635799529
1262.0, 0.01912060252524786
1263.0, 0.014735442988839593
1264.0, 0.017339538223561952
1265.0, 0.008948163858270033
1266.0, 0.013232932819451985
1267.0, 0.015203677109436799
1268.0, 0.015317695640516943
1269.0, 0.011319946140359765
1270.0, 0.011552376499306734
1271.0, 0.016086531089429236
1272.0, 0.01098024330390472
1273.0, 0.007891569472021975
1274.0, 0.0037297536761618194
1275.0, 0.0005763332646465364
1276.0, 0.009696874333406824
1277.0, 0.0129790724622212
1278.0, 0.008470723052246247
1279.0, 0.009826449303682197
1280.0, 0.010885076096907264
1281.0, 0.011825729323275734
1282.0, 0.011918135366980758
1283.0, 0.008446400501755595
1284.0, 0.0051865696687700335
1285.0, 0.0035473625096993444
1286.0, 0.0038976430920628687
1287.0, 0.012011446540134727
1288.0, 0.008065976240189596
1289.0, 0.007708593633988779
1290.0, 0.004405468099600538
1291.0, 0.0005753533486235083
1292.0, 0.006501072346748122
1293.0, 0.0067114970749430625
1294.0, 0.005086870205030768
1295.0, 0.0015733459910767583
1296.0, 0.0010845118287153488
1297.0, 0.004070570176770465
1298.0, 0.0019306397801090876
1299.0, 0.0018014569285457053
1300, 0.0
1301, 0.0
1302, 0.0
1303, 0.0
1304, 0.0
1305, 0.0
1306, 0.0
1307, 0.0
1308, 0.0
1309, 0.0
1310, 0.0
1311, 0.0
1312, 0.0
1313, 0.0
1314, 0.0
1315, 0.0
1316, 0.0
1317, 0.0
1318, 0.0
1319, 0.0
1320, 0.0
1321, 0.0
1322, 0.0
1323, 0.0
1324, 0.0
1325, 0.0
1326, 0.0
1327, 0.0
1328, 0.0
1329, 0.0
1330, 0.0
1331, 0.0
1332, 0.0
1333, 0.0
1334, 0.0
1335, 0.0
1336, 0.0
1337, 0.0
1338, 0.0
1339, 0.0
1340, 0.0
1341, 0.0
1342, 0.0
1343, 0.0
1344, 0.0
1345, 0.0
1346, 0.0
1347, 0.0
1348, 0.0
1349, 0.0
1350, 0.0
1351, 0.0
1352, 0.0
1353, 0.0
1354, 0.0
1355, 0.0
1356, 0.0
1357, 0.0
1358, 0.0
1359, 0.0
1360, 0.0
1361, 0.0
1362, 0.0
1363, 0.0
1364, 0.0
1365, 0.0
1366, 0.0
1367, 0.0
1368, 0.0
1369, 0.0
1370, 0.0
1371, 0.0
1372, 0.0
1373, 0.0
1374, 0.0
1375, 0.0
1376, 0.0
1377, 0.0
1378, 0.0
1379, 0.0
1380, 0.0
1381, 0.0
1382, 0.0
1383, 0.0
1384, 0.0
1385, 0.0
1386, 0.0
1387, 0.0
1388, 0.0
1389, 0.0
1390, 0.0
1391, 0.0
1392, 0.0
1393, 0.0
1394, 0.0
1395, 0.0
1396, 0.0
1397, 0.0
1398, 0.0
1399, 0.0
1400, 0.0
1401, 0.0
1402, 0.0
1403, 0.0
1404, 0.0
1405, 0.0
1406, 0.0
1407, 0.0
1408, 0.0
1409, 0.0
1410, 0.0
1411, 0.0
1412, 0.0
1413, 0.0
1414, 0.0
1415, 0.0
1416, 0.0
1417, 0.0
1418, 0.0
1419, 0.0
1420, 0.0
1421, 0.0
1422, 0.0
1423, 0.0
1424, 0.0
1425, 0.0
1426, 0.0
1427, 0.0
1428, 0.0
1429, 0.0
1430, 0.0
1431, 0.0
1432, 0.0
1433, 0.0
1434, 0.0
1435, 0.0
1436, 0.0
1437, 0.0
1438, 0.0
1439, 0.0
1440, 0.0
1441, 0.0
1442, 0.0
1443, 0.0
1444, 0.0
1445, 0.0
1446, 0.0
1447, 0.0
1448, 0.0
1449, 0.0
1450, 0.0
1451, 0.0
1452, 0.0
1453, 0.0
1454, 0.0
1455, 0.0
1456, 0.0
1457, 0.0
1458, 0.0
1459, 0.0
1460, 0.0
1461, 0.0
1462, 0.0
1463, 0.0
1464, 0.0
1465, 0.0
1466, 0.0
1467, 0.0
1468, 0.0
1469, 0.0
1470, 0.0
1471, 0.0
1472, 0.0
1473, 0.0
1474, 0.0
1475, 0.0
1476, 0.0
1477, 0.0
1478, 0.0
1479, 0.0
1480, 0.0
1481, 0.0
1482, 0.0
1483, 0.0
1484, 0.0
1485, 0.0
1486, 0.0
1487, 0.0
1488, 0.0
1489, 0.0
1490, 0.0
1491, 0.0
1492, 0.0
1493, 0.0
1494, 0.0
1495, 0.0
1496, 0.0
1497, 0.0
1498, 0.0
1499, 0.0
1500, 0.0
1501, 0.0
1502, 0.0
1503, 0.0
1504, 0.0
1505, 0.0
1506, 0.0
1507, 0.0
1508, 0.0
1509, 0.0
1510, 0.0
1511, 0.0
1512, 0.0
1513, 0.0
1514, 0.0
1515, 0.0
1516, 0.0
1517, 0.0
1518, 0.0
1519, 0.0
1520, 0.0
1521, 0.0
1522, 0.0
1523, 0.0
1524, 0.0
1525, 0.0
1526, 0.0
1527, 0.0
1528, 0.0
1529, 0.0
1530, 0.0
1531, 0.0
1532, 0.0
1533, 0.0
1534, 0.0
1535, 0.0
1536, 0.0
1537, 0.0
1538, 0.0
1539, 0.0
1540, 0.0
1541, 0.0
1542, 0.0
1543, 0.0
1544, 0.0
1545, 0.0
1546, 0.0
1547, 0.0
1548, 0.0
1549, 0.0
1550, 0.0
1551, 0.0
1552, 0.0
1553, 0.0
1554, 0.0
1555, 0.0
1556, 0.0
1557, 0.0
1558, 0.0
1559, 0.0
1560, 0.0
1561, 0.0
1562, 0.0
1563, 0.0
1564, 0.0
1565, 0.0
1566, 0.0
1567, 0.0
1568, 0.0
1569, 0.0
1570, 0.0
1571, 0.0
1572, 0.0
1573, 0.0
1574, 0.0
1575, 0.0
1576, 0.0
1577, 0.0
1578, 0.0
1579, 0.0
1580, 0.0
1581, 0.0
1582, 0.0
1583, 0.0
1584, 0.0
1585, 0.0
1586, 0.0
1587, 0.0
1588, 0.0
1589, 0.0
1590, 0.0
1591, 0.0
1592, 0.0
1593, 0.0
1594, 0.0
1595, 0.0
1596, 0.0
1597, 0.0
1598, 0.0
1599, 0.0
