30, 0.0
31, 0.0
32, 0.0
33, 0.0
34, 0.0
35, 0.0
36, 0.0
37, 0.0
38, 0.0
39, 0.0
40, 0.0
41, 0.0
42, 0.0
43, 0.0
44, 0.0
45, 0.0
46, 0.0
47, 0.0
48, 0.0
49, 0.0
50, 0.0
51, 0.0
52, 0.0
53, 0.0
54, 0.0
55, 0.0
56, 0.0
57, 0.0
58, 0.0
59, 0.0
60, 0.0
61, 0.0
62, 0.0
63, 0.0
64, 0.0
65, 0.0
66, 0.0
67, 0.0
68, 0.0
69, 0.0
70, 0.0
71, 0.0
72, 0.0
73, 0.0
74, 0.0
75, 0.0
76, 0.0
77, 0.0
78, 0.0
79, 0.0
80, 0.0
81, 0.0
82, 0.0
83, 0.0
84, 0.0
85, 0.0
86, 0.0
87, 0.0
88, 0.0
89, 0.0
90, 0.0
91, 0.0
92, 0.0
93, 0.0
94, 0.0
95, 0.0
96, 0.0
97, 0.0
98, 0.0
99, 0.0
100, 0.0
101, 0.0
102, 0.0
103, 0.0
104, 0.0
105, 0.0
106, 0.0
107, 0.0
108, 0.0
109, 0.0
110, 0.0
111, 0.0
112, 0.0
113, 0.0
114, 0.0
115, 0.0
116, 0.0
117, 0.0
118, 0.0
119, 0.0
120, 0.0
121, 0.0
122, 0.0
123, 0.0
124, 0.0
125, 0.0
126, 0.0
127, 0.0
128, 0.0
129, 0.0
130, 0.0
131, 0.0
132, 0.0
133, 0.0
134, 0.0
135, 0.0
136, 0.0
137, 0.0
138, 0.0
139, 0.0
140, 0.0
141, 0.0
142, 0.0
143, 0.0
144, 0.0
145, 0.0
146, 0.0
147, 0.0
148, 0.0
149, 0.0
150, 0.0
151, 0.0
152, 0.0
153, 0.0
154, 0.0
155, 0.0
156, 0.0
157, 0.0
158, 0.0
159, 0.0
160, 0.0
161, 0.0
162, 0.0
163, 0.0
164, 0.0
165, 0.0
166, 0.0
167, 0.0
168, 0.0
169, 0.0
170, 0.0
171, 0.0
172, 0.0
173, 0.0
174, 0.0
175, 0.0
176.0, 0.0010033049423462679
177.0, 0.007047310619131128
178.0, 0.021708608566390432
179.0, 0.09220751037805808
180.0, 0.09269971243555182
181.0, 0.02537126025267411
182.0, 0.026477276594422214
183.0, 0.010433666232740215
184.0, 0.08986725978572699
185.0, 0.08845031339156406
186.0, 0.057580510906577134
187.0, 0.09879902523613815
188.0, 0.19426391716651462
189.0, 0.2044122012081989
190.0, 0.23405293652221257
191.0, 0.26787676245787356
192.0, 0.29788113854117526
193.0, 0.33649776126523234
194.0, 0.3961303520274218
195.0, 0.46447066414810173
196.0, 0.47375819423503157
197.0, 0.48543443944493103
198.0, 0.5481354754704807
199.0, 0.5047614791731839
200.0, 0.5937312214339938
201.0, 0.6396391186689313
202.0, 0.6914034142707242
203.0, 0.7137699100857399
204.0, 0.5853492644665118
205.0, 0.4697404780147594
206.0, 0.33856540771057153
207.0, 0.21995059793382193
208.0, 0.16499160053079745
209.0, 0.2052633357166862
210.0, 0.30215077779657823
211.0, 0.4211137643418594
212.0, 0.47425930631652924
213.0, 0.529783738569777
214.0, 0.64272054323354
215.0, 0.8142490780129894
216.0, 0.7547363506842163
217.0, 0.8108717719279368
218.0, 0.9225974986612914
219.0, 0.9855874237700663
220.0, 0.9415856872801449
221.0, 0.8597873638665272
222.0, 0.8571310489622982
223.0, 0.8011113844452721
224.0, 0.7379042517978143
225.0, 0.6945721739440064
226.0, 0.6714303203297356
227.0, 0.6203125488571841
228.0, 0.6021917370417561
229.0, 0.5752690674432768
230.0, 0.55202237949036
231.0, 0.5393915671782702
232.0, 0.5224073723934503
233.0, 0.5488859425591639
234.0, 0.5600219336809847
235.0, 0.5574467168229615
236.0, 0.5141259124991286
237.0, 0.43057881655691993
238.0, 0.4476116457522333
239.0, 0.446676451134726
240.0, 0.4313748861368901
241.0, 0.37490347928191886
242.0, 0.3099047251298351
243.0, 0.3103860338419937
244.0, 0.2782665453177688
245.0, 0.24310264973334555
246.0, 0.2418266001531744
247.0, 0.22035631090538077
248.0, 0.15749823594397366
249.0, 0.14290008948796457
250.0, 0.18564196541724248
251.0, 0.20849988410173004
252.0, 0.21512446783551245
253.0, 0.1882323355220466
254.0, 0.1265529641388918
255.0, 0.14637271581351305
256.0, 0.1315166886922144
257.0, 0.11257725647800515
258.0, 0.11904835888044113
259.0, 0.1253188992040417
260.0, 0.06787939835673537
261.0, 0.10029627660426396
262.0, 0.10011916154797151
263.0, 0.10542066105909811
264.0, 0.10099926503343065
265.0, 0.07719009814629685
266.0, 0.06265400097021405
267.0, 0.08605840385097417
268.0, 0.09303572180850746
269.0, 0.07655501970002451
270.0, 0.061621757282057064
271.0, 0.06447757173383703
272.0, 0.00947170868216361
273.0, 0.002840356869327037
274.0, 0.036055171707317715
275.0, 0.08301530629364152
276.0, 0.10952860276662074
277.0, 0.0914566554093091
278.0, 0.10152663550533618
279.0, 0.061203751510304334
280.0, 0.05118498182906195
281.0, 0.05191119871040222
282.0, 0.03701856547703038
283.0, 0.00441119978866465
284.0, 0.0010900420465762694
285.0, 0.016120406777177007
286.0, 0.029504558051662338
287.0, 0.03999574754007724
288.0, 0.04352902177614329
289.0, 0.013368994549627176
290.0, 0.042060589100867324
291.0, 0.03693446911507421
292.0, 0.01769503086952179
293.0, 0.025963789961755544
294.0, 0.09056880400605469
295.0, 0.15723625280537035
296.0, 0.13720848029207272
297.0, 0.1779358153081445
298.0, 0.20196612364581973
299.0, 0.19752571028673643
300.0, 0.22169116108545714
301.0, 0.27436382975919216
302.0, 0.19573072257460353
303.0, 0.13237446036749986
304.0, 0.09933672123649019
305.0, 0.06863089329051862
306.0, 0.002198690704852598
307.0, 0.0292522089716215
308.0, 0.02024272364579289
309.0, 0.013176206289783726
310.0, 0.007589937701303576
311.0, 0.006848638374587121
312.0, 0.03568253700547412
313.0, 0.01330326691527767
314.0, 0.012422621267070099
315.0, 0.017032288969656674
316.0, 0.020425606198183798
317.0, 0.021832083579445168
318.0, 0.02482494284084492
319.0, 0.04566559241293909
320.0, 0.03796273587190117
321.0, 0.0414094243875783
322.0, 0.05522689846887711
323.0, 0.05523715856116637
324.0, 0.018840247239279788
325.0, 0.018046420043658508
326.0, 0.010204897250517566
327.0, 0.02816731581963918
328.0, 0.06957092588938518
329.0, 0.09915807413135796
330.0, 0.05841643187841247
331.0, 0.09937347282135911
332.0, 0.1169919833060339
333.0, 0.127984380830518
334.0, 0.16611784538431343
335.0, 0.2441229806337143
336.0, 0.24641341586648063
337.0, 0.23734942374385684
338.0, 0.3078033201155504
339.0, 0.36723615585159214
340.0, 0.3725205686727548
341.0, 0.3500630750205362
342.0, 0.28446889725089225
343.0, 0.2467843916337041
344.0, 0.25029355411166165
345.0, 0.21761591461908822
346.0, 0.14331070580095623
347.0, 0.11181103313333005
348.0, 0.14438887615223267
349.0, 0.0978171757479169
350.0, 0.07093311427177214
351.0, 0.07689081749936336
352.0, 0.10181774595421629
353.0, 0.1217436743473845
354.0, 0.11903745656711556
355.0, 0.12321574595484074
356.0, 0.12038508983222473
357.0, 0.10288677451866822
358.0, 0.08186334381477729
359.0, 0.08566213652690438
360.0, 0.09605381557747901
361.0, 0.08549880228038867
362.0, 0.087004876261022
363.0, 0.09300531932505468
364.0, 0.08681207063124004
365.0, 0.05841560171571009
366.0, 0.04691017449095224
367.0, 0.042623308858791044
368.0, 0.07967550246219016
369.0, 0.12338848503529029
370.0, 0.13500810221657017
371.0, 0.10519769064600572
372.0, 0.11901806155002664
373.0, 0.09115090632543528
374.0, 0.1204205429322658
375.0, 0.14417941891437958
376.0, 0.13769895793968595
377.0, 0.16650230088613693
378.0, 0.1230356367234075
379.0, 0.17152576246588191
380.0, 0.16311391374436243
381.0, 0.1701712355975308
382.0, 0.19930226120928596
383.0, 0.13372014401607396
384.0, 0.09202970225743407
385.0, 0.08697673627235412
386.0, 0.11403958800053969
387.0, 0.13327897873105257
388.0, 0.12481286200375928
389.0, 0.10633257322618916
390.0, 0.12499378669321967
391.0, 0.08845075838427055
392.0, 0.10166151031614426
393.0, 0.11566593265477228
394.0, 0.103411288442999
395.0, 0.08831663618811256
396.0, 0.06767542658858827
397.0, 0.1101583151808032
398.0, 0.15701488745576792
399.0, 0.15962249607712833
400.0, 0.1394828316742347
401.0, 0.14976130111354657
402.0, 0.08926215087977793
403.0, 0.0314891824872989
404.0, 0.02288711715681204
405.0, 0.06410526394417168
406.0, 0.09947504641609234
407.0, 0.07598829131754302
408.0, 0.0902848195274719
409.0, 0.13028371493275434
410.0, 0.07276186466330853
411.0, 0.075249566286836
412.0, 0.09084030734468371
413.0, 0.026542786691234013
414.0, 0.07186544066309526
415.0, 0.13843321873184464
416.0, 0.09323712255311634
417.0, 0.03235569717795169
418.0, 0.03889089567744748
419.0, 0.1052458837922804
420.0, 0.0677902014227315
421.0, 0.05111883099340783
422.0, 0.05524030959701203
423.0, 0.064282914461846
424.0, 0.0709681884617987
425.0, 0.07755936061733767
426.0, 0.09211804810909345
427.0, 0.05876610774664756
428.0, 0.0956922604469349
429.0, 0.12265305864753318
430.0, 0.12147858288202504
431.0, 0.12750239903681385
432.0, 0.18992850626714708
433.0, 0.1266842640748687
434.0, 0.1353964143112423
435.0, 0.17600835176622256
436.0, 0.17161921137089733
437.0, 0.1297188219055024
438.0, 0.11513011761120608
439.0, 0.07343898415126178
440.0, 0.13249965322405288
441.0, 0.1254781581453927
442.0, 0.12661540285293535
443.0, 0.13738297134987665
444.0, 0.14354786762006777
445.0, 0.25623301254196096
446.0, 0.18224196003104715
447.0, 0.14733368553098142
448.0, 0.18212641968312077
449.0, 0.18306408927205617
450.0, 0.12071496078308569
451.0, 0.17884968414755115
452.0, 0.20457920872567378
453.0, 0.16965691564046062
454.0, 0.17586704388421176
455.0, 0.18543312177238028
456.0, 0.18259094952264684
457.0, 0.2084805639280237
458.0, 0.19685892026665158
459.0, 0.2355014449285871
460.0, 0.22570423363007402
461.0, 0.21824780530109245
462.0, 0.20488153950273266
463.0, 0.16390666462667597
464.0, 0.2415755221755829
465.0, 0.23478849484171385
466.0, 0.2640739739339012
467.0, 0.2415276959025212
468.0, 0.2562779585324961
469.0, 0.3537696086509505
470.0, 0.3372951814559424
471.0, 0.4068753161597499
472.0, 0.41719764781065033
473.0, 0.4299931290076778
474.0, 0.4630388803952944
475.0, 0.4938568095857305
476.0, 0.48214376828756345
477.0, 0.4689842805746479
478.0, 0.49365074678209697
479.0, 0.5065427451610836
480.0, 0.508991775430717
481.0, 0.5034663650596094
482.0, 0.4965844135586126
483.0, 0.5157062472111736
484.0, 0.4972743505492064
485.0, 0.48038698066783503
486.0, 0.46360012306322534
487.0, 0.4404522594768152
488.0, 0.40694808009144684
489.0, 0.3706795234533554
490.0, 0.3951780327248404
491.0, 0.482437991263644
492.0, 0.44542770807934506
493.0, 0.4547470072254343
494.0, 0.4767073561998279
495.0, 0.36413117769278436
496.0, 0.439152719731003
497.0, 0.3353190721258538
498.0, 0.31460454361149665
499.0, 0.3196478818899579
500.0, 0.33305970805901564
501.0, 0.36827655234850615
502.0, 0.4322160133276556
503.0, 0.36337123068281335
504.0, 0.35338739353060034
505.0, 0.41113503884953323
506.0, 0.4277461977767832
507.0, 0.3850638279207752
508.0, 0.3781317482884415
509.0, 0.4994642529104506
510.0, 0.44032982309994695
511.0, 0.5032635383962056
512.0, 0.5125443425433599
513.0, 0.5155259887118235
514.0, 0.5757067788343571
515.0, 0.5814826562678534
516.0, 0.7048446305944962
517.0, 0.7217782178902584
518.0, 0.7724680658326938
519.0, 0.752272229932815
520.0, 0.6709867341885756
521.0, 0.6504291435871598
522.0, 0.6748807292855945
523.0, 0.6768186373038393
524.0, 0.6879183814884974
525.0, 0.6611587949910023
526.0, 0.6040705536941054
527.0, 0.5678707793526807
528.0, 0.5979224455919558
529.0, 0.46627147057143836
530.0, 0.4454139022737095
531.0, 0.3916763258864711
532.0, 0.4096175649639175
533.0, 0.44335564701462427
534.0, 0.39109609093774667
535.0, 0.4267839862662556
536.0, 0.40330623006746724
537.0, 0.36143579191447506
538.0, 0.39530327044571617
539.0, 0.40909080421444105
540.0, 0.3561173090967697
541.0, 0.3248918712890797
542.0, 0.3965377477513439
543.0, 0.3896542056019121
544.0, 0.3844126012927267
545.0, 0.38787496381004044
546.0, 0.38595818926442793
547.0, 0.3603250139963736
548.0, 0.3116748638471163
549.0, 0.3813756015782245
550.0, 0.4171521884572997
551.0, 0.4040212578183928
552.0, 0.35798890692818036
553.0, 0.32695575201426
554.0, 0.3456913747726348
555.0, 0.35910327097101774
556.0, 0.3590524090283061
557.0, 0.37186105590229207
558.0, 0.36983965273230585
559.0, 0.38339052445258714
560.0, 0.4021894273395808
561.0, 0.3788434247803146
562.0, 0.4165756169029307
563.0, 0.3708459205029224
564.0, 0.3555262029126424
565.0, 0.3645279387571208
566.0, 0.3972151493499872
567.0, 0.4404033106559011
568.0, 0.4657954900701009
569.0, 0.5617440140250909
570.0, 0.4655546280479268
571.0, 0.5026527812831908
572.0, 0.5294983197391222
573.0, 0.497243793142037
574.0, 0.48339566155572655
575.0, 0.578419726742432
576.0, 0.5347329714730239
577.0, 0.5328501143836122
578.0, 0.526937389045305
579.0, 0.5539631802918059
580.0, 0.639965271086714
581.0, 0.72045463379011
582.0, 0.5694844002363345
583.0, 0.5072861027727426
584.0, 0.3880092717561379
585.0, 0.38114642517070785
586.0, 0.3848324385950578
587.0, 0.3646236734854671
588.0, 0.37950688860142584
589.0, 0.26511171421179947
590.0, 0.32401950010875497
591.0, 0.2668573467380662
592.0, 0.2783288826235335
593.0, 0.2678370812502099
594.0, 0.21186165427300763
595.0, 0.23750405695602408
596.0, 0.18905687891529677
597.0, 0.16806780132620852
598.0, 0.21637643153357522
599.0, 0.21539193553831334
600.0, 0.20102031943668794
601.0, 0.19974726345323549
602.0, 0.15191147214118186
603.0, 0.15037862262990973
604.0, 0.2439844068166218
605.0, 0.1937228149031805
606.0, 0.1890237094700519
607.0, 0.22965963457923697
608.0, 0.24188879421812634
609.0, 0.22559531347693476
610.0, 0.2527721790977814
611.0, 0.2725459879089276
612.0, 0.2950627979303543
613.0, 0.30259784951026314
614.0, 0.3358062516330908
615.0, 0.4043408319831673
616.0, 0.43837080054074873
617.0, 0.48947735314986984
618.0, 0.47831104738285046
619.0, 0.537949352975402
620.0, 0.5967834915535896
621.0, 0.6077938675717408
622.0, 0.600592244509682
623.0, 0.6532938028529932
624.0, 0.6490261025534801
625.0, 0.6519420313093718
626.0, 0.704100450540711
627.0, 0.721276864858603
628.0, 0.672146946281204
629.0, 0.6121388312288675
630.0, 0.6305845753737102
631.0, 0.5603062975953733
632.0, 0.5305541984479781
633.0, 0.4870307464999904
634.0, 0.4514538355945293
635.0, 0.406034224414249
636.0, 0.3436936096269146
637.0, 0.31575635356336207
638.0, 0.43043719399015234
639.0, 0.5036084242850332
640.0, 0.42632242690541294
641.0, 0.3535552640196295
642.0, 0.29398385378399394
643.0, 0.22198049958846583
644.0, 0.17941267094002308
645.0, 0.24882290409293117
646.0, 0.2641747000477884
647.0, 0.23029872584734537
648.0, 0.21552253983722333
649.0, 0.2131398786408994
650.0, 0.21399114892235546
651.0, 0.22592692860356758
652.0, 0.19249403282117208
653.0, 0.21890003824247026
654.0, 0.20945897193731478
655.0, 0.2083122428796911
656.0, 0.23080319550108652
657.0, 0.2589111677455611
658.0, 0.26042643096475854
659.0, 0.22843014468351783
660.0, 0.26557399078004396
661.0, 0.23927533372937287
662.0, 0.22027727834078167
663.0, 0.20184860150617884
664.0, 0.19056977593294522
665.0, 0.19040007285343724
666.0, 0.15193273789615086
667.0, 0.19964427688030648
668.0, 0.1781938298159208
669.0, 0.15361430281947866
670.0, 0.10230207753913685
671.0, 0.07860265542859135
672.0, 0.11123041720338332
673.0, 0.10981130273060831
674.0, 0.17234817103206873
675.0, 0.13517532659645792
676.0, 0.14336938046684286
677.0, 0.1488123097874811
678.0, 0.12460794245637104
679.0, 0.10356241363615556
680.0, 0.12769168984653834
681.0, 0.06482771552015523
682.0, 0.07604586754947183
683.0, 0.12364426825949433
684.0, 0.1072864151360353
685.0, 0.12593267956984056
686.0, 0.17060453664162675
687.0, 0.12964474267609785
688.0, 0.07409385934050491
689.0, 0.10972708507077972
690.0, 0.11953609442252787
691.0, 0.116532819241934
692.0, 0.15276704304235647
693.0, 0.16973835416315022
694.0, 0.11769789689469429
695.0, 0.0972173252762444
696.0, 0.13946749438135797
697.0, 0.12679357092113494
698.0, 0.10184374794364993
699.0, 0.10251662266707239
700.0, 0.10511823041565267
701.0, 0.10123937186362707
702.0, 0.11338537377075503
703.0, 0.08493569302305577
704.0, 0.08166862124420966
705.0, 0.0707377098095523
706.0, 0.04242776716320623
707.0, 0.07022639269157128
708.0, 0.10673308547035593
709.0, 0.07085320762161282
710.0, 0.04479376621495146
711.0, 0.02040290524582758
712.0, 0.026456809477673603
713.0, 0.04354561346349176
714.0, 0.04131516806940467
715.0, 0.028519621145873114
716.0, 0.03923314257634755
717.0, 0.08933545169744392
718.0, 0.10900836466989045
719.0, 0.05379224134361843
720.0, 0.07831063757717036
721.0, 0.05368945805293975
722.0, 0.03490830396262139
723.0, 0.04479215381451443
724.0, 0.04476228784666939
725.0, 0.02156645865898134
726.0, 0.02342080858605327
727.0, 0.01978874435736691
728.0, 0.034457657906438205
729.0, 0.02111783776895392
730.0, 0.012489349735308452
731.0, 0.03157624325595457
732.0, 0.044563338886848526
733.0, 0.03304590625841916
734.0, 0.031091795157182887
735.0, 0.04668498958129619
736.0, 0.02356131607874017
737.0, 0.022630915846421136
738.0, 0.02660867342236451
739.0, 0.00476693431660814
740.0, 0.011479482975731556
741.0, 0.017770674685122338
742.0, 0.016319978931987646
743.0, 0.02072802795719197
744.0, 0.029566413586646672
745.0, 0.03832583623046945
746.0, 0.04905985828495704
747.0, 0.07264937372548005
748.0, 0.1169474261306589
749.0, 0.10331335777088767
750.0, 0.0740666238525268
751.0, 0.05435829871276305
752.0, 0.04092795836204937
753.0, 0.02263102043006524
754.0, 0.019277634334296686
755.0, 0.058475566721341465
756.0, 0.07133888589325402
757.0, 0.045918000460767196
758.0, 0.05422756274864878
759.0, 0.038737543402193826
760.0, 0.05263459974390481
761.0, 0.06978677355359339
762.0, 0.050304479150104636
763.0, 0.0252115751942001
764.0, 0.012735865611907617
765.0, 0.0308763096553236
766.0, 0.016891709362892936
767.0, 0.028736166340024343
768.0, 0.04175340117808708
769.0, 0.05247543735201294
770.0, 0.08079624873765656
771.0, 0.11557255852370993
772.0, 0.06670423103813797
773.0, 0.04106634922262839
774.0, 0.03443194855697839
775.0, 0.026418278365873273
776.0, 0.04330828250416197
777.0, 0.07129059082337073
778.0, 0.07007202555133488
779.0, 0.05334716379806784
780.0, 0.1359429497238372
781.0, 0.0598771002344206
782.0, 0.022292329663912414
783.0, 0.01645011251097164
784.0, 0.01305867572482416
785.0, 0.007147070750402292
786.0, 0.026128297349563376
787.0, 0.08893510667010668
788.0, 0.026300737733261408
789.0, 0.10702162414000793
790.0, 0.08598552684405322
791.0, 0.038505087612804446
792.0, 0.05848884546380077
793.0, 0.07932848729851733
794.0, 0.028096906491550232
795.0, 0.0895775247638776
796.0, 0.0714494305452476
797.0, 0.029036576593679253
798.0, 0.027246726878766028
799.0, 0.02790528399499523
800.0, 0.03457162411673556
801.0, 0.059996807537901674
802.0, 0.08163775234184986
803.0, 0.04318762219782653
804.0, 0.03896760956871471
805.0, 0.030902940899560274
806.0, 0.02867697798922832
807.0, 0.020372219708131682
808.0, 0.010550542917349052
809.0, 0.007360540810526465
810.0, 0.02478526741817067
811.0, 0.07152828562259474
812.0, 0.01600785859527369
813.0, 0.03321550771823151
814.0, 0.016845838852402407
815.0, 0.01436536150025143
816.0, 0.03890837466604164
817.0, 0.05719579838768888
818.0, 0.050413981609685535
819.0, 0.05382974672877659
820.0, 0.02714762563713381
821.0, 0.03737870521513979
822.0, 0.05218854731017635
823.0, 0.058736583488764246
824.0, 0.06293939289745254
825.0, 0.06651952332528115
826.0, 0.06746546876463248
827.0, 0.06344205110608597
828.0, 0.03863802762526402
829.0, 0.04960969297882019
830.0, 0.05586905514385591
831.0, 0.04839796221394937
832.0, 0.06430189711168535
833.0, 0.07966470893637657
834.0, 0.0736384812237787
835.0, 0.06530839601855294
836.0, 0.045468642498189854
837.0, 0.04080816164374354
838.0, 0.028752948782576445
839.0, 0.032796965769842645
840.0, 0.05496784813986736
841.0, 0.04345803639409185
842.0, 0.018596393217479187
843.0, 0.03165691717571324
844.0, 0.027450716946899552
845.0, 0.048113344016128365
846.0, 0.039324780166294725
847.0, 0.07055422088287512
848.0, 0.03960908140209346
849.0, 0.048824375924498335
850.0, 0.07253628978784125
851.0, 0.04779987173860735
852.0, 0.04059542137766427
853.0, 0.019681150752404113
854.0, 0.043242569951722036
855.0, 0.048417967873682535
856.0, 0.054120953983135864
857.0, 0.04224652289500538
858.0, 0.03896173967911195
859.0, 0.042274471558768935
860.0, 0.024333342470075275
861.0, 0.0305269879513395
862.0, 0.056991938651962615
863.0, 0.06576679665972111
864.0, 0.027696517073380212
865.0, 0.018347383773079498
866.0, 0.01680013100686378
867.0, 0.007703123661226677
868.0, 0.013811966080292355
869.0, 0.04458579049522944
870.0, 0.01822696644751555
871.0, 0.02868706375444317
872.0, 0.07201239993690356
873.0, 0.08116061420307237
874.0, 0.0381855284351828
875.0, 0.016228580011962604
876.0, 0.02187306607032976
877.0, 0.010915600606175397
878.0, 0.05081333612702496
879.0, 0.10270582873325755
880.0, 0.06893162174578375
881.0, 0.11305584915658312
882.0, 0.08864152759110785
883.0, 0.05270987306961564
884.0, 0.033209142566376366
885.0, 0.03820597328180084
886.0, 0.08236653079961315
887.0, 0.07371834405154865
888.0, 0.09889006043128289
889.0, 0.10025804964377256
890.0, 0.11581916405423331
891.0, 0.1206404975363195
892.0, 0.09597262348891088
893.0, 0.07875175543376194
894.0, 0.0748664976767177
895.0, 0.025607461392225236
896.0, 0.05284385669764746
897.0, 0.12324536268448047
898.0, 0.08418438775714313
899.0, 0.09459400884480723
900.0, 0.1151704529683669
901.0, 0.08485036085986848
902.0, 0.09246160816834575
903.0, 0.17259760818076175
904.0, 0.10665302521277203
905.0, 0.10226595983086485
906.0, 0.15246134119677876
907.0, 0.1387156053036485
908.0, 0.12302795778777786
909.0, 0.14173859000234945
910.0, 0.1836658761850284
911.0, 0.19490810854525373
912.0, 0.16763447582429206
913.0, 0.19212466642976703
914.0, 0.1602315759770505
915.0, 0.1384649316721285
916.0, 0.17100491856566777
917.0, 0.16679475756382756
918.0, 0.1876421454299272
919.0, 0.18110634064022016
920.0, 0.16465908191752265
921.0, 0.19205891148898382
922.0, 0.14632601760114627
923.0, 0.23870826305896506
924.0, 0.2272045501217817
925.0, 0.202308958887363
926.0, 0.1985272682974415
927.0, 0.20823365238845568
928.0, 0.23524453748996066
929.0, 0.23456360373697596
930.0, 0.19427030033708184
931.0, 0.23640891702659553
932.0, 0.2385932422747175
933.0, 0.2092670824834628
934.0, 0.20445198893209898
935.0, 0.2624915724311694
936.0, 0.27689726295357064
937.0, 0.27533480263314336
938.0, 0.2944869746738107
939.0, 0.31153193427277115
940.0, 0.3220631287613012
941.0, 0.37449849613316805
942.0, 0.35840069581879025
943.0, 0.3595071745437394
944.0, 0.3886627379852078
945.0, 0.3990789767411574
946.0, 0.4302366319721339
947.0, 0.46640767795748034
948.0, 0.45028745173282225
949.0, 0.39910610599037466
950.0, 0.39429768224100803
951.0, 0.4660880660545173
952.0, 0.4017431011962935
953.0, 0.39831700470258596
954.0, 0.35121802486459547
955.0, 0.3491869634994006
956.0, 0.37770591465393627
957.0, 0.3912245209972048
958.0, 0.41415607182156006
959.0, 0.3903983473219816
960.0, 0.42242322530070875
961.0, 0.3727315878075581
962.0, 0.3583681983585395
963.0, 0.37795967376835304
964.0, 0.4249043405286605
965.0, 0.4721333007088422
966.0, 0.500215555302981
967.0, 0.49405911998018837
968.0, 0.446943269988271
969.0, 0.4858373850431113
970.0, 0.48496477352996004
971.0, 0.4797814255051196
972.0, 0.5196650892124047
973.0, 0.5021993289384858
974.0, 0.5084436547319459
975.0, 0.5112560139917316
976.0, 0.45827043513184673
977.0, 0.41479419524365263
978.0, 0.3765558159331417
979.0, 0.439147258829899
980.0, 0.4812989725003303
981.0, 0.505879455783624
982.0, 0.46883323396246274
983.0, 0.47471990581120027
984.0, 0.4981004434098981
985.0, 0.5013146515048424
986.0, 0.5187271644862926
987.0, 0.5582170653089145
988.0, 0.5159446636745835
989.0, 0.5744489733645519
990.0, 0.5940178730870458
991.0, 0.6264863434161092
992.0, 0.6318552587572709
993.0, 0.6331633434105077
994.0, 0.6594981345279339
995.0, 0.6990078891086515
996.0, 0.7159921391410318
997.0, 0.7037467407547816
998.0, 0.6788437195790762
999.0, 0.7020483838171693
1000.0, 0.6977892216076332
1001.0, 0.6788304526086729
1002.0, 0.6858093604367828
1003.0, 0.6760008183387299
1004.0, 0.6587026944819727
1005.0, 0.6448025447977382
1006.0, 0.6175936408064392
1007.0, 0.6441242750034911
1008.0, 0.6476133576362758
1009.0, 0.6326302070461879
1010.0, 0.6121062468762019
1011.0, 0.5777125799147831
1012.0, 0.6258439831668324
1013.0, 0.6665054853052551
1014.0, 0.6647959215223755
1015.0, 0.6446328287953358
1016.0, 0.5935236456573826
1017.0, 0.5562520325594795
1018.0, 0.6164319015454831
1019.0, 0.6091473997550719
1020.0, 0.5596394120842845
1021.0, 0.6089951208275829
1022.0, 0.6482901265304151
1023.0, 0.6131189055802838
1024.0, 0.5861434381816748
1025.0, 0.6026826582051092
1026.0, 0.6037809325564663
1027.0, 0.6718161155878206
1028.0, 0.6639714001337859
1029.0, 0.6410543485306324
1030.0, 0.7142561890074982
1031.0, 0.626585805688343
1032.0, 0.6192616141278904
1033.0, 0.696232450560306
1034.0, 0.7163529499889453
1035.0, 0.6828861733823739
1036.0, 0.7073958547384053
1037.0, 0.7145380077308575
1038.0, 0.6638030962519615
1039.0, 0.715431210531324
1040.0, 0.6805442856494699
1041.0, 0.6401769557869276
1042.0, 0.7130909327755999
1043.0, 0.7299383226330383
1044.0, 0.6917138880235784
1045.0, 0.6582528823744945
1046.0, 0.63403642766979
1047.0, 0.6653463785588369
1048.0, 0.7117072131237516
1049.0, 0.6808958530978506
1050.0, 0.7896942263898374
1051.0, 0.7193288809899905
1052.0, 0.7084625238763413
1053.0, 0.7416522857890777
1054.0, 0.755455815419712
1055.0, 0.7421573480940685
1056.0, 0.7528016235384274
1057.0, 0.801402543690932
1058.0, 0.7760073012761742
1059.0, 0.7433104147451708
1060.0, 0.758321063048483
1061.0, 0.7125879411464877
1062.0, 0.7324193226558748
1063.0, 0.7354605377933815
1064.0, 0.7204508174129659
1065.0, 0.7209774598797978
1066.0, 0.7146863199814935
1067.0, 0.6967702918356973
1068.0, 0.7365856129476263
1069.0, 0.7259527526079065
1070.0, 0.7203522106585256
1071.0, 0.7442562725025785
1072.0, 0.7334170854957636
1073.0, 0.7022200400833073
1074.0, 0.7230329860040353
1075.0, 0.705661230604451
1076.0, 0.6703987850650077
1077.0, 0.6802210135165722
1078.0, 0.7025620425632926
1079.0, 0.723109705001249
1080.0, 0.7231047602342418
1081.0, 0.7352940687902736
1082.0, 0.728185244635567
1083.0, 0.6994102783818871
1084.0, 0.660803249116494
1085.0, 0.6635638936523343
1086.0, 0.6318571248747916
1087.0, 0.6005317524699118
1088.0, 0.6372323922319986
1089.0, 0.6636874679449106
1090.0, 0.6129192030497733
1091.0, 0.59813328876801
1092.0, 0.5713045376945656
1093.0, 0.556732737272126
1094.0, 0.6154150310667257
1095.0, 0.5968681109140782
1096.0, 0.6350887845723555
1097.0, 0.6492068932635907
1098.0, 0.5904480779495841
1099.0, 0.5520394291132326
1100.0, 0.5764859294100031
1101.0, 0.5775003619869448
1102.0, 0.5690824693057877
1103.0, 0.5933144532030343
1104.0, 0.5329000515931033
1105.0, 0.48537786966983687
1106.0, 0.503497323202342
1107.0, 0.5272691988014634
1108.0, 0.5324498484224042
1109.0, 0.49112485997488503
1110.0, 0.44555007926609297
1111.0, 0.4540822462976154
1112.0, 0.43201331631904594
1113.0, 0.4131984242476373
1114.0, 0.4478713010396505
1115.0, 0.37721727881380823
1116.0, 0.3989953257888396
1117.0, 0.3993049458701334
1118.0, 0.4042021700780071
1119.0, 0.3899199197236631
1120.0, 0.365270880155053
1121.0, 0.3644629261060692
1122.0, 0.3815410280294167
1123.0, 0.37427101666455925
1124.0, 0.34412958313791325
1125.0, 0.35410218414310324
1126.0, 0.2802772477243459
1127.0, 0.27677218849408697
1128.0, 0.30594820230868114
1129.0, 0.2898566136024778
1130.0, 0.28724376526701617
1131.0, 0.2914660739863696
1132.0, 0.24989663544986998
1133.0, 0.21554100270376203
1134.0, 0.2542342495912397
1135.0, 0.2373231681056979
1136.0, 0.18177107077272334
1137.0, 0.26614882855997646
1138.0, 0.19385948699230676
1139.0, 0.18383254575100202
1140.0, 0.2522970397157605
1141.0, 0.2401312772433143
1142.0, 0.21317412714479403
1143.0, 0.18096392270038789
1144.0, 0.1862357494296729
1145.0, 0.21245904419627148
1146.0, 0.1611985653725456
1147.0, 0.1756798034852433
1148.0, 0.19861328632966052
1149.0, 0.1822146564480537
1150.0, 0.1708459741665097
1151.0, 0.13605434331688906
1152.0, 0.13648106903020552
1153.0, 0.11520146597356151
1154.0, 0.11187767775681082
1155.0, 0.14426587899464283
1156.0, 0.15903028960387103
1157.0, 0.1347906873926088
1158.0, 0.1257502906876226
1159.0, 0.13286896028870973
1160.0, 0.09644433704785281
1161.0, 0.11156746805826842
1162.0, 0.08946064845273578
1163.0, 0.10775078722838913
1164.0, 0.05126045507522969
1165.0, 0.0976519886008746
1166.0, 0.0783600175732917
1167.0, 0.08763005934774878
1168.0, 0.12726887426959627
1169.0, 0.09260143221436666
1170.0, 0.04534745899057996
1171.0, 0.013669664655906098
1172.0, 0.0593948464849359
1173.0, 0.09641684605533896
1174.0, 0.06363715839943662
1175.0, 0.07438378499260902
1176.0, 0.15175789506543994
1177.0, 0.08343568976093484
1178.0, 0.03655039656410854
1179.0, 0.02419978714996953
1180.0, 0.023643970340242668
1181.0, 0.060418986880050145
1182.0, 0.08965111149582569
1183.0, 0.043170551056066604
1184.0, 0.036608154762839684
1185.0, 0.05068195286848677
1186.0, 0.023525133706469123
1187.0, 0.04656075676555617
1188.0, 0.08985837683039301
1189.0, 0.11834342111197572
1190.0, 0.12781752007600744
1191.0, 0.08059648901026889
1192.0, 0.059217238156466394
1193.0, 0.06753320737966176
1194.0, 0.05198203246771526
1195.0, 0.05198732129478715
1196.0, 0.07260681346829242
1197.0, 0.018707152610300964
1198.0, 0.05867888907559499
1199.0, 0.05705142088948657
1200.0, 0.07402087387454703
1201.0, 0.05535550267233841
1202.0, 0.04109749984675953
1203.0, 0.05932688822852462
1204.0, 0.07611780872959639
1205.0, 0.06417859084068986
1206.0, 0.056521423261671644
1207.0, 0.04723414609174151
1208.0, 0.0045835127499368935
1209.0, 0.013195037535887102
1210.0, 0.04687000472388235
1211.0, 0.02004887400055179
1212.0, 0.0047498760355678855
1213.0, 0.031383435132483546
1214.0, 0.01211742109059994
1215.0, 0.018990633659652204
1216.0, 0.05295918897495092
1217.0, 0.030518006674365973
1218.0, 0.006223836474310871
1219.0, 0.026801731179067603
1220.0, 0.0388917476146554
1221.0, 0.03238265068225674
1222.0, 0.05339047083398185
1223.0, 0.009074474728805342
1224.0, 0.0538943390767897
1225.0, 0.00929418190865277
1226.0, 0.032165270473439145
1227.0, 0.1178726255036773
1228.0, 0.06742036995800868
1229.0, 0.014969194709284277
1230.0, 0.018373584402060744
1231.0, 0.05067683988606488
1232.0, 0.06673894656802533
1233.0, 0.05628981761374344
1234.0, 0.05182686810197124
1235.0, 0.06479294777110328
1236.0, 0.053689197569383874
1237.0, 0.05960405779619151
1238.0, 0.04562010624975269
1239.0, 0.038836652470625566
1240.0, 0.04234977231949768
1241.0, 0.03358381047326129
1242.0, 0.03631596050641425
1243.0, 0.05444333085291198
1244.0, 0.051836305533395174
1245.0, 0.02523778319833088
1246.0, 0.046597918973263444
1247.0, 0.060143323734203016
1248.0, 0.020855151336442408
1249.0, 0.043280655104872695
1250.0, 0.025430399207841993
1251.0, 0.015714685127728688
1252.0, 0.045445851677687436
1253.0, 0.016512976781535127
1254.0, 0.01309199736167962
1255.0, 0.0056433466624900164
1256.0, 0.023320350199117473
1257.0, 0.011553934859799539
1258.0, 0.007654085720684457
1259.0, 0.018187353433632824
1260.0, 0.018968029955732803
1261.0, 0.014207932499393332
1262.0, 0.03398930127937837
1263.0, 0.06577917920570582
1264.0, 0.04908034032487524
1265.0, 0.023629840731528854
1266.0, 0.07137375738341453
1267.0, 0.007524576456647683
1268.0, 0.058319434800825534
1269.0, 0.015800526549615553
1270.0, 0.020443098120294736
1271.0, 0.03074076739613327
1272.0, 0.041312791043940394
1273.0, 0.025122914213599554
1274.0, 0.01576353020052545
1275.0, 0.026461935494024664
1276.0, 0.027515522922556525
1277.0, 0.026241428660458612
1278.0, 0.03518762039005567
1279.0, 0.0066659097650978855
1280.0, 0.012507870734705826
1281.0, 0.03395214860013232
1282.0, 0.016393404794683302
1283.0, 0.009980502524962541
1284.0, 0.04299466408847732
1285.0, 0.06076965974206701
1286.0, 0.045299769281433165
1287.0, 0.05593537334231364
1288.0, 0.02878261018300488
1289.0, 0.00757774431371355
1290.0, 0.035592796306953396
1291.0, 0.054148843774164214
1292.0, 0.04800504093575698
1293.0, 0.06848860429308407
1294.0, 0.06149872516775086
1295.0, 0.014182532097532848
1296.0, 0.0668058782806922
1297.0, 0.07290057881433461
1298.0, 0.015299659885947909
1299.0, 0.06980303701567132
1300.0, 0.03676991470241564
1301.0, 0.018353646587982216
1302.0, 0.03118006944956068
1303.0, 0.032095773074136656
1304.0, 0.0511322083862613
1305.0, 0.0660893500912204
1306.0, 0.055318383069155805
1307.0, 0.04884732041526954
1308.0, 0.037935100740753416
1309.0, 0.015536766330511168
1310.0, 0.0548974609748527
1311.0, 0.04277677570669154
1312.0, 0.060720257450494294
1313.0, 0.08654563141354499
1314.0, 0.05489613721820621
1315.0, 0.07766828831382924
1316.0, 0.025500072818981208
1317.0, 0.020944261950199723
1318.0, 0.027803553116893854
1319.0, 0.06528536553852886
1320.0, 0.049732844244017194
1321.0, 0.023262020937757383
1322.0, 0.04888925202399027
1323.0, 0.07472554442668966
1324.0, 0.07856302212777946
1325.0, 0.08584952650423414
1326.0, 0.07159684761423335
1327.0, 0.08109346355074741
1328.0, 0.0770998270365314
1329.0, 0.08174743647680113
1330.0, 0.1474340995854774
1331.0, 0.15454597228924102
1332.0, 0.11959701498448738
1333.0, 0.12548662215639023
1334.0, 0.1262415022979508
1335.0, 0.11283921309962618
1336.0, 0.10695141926351781
1337.0, 0.1196732046062959
1338.0, 0.15419817043956419
1339.0, 0.12845437686727618
1340.0, 0.09190246671313078
1341.0, 0.1345454503154579
1342.0, 0.06875569400987733
1343.0, 0.12711373694046335
1344.0, 0.10129977145230712
1345.0, 0.10982975429764603
1346.0, 0.04950785665286772
1347.0, 0.04887614075724489
1348.0, 0.09788750544876018
1349.0, 0.13097415791011788
1350.0, 0.14430519824188362
1351.0, 0.09114409958211028
1352.0, 0.09193037701207693
1353.0, 0.098377984529786
1354.0, 0.08789717385656444
1355.0, 0.10743935565576986
1356.0, 0.105479684180059
1357.0, 0.08541507582433654
1358.0, 0.11882733378190087
1359.0, 0.12876614550245302
1360.0, 0.14454340824307182
1361.0, 0.12730126752584234
1362.0, 0.12555555307146418
1363.0, 0.16233145106283528
1364.0, 0.17588082338642724
1365.0, 0.15235542847370825
1366.0, 0.17377585288838535
1367.0, 0.1225391447129278
1368.0, 0.12166484936757814
1369.0, 0.161290048348324
1370.0, 0.1610985307627531
1371.0, 0.1693388534509895
1372.0, 0.18499114315467655
1373.0, 0.16298114654045714
1374.0, 0.12495462354987592
1375.0, 0.09977301277603276
1376.0, 0.08209247240513264
1377.0, 0.07797202853820381
1378.0, 0.06342391700154329
1379.0, 0.06292630722962396
1380.0, 0.0910748010445904
1381.0, 0.14392273739982162
1382.0, 0.11561479393574399
1383.0, 0.13662841621167005
1384.0, 0.10803149158776165
1385.0, 0.13089745047408693
1386.0, 0.1439112145714659
1387.0, 0.15738777951623514
1388.0, 0.12721915677304152
1389.0, 0.1325833487315372
1390.0, 0.07615108371150872
1391.0, 0.06399076863984109
1392.0, 0.09266366375629245
1393.0, 0.07152736791720425
1394.0, 0.0688550424643489
1395.0, 0.1121690921140393
1396.0, 0.10528109099880167
1397.0, 0.06606191976906893
1398.0, 0.1288965595290991
1399.0, 0.11351091182833935
1400.0, 0.08963991695429356
1401.0, 0.07475229350171399
1402.0, 0.11273930472076371
1403.0, 0.05792336710222955
1404.0, 0.04417890847042281
1405.0, 0.01650299566849629
1406.0, 0.036955299462395175
1407.0, 0.05255001382376814
1408.0, 0.03245782003248786
1409.0, 0.017777146120052042
1410.0, 0.01041949768536899
1411.0, 0.0051957977502408974
1412.0, 0.025871983453624552
1413.0, 0.03436378738532799
1414.0, 0.02357824173036273
1415.0, 0.03876321768590317
1416.0, 0.04973407471930791
1417.0, 0.06414403711670227
1418.0, 0.0489023006241322
1419.0, 0.05099891691489128
1420.0, 0.08886388766998343
1421.0, 0.11178040190841444
1422.0, 0.07222811907033434
1423.0, 0.0869027800764818
1424.0, 0.03695336779143027
1425.0, 0.03622415895632027
1426.0, 0.028299496741548774
1427.0, 0.016102437898021883
1428.0, 0.010642698352506884
1429.0, 0.02459951488687629
1430.0, 0.020483217287212044
1431.0, 0.04783845737690637
1432.0, 0.08486396849420434
1433.0, 0.06812902421797326
1434.0, 0.023746774626740928
1435.0, 0.017897137487894153
1436.0, 0.056350029282908255
1437.0, 0.07369313705704453
1438.0, 0.02986879061187711
1439.0, 0.010977386896747505
1440.0, 0.04152510427727677
1441.0, 0.053094565094477277
1442.0, 0.09341837486111883
1443.0, 0.10566011547561507
1444.0, 0.1672886601792457
1445.0, 0.06708199596126277
1446.0, 0.1325845163679289
1447.0, 0.08198412169545552
1448.0, 0.05655564100142477
1449.0, 0.06935935722774826
1450.0, 0.08137389993052577
1451.0, 0.0914692030999109
1452.0, 0.09634265464047943
1453.0, 0.10168199510056204
1454.0, 0.09100216891987707
1455.0, 0.08132088114450052
1456.0, 0.07805676141311975
1457.0, 0.07303568017229661
1458.0, 0.06407435394778999
1459.0, 0.057576431140221526
1460.0, 0.058450054390865175
1461.0, 0.04247325859872889
1462.0, 0.045061038199279715
1463.0, 0.04344418801665066
1464.0, 0.05433507290159863
1465.0, 0.07272684051824065
1466.0, 0.08314712999880555
1467.0, 0.057699630232428314
1468.0, 0.07543652583008378
1469.0, 0.043278695565827655
1470.0, 0.07554475990174953
1471.0, 0.03473307796582021
1472.0, 0.0122649507637724
1473.0, 0.034648217636996555
1474.0, 0.059665107934891604
1475.0, 0.06123750195794244
1476.0, 0.03011788268718766
1477.0, 0.0209625219287641
1478.0, 0.027926671479566123
1479.0, 0.03512322478198055
1480.0, 0.047845951362204264
1481.0, 0.07559947959148121
1482.0, 0.08691658876723309
1483.0, 0.05823263440895242
1484.0, 0.023909352537524967
1485.0, 0.017656441205461962
1486.0, 0.053219427715620486
1487.0, 0.07578752403535927
1488.0, 0.08112817723889329
1489.0, 0.09697795253003333
1490.0, 0.09554885163526544
1491.0, 0.11796087619967051
1492.0, 0.10299715394949771
1493.0, 0.053053972838989175
1494.0, 0.1018043266961175
1495.0, 0.13104825795302957
1496.0, 0.13979241600050363
1497.0, 0.07002623422164027
1498.0, 0.08803105659791632
1499.0, 0.0837075180948598
1500.0, 0.07045560627358374
1501.0, 0.10249645447962463
1502.0, 0.06810510681794966
1503.0, 0.07925291151220519
1504.0, 0.09650449932698088
1505.0, 0.11068306042157779
1506.0, 0.1070520960920967
1507.0, 0.09196898602379666
1508.0, 0.10609340098470453
1509.0, 0.13097142281442214
1510.0, 0.126025864025005
1511.0, 0.11907578694954045
1512.0, 0.1103081395863301
1513.0, 0.0690601140269628
1514.0, 0.09176240647842161
1515.0, 0.1206613364850784
1516.0, 0.10665785566057691
1517.0, 0.12785141219292384
1518.0, 0.13129438329983065
1519.0, 0.12280825564451336
1520.0, 0.12553255937713878
1521.0, 0.13250225626238168
1522.0, 0.06198952890595839
1523.0, 0.09205969738221392
1524.0, 0.07920658096680713
1525.0, 0.10749424539353036
1526.0, 0.09351590041209244
1527.0, 0.10566160908370209
1528.0, 0.05407728772107298
1529.0, 0.07027508141348843
1530.0, 0.12098279581894945
1531.0, 0.09157429137725481
1532.0, 0.0868066391275122
1533.0, 0.054794944946486374
1534.0, 0.04809016566967907
1535.0, 0.07477532390112282
1536.0, 0.07212051129806757
1537.0, 0.053959361036999595
1538.0, 0.08942197211287117
1539.0, 0.11700475553458471
1540.0, 0.09499043742488981
1541.0, 0.04823227623564144
1542.0, 0.02115092601288467
1543.0, 0.06361429306878653
1544.0, 0.08444529010137602
1545.0, 0.06417954777315932
1546.0, 0.01646868169391224
1547.0, 0.03685205344412547
1548.0, 0.02366253185256124
1549.0, 0.02122777169437107
1550.0, 0.052220591425512226
1551.0, 0.012209893948137096
1552.0, 0.04020929987686117
1553.0, 0.043342491963667566
1554.0, 0.06323038441446249
1555.0, 0.04093376779365589
1556.0, 0.03218945201659882
1557.0, 0.06802247558875292
1558.0, 0.0777322265167875
1559.0, 0.05210147145864437
1560.0, 0.06935075302125626
1561.0, 0.010341427667137752
1562.0, 0.027929397493206932
1563.0, 0.009819364630446952
1564.0, 0.01011302622956471
1565.0, 0.048101542593136204
1566.0, 0.05426457179062896
1567.0, 0.09077655739714507
1568.0, 0.03475690381240658
1569.0, 0.03740625917331329
1570.0, 0.028608223972978124
1571.0, 0.004780355264218671
1572.0, 0.0001586338346927999
1573, 0.0
1574, 0.0
1575, 0.0
1576, 0.0
1577, 0.0
1578, 0.0
1579, 0.0
1580, 0.0
1581, 0.0
1582, 0.0
1583, 0.0
1584, 0.0
1585, 0.0
1586, 0.0
1587, 0.0
1588, 0.0
1589, 0.0
1590, 0.0
1591, 0.0
1592, 0.0
1593, 0.0
1594, 0.0
1595, 0.0
1596, 0.0
1597, 0.0
1598, 0.0
1599, 0.0
