30, 0.0
31, 0.0
32, 0.0
33, 0.0
34, 0.0
35, 0.0
36, 0.0
37, 0.0
38, 0.0
39, 0.0
40, 0.0
41, 0.0
42, 0.0
43, 0.0
44, 0.0
45, 0.0
46, 0.0
47, 0.0
48, 0.0
49, 0.0
50, 0.0
51, 0.0
52, 0.0
53, 0.0
54, 0.0
55, 0.0
56, 0.0
57, 0.0
58, 0.0
59, 0.0
60, 0.0
61, 0.0
62, 0.0
63, 0.0
64, 0.0
65, 0.0
66, 0.0
67, 0.0
68, 0.0
69, 0.0
70, 0.0
71, 0.0
72, 0.0
73, 0.0
74, 0.0
75, 0.0
76, 0.0
77, 0.0
78, 0.0
79, 0.0
80, 0.0
81, 0.0
82, 0.0
83, 0.0
84, 0.0
85, 0.0
86, 0.0
87, 0.0
88, 0.0
89, 0.0
90, 0.0
91, 0.0
92, 0.0
93, 0.0
94, 0.0
95, 0.0
96, 0.0
97, 0.0
98, 0.0
99, 0.0
100, 0.0
101, 0.0
102, 0.0
103, 0.0
104, 0.0
105, 0.0
106, 0.0
107, 0.0
108, 0.0
109, 0.0
110, 0.0
111, 0.0
112, 0.0
113, 0.0
114, 0.0
115, 0.0
116.0, 0.0046286140978664654
117.0, 0.023705139798186826
118.0, 0.0023658006697581547
119.0, 0.0071841645009330015
120.0, 0.04794800173439992
121.0, 0.10584484335980178
122.0, 0.14404034173630464
123.0, 0.20894140416582818
124.0, 0.26790352535434936
125.0, 0.28928953168192306
126.0, 0.2704162967955906
127.0, 0.29349042429769695
128.0, 0.30256963251161256
129.0, 0.31623911290446793
130.0, 0.36644417758512987
131.0, 0.37200757230230413
132.0, 0.33868236437134
133.0, 0.30323730035239166
134.0, 0.2919636383640139
135.0, 0.2816815541322211
136.0, 0.3237258417617358
137.0, 0.352055950133121
138.0, 0.3339019762722749
139.0, 0.29650055701498623
140.0, 0.2294041287925188
141.0, 0.16765887219935866
142.0, 0.12894093582669375
143.0, 0.1097240720577938
144.0, 0.07681522492005544
145.0, 0.06333106681604349
146.0, 0.059777898864900085
147.0, 0.05483928176588215
148.0, 0.0921053482655267
149.0, 0.08506769300831342
150.0, 0.0627453075767413
151.0, 0.06363721786061041
152.0, 0.05862275275100263
153.0, 0.05197081840031377
154.0, 0.042608719324562803
155.0, 0.0353010885912525
156.0, 0.03895514056769877
157.0, 0.022129209821485404
158.0, 0.020686310864120004
159.0, 0.014310947844875863
160.0, 0.029727513303302554
161.0, 0.011476307895077632
162.0, 0.0032058466458115774
163.0, 0.003832762782021163
164.0, 0.00623624336837087
165.0, 0.004864631594852323
166.0, 0.017557695976652094
167.0, 0.02872418298297147
168.0, 0.026917737109794535
169.0, 0.02387655696301657
170.0, 0.019018366522027198
171.0, 0.00799069460302968
172.0, 0.004882727569104622
173.0, 0.015076272421630166
174.0, 0.03067803953352434
175.0, 0.029942902459370917
176.0, 0.007565560332862203
177.0, 0.026105285404584233
178.0, 0.009866891877132553
179.0, 0.009562829973935563
180.0, 0.019330606219452637
181.0, 0.027295295132249976
182.0, 0.033980781563280285
183.0, 0.03824150546420387
184.0, 0.04857668508807388
185.0, 0.05994292157051394
186.0, 0.06258200373072897
187.0, 0.06318243409022332
188.0, 0.07889602247467496
189.0, 0.09330010860699291
190.0, 0.09706513389370977
191.0, 0.11297882321445465
192.0, 0.09541821129415101
193.0, 0.1132578746423895
194.0, 0.1504841633514608
195.0, 0.1305145743372391
196.0, 0.14540368948735596
197.0, 0.14104124733253628
198.0, 0.13282536345186172
199.0, 0.15160453529329246
200.0, 0.16171988121197448
201.0, 0.18340653405725385
202.0, 0.1926581986747608
203.0, 0.18792167642988208
204.0, 0.22203275918090207
205.0, 0.21362435814686936
206.0, 0.22059991007160637
207.0, 0.24627463949560918
208.0, 0.24723404935315257
209.0, 0.23818226720750754
210.0, 0.24344678253084265
211.0, 0.26123605523294513
212.0, 0.2700472820683464
213.0, 0.2515347128549495
214.0, 0.24312797687220075
215.0, 0.26537150379241187
216.0, 0.271151812024251
217.0, 0.22180648009540013
218.0, 0.22354155536760248
219.0, 0.23421182518109138
220.0, 0.2309063475711684
221.0, 0.21093751974780575
222.0, 0.1895563872023508
223.0, 0.2017080003423665
224.0, 0.19253891558755357
225.0, 0.17029311307076514
226.0, 0.180612510307304
227.0, 0.18414246477916862
228.0, 0.19409821475913266
229.0, 0.2046737389391269
230.0, 0.20434116817944023
231.0, 0.18877000282524184
232.0, 0.1698684927062051
233.0, 0.15878669701224532
234.0, 0.1567669110488821
235.0, 0.1582092022012905
236.0, 0.16353213328799365
237.0, 0.18263221760629703
238.0, 0.1760068250331637
239.0, 0.1371989968035673
240.0, 0.12649911362670174
241.0, 0.1397598435558435
242.0, 0.14508543053118053
243.0, 0.13843699804818876
244.0, 0.13315709615083557
245.0, 0.13118764162614172
246.0, 0.12683703597764936
247.0, 0.11885422865833409
248.0, 0.11503781123350441
249.0, 0.13024667785652486
250.0, 0.1413528531238398
251.0, 0.1199011479102954
252.0, 0.09303762638743039
253.0, 0.09324992323456538
254.0, 0.09661190560883623
255.0, 0.10056779153898
256.0, 0.10238379864295886
257.0, 0.09832713507122273
258.0, 0.08529746917689578
259.0, 0.07148584013300777
260.0, 0.061932307457622814
261.0, 0.062187437844422266
262.0, 0.06925553860547405
263.0, 0.06669027876468771
264.0, 0.05136729918172099
265.0, 0.05547951338862828
266.0, 0.06298688675723697
267.0, 0.04117598750789116
268.0, 0.05224456543176276
269.0, 0.06992811834647866
270.0, 0.06904871562609755
271.0, 0.05063795192612048
272.0, 0.04831300058955168
273.0, 0.06070314324467614
274.0, 0.04782318842891022
275.0, 0.029319241713693392
276.0, 0.03601233470272106
277.0, 0.040640060361592144
278.0, 0.033714126212818656
279.0, 0.03020600816067208
280.0, 0.03326653209635839
281.0, 0.03412675695492734
282.0, 0.025995373929197485
283.0, 0.030052168164193857
284.0, 0.051767668936900775
285.0, 0.0730379544406485
286.0, 0.05737197622124682
287.0, 0.05431432607124067
288.0, 0.06477774327867253
289.0, 0.0670115469912923
290.0, 0.05371216672579359
291.0, 0.05640767189428219
292.0, 0.06228261308949748
293.0, 0.07287615768144853
294.0, 0.07673960161677479
295.0, 0.06429275683427363
296.0, 0.059196588086602095
297.0, 0.06860514683827289
298.0, 0.05704250398080045
299.0, 0.02932612877017707
300.0, 0.027568696724298423
301.0, 0.06472289957901166
302.0, 0.03753973088398351
303.0, 0.004473773388456182
304.0, 0.014672059656795727
305.0, 0.02316494177147976
306.0, 0.020332011868577023
307.0, 0.030347683653387778
308.0, 0.013606677543383239
309.0, 0.006981085066511843
310.0, 0.009938856897756271
311.0, 0.0034293152810169775
312.0, 0.012853268623027667
313.0, 0.010694228162676223
314.0, 0.019045259517711334
315.0, 0.02619968010076331
316.0, 0.01935302973334069
317.0, 0.012970037397814407
318.0, 0.02284272748535826
319.0, 0.05018373416867731
320.0, 0.06255775518964843
321.0, 0.04985925777746827
322.0, 0.04149647594929066
323.0, 0.05923345238993523
324.0, 0.09541506422402028
325.0, 0.11532049593296989
326.0, 0.10798826288431108
327.0, 0.10944670506591331
328.0, 0.13174022002918628
329.0, 0.14001572403429915
330.0, 0.13610982341164446
331.0, 0.15149457913766323
332.0, 0.16850458671801108
333.0, 0.1616663140362426
334.0, 0.1393213311558408
335.0, 0.14018437306735876
336.0, 0.1107030178450653
337.0, 0.07621553003604566
338.0, 0.0818416286527383
339.0, 0.06711517447858821
340.0, 0.06660272569722858
341.0, 0.07171061378501402
342.0, 0.06267266293028276
343.0, 0.04061870881685661
344.0, 0.050987343679794274
345.0, 0.05259224709858398
346.0, 0.04122062718423498
347.0, 0.03498871450228909
348.0, 0.04207455622018331
349.0, 0.028869190477330692
350.0, 0.03378292440816723
351.0, 0.04247229425044239
352.0, 0.047080639986154194
353.0, 0.05200535209735188
354.0, 0.03623216716180545
355.0, 0.031402334533828374
356.0, 0.02832754109873072
357.0, 0.029845140666110083
358.0, 0.051491164551927635
359.0, 0.053350850642128654
360.0, 0.03475112382850195
361.0, 0.038511903956263485
362.0, 0.06587952144092088
363.0, 0.07237863422898959
364.0, 0.06277586721307679
365.0, 0.07184139556085065
366.0, 0.09360192534185179
367.0, 0.10281024229162117
368.0, 0.08778045154901176
369.0, 0.09235354454117241
370.0, 0.09905267154321237
371.0, 0.1012813853854229
372.0, 0.10739860439709056
373.0, 0.12285951624032262
374.0, 0.10049499125100829
375.0, 0.09119459859593629
376.0, 0.10180102298962582
377.0, 0.11501015130589418
378.0, 0.10344650548491385
379.0, 0.09644410742341723
380.0, 0.10228251398624086
381.0, 0.09394174938377824
382.0, 0.07014201719991096
383.0, 0.06507019233857388
384.0, 0.045265579272802565
385.0, 0.051310727621138585
386.0, 0.05744330907994007
387.0, 0.053896520516846236
388.0, 0.05169308632939001
389.0, 0.0014791292329011108
390.0, 0.0018689125024791402
391.0, 0.026754074694748286
392.0, 0.0412952441794278
393.0, 0.027074802888863655
394.0, 0.009708057467375863
395.0, 0.014315937997731107
396.0, 0.02013694855849439
397.0, 0.020259258021030933
398.0, 0.02289975607460518
399.0, 0.033441027097248145
400.0, 0.03174789043526092
401.0, 0.013579907702515895
402.0, 0.007802486076799023
403.0, 0.017762048304265404
404.0, 0.02074207493402843
405.0, 0.011871864610533184
406.0, 0.007369725738831623
407.0, 0.006838296231066872
408.0, 0.00240639769049509
409.0, 0.006918769069187658
410.0, 0.005133902552458177
411.0, 0.007267720623624359
412.0, 0.0166284374489873
413.0, 0.026041333787122485
414.0, 0.026472173099617746
415.0, 0.0020435986090113203
416.0, 0.009712188842392461
417.0, 0.003591099143003479
418.0, 0.004729198392487041
419.0, 0.015703788264861594
420.0, 0.0023104687537579835
421.0, 0.0077385250145538985
422.0, 0.008938551589361635
423.0, 0.014572959828664996
424.0, 0.01175539062518836
425.0, 0.01990150465547465
426.0, 0.013313202485230878
427.0, 0.013174742944848892
428.0, 0.02624836513715404
429.0, 0.033023987457148817
430.0, 0.024178337892516773
431.0, 0.02793248336525478
432.0, 0.04374568336751826
433.0, 0.04151538660081907
434.0, 0.018199509182197572
435.0, 0.014021846627662532
436.0, 0.02608509469746026
437.0, 0.042777682796168795
438.0, 0.05776532022751541
439.0, 0.07012564401768699
440.0, 0.08104884330513135
441.0, 0.08962765652452948
442.0, 0.09080689899125088
443.0, 0.10127167651996506
444.0, 0.10893837116817
445.0, 0.0946940620523185
446.0, 0.12332071755682547
447.0, 0.13834306991910902
448.0, 0.16118213758287048
449.0, 0.17963293311827944
450.0, 0.1885049912225327
451.0, 0.24288803213419013
452.0, 0.24866551035303272
453.0, 0.29506413912104806
454.0, 0.3448452084721711
455.0, 0.3636371261392704
456.0, 0.3957693871632461
457.0, 0.430520652402952
458.0, 0.4828415343019716
459.0, 0.52183316659591
460.0, 0.5588087672203218
461.0, 0.6385074603152695
462.0, 0.6863823273195425
463.0, 0.7177943585666788
464.0, 0.7475359228972597
465.0, 0.8003181833647096
466.0, 0.8618315363506528
467.0, 0.8738972361988504
468.0, 0.9069796166857702
469.0, 0.9682580067764563
470.0, 0.9998057105486214
471.0, 0.991744117157693
472.0, 0.9944734358178974
473.0, 0.9865183523415937
474.0, 0.9661934833642836
475.0, 0.9324805974786275
476.0, 0.8909200624968673
477.0, 0.8373731940791947
478.0, 0.7594373822151484
479.0, 0.7300888050679609
480.0, 0.6716758080904536
481.0, 0.615151392413361
482.0, 0.5690400195439677
483.0, 0.49143868071508706
484.0, 0.4720457273928324
485.0, 0.4264827573286092
486.0, 0.40314440953696107
487.0, 0.3866837669126247
488.0, 0.35018308016279354
489.0, 0.3424215524422882
490.0, 0.2971033356854121
491.0, 0.2921614372734455
492.0, 0.3038007446526931
493.0, 0.29440683850235716
494.0, 0.28250580510773
495.0, 0.2862444515496257
496.0, 0.2773350883688365
497.0, 0.3202651156553107
498.0, 0.35460841688132994
499.0, 0.3386844429804262
500.0, 0.3519464860505875
501.0, 0.369244517024129
502.0, 0.38517750659859734
503.0, 0.4059810244650825
504.0, 0.42449040282570943
505.0, 0.43334390578527027
506.0, 0.4507510088179031
507.0, 0.49315477073913966
508.0, 0.5177506670731511
509.0, 0.5249186345138735
510.0, 0.5222050728204386
511.0, 0.5024372614121536
512.0, 0.5208585501048009
513.0, 0.5311833254013881
514.0, 0.528164818289626
515.0, 0.49468665845974735
516.0, 0.4360880071477232
517.0, 0.4097233219378646
518.0, 0.38331376694657077
519.0, 0.3336062603440781
520.0, 0.2926544788858869
521.0, 0.25906442473590174
522.0, 0.20621646180900902
523.0, 0.17199525523544337
524.0, 0.16897356387623547
525.0, 0.1403151850913225
526.0, 0.1184067752028863
527.0, 0.12282376931440522
528.0, 0.10350171866859276
529.0, 0.1141190601026591
530.0, 0.09216951146077908
531.0, 0.060245943822925786
532.0, 0.041129368022880676
533.0, 0.0312356687344752
534.0, 0.025107055666655973
535.0, 0.04006390803376116
536.0, 0.032295862235852436
537.0, 0.007383284137917918
538.0, 0.0088291183656893
539.0, 0.0060958016509319955
540.0, 0.04292836863897145
541.0, 0.02703713877980462
542.0, 0.0111182583380675
543.0, 0.004389868849521264
544.0, 0.01054738726007278
545.0, 0.013467244048818473
546.0, 0.025767409008243862
547.0, 0.01614152574726276
548.0, 0.013753946933228048
549.0, 0.024193031688357562
550.0, 0.03652225164036758
551.0, 0.03945694984054731
552.0, 0.023098925889416012
553.0, 0.003313146885900309
554.0, 0.01059933373241356
555.0, 0.006959659836061796
556.0, 0.012954703044049887
557.0, 0.0037676438753933587
558.0, 0.023423445818710222
559.0, 0.013540334616051624
560.0, 0.005013950512206223
561.0, 0.007334193449596772
562.0, 0.003946792861059391
563.0, 0.00835626917288308
564.0, 0.014439676941342908
565.0, 0.01509791215773322
566.0, 0.014241846442092785
567.0, 0.012594339106292481
568.0, 0.0038551865388853175
569.0, 0.018212304751370336
570.0, 0.03420151143481121
571.0, 0.011876188414963115
572.0, 0.007421254653764667
573.0, 0.0152217016157483
574.0, 0.0057412219790192315
575.0, 0.011344109125117264
576.0, 0.01038344017118346
577.0, 0.0027928266527386283
578.0, 0.014205388430278507
579.0, 0.03066714394116583
580.0, 0.009796848230396112
581.0, 0.0054789823897016835
582.0, 0.003169910941535416
583.0, 0.0027165871503017965
584.0, 0.010709247612796041
585.0, 0.01855941780627021
586.0, 0.00518700692181232
587.0, 0.014341206279098241
588.0, 0.003487022439739158
589.0, 0.030527458116494016
590.0, 0.0462562007509093
591.0, 0.04151077912795088
592.0, 0.03660515216732813
593.0, 0.05867390063690344
594.0, 0.040626098662137504
595.0, 0.03999321904183297
596.0, 0.04841610396923753
597.0, 0.052389984623319535
598.0, 0.0575998117292607
599.0, 0.07803489442112332
600.0, 0.08990638481786802
601.0, 0.11273312193535621
602.0, 0.1146202001161333
603.0, 0.13037453475373229
604.0, 0.16172926286866185
605.0, 0.16475661062793634
606.0, 0.17664683733373795
607.0, 0.18600407121362472
608.0, 0.18463991252220407
609.0, 0.19804227782996775
610.0, 0.2211376642936256
611.0, 0.2195833412718441
612.0, 0.22100363556187722
613.0, 0.2348250985682109
614.0, 0.2536139525347626
615.0, 0.2502597627420756
616.0, 0.24639224269463947
617.0, 0.261461435963452
618.0, 0.2581957667663766
619.0, 0.23956683577882373
620.0, 0.23073466690618513
621.0, 0.2217924375867946
622.0, 0.2149978288193778
623.0, 0.20873498550631134
624.0, 0.19182936482883725
625.0, 0.18280470670902435
626.0, 0.18529310240000432
627.0, 0.17094935291691435
628.0, 0.15068324730142518
629.0, 0.12714000565410014
630.0, 0.09960010823084366
631.0, 0.1363320928648378
632.0, 0.12332066059512582
633.0, 0.07976296367685447
634.0, 0.0715955781702957
635.0, 0.07861382963190189
636.0, 0.05733074640377189
637.0, 0.05817604983385987
638.0, 0.05171409540041051
639.0, 0.040767093713052656
640.0, 0.047265565806566115
641.0, 0.040364450112741
642.0, 0.031717863423684114
643.0, 0.06317457494352022
644.0, 0.030732867584948788
645.0, 0.0187261939422942
646.0, 0.029476994442673602
647.0, 0.03547264370967004
648.0, 0.02683784306889474
649.0, 0.01993267841057454
650.0, 0.029463934401944548
651.0, 0.024149395045411113
652.0, 0.027799169705631198
653.0, 0.024649076429873337
654.0, 0.020939775058554093
655.0, 0.03116565365546621
656.0, 0.04694246673623133
657.0, 0.022296430233674426
658.0, 0.038606620219812794
659.0, 0.032345606620379004
660.0, 0.025027271057619357
661.0, 0.03205145522561053
662.0, 0.03073602262753462
663.0, 0.00907927884892763
664.0, 0.016174018330391855
665.0, 0.013222347443303027
666.0, 0.01860228936391789
667.0, 0.025265463962511638
668.0, 0.020481498974857376
669.0, 0.00995158128996705
670.0, 0.005712017575083368
671.0, 0.025483041134973333
672.0, 0.03558660912251312
673.0, 0.006732346399207843
674.0, 0.004041995936741226
675.0, 0.023703412577139944
676.0, 0.02588883402319194
677.0, 0.06020213689118966
678.0, 0.0379936281093509
679.0, 0.02363314529413884
680.0, 0.020991724565325193
681.0, 0.008467284671839685
682.0, 0.00493167672119024
683.0, 0.024111796260768814
684.0, 0.024990442604811796
685.0, 0.018035199130190138
686.0, 0.026126481192211354
687.0, 0.030950296548886133
688.0, 0.017254094773064353
689.0, 0.006613613102236509
690.0, 0.038150371945419675
691.0, 0.032827641193437465
692.0, 0.04853016473088085
693.0, 0.05515036363458968
694.0, 0.027667433483169065
695.0, 0.012859248298166051
696.0, 0.03870880173595114
697.0, 0.022025447326753832
698.0, 0.022162396067472334
699.0, 0.02056369855481821
700.0, 0.026777190689795928
701.0, 0.02088124006289145
702.0, 0.002106736220429547
703.0, 0.0011231150536338036
704.0, 0.0041474482469946086
705.0, 0.014696983831117127
706.0, 0.016148879692509697
707.0, 0.017622743033755273
708.0, 0.015743147317472637
709.0, 0.013317766769156907
710.0, 0.02128894936232631
711.0, 0.0039487241054938504
712.0, 0.019253157844511582
713.0, 0.01645009440042611
714.0, 0.007025744677275989
715.0, 0.013356283764839553
716.0, 0.023402614432603164
717.0, 0.01446158319815288
718.0, 0.004547277533808098
719.0, 0.018402238642403236
720.0, 0.014832909112584535
721.0, 0.01832779905082921
722.0, 0.012791638075229837
723.0, 0.007483745534047428
724.0, 0.007011917436133176
725.0, 0.005974994931025913
726.0, 0.0021848632013882433
727.0, 0.022664044109282862
728.0, 0.028454620758487453
729.0, 0.009682931504354956
730.0, 0.0018529067409222449
731.0, 0.011046863548757727
732.0, 0.007452916469898977
733.0, 0.004807992863514082
734.0, 0.0076371457514072625
735.0, 0.011453795639598136
736.0, 0.00974500619616881
737.0, 0.01609105596548279
738.0, 0.01029431087911924
739.0, 0.028939196467924394
740.0, 0.004034115794277231
741.0, 0.0062619014373135285
742.0, 0.008848738408016666
743.0, 0.007855254337183589
744.0, 0.010711126021589632
745.0, 0.011889647446923786
746.0, 0.0032455128987737888
747.0, 0.000882669581657797
748.0, 0.0022626852941496287
749.0, 0.0014556757926133248
750.0, 0.010409621874186535
751.0, 0.025648163714807118
752.0, 0.02895979962066768
753.0, 0.014071607232687449
754.0, 0.013809207101449058
755.0, 0.022395014790462884
756.0, 0.018945576742258198
757.0, 0.004408707821806536
758.0, 0.015379723668488814
759.0, 0.04016591613530998
760.0, 0.03108683398097032
761.0, 0.015468769840964697
762.0, 0.026953001455431058
763.0, 0.030478790805796845
764.0, 0.020483188995757688
765.0, 0.015485324386928649
766.0, 0.01885453830491691
767.0, 0.01637152671832923
768.0, 0.0017153667956231681
769.0, 0.009074901860300395
770.0, 0.01575665598267343
771.0, 0.014280117634460805
772.0, 0.026911758905416486
773.0, 0.037840725396103225
774.0, 0.021972360972644732
775.0, 0.010198182849430063
776.0, 0.020846189805719006
777.0, 0.03955750940552104
778.0, 0.0330081518639582
779.0, 0.028689120939128194
780.0, 0.030777077441956326
781.0, 0.028536067028517798
782.0, 0.0297502711421698
783.0, 0.051841760676442736
784.0, 0.039299585915578035
785.0, 0.04437778367291844
786.0, 0.038093751776526213
787.0, 0.031242238849238983
788.0, 0.03265096484584297
789.0, 0.01918649647988668
790.0, 0.008837861199806119
791.0, 0.0581935648132124
792.0, 0.03305588724908962
793.0, 0.04955924677195366
794.0, 0.04197310231821255
795.0, 0.03532748791602916
796.0, 0.03673813300616771
797.0, 0.03243950104852258
798.0, 0.025406358962395143
799.0, 0.02031662065404753
800.0, 0.03671229605969841
801.0, 0.05308655834060897
802.0, 0.05983554709026452
803.0, 0.04513441934245923
804.0, 0.037744596926273126
805.0, 0.045885527996017875
806.0, 0.046014030587379795
807.0, 0.052118365419911265
808.0, 0.04910808823332015
809.0, 0.041870304432732854
810.0, 0.0712321462211076
811.0, 0.0807733871822774
812.0, 0.07514998385178155
813.0, 0.08303391842995089
814.0, 0.07041776681617364
815.0, 0.05384406978078933
816.0, 0.04440196574859516
817.0, 0.0662396409507162
818.0, 0.06180053642370876
819.0, 0.056258709550419866
820.0, 0.05950167902248111
821.0, 0.06423226032681077
822.0, 0.07569953103647027
823.0, 0.07383874299107081
824.0, 0.07059144885231089
825.0, 0.045854465711764526
826.0, 0.06495799807148413
827.0, 0.07809070391487043
828.0, 0.06942700870212433
829.0, 0.07205359240161374
830.0, 0.08654389922402526
831.0, 0.06867769720097643
832.0, 0.054201578463509946
833.0, 0.05750414443502273
834.0, 0.05751519639789255
835.0, 0.07861769221214246
836.0, 0.08559773393942392
837.0, 0.07155055647082521
838.0, 0.064585112798225
839.0, 0.05479862175039235
840.0, 0.06751783136431946
841.0, 0.07948347228140891
842.0, 0.0824155655720376
843.0, 0.0926493416812443
844.0, 0.08370248098382693
845.0, 0.07570592631801236
846.0, 0.08331507612309005
847.0, 0.0694629306440021
848.0, 0.08505321755232853
849.0, 0.08803597920923187
850.0, 0.09535915413626761
851.0, 0.08678851521985623
852.0, 0.0780576369525745
853.0, 0.08849070759931346
854.0, 0.09701438629561145
855.0, 0.0887155152504091
856.0, 0.08732148785826745
857.0, 0.06567832150210792
858.0, 0.08330633237010358
859.0, 0.07042185630065742
860.0, 0.07506752259112673
861.0, 0.08393237992877287
862.0, 0.08160927652684805
863.0, 0.07734900917010037
864.0, 0.06976596784511117
865.0, 0.07813237871285612
866.0, 0.08459865250694944
867.0, 0.08173367708237557
868.0, 0.06828104120735538
869.0, 0.06866960559091313
870.0, 0.06390638318515927
871.0, 0.05893553304492346
872.0, 0.0682386149175508
873.0, 0.06274183584243882
874.0, 0.07616377326131002
875.0, 0.1128999873771671
876.0, 0.07872362558786317
877.0, 0.0652193698096278
878.0, 0.0566124978623871
879.0, 0.0547703865793559
880.0, 0.058664600493649376
881.0, 0.051310078604016825
882.0, 0.04854561504702686
883.0, 0.05440113447183044
884.0, 0.03601806252972825
885.0, 0.042554989205543195
886.0, 0.039811081786307115
887.0, 0.03917732812492429
888.0, 0.04179685835032345
889.0, 0.042484239303790694
890.0, 0.05147705473722127
891.0, 0.051750319943798216
892.0, 0.014235688173153625
893.0, 0.006265677655080986
894.0, 0.018765912831493155
895.0, 0.03792904005918487
896.0, 0.0345200329491836
897.0, 0.02393365790403522
898.0, 0.018254705260535697
899.0, 0.012456932372486035
900.0, 0.00572868731430831
901.0, 0.011547364859482424
902.0, 0.014144472074943128
903.0, 0.028932139526600443
904.0, 0.02013198652850698
905.0, 0.009371829175138926
906.0, 0.021036131544914797
907.0, 0.0238663793765966
908.0, 0.0029238289760025403
909.0, 0.0025966852391913343
910.0, 0.000692683600365549
911.0, 0.0029075754847679262
912.0, 0.0030099447989861286
913.0, 0.014263933192865444
914.0, 0.012335760809283582
915.0, 0.013469783122279292
916.0, 0.0069386727802925995
917.0, 0.0061534806266841414
918.0, 0.01910006725468546
919.0, 0.0030071452024297528
920.0, 0.007431954026200214
921.0, 0.008889598091230522
922.0, 0.0025835968111610906
923.0, 0.009706096042137864
924.0, 0.017454999248158853
925.0, 0.014909795204210865
926.0, 0.002143633257112537
927.0, 0.007064962657183653
928.0, 0.03719953062773473
929.0, 0.031207451664227368
930.0, 0.011631741148882775
931.0, 0.005701338090936303
932.0, 0.025947188506293472
933.0, 0.0404697556931206
934.0, 0.0603935800484303
935.0, 0.055648087181271344
936.0, 0.03459956201143417
937.0, 0.042598604650754976
938.0, 0.03296293687033188
939.0, 0.04373164360480878
940.0, 0.05889300511852193
941.0, 0.05878833781212816
942.0, 0.044631738363120094
943.0, 0.0644376532429512
944.0, 0.07160832440563963
945.0, 0.059822458321027075
946.0, 0.06229402864670732
947.0, 0.07323668734472599
948.0, 0.06251497781957689
949.0, 0.043614666964304216
950.0, 0.058263387445979364
951.0, 0.06269965472530035
952.0, 0.07153249061966953
953.0, 0.05303582328121154
954.0, 0.040429554275809874
955.0, 0.05386002758743929
956.0, 0.06722139802956288
957.0, 0.06740810627746374
958.0, 0.06505430232812698
959.0, 0.044401229117695486
960.0, 0.03325041260408405
961.0, 0.05166425945879045
962.0, 0.04783838637755987
963.0, 0.04356237122946919
964.0, 0.03813410026514343
965.0, 0.021471801430665675
966.0, 0.027161573719195514
967.0, 0.04839588793525415
968.0, 0.027630715241615263
969.0, 0.018631501049383516
970.0, 0.030947729671399474
971.0, 0.046772543473099164
972.0, 0.04448224453222635
973.0, 0.018539951704494476
974.0, 0.006698759843694113
975.0, 0.01931708295091409
976.0, 0.019089964368990412
977.0, 0.012922042312102934
978.0, 0.02614154014373713
979.0, 0.013637842525613054
980.0, 0.021780612160227152
981.0, 0.04105649256733109
982.0, 0.03192649572662836
983.0, 0.009205035621924349
984.0, 0.008953872261738847
985.0, 0.011512831893400485
986.0, 0.005417093001597542
987.0, 0.0009929500382180358
988.0, 0.0037212639339580947
989.0, 0.00547712151905334
990.0, 0.020118397991896395
991.0, 0.022197466296103495
992.0, 0.021825331474588424
993.0, 0.003236508263044756
994.0, 0.017015056401786445
995.0, 0.016956516505830004
996.0, 0.007225288822793854
997.0, 0.009530255826655521
998.0, 0.01693623798241988
999.0, 0.01507277784370687
1000.0, 0.002645930275216519
1001.0, 0.007829663053871675
1002.0, 0.03243673162188504
1003.0, 0.034766900103717295
1004.0, 0.012911307315000961
1005.0, 0.018380838194431672
1006.0, 0.0041385342032437215
1007.0, 0.022629912996229906
1008.0, 0.0225358344491233
1009.0, 0.006094732371367305
1010.0, 0.027967331550184542
1011.0, 0.024301045990568357
1012.0, 0.02570160403550781
1013.0, 0.02474347466203232
1014.0, 0.00518214155185742
1015.0, 0.02294081677789216
1016.0, 0.03385730168060289
1017.0, 0.030037978041003027
1018.0, 0.025531280301270966
1019.0, 0.02824124388550309
1020.0, 0.0315257190338431
1021.0, 0.029048455706839938
1022.0, 0.024191145640620262
1023.0, 0.01564892109384277
1024.0, 0.005376515853997633
1025.0, 0.03843458539849764
1026.0, 0.02816564921810673
1027.0, 0.034754286563418335
1028.0, 0.023908139209426183
1029.0, 0.012881956406351116
1030.0, 0.024877095330693107
1031.0, 0.027643210105111112
1032.0, 0.017995771536720526
1033.0, 0.022636312596365688
1034.0, 0.020709731854753277
1035.0, 0.004178757024842171
1036.0, 0.008155936120987098
1037.0, 0.014613591427187973
1038.0, 0.040322527417952905
1039.0, 0.028022529742618353
1040.0, 0.005937911588094534
1041.0, 0.006925257517865559
1042.0, 0.021303429469091337
1043.0, 0.018528009276854263
1044.0, 0.01995120021352454
1045.0, 0.041728740775823704
1046.0, 0.036754740290119645
1047.0, 0.01887190344212546
1048.0, 0.025182952512376674
1049.0, 0.033966964853338485
1050.0, 0.05413130094756799
1051.0, 0.0404543904452155
1052.0, 0.024903729980651636
1053.0, 0.025402153060979118
1054.0, 0.0073684199362645435
1055.0, 0.016095053693213908
1056.0, 0.02186588117925744
1057.0, 0.00571509192991137
1058.0, 0.010711526176611266
1059.0, 0.02987483133446198
1060.0, 0.02635844374588343
1061.0, 0.04673828417411257
1062.0, 0.021018536057716523
1063.0, 0.010479226944618409
1064.0, 0.015972981593329837
1065.0, 0.014155108200797992
1066.0, 0.02028583446283278
1067.0, 0.02905987527741574
1068.0, 0.029252263304477874
1069.0, 0.03703883030035714
1070.0, 0.038386428130912864
1071.0, 0.018538405921491384
1072.0, 0.009452489528770138
1073.0, 0.009955859613035677
1074.0, 0.02804637144581812
1075.0, 0.028411307958086853
1076.0, 0.026062547495506596
1077.0, 0.0411487052657973
1078.0, 0.020347745411445427
1079.0, 0.020411431942463604
1080.0, 0.026744987434191517
1081.0, 0.025330830628913427
1082.0, 0.012677205276449057
1083.0, 0.004450506220299721
1084.0, 0.01625246942676116
1085.0, 0.029962117892346814
1086.0, 0.025967171616456442
1087.0, 0.010993903710609435
1088.0, 0.021369898395214627
1089.0, 0.024373619620560463
1090.0, 0.030621431869997332
1091.0, 0.017801238218588714
1092.0, 0.005231526407525879
1093.0, 0.024639428803852
1094.0, 0.021330494847492616
1095.0, 0.02534070978100151
1096.0, 0.04032667308902095
1097.0, 0.024805233665232223
1098.0, 0.006568074646643749
1099.0, 0.01570147578376927
1100.0, 0.01818880800738193
1101.0, 0.022984297070514314
1102.0, 0.009178957206643518
1103.0, 0.001146519748868032
1104.0, 0.010085660723285001
1105.0, 0.01015779241771642
1106.0, 0.023414355355841264
1107.0, 0.03340646608459706
1108.0, 0.019789536838579043
1109.0, 0.011450689419615152
1110.0, 0.010359672301915304
1111.0, 0.006486820359495562
1112.0, 0.010564692798755729
1113.0, 0.015836170844525568
1114.0, 0.02227185602908886
1115.0, 0.038582768199739666
1116.0, 0.03955601077846778
1117.0, 0.022248325258313627
1118.0, 0.028976603555464657
1119.0, 0.019901500837109915
1120.0, 0.013886443896392034
1121.0, 0.02649377275425262
1122.0, 0.016573843541055688
1123.0, 0.008359519834918715
1124.0, 0.02252080166575552
1125.0, 0.019060756195241575
1126.0, 0.012791995296072823
1127.0, 0.0189631058968606
1128.0, 0.002835690512520232
1129.0, 0.005465081317542411
1130.0, 0.0035740799495459657
1131.0, 0.02021396572679029
1132.0, 0.022639598013031826
1133.0, 0.005972508377928329
1134.0, 0.0007510598134643253
1135.0, 0.012469599513893419
1136.0, 0.015783421112294686
1137.0, 0.014692646233578275
1138.0, 0.010427769734408121
1139.0, 0.014969521203700865
1140.0, 0.020221922971800033
1141.0, 0.016593468837169303
1142.0, 0.01985606920756353
1143.0, 0.02303145738294612
1144.0, 0.012824288818305036
1145.0, 0.019903535626168357
1146.0, 0.03219607707580508
1147.0, 0.02374282343108715
1148.0, 0.009053395120721187
1149.0, 0.008999131032905418
1150.0, 0.015497006948141996
1151.0, 0.0038563242099109683
1152.0, 0.005100520748714869
1153.0, 0.001448453700910794
1154.0, 0.006084156268440227
1155.0, 0.010269177494136772
1156.0, 0.006977026362869567
1157.0, 0.019560712678440336
1158.0, 0.018578327353428768
1159.0, 0.02151270179176296
1160.0, 0.03447078057680193
1161.0, 0.003941528970415522
1162.0, 0.018022568329122676
1163.0, 0.019876034709402943
1164.0, 0.0164897752952584
1165.0, 0.031089570580270374
1166.0, 0.019056506629874473
1167.0, 0.017390008283194158
1168.0, 0.01196080696587906
1169.0, 0.005474435363664538
1170.0, 0.011911572123286453
1171.0, 0.004657812139837887
1172.0, 0.011823056490525032
1173.0, 0.005052684880064087
1174.0, 0.00285381719380484
1175.0, 0.015973806979688643
1176.0, 0.004417135972872569
1177.0, 0.010377110778715868
1178.0, 0.027477063306430738
1179.0, 0.017363422598231665
1180.0, 0.007939809142692524
1181.0, 0.03566759127428831
1182.0, 0.01440730785639687
1183.0, 0.007225234312977851
1184.0, 0.025289397541815164
1185.0, 0.006576762903476715
1186.0, 0.019047804568568916
1187.0, 0.0023267488718307864
1188.0, 0.01321401527358352
1189.0, 0.01900639869875545
1190.0, 0.0237328207568355
1191.0, 0.007193271847282016
1192.0, 0.017958539572211593
1193.0, 0.031006739408559348
1194.0, 0.02369437861615697
1195.0, 0.013424830180899296
1196.0, 0.004924616159126762
1197.0, 0.012159937596720717
1198.0, 0.010598752956938764
1199.0, 0.01399579317367006
1200.0, 0.020918986706256328
1201.0, 0.026829577401679947
1202.0, 0.03715910728567035
1203.0, 0.01444053835127479
1204.0, 0.017077685478586156
1205.0, 0.006527432774255412
1206.0, 0.004319333464825826
1207.0, 0.02262525309649087
1208.0, 0.009821789938232146
1209.0, 0.013351735732640455
1210.0, 0.01933925779855113
1211.0, 0.014415657975771216
1212.0, 0.028193421799217872
1213.0, 0.030321139746509507
1214.0, 0.02308792980456454
1215.0, 0.028058696772652946
1216.0, 0.02355389159260944
1217.0, 0.019458207477651934
1218.0, 0.03542110489117119
1219.0, 0.014214668396632012
1220.0, 0.0017613053498109284
1221.0, 0.015711111162182333
1222.0, 0.020275448111423976
1223.0, 0.04514932223790212
1224.0, 0.027193832107620032
1225.0, 0.033793235454405574
1226.0, 0.027221494974431222
1227.0, 0.0325892672575015
1228.0, 0.027377729391338142
1229.0, 0.01672443813297705
1230.0, 0.030707895927077615
1231.0, 0.01939928518202718
1232.0, 0.024720889725212854
1233.0, 0.011302306333254242
1234.0, 0.008506716375963605
1235.0, 0.026536538629279988
1236.0, 0.03535535115222555
1237.0, 0.018751460995521937
1238.0, 0.008416974391555764
1239.0, 0.02420204314235088
1240.0, 0.02965118837332614
1241.0, 0.02938438387304487
1242.0, 0.026723738444616865
1243.0, 0.02457275333971034
1244.0, 0.027996765670470786
1245.0, 0.0342895859396945
1246.0, 0.02662981354142886
1247.0, 0.035538613382049396
1248.0, 0.026009284929478654
1249.0, 0.03897219471430943
1250.0, 0.0029660184947561145
1251.0, 0.040733045148318554
1252.0, 0.04962396377691416
1253.0, 0.038108085110706146
1254.0, 0.017536761864456782
1255.0, 0.031240531640089532
1256.0, 0.0355452638195746
1257.0, 0.027509056256687262
1258.0, 0.03043642633233977
1259.0, 0.02549889548673571
1260.0, 0.02445065021971939
1261.0, 0.025575952059469317
1262.0, 0.016128602604871842
1263.0, 0.016247920003939462
1264.0, 0.024128345674274722
1265.0, 0.009366163708823236
1266.0, 0.007698038117714584
1267.0, 0.04595463365410351
1268.0, 0.02040366440074444
1269.0, 0.026980932249743957
1270.0, 0.011879784123770797
1271.0, 0.032396035774312486
1272.0, 0.023625043073204403
1273.0, 0.024922293294269707
1274.0, 0.04110629979398134
1275.0, 0.030639662778923306
1276.0, 0.020638248970588125
1277.0, 0.06670821210435804
1278.0, 0.0049380822821926285
1279.0, 0.014632054693292127
1280.0, 0.05016425370990243
1281.0, 0.018988562164229377
1282.0, 0.03218050308010384
1283.0, 0.012038346109639619
1284.0, 0.02816430397934871
1285.0, 0.015905268440676343
1286.0, 3.238019818438524e-05
1287, 0.0
1288, 0.0
1289, 0.0
1290, 0.0
1291, 0.0
1292, 0.0
1293, 0.0
1294, 0.0
1295, 0.0
1296, 0.0
1297, 0.0
1298, 0.0
1299, 0.0
1300, 0.0
1301, 0.0
1302, 0.0
1303, 0.0
1304, 0.0
1305, 0.0
1306, 0.0
1307, 0.0
1308, 0.0
1309, 0.0
1310, 0.0
1311, 0.0
1312, 0.0
1313, 0.0
1314, 0.0
1315, 0.0
1316, 0.0
1317, 0.0
1318, 0.0
1319, 0.0
1320, 0.0
1321, 0.0
1322, 0.0
1323, 0.0
1324, 0.0
1325, 0.0
1326, 0.0
1327, 0.0
1328, 0.0
1329, 0.0
1330, 0.0
1331, 0.0
1332, 0.0
1333, 0.0
1334, 0.0
1335, 0.0
1336, 0.0
1337, 0.0
1338, 0.0
1339, 0.0
1340, 0.0
1341, 0.0
1342, 0.0
1343, 0.0
1344, 0.0
1345, 0.0
1346, 0.0
1347, 0.0
1348, 0.0
1349, 0.0
1350, 0.0
1351, 0.0
1352, 0.0
1353, 0.0
1354, 0.0
1355, 0.0
1356, 0.0
1357, 0.0
1358, 0.0
1359, 0.0
1360, 0.0
1361, 0.0
1362, 0.0
1363, 0.0
1364, 0.0
1365, 0.0
1366, 0.0
1367, 0.0
1368, 0.0
1369, 0.0
1370, 0.0
1371, 0.0
1372, 0.0
1373, 0.0
1374, 0.0
1375, 0.0
1376, 0.0
1377, 0.0
1378, 0.0
1379, 0.0
1380, 0.0
1381, 0.0
1382, 0.0
1383, 0.0
1384, 0.0
1385, 0.0
1386, 0.0
1387, 0.0
1388, 0.0
1389, 0.0
1390, 0.0
1391, 0.0
1392, 0.0
1393, 0.0
1394, 0.0
1395, 0.0
1396, 0.0
1397, 0.0
1398, 0.0
1399, 0.0
1400, 0.0
1401, 0.0
1402, 0.0
1403, 0.0
1404, 0.0
1405, 0.0
1406, 0.0
1407, 0.0
1408, 0.0
1409, 0.0
1410, 0.0
1411, 0.0
1412, 0.0
1413, 0.0
1414, 0.0
1415, 0.0
1416, 0.0
1417, 0.0
1418, 0.0
1419, 0.0
1420, 0.0
1421, 0.0
1422, 0.0
1423, 0.0
1424, 0.0
1425, 0.0
1426, 0.0
1427, 0.0
1428, 0.0
1429, 0.0
1430, 0.0
1431, 0.0
1432, 0.0
1433, 0.0
1434, 0.0
1435, 0.0
1436, 0.0
1437, 0.0
1438, 0.0
1439, 0.0
1440, 0.0
1441, 0.0
1442, 0.0
1443, 0.0
1444, 0.0
1445, 0.0
1446, 0.0
1447, 0.0
1448, 0.0
1449, 0.0
1450, 0.0
1451, 0.0
1452, 0.0
1453, 0.0
1454, 0.0
1455, 0.0
1456, 0.0
1457, 0.0
1458, 0.0
1459, 0.0
1460, 0.0
1461, 0.0
1462, 0.0
1463, 0.0
1464, 0.0
1465, 0.0
1466, 0.0
1467, 0.0
1468, 0.0
1469, 0.0
1470, 0.0
1471, 0.0
1472, 0.0
1473, 0.0
1474, 0.0
1475, 0.0
1476, 0.0
1477, 0.0
1478, 0.0
1479, 0.0
1480, 0.0
1481, 0.0
1482, 0.0
1483, 0.0
1484, 0.0
1485, 0.0
1486, 0.0
1487, 0.0
1488, 0.0
1489, 0.0
1490, 0.0
1491, 0.0
1492, 0.0
1493, 0.0
1494, 0.0
1495, 0.0
1496, 0.0
1497, 0.0
1498, 0.0
1499, 0.0
1500, 0.0
1501, 0.0
1502, 0.0
1503, 0.0
1504, 0.0
1505, 0.0
1506, 0.0
1507, 0.0
1508, 0.0
1509, 0.0
1510, 0.0
1511, 0.0
1512, 0.0
1513, 0.0
1514, 0.0
1515, 0.0
1516, 0.0
1517, 0.0
1518, 0.0
1519, 0.0
1520, 0.0
1521, 0.0
1522, 0.0
1523, 0.0
1524, 0.0
1525, 0.0
1526, 0.0
1527, 0.0
1528, 0.0
1529, 0.0
1530, 0.0
1531, 0.0
1532, 0.0
1533, 0.0
1534, 0.0
1535, 0.0
1536, 0.0
1537, 0.0
1538, 0.0
1539, 0.0
1540, 0.0
1541, 0.0
1542, 0.0
1543, 0.0
1544, 0.0
1545, 0.0
1546, 0.0
1547, 0.0
1548, 0.0
1549, 0.0
1550, 0.0
1551, 0.0
1552, 0.0
1553, 0.0
1554, 0.0
1555, 0.0
1556, 0.0
1557, 0.0
1558, 0.0
1559, 0.0
1560, 0.0
1561, 0.0
1562, 0.0
1563, 0.0
1564, 0.0
1565, 0.0
1566, 0.0
1567, 0.0
1568, 0.0
1569, 0.0
1570, 0.0
1571, 0.0
1572, 0.0
1573, 0.0
1574, 0.0
1575, 0.0
1576, 0.0
1577, 0.0
1578, 0.0
1579, 0.0
1580, 0.0
1581, 0.0
1582, 0.0
1583, 0.0
1584, 0.0
1585, 0.0
1586, 0.0
1587, 0.0
1588, 0.0
1589, 0.0
1590, 0.0
1591, 0.0
1592, 0.0
1593, 0.0
1594, 0.0
1595, 0.0
1596, 0.0
1597, 0.0
1598, 0.0
1599, 0.0
