30, 0.0
31, 0.0
32, 0.0
33, 0.0
34, 0.0
35, 0.0
36, 0.0
37, 0.0
38, 0.0
39, 0.0
40, 0.0
41, 0.0
42, 0.0
43, 0.0
44, 0.0
45, 0.0
46, 0.0
47, 0.0
48, 0.0
49, 0.0
50, 0.0
51, 0.0
52, 0.0
53, 0.0
54, 0.0
55, 0.0
56, 0.0
57, 0.0
58, 0.0
59, 0.0
60, 0.0
61, 0.0
62, 0.0
63, 0.0
64, 0.0
65, 0.0
66, 0.0
67, 0.0
68, 0.0
69, 0.0
70, 0.0
71, 0.0
72, 0.0
73, 0.0
74, 0.0
75, 0.0
76, 0.0
77, 0.0
78, 0.0
79, 0.0
80, 0.0
81, 0.0
82, 0.0
83, 0.0
84, 0.0
85, 0.0
86, 0.0
87, 0.0
88, 0.0
89, 0.0
90, 0.0
91, 0.0
92, 0.0
93, 0.0
94, 0.0
95, 0.0
96, 0.0
97, 0.0
98, 0.0
99, 0.0
100, 0.0
101, 0.0
102, 0.0
103, 0.0
104, 0.0
105, 0.0
106, 0.0
107, 0.0
108, 0.0
109, 0.0
110, 0.0
111, 0.0
112, 0.0
113, 0.0
114, 0.0
115, 0.0
116, 0.0
117, 0.0
118, 0.0
119, 0.0
120, 0.0
121, 0.0
122, 0.0
123, 0.0
124, 0.0
125, 0.0
126, 0.0
127, 0.0
128, 0.0
129, 0.0
130, 0.0
131, 0.0
132, 0.0
133, 0.0
134, 0.0
135, 0.0
136, 0.0
137, 0.0
138, 0.0
139, 0.0
140, 0.0
141, 0.0
142, 0.0
143, 0.0
144, 0.0
145, 0.0
146, 0.0
147, 0.0
148, 0.0
149, 0.0
150, 0.0
151, 0.0
152, 0.0
153, 0.0
154, 0.0
155, 0.0
156, 0.0
157, 0.0
158.0, 0.00015283093913973518
159.0, 0.0045370800837862746
160.0, 0.015309072073621501
161.0, 0.00265971542760215
162.0, 0.006826467233061137
163.0, 0.03252782134460937
164.0, 0.055773482018278454
165.0, 0.05891880297734305
166.0, 0.05480499720155622
167.0, 0.045014261365310046
168.0, 0.03923713145501112
169.0, 0.05050862664305294
170.0, 0.07632791739022635
171.0, 0.09987479130219243
172.0, 0.09598075137676969
173.0, 0.1046350577489695
174.0, 0.09385802959381258
175.0, 0.08964002911321162
176.0, 0.10774066122253635
177.0, 0.07899465774574788
178.0, 0.08947768343739529
179.0, 0.09254701805432836
180.0, 0.10404626295598325
181.0, 0.11783419743595995
182.0, 0.10544075884182227
183.0, 0.12064293488327696
184.0, 0.1372724763715117
185.0, 0.1666537972899002
186.0, 0.20564637270481545
187.0, 0.245585802993929
188.0, 0.27859617350855953
189.0, 0.28596370812147565
190.0, 0.306237955588027
191.0, 0.34726987552328625
192.0, 0.4013297116094044
193.0, 0.44801131920770765
194.0, 0.48010115782040874
195.0, 0.5180631929557593
196.0, 0.5675865272618892
197.0, 0.6122064256171805
198.0, 0.6430772598461392
199.0, 0.7040564913059196
200.0, 0.7938181920324188
201.0, 0.8609895930960003
202.0, 0.9201566943016841
203.0, 0.9672232412278179
204.0, 0.9770582574701567
205.0, 0.987105109622272
206.0, 0.9964298178281934
207.0, 0.9970075120981357
208.0, 0.9917527182930737
209.0, 0.9841273088898573
210.0, 0.9677057310678968
211.0, 0.976075834461146
212.0, 0.9593097108278675
213.0, 0.9414469998363932
214.0, 0.9130508753653968
215.0, 0.840134553111497
216.0, 0.780470263340562
217.0, 0.7459381132999643
218.0, 0.7089743143061825
219.0, 0.674395612055164
220.0, 0.6479026367557386
221.0, 0.6182315355691774
222.0, 0.5848799177623452
223.0, 0.5590032608731754
224.0, 0.5263411916077819
225.0, 0.48630793936461486
226.0, 0.44781816885329134
227.0, 0.41514789325718765
228.0, 0.3744226984252238
229.0, 0.34489477513990274
230.0, 0.3151988145553435
231.0, 0.27999732338778033
232.0, 0.25130438029748425
233.0, 0.2240467033431946
234.0, 0.18037628043253356
235.0, 0.16419148650585633
236.0, 0.1565855840741068
237.0, 0.12833426483093097
238.0, 0.11884516791617666
239.0, 0.12234341097749651
240.0, 0.12100169728388255
241.0, 0.10763194228916317
242.0, 0.09113939282256645
243.0, 0.0886333177767074
244.0, 0.05416599132380288
245.0, 0.04876065711783484
246.0, 0.0487012210455674
247.0, 0.047848817500831226
248.0, 0.04744912881216211
249.0, 0.053999430409501566
250.0, 0.06365289342208481
251.0, 0.04594529264757362
252.0, 0.03760087173870989
253.0, 0.033893646129651955
254.0, 0.017462703795738593
255.0, 0.023626179145085118
256.0, 0.02759564266216448
257.0, 0.05681719149962938
258.0, 0.07408857766589218
259.0, 0.06961986274952751
260.0, 0.06954155307614102
261.0, 0.0752387592941166
262.0, 0.0471209511197619
263.0, 0.0269969059082844
264.0, 0.01872960887835287
265.0, 0.01789428905132502
266.0, 0.024898392778287953
267.0, 0.00808379343476212
268.0, 0.01646504798506159
269.0, 0.016085082016493033
270.0, 0.006700972487760931
271.0, 0.0025991547994792235
272.0, 0.0015098890343179922
273.0, 0.016904189438130362
274.0, 0.010058141779412996
275.0, 0.004855277417109804
276.0, 0.007364049201698864
277.0, 0.006318865938165358
278.0, 0.025147782091521464
279.0, 0.014654820688894307
280.0, 0.010938303915103146
281.0, 0.01420190336310163
282.0, 0.015332698836328266
283.0, 0.005794183602141987
284.0, 0.04248051733428161
285.0, 0.030355838018856156
286.0, 0.0188801516291073
287.0, 0.0247762907302083
288.0, 0.0383678215553953
289.0, 0.019913171358493912
290.0, 0.007444882995514853
291.0, 0.00470740277438661
292.0, 0.00513367133012608
293.0, 0.005626986498462722
294.0, 0.006978764414075413
295.0, 0.015383667811073816
296.0, 0.00838746210759568
297.0, 0.009825836553548841
298.0, 0.009448185332396478
299.0, 0.005284126385762808
300.0, 0.005292596322191456
301.0, 0.01567824398117806
302.0, 0.049331373822465836
303.0, 0.06318628186233652
304.0, 0.06663323688611161
305.0, 0.05736926928206171
306.0, 0.01435146032478998
307.0, 0.007769181152085946
308.0, 0.014580481403804281
309.0, 0.012733246018154997
310.0, 0.021453109819545818
311.0, 0.037199665751637065
312.0, 0.00360353988432467
313.0, 0.01898023485748125
314.0, 0.048999081685823814
315.0, 0.09789946936451627
316.0, 0.10065022668736974
317.0, 0.03840007567192475
318.0, 0.05854570234697591
319.0, 0.05874124580153295
320.0, 0.06709956816866204
321.0, 0.08513402086448213
322.0, 0.09872272986414514
323.0, 0.09937359621244848
324.0, 0.12019793488404938
325.0, 0.142536255378451
326.0, 0.15385737203205355
327.0, 0.1679859322879424
328.0, 0.18636737410353088
329.0, 0.20183787539159814
330.0, 0.21258185441826563
331.0, 0.21651881345768556
332.0, 0.20949905384549664
333.0, 0.20779498178634725
334.0, 0.19468693087818037
335.0, 0.1441672799288415
336.0, 0.1340563488717124
337.0, 0.0871528974590936
338.0, 0.08021561548052303
339.0, 0.10095098874154743
340.0, 0.10801290983642554
341.0, 0.06509036192450277
342.0, 0.0621862143839486
343.0, 0.06423822713795811
344.0, 0.05489105971941583
345.0, 0.040090463311006054
346.0, 0.026119607248381325
347.0, 0.01699742493368263
348.0, 0.03831271064098092
349.0, 0.04188252832734036
350.0, 0.03462697849637478
351.0, 0.03139418116874395
352.0, 0.03262270896127162
353.0, 0.021523441858358434
354.0, 0.006867732635231403
355.0, 0.018089886664278604
356.0, 0.02367906747897258
357.0, 0.016058055023151704
358.0, 0.00734891037231902
359.0, 0.021810620088493417
360.0, 0.022653079454265722
361.0, 0.036603845714149444
362.0, 0.049869026579827495
363.0, 0.047112376758439864
364.0, 0.029531342369300995
365.0, 0.020039599131608646
366.0, 0.035094577715190776
367.0, 0.011718335173531994
368.0, 0.021332464905679693
369.0, 0.04233605430381983
370.0, 0.044604285710720074
371.0, 0.02507477292730155
372.0, 0.031213319544681175
373.0, 0.04499430155006549
374.0, 0.040468761094258204
375.0, 0.037313824610927304
376.0, 0.045695039916940655
377.0, 0.048760641407591974
378.0, 0.04523519429366633
379.0, 0.03497305578681145
380.0, 0.039440483772901845
381.0, 0.03474293293463643
382.0, 0.014493548318370335
383.0, 0.006490787018439248
384.0, 0.025832234757865644
385.0, 0.02199304741787564
386.0, 0.023275023810440394
387.0, 0.022682281247330138
388.0, 0.01791997999364662
389.0, 0.018020126923540117
390.0, 0.008359564674756768
391.0, 0.015921422483333825
392.0, 0.01258639340988165
393.0, 0.005675960763111669
394.0, 0.006225157926501127
395.0, 0.016695399836572943
396.0, 0.007861244708201206
397.0, 0.01133882408886287
398.0, 0.015961032903788364
399.0, 0.021091261931015664
400.0, 0.02516679670367515
401.0, 0.0232722269047746
402.0, 0.003040417725089428
403.0, 0.003998546759897281
404.0, 0.013015774425358131
405.0, 0.023999839500235258
406.0, 0.02303485903536635
407.0, 0.0038904384364235934
408.0, 0.01122962676071388
409.0, 0.0169985072564017
410.0, 0.029500530027788435
411.0, 0.029789599540859912
412.0, 0.02553664812356093
413.0, 0.03238058009934679
414.0, 0.036005449149166625
415.0, 0.03294868489605218
416.0, 0.03234648160122327
417.0, 0.035127848906805786
418.0, 0.03641994586852003
419.0, 0.03281374505657237
420.0, 0.030123263719464118
421.0, 0.04905586696319987
422.0, 0.03382489926495727
423.0, 0.03832965054763365
424.0, 0.05631622295086976
425.0, 0.05918450065091084
426.0, 0.028115154069434323
427.0, 0.028165628451839345
428.0, 0.03221498573781192
429.0, 0.03806783241619011
430.0, 0.03883937957267175
431.0, 0.02728449190401489
432.0, 0.004187206001829024
433.0, 0.022697248240522168
434.0, 0.013741439261213635
435.0, 0.019838867305708004
436.0, 0.02807600824023281
437.0, 0.026141610042223692
438.0, 0.01731343324656212
439.0, 0.03103395140252029
440.0, 0.03240994264384156
441.0, 0.04266119062303668
442.0, 0.04412512366890081
443.0, 0.04112468422679754
444.0, 0.045639244244784695
445.0, 0.044688160061771585
446.0, 0.04389036049695357
447.0, 0.03866802881515703
448.0, 0.039764591672965505
449.0, 0.04340875774959365
450.0, 0.040374414124036945
451.0, 0.026973813801601736
452.0, 0.05307655190623316
453.0, 0.06161157053282343
454.0, 0.04783430625952948
455.0, 0.038773202753812214
456.0, 0.044068301568759245
457.0, 0.04630850455798942
458.0, 0.060461875976807196
459.0, 0.04897619078038717
460.0, 0.03640737885059132
461.0, 0.03998178041341693
462.0, 0.04963127357006068
463.0, 0.04625992131948715
464.0, 0.05007878901234071
465.0, 0.06590169897057754
466.0, 0.08112671553903443
467.0, 0.08179074843694069
468.0, 0.08068690074824872
469.0, 0.08852773371372222
470.0, 0.08762209337588617
471.0, 0.0986720215495363
472.0, 0.07946581914271234
473.0, 0.08455037413171833
474.0, 0.08983608496621819
475.0, 0.08576223356129546
476.0, 0.09754161046110468
477.0, 0.09341422455635297
478.0, 0.06926683139235397
479.0, 0.07212597662157794
480.0, 0.07917022114576902
481.0, 0.08085014927989291
482.0, 0.08563444995792449
483.0, 0.10560123538599656
484.0, 0.09083359215001247
485.0, 0.08616996531824907
486.0, 0.08656038487162407
487.0, 0.08096526060968992
488.0, 0.07034912552538362
489.0, 0.07460419749092491
490.0, 0.09313978553452258
491.0, 0.10313811478042022
492.0, 0.09140325688555971
493.0, 0.08510471244683565
494.0, 0.09018502042146986
495.0, 0.09229076696503741
496.0, 0.09970888247096778
497.0, 0.10836128525584621
498.0, 0.12172737445620771
499.0, 0.13193006655902623
500.0, 0.13608268467075152
501.0, 0.13929021096704894
502.0, 0.15214708675071187
503.0, 0.1426454410179566
504.0, 0.18620544347218446
505.0, 0.21346767983997444
506.0, 0.22499999180931116
507.0, 0.23366574528864145
508.0, 0.24743344021047917
509.0, 0.2697847841215302
510.0, 0.2804405242070594
511.0, 0.26847792081721056
512.0, 0.25237675870710613
513.0, 0.24822377047188968
514.0, 0.25257171698939745
515.0, 0.2363218377344655
516.0, 0.21041045903830502
517.0, 0.20995789051879174
518.0, 0.18597429105045402
519.0, 0.17420653844662087
520.0, 0.17697280214452632
521.0, 0.16138163354506094
522.0, 0.1363318094212335
523.0, 0.12269581850294925
524.0, 0.10586427288616922
525.0, 0.1035064200770333
526.0, 0.10292545886404128
527.0, 0.09468909758119674
528.0, 0.09323680374995204
529.0, 0.0844910463116865
530.0, 0.09124003120978721
531.0, 0.10292972150638317
532.0, 0.11012586521534592
533.0, 0.10972783627192079
534.0, 0.10447009182904698
535.0, 0.09903001366661984
536.0, 0.10268276377129366
537.0, 0.10523027133903881
538.0, 0.10564283410082083
539.0, 0.10711856935921678
540.0, 0.10841054524935712
541.0, 0.10067563655147498
542.0, 0.07032959943241075
543.0, 0.0794655872389551
544.0, 0.09194003594087638
545.0, 0.08186089745708486
546.0, 0.07621223307312698
547.0, 0.09607574832832026
548.0, 0.10310351457956898
549.0, 0.11267085145975285
550.0, 0.09738853411898073
551.0, 0.08688481251504289
552.0, 0.08834155060369488
553.0, 0.09520195515473368
554.0, 0.09597938413879906
555.0, 0.08750163544775805
556.0, 0.12455417714142296
557.0, 0.11348312216533585
558.0, 0.11672144625421815
559.0, 0.11318305205481521
560.0, 0.10129841667072405
561.0, 0.1194805166628827
562.0, 0.13225180036146636
563.0, 0.1310309047328347
564.0, 0.13377904080879313
565.0, 0.13123518036000936
566.0, 0.1217669066049094
567.0, 0.12005415150455064
568.0, 0.14579728777025747
569.0, 0.1159098630270905
570.0, 0.15238091975269974
571.0, 0.15210938580947814
572.0, 0.14091402332268319
573.0, 0.1366624538383655
574.0, 0.1308061058285997
575.0, 0.10116074959162716
576.0, 0.09406536608165786
577.0, 0.09528298663242796
578.0, 0.09537979271062819
579.0, 0.0737660814324501
580.0, 0.05201004338754514
581.0, 0.06258919148794292
582.0, 0.06656222025937616
583.0, 0.054414240916221324
584.0, 0.07137010412402914
585.0, 0.07415425295128064
586.0, 0.06230424485426292
587.0, 0.05422751370134079
588.0, 0.0640907550765877
589.0, 0.0739373364343455
590.0, 0.06952364360433713
591.0, 0.07077911673456891
592.0, 0.08460868894967
593.0, 0.08887917391650106
594.0, 0.0886595471183737
595.0, 0.11463048367853859
596.0, 0.10831899704668561
597.0, 0.12575127573203823
598.0, 0.1509449085044316
599.0, 0.16991820982221442
600.0, 0.18700352848757243
601.0, 0.2073301467575582
602.0, 0.22682857389804695
603.0, 0.2480406070450185
604.0, 0.27309340787331654
605.0, 0.2976605609411345
606.0, 0.33124384423685743
607.0, 0.36734784809012455
608.0, 0.40275404229637574
609.0, 0.4471807494731296
610.0, 0.4813598835972103
611.0, 0.5205675574131985
612.0, 0.5523403192167632
613.0, 0.590154112904585
614.0, 0.625330077769416
615.0, 0.6492863032687674
616.0, 0.6711056449232375
617.0, 0.6780617382887711
618.0, 0.6621217431728339
619.0, 0.6574026062460792
620.0, 0.6464564586357034
621.0, 0.618499630754027
622.0, 0.579858043558273
623.0, 0.5493514064515851
624.0, 0.5253403262145225
625.0, 0.5044211928781891
626.0, 0.4662349859889259
627.0, 0.4320720446385786
628.0, 0.3832314877617046
629.0, 0.3268579283718742
630.0, 0.3237266541660965
631.0, 0.29625899410201906
632.0, 0.24930186911722274
633.0, 0.23653768868897374
634.0, 0.21657003882378686
635.0, 0.19463970635826525
636.0, 0.17781391136632824
637.0, 0.1484569495533128
638.0, 0.17013967324009438
639.0, 0.1551066711338389
640.0, 0.14708225328777227
641.0, 0.13389746190805366
642.0, 0.12459446900508449
643.0, 0.12288327614021752
644.0, 0.11446502392991155
645.0, 0.10518835188965375
646.0, 0.11534326857426909
647.0, 0.09273920446229512
648.0, 0.07819502069243799
649.0, 0.05922192677981245
650.0, 0.04556838693067778
651.0, 0.07248281997904332
652.0, 0.07640975931901368
653.0, 0.08184226760942748
654.0, 0.07997804465529784
655.0, 0.0797038235220157
656.0, 0.0819616782062744
657.0, 0.08040987922932721
658.0, 0.074038083402082
659.0, 0.08742108981522738
660.0, 0.07608103204070686
661.0, 0.07181895203968791
662.0, 0.09109004930680777
663.0, 0.09268250348980447
664.0, 0.09218948673436636
665.0, 0.11850689273415604
666.0, 0.10889774080571071
667.0, 0.1179141840011173
668.0, 0.12361991999951435
669.0, 0.12231260857425541
670.0, 0.1290947189360788
671.0, 0.1435245364160026
672.0, 0.1590248182071255
673.0, 0.17528244078871555
674.0, 0.15898788057894145
675.0, 0.16734081104400345
676.0, 0.20891282948368411
677.0, 0.23447306850150196
678.0, 0.22807591309541964
679.0, 0.22444155479632696
680.0, 0.27074475033636974
681.0, 0.3027667074861201
682.0, 0.3188756765499276
683.0, 0.35540563217269056
684.0, 0.3543416401184573
685.0, 0.35999993995681034
686.0, 0.38682515076639457
687.0, 0.39613181615596466
688.0, 0.38039272084220727
689.0, 0.36620959636338046
690.0, 0.3584590159133302
691.0, 0.35744663815167604
692.0, 0.35162971105522867
693.0, 0.3281017389995949
694.0, 0.29099759898989386
695.0, 0.2661092894524614
696.0, 0.23205675235211576
697.0, 0.22026210303695512
698.0, 0.1875389542114814
699.0, 0.16532841152655378
700.0, 0.15306758763738174
701.0, 0.14846056697216295
702.0, 0.15202992065143317
703.0, 0.10489472892400992
704.0, 0.11087167264888925
705.0, 0.068467502177454
706.0, 0.049945406424239364
707.0, 0.04694355714432591
708.0, 0.04950718834940784
709.0, 0.05641058659875591
710.0, 0.051035684837749916
711.0, 0.04488155496887201
712.0, 0.04962561866655784
713.0, 0.03645413973026258
714.0, 0.03390730653151693
715.0, 0.03103675221478154
716.0, 0.023228209831366736
717.0, 0.03192179780809502
718.0, 0.027366527451939186
719.0, 0.019148648490204898
720.0, 0.01601378287632142
721.0, 0.018432605535439735
722.0, 0.013345849697864027
723.0, 0.0035595285077094944
724.0, 0.001546964692401861
725.0, 0.006234665932310808
726.0, 0.011601457986478046
727.0, 0.005624526765326363
728.0, 0.010730164927499314
729.0, 0.009316115725664532
730.0, 0.005094370695618223
731.0, 0.005971240237621915
732.0, 0.008445952253544924
733.0, 0.004163906866532978
734.0, 0.009566728869426373
735.0, 0.012439821498674718
736.0, 0.007887473234894637
737.0, 0.014044698953069928
738.0, 0.021326814109579595
739.0, 0.015136100502820563
740.0, 0.008798139395252917
741.0, 0.0034075672884036315
742.0, 0.0071557109143370115
743.0, 0.006535487309859244
744.0, 0.0087163431484046
745.0, 0.007599637136756673
746.0, 0.006846288743002541
747.0, 0.01409933613625735
748.0, 0.015054690831929198
749.0, 0.0062026748361427835
750.0, 0.0021226963176693573
751.0, 0.007116077568502908
752.0, 0.004710390967553599
753.0, 0.007381170603798365
754.0, 0.013163385991693664
755.0, 0.004266457259880693
756.0, 0.023347166451899385
757.0, 0.023178861379732067
758.0, 0.016347595475351567
759.0, 0.018009283794756557
760.0, 0.015889570498151696
761.0, 0.010463234882422968
762.0, 0.00780175507093431
763.0, 0.0054232973706539655
764.0, 0.001791371897361553
765.0, 0.001189044753255269
766.0, 0.005435853986897349
767.0, 0.005682567724446901
768.0, 0.0035629256655853
769.0, 0.006805309431364257
770.0, 0.013592029268130686
771.0, 0.009592678755584495
772.0, 0.025008757519093018
773.0, 0.005428837993649254
774.0, 0.008354448086807485
775.0, 0.0076558060723364825
776.0, 0.007068699523194086
777.0, 0.01060748464390215
778.0, 0.012896489039923967
779.0, 0.011244777435549042
780.0, 0.024672175435009647
781.0, 0.02654998224373135
782.0, 0.01644551475412413
783.0, 0.00782982749054305
784.0, 0.008666567156439962
785.0, 0.010597064438817486
786.0, 0.006722578897515235
787.0, 0.014673320773576025
788.0, 0.015844166298408516
789.0, 0.012281904455659003
790.0, 0.010372754861315451
791.0, 0.024536673780060966
792.0, 0.022781113783062384
793.0, 0.006983080034348058
794.0, 0.007837181490757426
795.0, 0.013177723922953355
796.0, 0.01768260989687514
797.0, 0.012835609388347435
798.0, 0.01823998831943901
799.0, 0.02292782403538266
800.0, 0.01621326729788122
801.0, 0.004653442648876155
802.0, 0.0028033289308998064
803.0, 0.009461191898148317
804.0, 0.012966015331776888
805.0, 0.010716563352695068
806.0, 0.010010439683857847
807.0, 0.009400125354422634
808.0, 0.0086348324195494
809.0, 0.00915088274858953
810.0, 0.011008910160889633
811.0, 0.011212054833439674
812.0, 0.015475172582044647
813.0, 0.02732144285198093
814.0, 0.012194649914921314
815.0, 0.0089281882776383
816.0, 0.017998159862851703
817.0, 0.02182189097545835
818.0, 0.022058468179207296
819.0, 0.042216431417572794
820.0, 0.021199986261059553
821.0, 0.017706969027420607
822.0, 0.0069936129434424125
823.0, 0.0036397432587623522
824.0, 0.009460329607463474
825.0, 0.011542843318260094
826.0, 0.008950779535747485
827.0, 0.016368870254469668
828.0, 0.0015483704798377091
829.0, 0.0005535268778949873
830.0, 0.014705405139599531
831.0, 0.021484224277329197
832.0, 0.02597904511125582
833.0, 0.036167986307178386
834.0, 0.04565785900539963
835.0, 0.04699202215039805
836.0, 0.06634959086105033
837.0, 0.03420872475750837
838.0, 0.019761605202548098
839.0, 0.012633510825559037
840.0, 0.008513387138311295
841.0, 0.004237971710743098
842.0, 0.003863063600313534
843.0, 0.007717267943739054
844.0, 0.00032629183855996825
845.0, 0.0025289090999527147
846.0, 0.008654673597051087
847.0, 0.0035215899737450875
848.0, 0.0027193877000930566
849.0, 0.006979393101822365
850.0, 0.007716661547340592
851.0, 0.0072182255016523846
852.0, 0.01896206599477195
853.0, 0.019624735628244454
854.0, 0.016735482891547058
855.0, 0.023087036974946636
856.0, 0.015995380359110117
857.0, 0.00537681411211002
858.0, 0.0006236407979257149
859.0, 0.00708480438658914
860.0, 0.021465609265018042
861.0, 0.024686942562447564
862.0, 0.019555741533576733
863.0, 0.015190192117761988
864.0, 0.007888501319724182
865.0, 0.0021520147935931732
866.0, 0.0011600576642259832
867.0, 0.005035717122912355
868.0, 0.007221993850609424
869.0, 0.0006852756491634564
870.0, 0.004481806256426432
871.0, 0.013375337666998537
872.0, 0.0031965292050330045
873.0, 0.0005266437914833463
874.0, 0.00409325192640451
875.0, 0.007931422466904238
876.0, 0.01233218390804602
877.0, 0.018609794020772237
878.0, 0.018278546548899398
879.0, 0.015215658808714602
880.0, 0.009661783096270245
881.0, 0.02130912510888791
882.0, 0.010550096097377011
883.0, 0.0010365798228218759
884.0, 0.0006360078261181282
885.0, 0.0037314086576436182
886.0, 0.011592366653010545
887.0, 0.015423285760234825
888.0, 0.026844797242654532
889.0, 0.007205718839228704
890.0, 0.0018083988382014832
891.0, 0.006884135594710873
892.0, 0.006917011463787209
893.0, 0.010587312064851705
894.0, 0.026633715566112954
895.0, 0.03238693364468543
896.0, 0.016377150346851038
897.0, 0.009237447650389176
898.0, 0.017540533815593187
899.0, 0.013524822882296315
900.0, 0.012701674755450604
901.0, 0.016173962917326885
902.0, 0.01845479026353353
903.0, 0.020583420565752637
904.0, 0.027543855465852567
905.0, 0.027967907299148487
906.0, 0.01792267799997104
907.0, 0.02169497968204765
908.0, 0.021105839059103192
909.0, 0.02704620485758089
910.0, 0.029834291519861573
911.0, 0.02365362494970123
912.0, 0.027507896972333794
913.0, 0.0576628552593289
914.0, 0.03181682366168416
915.0, 0.030336746981165313
916.0, 0.02323653087962962
917.0, 0.009164142971698963
918.0, 0.02597784525416121
919.0, 0.048639393064601334
920.0, 0.046582446048230856
921.0, 0.03263819620958752
922.0, 0.03492770955316498
923.0, 0.037770471935859064
924.0, 0.02046674268614714
925.0, 0.034885925457962735
926.0, 0.026172356393697607
927.0, 0.03900614850745021
928.0, 0.04686762702797154
929.0, 0.033413526192117314
930.0, 0.028027764741183056
931.0, 0.03346433836962283
932.0, 0.03373583270256269
933.0, 0.052333459291512
934.0, 0.07106905903087624
935.0, 0.058415292425440024
936.0, 0.054584346875361754
937.0, 0.05272684707880226
938.0, 0.057557875800781345
939.0, 0.07116146223879727
940.0, 0.04839345726961138
941.0, 0.04533944357006952
942.0, 0.07525797144592793
943.0, 0.0715170842021409
944.0, 0.07846219828988696
945.0, 0.08194549627135604
946.0, 0.08624095544548778
947.0, 0.09487436862094595
948.0, 0.10545678860360752
949.0, 0.1150614683340446
950.0, 0.10496224688497974
951.0, 0.11026068843199105
952.0, 0.10454309213568705
953.0, 0.10150537207357868
954.0, 0.09985898892297639
955.0, 0.11449185992782836
956.0, 0.12630795603110198
957.0, 0.11824834504740069
958.0, 0.10718389827402333
959.0, 0.10065720432106834
960.0, 0.09031402410776489
961.0, 0.09935327076017578
962.0, 0.08251515167674735
963.0, 0.10197780782845646
964.0, 0.11462275888192601
965.0, 0.10844224510726677
966.0, 0.09791706931021665
967.0, 0.08722738853643582
968.0, 0.0764574096909681
969.0, 0.1042461081944997
970.0, 0.06729074368820212
971.0, 0.07903145817792029
972.0, 0.07817156377483425
973.0, 0.061862241160399456
974.0, 0.05005015444372607
975.0, 0.059159220143099565
976.0, 0.0687917697906774
977.0, 0.05361836030261189
978.0, 0.07092594854160796
979.0, 0.07665840483968772
980.0, 0.05704958016534954
981.0, 0.04880167046794232
982.0, 0.0518248888800559
983.0, 0.040208924319362724
984.0, 0.04673429646485492
985.0, 0.05446950364798789
986.0, 0.028237962105970012
987.0, 0.024820064119008514
988.0, 0.05282863386964462
989.0, 0.06717818074251078
990.0, 0.0538812648013248
991.0, 0.05614321190007207
992.0, 0.04783883695395584
993.0, 0.04807004135489601
994.0, 0.058077772679445167
995.0, 0.06524792190542218
996.0, 0.06329862108733104
997.0, 0.048565944767859824
998.0, 0.04531734467501223
999.0, 0.03420033269422807
1000.0, 0.0345451146560792
1001.0, 0.05206228433138683
1002.0, 0.04616745386214349
1003.0, 0.04317907606619862
1004.0, 0.04508222431038173
1005.0, 0.04183964881598832
1006.0, 0.0427974435800773
1007.0, 0.03487019156370035
1008.0, 0.028599719404198844
1009.0, 0.04546320889776556
1010.0, 0.06011299712914038
1011.0, 0.056319923789889086
1012.0, 0.040371674260661364
1013.0, 0.032593819609033674
1014.0, 0.0357554401893279
1015.0, 0.0433777328093655
1016.0, 0.052218231163901625
1017.0, 0.0490153286310852
1018.0, 0.050725662546892106
1019.0, 0.042239291994681016
1020.0, 0.041206557499234846
1021.0, 0.030716164292014757
1022.0, 0.01983793462799208
1023.0, 0.02328002385064118
1024.0, 0.03633475349315105
1025.0, 0.0508235906821793
1026.0, 0.06835670141185005
1027.0, 0.07580634032509298
1028.0, 0.04453769131248974
1029.0, 0.06483860418407088
1030.0, 0.04469639525801558
1031.0, 0.06773129068800328
1032.0, 0.05739341147758229
1033.0, 0.05487656854789393
1034.0, 0.06372590357429855
1035.0, 0.06369188980686127
1036.0, 0.06273852905720931
1037.0, 0.045884369505164696
1038.0, 0.03443153824051378
1039.0, 0.04272372346242906
1040.0, 0.06033302223606753
1041.0, 0.05044466514397615
1042.0, 0.07188238249990393
1043.0, 0.07549800016441649
1044.0, 0.06691276421492147
1045.0, 0.0664307821700644
1046.0, 0.05897499011348043
1047.0, 0.04620090845631339
1048.0, 0.06301369783301126
1049.0, 0.07036019601781963
1050.0, 0.06475015912309488
1051.0, 0.05970176687432164
1052.0, 0.06284733187787152
1053.0, 0.06516378429669277
1054.0, 0.0654682342427445
1055.0, 0.06563315263944118
1056.0, 0.06547865445746365
1057.0, 0.06474744197734618
1058.0, 0.0638514866575177
1059.0, 0.06270979365811322
1060.0, 0.06635924236713296
1061.0, 0.06561915734834137
1062.0, 0.06566999050037117
1063.0, 0.07108335895586333
1064.0, 0.0704499614944556
1065.0, 0.07038037884991669
1066.0, 0.0724838852863712
1067.0, 0.07106931925226231
1068.0, 0.07660834195772413
1069.0, 0.08333059326925532
1070.0, 0.10583807514447277
1071.0, 0.07254606639203624
1072.0, 0.09678973472198035
1073.0, 0.08916146786787514
1074.0, 0.075573725551747
1075.0, 0.07964441300817748
1076.0, 0.0904989138421415
1077.0, 0.09673046118641139
1078.0, 0.10074128642582612
1079.0, 0.0951218320628737
1080.0, 0.08820856669482065
1081.0, 0.07985653966142096
1082.0, 0.07849523907341016
1083.0, 0.07620544081399491
1084.0, 0.09044743309158335
1085.0, 0.09829390405515401
1086.0, 0.08345012618617015
1087.0, 0.07418085812277073
1088.0, 0.08569574601142554
1089.0, 0.09108842292000313
1090.0, 0.08783831382119166
1091.0, 0.06318778857755533
1092.0, 0.07122363373925761
1093.0, 0.06621365115812376
1094.0, 0.05999984439359251
1095.0, 0.06805743061614078
1096.0, 0.0724806553423693
1097.0, 0.06762336074192672
1098.0, 0.06751979889544571
1099.0, 0.07729877196292662
1100.0, 0.08855286892459985
1101.0, 0.10122773296169922
1102.0, 0.07972230439944769
1103.0, 0.08463568806512925
1104.0, 0.08709674444486114
1105.0, 0.07946549773331334
1106.0, 0.07123512890409955
1107.0, 0.07412619278032939
1108.0, 0.08272825113847407
1109.0, 0.08589090788161892
1110.0, 0.07360293008391865
1111.0, 0.06174971035245341
1112.0, 0.08329726690561559
1113.0, 0.06680466807347872
1114.0, 0.06765931365839557
1115.0, 0.08087874863323309
1116.0, 0.06295133975026311
1117.0, 0.05218054915090285
1118.0, 0.0691207536936402
1119.0, 0.07171446289141614
1120.0, 0.055674859714229134
1121.0, 0.060058965134772255
1122.0, 0.08165394079761283
1123.0, 0.07269190044681502
1124.0, 0.06789476111591654
1125.0, 0.027927371250319383
1126.0, 0.04127683622167675
1127.0, 0.04229002868650529
1128.0, 0.055882541259457214
1129.0, 0.06176872232307108
1130.0, 0.04561154121293913
1131.0, 0.031371301552980825
1132.0, 0.030869728032793014
1133.0, 0.03624565172339107
1134.0, 0.038978766930361154
1135.0, 0.03250666794958221
1136.0, 0.039589522964866175
1137.0, 0.04365755249396347
1138.0, 0.03631647845267822
1139.0, 0.04343613784282499
1140.0, 0.05003781808770771
1141.0, 0.047065349507032804
1142.0, 0.046615389793074315
1143.0, 0.03861325132357527
1144.0, 0.021217975645635878
1145.0, 0.020795772852830588
1146.0, 0.038832708298273226
1147.0, 0.02461953543345126
1148.0, 0.031186197098096308
1149.0, 0.043762265194760855
1150.0, 0.032023417905633914
1151.0, 0.05588580960608134
1152.0, 0.05069825937391435
1153.0, 0.045772418586663234
1154.0, 0.03290774426017781
1155.0, 0.021210067713236955
1156.0, 0.016124504044545837
1157.0, 0.017932339446246472
1158.0, 0.02841701255889921
1159.0, 0.015261034174755602
1160.0, 0.007106499685896786
1161.0, 0.042955957640872525
1162.0, 0.03597347610783189
1163.0, 0.011271478868078043
1164.0, 0.02470097821843805
1165.0, 0.03240926128514022
1166.0, 0.03669819656454806
1167.0, 0.02229666735318751
1168.0, 0.01580029364228229
1169.0, 0.02883829877973053
1170.0, 0.021014352602068864
1171.0, 0.019280854735729297
1172.0, 0.030734062813868458
1173.0, 0.025856027832714554
1174.0, 0.034891823104879205
1175.0, 0.0319728051839468
1176.0, 0.023282032556755032
1177.0, 0.028017226695547032
1178.0, 0.01892330510828234
1179.0, 0.009735657602036062
1180.0, 0.012318837448931017
1181.0, 0.018227313841848756
1182.0, 0.026811228603486906
1183.0, 0.03998177145685793
1184.0, 0.03286920820686577
1185.0, 0.032268524949729434
1186.0, 0.023725452390006535
1187.0, 0.020456463582689825
1188.0, 0.01937808750487728
1189.0, 0.0213437691163934
1190.0, 0.016916406243161444
1191.0, 0.010056777602112627
1192.0, 0.011256972021703974
1193.0, 0.017826114724357814
1194.0, 0.019722733641202188
1195.0, 0.014599900984930542
1196.0, 0.009632702960876972
1197.0, 0.019726500297813695
1198.0, 0.00491175405036911
1199.0, 0.009079534136900602
1200.0, 0.0157888561001725
1201.0, 0.004359064857221235
1202.0, 0.0007703610560806617
1203.0, 0.0023819314757540034
1204.0, 0.004292260548233676
1205.0, 0.012801796289098954
1206.0, 0.02198390895084823
1207.0, 0.02496445293371792
1208.0, 0.02498170916224139
1209.0, 0.014578229370463077
1210.0, 0.009781961120848677
1211.0, 0.034883599936355904
1212.0, 0.018633515746785047
1213.0, 0.007302865067949778
1214.0, 0.01785564844842261
1215.0, 0.02729041912433237
1216.0, 0.014429920459665057
1217.0, 0.012840197206956503
1218.0, 0.02393518733660632
1219.0, 0.022084671676903082
1220.0, 0.0084309776091199
1221.0, 0.007023322154092983
1222.0, 0.015815554168014813
1223.0, 0.01253393260185043
1224.0, 0.01573677219223307
1225.0, 0.011036903559297755
1226.0, 0.011763611086663196
1227.0, 0.023023849060955146
1228.0, 0.013354425815095954
1229.0, 0.016144773376745265
1230.0, 0.015848076654149033
1231.0, 0.02253683487827233
1232.0, 0.029178260869565348
1233.0, 0.03483541522323902
1234.0, 0.03630738234646856
1235.0, 0.020911312747403328
1236.0, 0.02831997330880929
1237.0, 0.02600570104952354
1238.0, 0.037788521563432716
1239.0, 0.048389860401121323
1240.0, 0.02761517820198926
1241.0, 0.026546064918213458
1242.0, 0.01186936952145693
1243.0, 0.01995330676608997
1244.0, 0.01277686874278599
1245.0, 0.010903687204754573
1246.0, 0.01955120079687002
1247.0, 0.018973739512913992
1248.0, 0.021175482390354345
1249.0, 0.030489250397040098
1250.0, 0.01073218270122338
1251.0, 0.014128822449315745
1252.0, 0.035676293262811645
1253.0, 0.05359061047095766
1254.0, 0.01787229615650536
1255.0, 0.02692639181082999
1256.0, 0.013033427236443348
1257.0, 0.02224500716955213
1258.0, 0.021171163380177462
1259.0, 0.014756564410949408
1260.0, 0.01620844584860458
1261.0, 0.016070063483746486
1262.0, 0.009351117174206417
1263.0, 0.0074951238192460575
1264.0, 0.015350883814420166
1265.0, 0.015946829095121948
1266.0, 0.008484313395329502
1267.0, 0.03608856412039171
1268.0, 0.0030128541601323177
1269.0, 0.0033074082557695305
1270.0, 0.025758292308053876
1271.0, 0.01952735000811323
1272.0, 0.011657628320099716
1273.0, 0.016221350250577676
1274.0, 0.02224101751846299
1275.0, 0.022995598758758555
1276.0, 0.024822257222950492
1277.0, 0.025182782619204338
1278.0, 0.012594128147438705
1279.0, 0.0024762837912840306
1280.0, 0.008333804510948912
1281.0, 0.019511917597477647
1282.0, 0.035610199182860014
1283.0, 0.02864848171974308
1284.0, 0.03521067841089435
1285.0, 0.02526887969645441
1286.0, 0.008582861287090956
1287.0, 0.012770088541901245
1288.0, 0.010795077474184324
1289.0, 0.0027223052916182547
1290.0, 0.00025495980864236067
1291.0, 0.0025592697650966174
1292.0, 0.004296256899947254
1293.0, 0.004508470507685338
1294.0, 0.017641287304624338
1295.0, 0.026525262550284905
1296.0, 0.008426290493857236
1297.0, 0.007631274234153956
1298.0, 0.023232271843402878
1299.0, 0.011373846803228494
1300.0, 0.03532430655645853
1301.0, 0.03520834706265099
1302.0, 0.03325583632807171
1303.0, 0.01661688667527536
1304.0, 0.0046721180958670845
1305.0, 0.002016507541400299
1306.0, 0.009566886848337446
1307.0, 0.020576231430933775
1308.0, 0.019600159437392746
1309.0, 0.027091365791726177
1310.0, 0.03271264302471933
1311.0, 0.03337338015024682
1312.0, 0.03370356961571314
1313.0, 0.032623474119485164
1314.0, 0.030011935244448305
1315.0, 0.013576943717793905
1316.0, 0.01230376122904659
1317.0, 0.022854485426388557
1318.0, 0.03229718389166551
1319.0, 0.02275405550004804
1320.0, 0.023412542202325776
1321.0, 0.027168138155931842
1322.0, 0.030530314655638664
1323.0, 0.039945128610069144
1324.0, 0.03378435175153597
1325.0, 0.027529603203464127
1326.0, 0.05065400084128571
1327.0, 0.041449092543010775
1328.0, 0.03489188020217781
1329.0, 0.036578894560816755
1330.0, 0.04094003835499648
1331.0, 0.03510502499427552
1332.0, 0.03606822999972012
1333.0, 0.024964495918992566
1334.0, 0.04921615481321611
1335.0, 0.03456333280233372
1336.0, 0.022083656369376974
1337.0, 0.03523039643127209
1338.0, 0.0374315543170799
1339.0, 0.043905814392117194
1340.0, 0.0580954904858472
1341.0, 0.03575669865952216
1342.0, 0.023232662945272153
1343.0, 0.02116801491806535
1344.0, 0.02287168053273816
1345.0, 0.05067438146648742
1346.0, 0.02323549392016211
1347.0, 0.03285018719905778
1348.0, 0.009485339875747243
1349.0, 0.05251390450932156
1350.0, 0.047595559864296894
1351.0, 0.034433047075084364
1352.0, 0.011913304115338603
1353.0, 0.016179746802482017
1354.0, 0.03368124499692235
1355.0, 0.04309057780320362
1356.0, 0.04383702664930663
1357.0, 0.04106406834433219
1358.0, 0.0425672057713045
1359.0, 0.039438147001094236
1360.0, 0.02506447307335745
1361.0, 0.02991029094214117
1362.0, 0.017931862233488183
1363.0, 0.04218350922003335
1364.0, 0.019378036196000904
1365.0, 0.05779807835671487
1366.0, 0.050460273857506135
1367.0, 0.06095650528458861
1368.0, 0.04122562331773664
1369.0, 0.050866460649348175
1370.0, 0.04339684716640989
1371.0, 0.03434171083814897
1372.0, 0.03369253248233338
1373.0, 0.033513900923208814
1374.0, 0.033719241027661745
1375.0, 0.03809821044504848
1376.0, 0.03883328167589371
1377.0, 0.027113573769192215
1378.0, 0.026610052364207177
1379.0, 0.03050923858035585
1380.0, 0.024387156283836718
1381.0, 0.04493772696601721
1382.0, 0.036350753258467726
1383.0, 0.018898698495915918
1384.0, 0.034489258953289435
1385.0, 0.04584114904508283
1386.0, 0.03310632646778737
1387.0, 0.0328906078213654
1388.0, 0.04581275962695971
1389.0, 0.03877272355427826
1390.0, 0.023483203073462737
1391.0, 0.035086755343954994
1392.0, 0.05413375939038408
1393.0, 0.054421049057630067
1394.0, 0.039123678999908554
1395.0, 0.029786987589460637
1396.0, 0.035266527778101006
1397.0, 0.017131148220196787
1398.0, 0.036879523759581256
1399.0, 0.040228105472449184
1400.0, 0.029463220857649856
1401.0, 0.027029947366412996
1402.0, 0.019862452889793283
1403.0, 0.009590839411891355
1404.0, 0.00392796530342911
1405.0, 0.015223571989347224
1406.0, 0.016487156348993295
1407.0, 0.0141042833643331
1408.0, 0.028127970946447076
1409.0, 0.04457516338398456
1410.0, 0.03899774712677539
1411.0, 0.024545133535575664
1412.0, 0.01314593957088282
1413.0, 0.006772740796729907
1414.0, 0.01757768153849038
1415.0, 0.02746368963029781
1416.0, 0.018955383944813504
1417.0, 0.03475345286292651
1418.0, 0.03184868894644716
1419.0, 0.020787658192303608
1420.0, 0.017114270374934192
1421.0, 0.02610647437993032
1422.0, 0.034597084750080484
1423.0, 0.03828088919313405
1424.0, 0.045480443072076354
1425.0, 0.030755071359065973
1426.0, 0.012107621551879728
1427.0, 0.006022445106184943
1428.0, 0.005698099860908097
1429.0, 0.008081492116315167
1430.0, 0.0067998225402472875
1431.0, 0.009098103563707114
1432.0, 0.00797251976086079
1433.0, 0.007054689338776254
1434.0, 0.010468191976133119
1435.0, 0.009816119377465467
1436.0, 0.01185975571444087
1437.0, 0.016294372225856966
1438.0, 0.011811924047835352
1439.0, 0.027094046842936634
1440.0, 0.021636645589016013
1441.0, 0.008909582611257284
1442.0, 0.055244533530306394
1443.0, 0.03578415184559044
1444.0, 0.010570134361191679
1445.0, 0.0009532804558358785
1446.0, 0.02963586711836611
1447.0, 0.01673037553197102
1448.0, 0.02850476604615717
1449.0, 0.01563554095789981
1450.0, 0.012747871474544968
1451.0, 0.023434978872747026
1452.0, 0.01716167848170259
1453.0, 0.036711039824216515
1454.0, 0.026236306887139745
1455.0, 0.01430085261350466
1456.0, 0.011810499055464775
1457.0, 0.009464133409003072
1458.0, 0.0150524723029854
1459.0, 0.019639008279260853
1460.0, 0.03762949794971845
1461.0, 0.030378827615544387
1462.0, 0.02445138791683026
1463.0, 0.022339212008945057
1464.0, 0.008716078056525188
1465.0, 0.006764038366093229
1466.0, 0.027606149444675612
1467.0, 0.03336604344008266
1468.0, 0.004438054700296823
1469.0, 0.02419416464991958
1470.0, 0.017532677762795438
1471.0, 0.0182183800954863
1472.0, 0.010915948648236955
1473.0, 0.006658255609095871
1474.0, 0.022069728440743112
1475.0, 0.008363985408141176
1476.0, 0.01573938622954161
1477.0, 0.029464390664563567
1478.0, 0.014499949787964329
1479.0, 0.0010198312157872918
1480.0, 0.007907488495050206
1481.0, 0.020767115249211023
1482.0, 0.022156230180222718
1483.0, 0.022796172531922388
1484.0, 0.029768117713565204
1485.0, 0.025561676842197126
1486.0, 0.031161328619013877
1487.0, 0.022165265505183256
1488.0, 0.0074829631647892894
1489.0, 0.018613612197692603
1490.0, 0.018086231256607226
1491.0, 0.021682551847426915
1492.0, 0.03402995975158454
1493.0, 0.011640810535675424
1494.0, 0.041343366701836255
1495.0, 0.018454859927576735
1496.0, 0.025272928827762123
1497.0, 0.0066977450720551775
1498.0, 0.0015017895887709685
1499.0, 0.006325903069387512
1500.0, 0.003025555930313926
1501.0, 0.014423596435495817
1502.0, 0.014954170714372628
1503.0, 0.006174245591346172
1504.0, 0.016125201842963365
1505.0, 0.030810191459848202
1506.0, 0.05005205685703729
1507.0, 0.03905505038130878
1508.0, 0.0140182005112215
1509.0, 0.014824948786828029
1510.0, 0.02952642757236659
1511.0, 0.033931391544150986
1512.0, 0.020920144408814203
1513.0, 0.01845988795603929
1514.0, 0.019925519899792337
1515.0, 0.03021949631239787
1516.0, 0.013272125238208357
1517.0, 0.02047914559270984
1518.0, 0.0377061275547082
1519.0, 0.034797327751366416
1520.0, 0.022584742807221045
1521.0, 0.035968216989203945
1522.0, 0.017796036004593133
1523.0, 0.04659731020318211
1524.0, 0.04468515974385444
1525.0, 0.049724035894857035
1526.0, 0.01991967051735359
1527.0, 0.03367690607079509
1528.0, 0.03520139600199228
1529.0, 0.025950383580042452
1530.0, 0.024070397410024705
1531.0, 0.014969633785403965
1532.0, 0.020331159795537297
1533.0, 0.009115581306654524
1534.0, 0.005436382057639169
1535.0, 0.01735392061580829
1536.0, 0.030700239290324994
1537.0, 0.03006035042689573
1538.0, 0.015330781170101605
1539.0, 0.018545891513751047
1540.0, 0.03959292258473418
1541.0, 0.041984053401071815
1542.0, 0.03573123950042969
1543.0, 0.03778516650102743
1544.0, 0.03195455666392636
1545.0, 0.03318314237716359
1546.0, 0.03170774005520543
1547.0, 0.008649742306582494
1548.0, 0.02418528741141552
1549.0, 0.032510040861806214
1550.0, 0.03036657731113823
1551.0, 0.009489060212813875
1552.0, 0.018495494299039267
1553.0, 0.01339013464314015
1554.0, 0.009977371992927734
1555.0, 0.025000696704564514
1556.0, 0.003278847203328583
1557.0, 0.01879460538473017
1558.0, 0.02007832552634668
1559.0, 0.02697985778111782
1560.0, 0.02102243621135889
1561.0, 0.0060216600244378604
1562.0, 0.023390660290256386
1563.0, 0.028032402624303066
1564.0, 0.03860171583578398
1565.0, 0.011679671434791565
1566.0, 0.006436550843302054
1567.0, 0.008276877739244343
1568.0, 0.01615010927111861
1569.0, 0.007012557624282361
1570.0, 4.426368391200257e-05
1571, 0.0
1572, 0.0
1573, 0.0
1574, 0.0
1575, 0.0
1576, 0.0
1577, 0.0
1578, 0.0
1579, 0.0
1580, 0.0
1581, 0.0
1582, 0.0
1583, 0.0
1584, 0.0
1585, 0.0
1586, 0.0
1587, 0.0
1588, 0.0
1589, 0.0
1590, 0.0
1591, 0.0
1592, 0.0
1593, 0.0
1594, 0.0
1595, 0.0
1596, 0.0
1597, 0.0
1598, 0.0
1599, 0.0
