30, 0.0
31, 0.0
32, 0.0
33, 0.0
34, 0.0
35, 0.0
36, 0.0
37, 0.0
38, 0.0
39, 0.0
40, 0.0
41, 0.0
42, 0.0
43, 0.0
44, 0.0
45, 0.0
46, 0.0
47, 0.0
48, 0.0
49, 0.0
50, 0.0
51, 0.0
52, 0.0
53, 0.0
54, 0.0
55, 0.0
56, 0.0
57, 0.0
58, 0.0
59, 0.0
60, 0.0
61, 0.0
62, 0.0
63, 0.0
64, 0.0
65, 0.0
66, 0.0
67, 0.0
68, 0.0
69, 0.0
70, 0.0
71, 0.0
72, 0.0
73, 0.0
74, 0.0
75, 0.0
76, 0.0
77, 0.0
78, 0.0
79, 0.0
80, 0.0
81, 0.0
82, 0.0
83, 0.0
84, 0.0
85, 0.0
86, 0.0
87, 0.0
88, 0.0
89, 0.0
90, 0.0
91, 0.0
92, 0.0
93, 0.0
94, 0.0
95, 0.0
96, 0.0
97, 0.0
98, 0.0
99, 0.0
100, 0.0
101, 0.0
102, 0.0
103, 0.0
104, 0.0
105, 0.0
106, 0.0
107, 0.0
108, 0.0
109, 0.0
110, 0.0
111, 0.0
112, 0.0
113, 0.0
114, 0.0
115, 0.0
116, 0.0
117, 0.0
118, 0.0
119, 0.0
120, 0.0
121, 0.0
122, 0.0
123, 0.0
124, 0.0
125, 0.0
126, 0.0
127, 0.0
128, 0.0
129.0, 0.0003698995934500549
130.0, 0.002622371882606307
131.0, 0.013369577902944284
132.0, 0.029829484276569233
133.0, 0.04863818390485113
134.0, 0.06979799694886701
135.0, 0.1013809146800498
136.0, 0.12920866900837283
137.0, 0.1594196661269199
138.0, 0.194588929488245
139.0, 0.22201574831486576
140.0, 0.2367877120332942
141.0, 0.23551677404983445
142.0, 0.22648429806375434
143.0, 0.2277237016957871
144.0, 0.22479909379001128
145.0, 0.2204870347316475
146.0, 0.21479907236300516
147.0, 0.2061352912460817
148.0, 0.2009154301255737
149.0, 0.1902747640762191
150.0, 0.18600060066937785
151.0, 0.20226965794106516
152.0, 0.2218715275592743
153.0, 0.23900150981405158
154.0, 0.24563372616942783
155.0, 0.24459999505002866
156.0, 0.24352210688055762
157.0, 0.24855350739937324
158.0, 0.2529242462081138
159.0, 0.2604324230652833
160.0, 0.278967702757898
161.0, 0.30962367642747357
162.0, 0.3271093949805289
163.0, 0.3195367214037508
164.0, 0.2860262544036661
165.0, 0.23766969705716462
166.0, 0.1831631797916536
167.0, 0.1300602501752173
168.0, 0.08473175599596627
169.0, 0.05131441786262154
170.0, 0.02418031275972348
171.0, 0.004403605665408606
172.0, 0.009970490586688528
173.0, 0.021481345653213225
174.0, 0.023281593533378907
175.0, 0.025300107054600663
176.0, 0.02806985363045006
177.0, 0.02759365689708645
178.0, 0.020472624236181975
179.0, 0.012474943792976926
180.0, 0.007204185237654618
181.0, 0.0022612454858717814
182.0, 0.007644242828452595
183.0, 0.01921753478447636
184.0, 0.030019499371611025
185.0, 0.04050007798159133
186.0, 0.050784298411178576
187.0, 0.054776679934497266
188.0, 0.06178269029687036
189.0, 0.07035887593460016
190.0, 0.07842820771661006
191.0, 0.08864283962995974
192.0, 0.09296742963505863
193.0, 0.10038530952413317
194.0, 0.11146210032369001
195.0, 0.11837070976796105
196.0, 0.12238265053524798
197.0, 0.12877866128008644
198.0, 0.13739740119095173
199.0, 0.14689134962052533
200.0, 0.15975345926962903
201.0, 0.16621094929733377
202.0, 0.16844054361012692
203.0, 0.16883127062224593
204.0, 0.1670452040770322
205.0, 0.1626179711432969
206.0, 0.15626314504825897
207.0, 0.1521318450203864
208.0, 0.1546221232138396
209.0, 0.1619628070050221
210.0, 0.17007029000596463
211.0, 0.18067968544975613
212.0, 0.19231822600964005
213.0, 0.19711449822566735
214.0, 0.20440547837094244
215.0, 0.20619251628555832
216.0, 0.20072150503642688
217.0, 0.1919406880705472
218.0, 0.1855806982541439
219.0, 0.18392474316513877
220.0, 0.18223676166320774
221.0, 0.17728866619603692
222.0, 0.17187618350900505
223.0, 0.16557391924992007
224.0, 0.1559373853843444
225.0, 0.14524477591173482
226.0, 0.137795305614834
227.0, 0.12202863335481759
228.0, 0.11089561703806197
229.0, 0.09776299874288304
230.0, 0.07750535055685441
231.0, 0.06216057194446405
232.0, 0.05906083476450216
233.0, 0.053187038463497704
234.0, 0.04531914900441065
235.0, 0.047573423935316016
236.0, 0.04658970722964871
237.0, 0.05086766894835175
238.0, 0.06129713039233825
239.0, 0.07398491734371276
240.0, 0.08190136942650467
241.0, 0.09908412496745846
242.0, 0.11488479536026398
243.0, 0.13103094920953207
244.0, 0.1555055153362083
245.0, 0.1753369945405396
246.0, 0.19484333381779775
247.0, 0.21452832622756204
248.0, 0.2332729066834174
249.0, 0.25038020639717423
250.0, 0.2600506509109105
251.0, 0.2661134367666696
252.0, 0.26731858885587634
253.0, 0.26001771820998393
254.0, 0.24809630819907927
255.0, 0.23153941045511023
256.0, 0.21076144675715527
257.0, 0.1864143753854754
258.0, 0.1605248962047191
259.0, 0.14100493642478518
260.0, 0.11881530811923362
261.0, 0.0935677037762236
262.0, 0.07144375395380867
263.0, 0.05687137742789971
264.0, 0.043511379439170265
265.0, 0.026150682159037597
266.0, 0.011990828603886746
267.0, 0.016181333700552924
268.0, 0.018956237485246465
269.0, 0.022777269366140145
270.0, 0.028822930491038064
271.0, 0.03690836472860701
272.0, 0.04631068847610661
273.0, 0.0561122808110806
274.0, 0.07211116739480093
275.0, 0.09159486869970145
276.0, 0.10708694968748565
277.0, 0.12232365297293825
278.0, 0.13591457109476549
279.0, 0.14933585698443855
280.0, 0.1623441695111073
281.0, 0.17128695140328684
282.0, 0.1820544614954799
283.0, 0.1853244659145408
284.0, 0.18738479625566967
285.0, 0.19712534191439715
286.0, 0.20534772575975718
287.0, 0.21222624271121585
288.0, 0.22648115427824297
289.0, 0.25076674152908957
290.0, 0.27887135145849046
291.0, 0.30420385414663864
292.0, 0.34429831063159944
293.0, 0.3867230250309998
294.0, 0.42340153821605103
295.0, 0.47108559760989804
296.0, 0.5254575891149966
297.0, 0.579964851777879
298.0, 0.6275585489494927
299.0, 0.6656766030876323
300.0, 0.7013587234706429
301.0, 0.7213531986758921
302.0, 0.7218378458807791
303.0, 0.7082903655539661
304.0, 0.6881079744470099
305.0, 0.6614169299363625
306.0, 0.6307796498163306
307.0, 0.5928599882450417
308.0, 0.5516211192208041
309.0, 0.5194634940409378
310.0, 0.4845142177446456
311.0, 0.4562957610429291
312.0, 0.4327466082500464
313.0, 0.4097868464601432
314.0, 0.39365669643843304
315.0, 0.37692564844298354
316.0, 0.3672930765658701
317.0, 0.36510037328632766
318.0, 0.3634692769874997
319.0, 0.35563255846166003
320.0, 0.3457049761834258
321.0, 0.3385870030924851
322.0, 0.33461220324394114
323.0, 0.3306322141768813
324.0, 0.32676953738235254
325.0, 0.3283693975033573
326.0, 0.33446797820124546
327.0, 0.34203052823573993
328.0, 0.347981968080077
329.0, 0.35568804243645047
330.0, 0.36182783955418685
331.0, 0.3622530179583548
332.0, 0.35504058189223386
333.0, 0.34350360860725404
334.0, 0.3226354084525167
335.0, 0.2929073349807045
336.0, 0.2616434127149618
337.0, 0.23450277356885954
338.0, 0.19510502486319195
339.0, 0.1571021432489152
340.0, 0.12276829813940211
341.0, 0.09148242788937191
342.0, 0.06332917575596098
343.0, 0.03676603296278333
344.0, 0.020417320762561593
345.0, 0.007096275241175225
346.0, 0.006717605157226061
347.0, 0.014661775662213015
348.0, 0.020866686284677815
349.0, 0.027856336744988663
350.0, 0.03242948231175002
351.0, 0.03142247274509658
352.0, 0.025424305637109772
353.0, 0.021887760288380267
354.0, 0.01864226943539691
355.0, 0.012060903656810933
356.0, 0.0021050782669555777
357.0, 0.006595506685871947
358.0, 0.01655615097706003
359.0, 0.024881209378258724
360.0, 0.033283331260407396
361.0, 0.0450360617267289
362.0, 0.0606309124728711
363.0, 0.06894642978729064
364.0, 0.07541613417640229
365.0, 0.0846467835255778
366.0, 0.09788850491796591
367.0, 0.1136103241596174
368.0, 0.13010881433257437
369.0, 0.1397062543310081
370.0, 0.14444588118260948
371.0, 0.15311972117277464
372.0, 0.16314038997997315
373.0, 0.1653394464152438
374.0, 0.16415211982231434
375.0, 0.1635134799108462
376.0, 0.16326243882086183
377.0, 0.1595299494995113
378.0, 0.15950791512957935
379.0, 0.15696159667617376
380.0, 0.15080269224330708
381.0, 0.1492096758444581
382.0, 0.14799775094180212
383.0, 0.14780473375964964
384.0, 0.1485372546006091
385.0, 0.150915926998486
386.0, 0.15645722312694746
387.0, 0.16284562729560695
388.0, 0.17200193222756843
389.0, 0.18353147138444736
390.0, 0.19604365011396804
391.0, 0.208213278185322
392.0, 0.22536525070585603
393.0, 0.24490240883624745
394.0, 0.2669696662333305
395.0, 0.2887888693322186
396.0, 0.30495518643641384
397.0, 0.3312028563974503
398.0, 0.34976304559441534
399.0, 0.36626944539954875
400.0, 0.3851308222140004
401.0, 0.3967010490944097
402.0, 0.41388259521492105
403.0, 0.4237095272830518
404.0, 0.424557535746419
405.0, 0.42004671491426604
406.0, 0.41560982355209175
407.0, 0.411741828073162
408.0, 0.39842021773795466
409.0, 0.3795705725748009
410.0, 0.36267445498607315
411.0, 0.3474360704308981
412.0, 0.3317344255773184
413.0, 0.31897713795069693
414.0, 0.3091144779086416
415.0, 0.29983236122994283
416.0, 0.28915673411649034
417.0, 0.2771679606588628
418.0, 0.2666960864300796
419.0, 0.254004952121631
420.0, 0.23889083313321421
421.0, 0.22595746199046013
422.0, 0.20635290358017325
423.0, 0.18865285295575118
424.0, 0.1744093635874747
425.0, 0.163063376189257
426.0, 0.15562317904694598
427.0, 0.154257320514896
428.0, 0.15097586286339693
429.0, 0.14826724546110942
430.0, 0.1492580391419622
431.0, 0.1532663797575812
432.0, 0.15314749990918505
433.0, 0.15235480931293546
434.0, 0.14953680191759308
435.0, 0.1413535277004389
436.0, 0.1266003875014944
437.0, 0.10961210982344892
438.0, 0.08692249307737877
439.0, 0.0634863853708136
440.0, 0.044828411727299
441.0, 0.0321807517111385
442.0, 0.02015189324864872
443.0, 0.014676747015151079
444.0, 0.007736785875177568
445.0, 0.0009983161858395765
446.0, 0.0007228991611570722
447.0, 0.00488396270216594
448.0, 0.005837619506202085
449.0, 0.003934224344327415
450.0, 0.0022430475554629232
451.0, 0.0017621807224026075
452.0, 0.0015109007238619228
453.0, 0.008233686320600248
454.0, 0.011524982685717309
455.0, 0.017310089291853875
456.0, 0.030076846096202575
457.0, 0.039322329440412855
458.0, 0.04958799317890165
459.0, 0.06342867711313972
460.0, 0.07771229442984146
461.0, 0.09170551482873439
462.0, 0.1095470572529188
463.0, 0.12696718130533768
464.0, 0.14557525850722292
465.0, 0.1650022509633036
466.0, 0.18591305516182888
467.0, 0.2096931726439023
468.0, 0.23262894736450573
469.0, 0.2560501216610194
470.0, 0.2774734702875926
471.0, 0.2998170153522951
472.0, 0.32629812829206134
473.0, 0.34934113418010565
474.0, 0.36583536700916686
475.0, 0.38386333972594455
476.0, 0.4000168901032953
477.0, 0.40786947845387295
478.0, 0.4116043654314151
479.0, 0.40937209383916945
480.0, 0.4004242390512297
481.0, 0.38669572606353086
482.0, 0.3695671326694488
483.0, 0.34895567199604355
484.0, 0.3288499838753942
485.0, 0.31436266705253985
486.0, 0.2975163888439555
487.0, 0.2787015698430831
488.0, 0.2674928270998414
489.0, 0.25980441022295514
490.0, 0.2507232945953773
491.0, 0.2444145883497266
492.0, 0.23893831651837616
493.0, 0.2306455674176189
494.0, 0.22386166356141823
495.0, 0.21144276866534936
496.0, 0.19472410053557623
497.0, 0.17669442136784627
498.0, 0.1581714376712825
499.0, 0.1378404004482302
500.0, 0.1191777911002423
501.0, 0.10107100689416747
502.0, 0.08412325282086977
503.0, 0.06956414026370682
504.0, 0.05750328076564498
505.0, 0.045468618663820466
506.0, 0.03592808370624177
507.0, 0.02705595091632236
508.0, 0.020017171110205234
509.0, 0.016509076591466075
510.0, 0.012681410208109378
511.0, 0.007724568176914726
512.0, 0.0023555028566429057
513.0, 0.0009444695110322575
514.0, 0.002195195746738752
515.0, 0.0040724968672902545
516.0, 0.0032145705162003164
517.0, 0.006609405853277722
518.0, 0.009074227243176287
519.0, 0.008130429766019466
520.0, 0.007266684181787309
521.0, 0.010542586022807795
522.0, 0.008438170944334793
523.0, 0.005606179626195686
524.0, 0.006218468626087214
525.0, 0.008942266280546333
526.0, 0.005899885527449262
527.0, 0.0008996171452051653
528.0, 0.0016002580170642498
529.0, 0.0011414953709584482
530.0, 0.00240146502199666
531.0, 0.004148288254755439
532.0, 0.006427698735800107
533.0, 0.011080567780381665
534.0, 0.015622610518611064
535.0, 0.01859013311976688
536.0, 0.02045828937291735
537.0, 0.02321479277293928
538.0, 0.029421317373417966
539.0, 0.03967255696114081
540.0, 0.04728356262028661
541.0, 0.051340324211399696
542.0, 0.05811065529843402
543.0, 0.06677644592644191
544.0, 0.07446453913861509
545.0, 0.08250585858018343
546.0, 0.09062590760963163
547.0, 0.0972546006702235
548.0, 0.10161167786349856
549.0, 0.10583660186726666
550.0, 0.10780115747445158
551.0, 0.1056511887523877
552.0, 0.1015458029031496
553.0, 0.09806501358076666
554.0, 0.08820287310750667
555.0, 0.07571533719990367
556.0, 0.06796923657540718
557.0, 0.060968969368042414
558.0, 0.05258919387430865
559.0, 0.04947091367291858
560.0, 0.046728025674375
561.0, 0.043327033142201
562.0, 0.04150729601556797
563.0, 0.041916843740670624
564.0, 0.043356950242244625
565.0, 0.04294485551568644
566.0, 0.0431234884214934
567.0, 0.04364718482645205
568.0, 0.042808481127179825
569.0, 0.04152471712734593
570.0, 0.042849371182032664
571.0, 0.04487196286094592
572.0, 0.046616074337594925
573.0, 0.04804064630259568
574.0, 0.04912649449036339
575.0, 0.049506598132367664
576.0, 0.05029298859699098
577.0, 0.049850703273761496
578.0, 0.05400825937376591
579.0, 0.05655733679075202
580.0, 0.05702400994567917
581.0, 0.059903510310943014
582.0, 0.06346229989135813
583.0, 0.06814350812271126
584.0, 0.07574533394693127
585.0, 0.0838409181913653
586.0, 0.09037354003309517
587.0, 0.09780429812436876
588.0, 0.11134614721915598
589.0, 0.12700291498862762
590.0, 0.14289123177622484
591.0, 0.1603784294545802
592.0, 0.18239629192858756
593.0, 0.2113337487998015
594.0, 0.24007046071490987
595.0, 0.27105216947546223
596.0, 0.3061044999183333
597.0, 0.34399684612826403
598.0, 0.38348438005308
599.0, 0.42651811558681346
600.0, 0.47244361518937655
601.0, 0.5269288013179094
602.0, 0.5888105599677175
603.0, 0.6509468911746471
604.0, 0.7087791669271912
605.0, 0.7726481725584649
606.0, 0.8250413147847091
607.0, 0.871169981415256
608.0, 0.9071582494238892
609.0, 0.9262282559237428
610.0, 0.928857522510379
611.0, 0.9211730834205453
612.0, 0.8877055579038289
613.0, 0.845540090442425
614.0, 0.8054192446821739
615.0, 0.7702211107233046
616.0, 0.739736071182104
617.0, 0.7091066636158596
618.0, 0.6876584713597514
619.0, 0.67297342192703
620.0, 0.6595976581631933
621.0, 0.6488937428985506
622.0, 0.6493227391969099
623.0, 0.6523313002273948
624.0, 0.651317624912187
625.0, 0.6487723753491444
626.0, 0.6457896580605319
627.0, 0.6378436557995613
628.0, 0.6186564301561673
629.0, 0.5890736542175176
630.0, 0.5546767801723549
631.0, 0.5142094963015461
632.0, 0.4658413227316719
633.0, 0.4130096097533923
634.0, 0.36481465194184837
635.0, 0.31746781415412667
636.0, 0.2746353252109397
637.0, 0.23928571731903014
638.0, 0.20978438675843086
639.0, 0.18367804106398553
640.0, 0.16170161949938786
641.0, 0.14057413322915135
642.0, 0.12603255061702462
643.0, 0.11493348756008599
644.0, 0.10263212495213933
645.0, 0.08894760036085415
646.0, 0.07895197482401799
647.0, 0.0717312843897016
648.0, 0.06693312842829104
649.0, 0.0617315725121423
650.0, 0.05467179106106708
651.0, 0.04804204582222029
652.0, 0.044918766761966634
653.0, 0.04001510680641943
654.0, 0.03916513270001391
655.0, 0.03600499252425618
656.0, 0.030870996515463423
657.0, 0.02795766183143545
658.0, 0.02345986305283826
659.0, 0.020360678438530816
660.0, 0.018009887866754986
661.0, 0.015495628973294467
662.0, 0.015311181920773149
663.0, 0.01625205000095496
664.0, 0.010993681101931775
665.0, 0.010531876274019329
666.0, 0.007938379927228702
667.0, 0.007230404109038656
668.0, 0.006969897721550263
669.0, 0.0045366784626240456
670.0, 0.004073674911421081
671.0, 0.003583190459052269
672.0, 0.0033126681163336484
673.0, 0.0022726082014540706
674.0, 0.0004920338804429216
675.0, 0.0012729045472033025
676.0, 0.0015828636441423728
677.0, 0.0025418163180192387
678.0, 0.0007626086999652816
679.0, 0.00047228486471070853
680.0, 0.0008998040072276232
681.0, 0.0019500614557428752
682.0, 0.002899661614887306
683.0, 0.002195242183438688
684.0, 0.0005600971247409494
685.0, 0.0003635453443070066
686.0, 0.0004383222539294231
687.0, 0.0012617230638104495
688.0, 0.001991463749687986
689.0, 0.0026415884676785017
690.0, 0.0014577200119754352
691.0, 0.001667700744357902
692.0, 0.0027763392893326755
693.0, 0.004499263055012166
694.0, 0.006026100699534419
695.0, 0.0036466284732130654
696.0, 0.004843815904794761
697.0, 0.006032207860516513
698.0, 0.0028835917743636782
699.0, 0.0003085167600780438
700.0, 0.002528217511034178
701.0, 0.0031468298060935325
702.0, 0.0021845111050577443
703.0, 0.0018005068838230238
704.0, 0.0005446553977964158
705.0, 0.0001869954068659146
706.0, 0.0009549193331472258
707.0, 0.0018997411161615458
708.0, 0.000339318379304971
709.0, 9.401042839621076e-05
710.0, 0.0028422187641005637
711.0, 0.003860497484974556
712.0, 0.0017338812744313267
713.0, 0.0005450048938750802
714.0, 0.00018595100956832707
715.0, 0.0025634936633639064
716.0, 0.00420997404942321
717.0, 0.0036245392730045295
718.0, 0.0031854150797737905
719.0, 0.004123281240641541
720.0, 0.0036563961445908255
721.0, 0.0036280373516944134
722.0, 0.004287124635449383
723.0, 0.0042554483004212645
724.0, 0.004737234020293545
725.0, 0.007615072165551961
726.0, 0.0047489478187768336
727.0, 0.003870042855117898
728.0, 0.003132611955864845
729.0, 0.006471647120228179
730.0, 0.006048460876397336
731.0, 0.00882558420662737
732.0, 0.008503452161230326
733.0, 0.00536385182026538
734.0, 0.008012296517629929
735.0, 0.009706873102118862
736.0, 0.008479772792439062
737.0, 0.0059318579887505905
738.0, 0.0066244528143901225
739.0, 0.007386583676154482
740.0, 0.009415979759801163
741.0, 0.007968577693764628
742.0, 0.007729646050336073
743.0, 0.007806927102592462
744.0, 0.009345644107328487
745.0, 0.007536383542929568
746.0, 0.006080629809015023
747.0, 0.006809345718373453
748.0, 0.007972721949285569
749.0, 0.009409667698014284
750.0, 0.007300386702413685
751.0, 0.010126536424390618
752.0, 0.007349060799856368
753.0, 0.007652364733786824
754.0, 0.005302798517938523
755.0, 0.004667218395904139
756.0, 0.0029558164518800234
757.0, 0.0034536130001175873
758.0, 0.005166764679602124
759.0, 0.0054250477071507135
760.0, 0.006941437964562663
761.0, 0.00727994621548312
762.0, 0.006531113255379598
763.0, 0.004312048176796284
764.0, 0.003688679723193682
765.0, 0.005845048697126799
766.0, 0.0036886040381306
767.0, 0.006475195006972332
768.0, 0.0062310369495968
769.0, 0.007317327256661251
770.0, 0.007676539033272676
771.0, 0.00509985521960862
772.0, 0.003907944177949973
773.0, 0.007755339033975022
774.0, 0.005518420365370841
775.0, 0.006979679621309267
776.0, 0.007283204420615963
777.0, 0.006807096185628266
778.0, 0.0070030400682197305
779.0, 0.005384977839855981
780.0, 0.006301610762472691
781.0, 0.007729008239291612
782.0, 0.005595108063949619
783.0, 0.007136262194549957
784.0, 0.00930152306370885
785.0, 0.0074324826926596465
786.0, 0.007542372178563842
787.0, 0.007773306177251516
788.0, 0.006668304454073363
789.0, 0.00436300026180989
790.0, 0.004359073180830614
791.0, 0.0065600831186765265
792.0, 0.008078541327434914
793.0, 0.006785430733426887
794.0, 0.0026634531311548904
795.0, 0.008544344026499246
796.0, 0.00902842408664338
797.0, 0.006020020168317829
798.0, 0.005697874272521423
799.0, 0.006397122400830111
800.0, 0.004789170622332073
801.0, 0.006769984826101256
802.0, 0.007230923046904881
803.0, 0.008341875016655741
804.0, 0.006523491557977462
805.0, 0.004840331970319865
806.0, 0.00838226688195765
807.0, 0.009755413698473556
808.0, 0.009302789760147893
809.0, 0.009640224859692409
810.0, 0.009582696481865752
811.0, 0.007388793206889744
812.0, 0.0077327072848612744
813.0, 0.011228548209731504
814.0, 0.0065501423618640805
815.0, 0.009323207652811293
816.0, 0.008619883332655533
817.0, 0.008886177559283193
818.0, 0.009796422419617703
819.0, 0.00992051568712422
820.0, 0.010303588909311984
821.0, 0.011020448846358505
822.0, 0.013110280000956799
823.0, 0.013224608681214865
824.0, 0.012316315077194214
825.0, 0.01087077767844678
826.0, 0.011194070561036074
827.0, 0.01563027328221635
828.0, 0.020840963855725335
829.0, 0.017450080418956963
830.0, 0.020874958154114776
831.0, 0.019863014084343794
832.0, 0.019767824467581276
833.0, 0.02322534099762295
834.0, 0.026021283348464135
835.0, 0.02766400956507556
836.0, 0.02694950594722185
837.0, 0.027500951292674325
838.0, 0.027282709803036865
839.0, 0.027370454108541553
840.0, 0.028845281524339555
841.0, 0.02989750067235024
842.0, 0.028924341676418323
843.0, 0.029319875400353128
844.0, 0.03175335552151204
845.0, 0.030301864634405398
846.0, 0.030016478625330186
847.0, 0.02944456369314147
848.0, 0.02706191683297233
849.0, 0.02562227531341734
850.0, 0.024207879564375742
851.0, 0.02449121210502426
852.0, 0.027059027154415483
853.0, 0.025108002948248418
854.0, 0.023893646530096315
855.0, 0.023936043284796506
856.0, 0.02297820875517217
857.0, 0.026770675894088814
858.0, 0.024817820551570658
859.0, 0.026023227456530077
860.0, 0.023924796311018577
861.0, 0.02730787953113595
862.0, 0.028724685662729513
863.0, 0.023981564908514403
864.0, 0.02775421010914749
865.0, 0.026754337701449533
866.0, 0.02576598625004405
867.0, 0.029600073837390967
868.0, 0.028172484577460948
869.0, 0.02849620635184688
870.0, 0.030323110034408206
871.0, 0.029557774496790055
872.0, 0.03152209451895128
873.0, 0.029516767928001286
874.0, 0.032893597039871825
875.0, 0.032100232770703147
876.0, 0.029358043511253432
877.0, 0.030321905524555656
878.0, 0.029306051379449926
879.0, 0.030055912525721526
880.0, 0.025779083115483055
881.0, 0.026997365056857004
882.0, 0.026898490927048345
883.0, 0.0243552052924134
884.0, 0.023844465565732314
885.0, 0.02366791230287281
886.0, 0.020816375524875037
887.0, 0.022361351527003793
888.0, 0.02166771046486034
889.0, 0.023678641870930817
890.0, 0.01995062280716914
891.0, 0.01696212768412032
892.0, 0.01715301594748428
893.0, 0.016673867595117325
894.0, 0.014366348851629837
895.0, 0.013034223890038815
896.0, 0.01547285254833222
897.0, 0.01449972758236082
898.0, 0.013420900807202058
899.0, 0.01208431624228714
900.0, 0.010243181461625856
901.0, 0.009174749391951956
902.0, 0.00906124340205162
903.0, 0.008537759522386045
904.0, 0.008139931523582711
905.0, 0.00763751064568941
906.0, 0.005258769829405265
907.0, 0.0037682866873814955
908.0, 0.003494688415446092
909.0, 0.002012222348795538
910.0, 0.0005211720662636481
911.0, 0.001446390546548643
912.0, 0.0026702928688171887
913.0, 0.0020149053884881006
914.0, 0.0010673915276411023
915.0, 0.002477099526964816
916.0, 0.0056233797255012
917.0, 0.0031554535201802104
918.0, 0.0011963177648428023
919.0, 0.0045785933013402485
920.0, 0.0037383482959627455
921.0, 0.0031519788251735377
922.0, 0.003156484640581168
923.0, 0.0027266072696988802
924.0, 0.0038779821133053632
925.0, 0.007585985662230169
926.0, 0.009661894475709594
927.0, 0.008202698608986507
928.0, 0.007539988387454357
929.0, 0.005080869805046013
930.0, 0.005646457397474873
931.0, 0.008256201926086663
932.0, 0.00774440088270503
933.0, 0.0047861213453084875
934.0, 0.005761567975156771
935.0, 0.004007932109740597
936.0, 0.0029486704936256057
937.0, 0.003405570558791639
938.0, 0.002140855545943683
939.0, 0.0008602268603171844
940.0, 0.002563889506687657
941.0, 0.0033818594935598736
942.0, 0.0060428744004008125
943.0, 0.004982212497890722
944.0, 0.008542871030133034
945.0, 0.01255636325683036
946.0, 0.014994978665108008
947.0, 0.01848270281932008
948.0, 0.023006658679595143
949.0, 0.026298534758651033
950.0, 0.030354087339431103
951.0, 0.03894273222713641
952.0, 0.04669684711157832
953.0, 0.05381143222772955
954.0, 0.06062209929820012
955.0, 0.07163581987531778
956.0, 0.08380713704125504
957.0, 0.09342361773710235
958.0, 0.10547422680109433
959.0, 0.12182836300057501
960.0, 0.13609121526792983
961.0, 0.15318197075596288
962.0, 0.17184026554992496
963.0, 0.19068599111608472
964.0, 0.20713540297852284
965.0, 0.22548605787509046
966.0, 0.249367913452687
967.0, 0.2685964481820539
968.0, 0.2924047965554513
969.0, 0.31734680788619396
970.0, 0.34457963399583613
971.0, 0.3723722960036059
972.0, 0.39461986247465564
973.0, 0.4132406473884361
974.0, 0.4341995952481384
975.0, 0.4562027357569573
976.0, 0.47905608077076606
977.0, 0.495433509078469
978.0, 0.5169206025897198
979.0, 0.544065969267053
980.0, 0.5745730204211386
981.0, 0.6096268839234529
982.0, 0.6508783950903422
983.0, 0.6975739092236138
984.0, 0.7478345361684678
985.0, 0.7997592488424868
986.0, 0.8423840561445617
987.0, 0.8833057280410012
988.0, 0.9079835508576164
989.0, 0.9154410221096901
990.0, 0.911047623875161
991.0, 0.8985597176580872
992.0, 0.8822840363619983
993.0, 0.8589790334309683
994.0, 0.8385198288736266
995.0, 0.8230778557026429
996.0, 0.8021653233731103
997.0, 0.779565955204832
998.0, 0.7518695295586396
999.0, 0.7169497975381681
1000.0, 0.6787999827715965
1001.0, 0.6407137281509258
1002.0, 0.6109327184854061
1003.0, 0.5912109076528573
1004.0, 0.5743030289449115
1005.0, 0.5571427103920725
1006.0, 0.5446992082511137
1007.0, 0.5355997712695911
1008.0, 0.5254112922570502
1009.0, 0.5123080227020693
1010.0, 0.4962958313338325
1011.0, 0.4798129345974277
1012.0, 0.45193917134108014
1013.0, 0.4266781603748219
1014.0, 0.3936930814168841
1015.0, 0.3627691628831085
1016.0, 0.334483570293458
1017.0, 0.3074675186805297
1018.0, 0.28676678911325565
1019.0, 0.2698993590212058
1020.0, 0.26166731645929675
1021.0, 0.25588938088827823
1022.0, 0.2515847822982604
1023.0, 0.2563767920105575
1024.0, 0.2595573477260947
1025.0, 0.26331980743091543
1026.0, 0.2718583660234766
1027.0, 0.27786719295034923
1028.0, 0.27892831116130873
1029.0, 0.2822791748605591
1030.0, 0.2843158630325624
1031.0, 0.28169706555959034
1032.0, 0.2786752866321534
1033.0, 0.2812570599350899
1034.0, 0.2876094592658455
1035.0, 0.29596899185917064
1036.0, 0.3094138713192831
1037.0, 0.32816013551390527
1038.0, 0.34631781094447656
1039.0, 0.3805281615187026
1040.0, 0.40905253457650864
1041.0, 0.441971158151081
1042.0, 0.4780873464889396
1043.0, 0.5177399253998021
1044.0, 0.5632530392555886
1045.0, 0.6145994473940275
1046.0, 0.6708095681928963
1047.0, 0.7304898355803597
1048.0, 0.7875184127289522
1049.0, 0.8461377624083256
1050.0, 0.9020578891639446
1051.0, 0.9507741280607052
1052.0, 0.9860338162016314
1053.0, 0.9999958315668654
1054.0, 0.995226432521163
1055.0, 0.9740798623809227
1056.0, 0.9279927053085004
1057.0, 0.8699425719567725
1058.0, 0.8019380427970612
1059.0, 0.7281975083534616
1060.0, 0.6547409582028328
1061.0, 0.5817372916563865
1062.0, 0.5153791911502631
1063.0, 0.45278521581186976
1064.0, 0.38881562000498054
1065.0, 0.32690330412949
1066.0, 0.26727110948936716
1067.0, 0.22102796786886691
1068.0, 0.1744921119459369
1069.0, 0.13974506796526773
1070.0, 0.11120731951420755
1071.0, 0.08780679645081421
1072.0, 0.06774047758046232
1073.0, 0.050453338551448804
1074.0, 0.03786172963265881
1075.0, 0.027564014186352653
1076.0, 0.014562786287346743
1077.0, 0.007791381663652917
1078.0, 0.003140313244892226
1079.0, 0.0018840385216369899
1080.0, 0.007978087738452821
1081.0, 0.011713332218412451
1082.0, 0.01174924506614226
1083.0, 0.012336757340647056
1084.0, 0.01601968392035943
1085.0, 0.018532857833970684
1086.0, 0.017310428559312977
1087.0, 0.013218780456499098
1088.0, 0.015154543409110679
1089.0, 0.011274392273629332
1090.0, 0.004666861197646997
1091.0, 0.0008195045085088569
1092.0, 0.002237014639353557
1093.0, 0.007499022565701817
1094.0, 0.015956866013382393
1095.0, 0.025263407788501654
1096.0, 0.02778921413497414
1097.0, 0.037203149798481126
1098.0, 0.04517478797779479
1099.0, 0.04669437938674702
1100.0, 0.05450007306339968
1101.0, 0.06112693502926261
1102.0, 0.06291469020834975
1103.0, 0.06162702946995683
1104.0, 0.058232951852995936
1105.0, 0.054894311983816016
1106.0, 0.05347900850372293
1107.0, 0.046441216833686516
1108.0, 0.04272786710506641
1109.0, 0.035324727498925845
1110.0, 0.030111343031396634
1111.0, 0.026175204546606125
1112.0, 0.022790589943113483
1113.0, 0.021944452720124095
1114.0, 0.02105391539460483
1115.0, 0.01868318250349007
1116.0, 0.020823472507249252
1117.0, 0.02382688429202073
1118.0, 0.02855743780907719
1119.0, 0.03380629820722292
1120.0, 0.040342758674689116
1121.0, 0.04767034438467493
1122.0, 0.05582316623411814
1123.0, 0.06610861825356752
1124.0, 0.07556774120954972
1125.0, 0.08286536101138825
1126.0, 0.09365088136660522
1127.0, 0.10770265292464071
1128.0, 0.1161759929885222
1129.0, 0.12640200055363585
1130.0, 0.13630483808778837
1131.0, 0.14387807255517304
1132.0, 0.14459741365550008
1133.0, 0.1446791866887428
1134.0, 0.14381667846205273
1135.0, 0.13642555417406904
1136.0, 0.12298245924731271
1137.0, 0.10858584526801343
1138.0, 0.0960126346677496
1139.0, 0.08317085461236379
1140.0, 0.06817311884797811
1141.0, 0.05755693157126436
1142.0, 0.04372768772302864
1143.0, 0.03334307724608475
1144.0, 0.02245905024641439
1145.0, 0.014546857505392573
1146.0, 0.01056084403986925
1147.0, 0.006160833618679602
1148.0, 0.003830349487333698
1149.0, 0.0016053145499907336
1150.0, 0.00311260250196638
1151.0, 0.0006392856124495756
1152.0, 0.0010475155084462783
1153.0, 0.0011981034350965938
1154.0, 0.0015339105467182246
1155.0, 0.00019010153197465023
1156.0, 0.0005810212351604222
1157.0, 0.002538520126514395
1158.0, 0.004727184314218116
1159.0, 0.004556701640407307
1160.0, 0.011977083608708392
1161.0, 0.014012906502781468
1162.0, 0.016313043793724814
1163.0, 0.020453722321833595
1164.0, 0.024666377577374304
1165.0, 0.030177760423474045
1166.0, 0.03821811350719839
1167.0, 0.04596477586493174
1168.0, 0.051785208273948974
1169.0, 0.05918542638434466
1170.0, 0.06704893511327224
1171.0, 0.06871630305866944
1172.0, 0.07359816427547591
1173.0, 0.0747020643516831
1174.0, 0.07511462738029286
1175.0, 0.07549622443069638
1176.0, 0.06828459885749665
1177.0, 0.06437221605870613
1178.0, 0.059969781583680444
1179.0, 0.05372577942356333
1180.0, 0.04889279783131075
1181.0, 0.037835054360257345
1182.0, 0.03184303777150246
1183.0, 0.030079923533670512
1184.0, 0.025550802357371196
1185.0, 0.01833480688391929
1186.0, 0.01902419399664314
1187.0, 0.014650095878090418
1188.0, 0.011183223622128749
1189.0, 0.009808100070717033
1190.0, 0.007532681102915235
1191.0, 0.00765812919191673
1192.0, 0.008212668945847027
1193.0, 0.005049090388746926
1194.0, 0.003531250102448223
1195.0, 0.005817384605564159
1196.0, 0.0033104251104627653
1197.0, 0.005547290226013438
1198.0, 0.0032348117066257702
1199.0, 0.0056281676291491355
1200.0, 0.003742511055176272
1201.0, 0.0015370652149954195
1202.0, 0.002884084448933387
1203.0, 0.0028502678640815755
1204.0, 0.0022927752101354563
1205.0, 0.0027157994300155276
1206.0, 0.0024407396914318466
1207.0, 0.0026178700968692956
1208.0, 0.000861790624545469
1209.0, 0.0007398415603744627
1210.0, 0.000844568808565573
1211.0, 0.001261327647068449
1212.0, 0.0016592704214006527
1213.0, 0.0024494704889363476
1214.0, 0.0010596721015695074
1215.0, 0.0005334962090760345
1216.0, 0.0007844396961674026
1217.0, 0.0011795783096578709
1218.0, 0.001229433518332661
1219.0, 0.00126815548638665
1220.0, 0.0020579341464584604
1221.0, 0.002017008802925333
1222.0, 0.0015975749021186047
1223.0, 0.0050318824694114625
1224.0, 0.0006437598672332462
1225.0, 0.0002978514581930832
1226.0, 0.0027037114606900193
1227.0, 0.003890539107854139
1228.0, 0.004691025639390987
1229.0, 0.0033513683776152372
1230.0, 0.0007478475467019639
1231.0, 0.0010683292465620258
1232.0, 0.0034468009737394305
1233.0, 0.006105307472662873
1234.0, 0.006455443609110011
1235.0, 0.003257418067518981
1236.0, 0.006505697775700691
1237.0, 0.007861928354423337
1238.0, 0.006641482629798601
1239.0, 0.005974597291798207
1240.0, 0.007203955784920315
1241.0, 0.004888026014531603
1242.0, 0.0041897168409326235
1243.0, 0.005493070276969817
1244.0, 0.005696347945648948
1245.0, 0.00658819601657555
1246.0, 0.006029598726776273
1247.0, 0.007592852413796911
1248.0, 0.010290329759211703
1249.0, 0.008965683576368236
1250.0, 0.006730269671103378
1251.0, 0.009643251916119328
1252.0, 0.009609407949184379
1253.0, 0.009666993013765062
1254.0, 0.008013776276865005
1255.0, 0.008520564402969496
1256.0, 0.008615926159283723
1257.0, 0.007645831971000825
1258.0, 0.008415074085437697
1259.0, 0.009781950765632055
1260.0, 0.008086710532103015
1261.0, 0.004175138306375464
1262.0, 0.0068546374152675844
1263.0, 0.006434413161522004
1264.0, 0.0038147619586981667
1265.0, 0.005149841128058628
1266.0, 0.0061136040594494175
1267.0, 0.003877204583023153
1268.0, 0.006525618226489818
1269.0, 0.007084159558264586
1270.0, 0.004937837895031724
1271.0, 0.003618632042906878
1272.0, 0.0029744309973756145
1273.0, 0.004316566411417415
1274.0, 0.0059942196089998664
1275.0, 0.005145052598939731
1276.0, 0.004330893693513105
1277.0, 0.00030558469791753986
1278.0, 0.004298638529576302
1279.0, 0.006423455898290027
1280.0, 0.004475809067110837
1281.0, 0.0038099206780418692
1282.0, 0.00492222201902555
1283.0, 0.006030265466959112
1284.0, 0.00576206030610433
1285.0, 0.002824366657068726
1286.0, 0.0014954493814945274
1287.0, 0.002618837232338791
1288.0, 0.0019085493945442521
1289.0, 0.0022617147193833287
1290.0, 0.004588869407806179
1291.0, 0.003181632927883783
1292.0, 0.0008912545053723252
1293.0, 0.00561488790950853
1294.0, 0.002337930869857628
1295.0, 0.0042601924069591126
1296.0, 0.0022394714255844213
1297.0, 0.002355425049126725
1298.0, 0.0007222720919132381
1299.0, 0.001066365371919275
1300.0, 0.00237741419772893
1301.0, 0.0011201644241292704
1302.0, 0.00017763519085246273
1303, 0.0
1304, 0.0
1305, 0.0
1306, 0.0
1307, 0.0
1308, 0.0
1309, 0.0
1310, 0.0
1311, 0.0
1312, 0.0
1313, 0.0
1314, 0.0
1315, 0.0
1316, 0.0
1317, 0.0
1318, 0.0
1319, 0.0
1320, 0.0
1321, 0.0
1322, 0.0
1323, 0.0
1324, 0.0
1325, 0.0
1326, 0.0
1327, 0.0
1328, 0.0
1329, 0.0
1330, 0.0
1331, 0.0
1332, 0.0
1333, 0.0
1334, 0.0
1335, 0.0
1336, 0.0
1337, 0.0
1338, 0.0
1339, 0.0
1340, 0.0
1341, 0.0
1342, 0.0
1343, 0.0
1344, 0.0
1345, 0.0
1346, 0.0
1347, 0.0
1348, 0.0
1349, 0.0
1350, 0.0
1351, 0.0
1352, 0.0
1353, 0.0
1354, 0.0
1355, 0.0
1356, 0.0
1357, 0.0
1358, 0.0
1359, 0.0
1360, 0.0
1361, 0.0
1362, 0.0
1363, 0.0
1364, 0.0
1365, 0.0
1366, 0.0
1367, 0.0
1368, 0.0
1369, 0.0
1370, 0.0
1371, 0.0
1372, 0.0
1373, 0.0
1374, 0.0
1375, 0.0
1376, 0.0
1377, 0.0
1378, 0.0
1379, 0.0
1380, 0.0
1381, 0.0
1382, 0.0
1383, 0.0
1384, 0.0
1385, 0.0
1386, 0.0
1387, 0.0
1388, 0.0
1389, 0.0
1390, 0.0
1391, 0.0
1392, 0.0
1393, 0.0
1394, 0.0
1395, 0.0
1396, 0.0
1397, 0.0
1398, 0.0
1399, 0.0
1400, 0.0
1401, 0.0
1402, 0.0
1403, 0.0
1404, 0.0
1405, 0.0
1406, 0.0
1407, 0.0
1408, 0.0
1409, 0.0
1410, 0.0
1411, 0.0
1412, 0.0
1413, 0.0
1414, 0.0
1415, 0.0
1416, 0.0
1417, 0.0
1418, 0.0
1419, 0.0
1420, 0.0
1421, 0.0
1422, 0.0
1423, 0.0
1424, 0.0
1425, 0.0
1426, 0.0
1427, 0.0
1428, 0.0
1429, 0.0
1430, 0.0
1431, 0.0
1432, 0.0
1433, 0.0
1434, 0.0
1435, 0.0
1436, 0.0
1437, 0.0
1438, 0.0
1439, 0.0
1440, 0.0
1441, 0.0
1442, 0.0
1443, 0.0
1444, 0.0
1445, 0.0
1446, 0.0
1447, 0.0
1448, 0.0
1449, 0.0
1450, 0.0
1451, 0.0
1452, 0.0
1453, 0.0
1454, 0.0
1455, 0.0
1456, 0.0
1457, 0.0
1458, 0.0
1459, 0.0
1460, 0.0
1461, 0.0
1462, 0.0
1463, 0.0
1464, 0.0
1465, 0.0
1466, 0.0
1467, 0.0
1468, 0.0
1469, 0.0
1470, 0.0
1471, 0.0
1472, 0.0
1473, 0.0
1474, 0.0
1475, 0.0
1476, 0.0
1477, 0.0
1478, 0.0
1479, 0.0
1480, 0.0
1481, 0.0
1482, 0.0
1483, 0.0
1484, 0.0
1485, 0.0
1486, 0.0
1487, 0.0
1488, 0.0
1489, 0.0
1490, 0.0
1491, 0.0
1492, 0.0
1493, 0.0
1494, 0.0
1495, 0.0
1496, 0.0
1497, 0.0
1498, 0.0
1499, 0.0
1500, 0.0
1501, 0.0
1502, 0.0
1503, 0.0
1504, 0.0
1505, 0.0
1506, 0.0
1507, 0.0
1508, 0.0
1509, 0.0
1510, 0.0
1511, 0.0
1512, 0.0
1513, 0.0
1514, 0.0
1515, 0.0
1516, 0.0
1517, 0.0
1518, 0.0
1519, 0.0
1520, 0.0
1521, 0.0
1522, 0.0
1523, 0.0
1524, 0.0
1525, 0.0
1526, 0.0
1527, 0.0
1528, 0.0
1529, 0.0
1530, 0.0
1531, 0.0
1532, 0.0
1533, 0.0
1534, 0.0
1535, 0.0
1536, 0.0
1537, 0.0
1538, 0.0
1539, 0.0
1540, 0.0
1541, 0.0
1542, 0.0
1543, 0.0
1544, 0.0
1545, 0.0
1546, 0.0
1547, 0.0
1548, 0.0
1549, 0.0
1550, 0.0
1551, 0.0
1552, 0.0
1553, 0.0
1554, 0.0
1555, 0.0
1556, 0.0
1557, 0.0
1558, 0.0
1559, 0.0
1560, 0.0
1561, 0.0
1562, 0.0
1563, 0.0
1564, 0.0
1565, 0.0
1566, 0.0
1567, 0.0
1568, 0.0
1569, 0.0
1570, 0.0
1571, 0.0
1572, 0.0
1573, 0.0
1574, 0.0
1575, 0.0
1576, 0.0
1577, 0.0
1578, 0.0
1579, 0.0
1580, 0.0
1581, 0.0
1582, 0.0
1583, 0.0
1584, 0.0
1585, 0.0
1586, 0.0
1587, 0.0
1588, 0.0
1589, 0.0
1590, 0.0
1591, 0.0
1592, 0.0
1593, 0.0
1594, 0.0
1595, 0.0
1596, 0.0
1597, 0.0
1598, 0.0
1599, 0.0
