30, 0.0
31, 0.0
32, 0.0
33, 0.0
34, 0.0
35, 0.0
36, 0.0
37, 0.0
38, 0.0
39, 0.0
40, 0.0
41, 0.0
42, 0.0
43, 0.0
44, 0.0
45, 0.0
46, 0.0
47, 0.0
48, 0.0
49, 0.0
50, 0.0
51, 0.0
52, 0.0
53, 0.0
54, 0.0
55, 0.0
56, 0.0
57, 0.0
58, 0.0
59, 0.0
60, 0.0
61, 0.0
62, 0.0
63, 0.0
64, 0.0
65, 0.0
66, 0.0
67, 0.0
68, 0.0
69, 0.0
70, 0.0
71, 0.0
72, 0.0
73, 0.0
74, 0.0
75, 0.0
76, 0.0
77, 0.0
78, 0.0
79, 0.0
80, 0.0
81, 0.0
82, 0.0
83, 0.0
84, 0.0
85, 0.0
86, 0.0
87, 0.0
88, 0.0
89, 0.0
90, 0.0
91, 0.0
92, 0.0
93, 0.0
94, 0.0
95, 0.0
96, 0.0
97, 0.0
98, 0.0
99, 0.0
100, 0.0
101, 0.0
102, 0.0
103, 0.0
104, 0.0
105, 0.0
106, 0.0
107.0, 0.002682768850833443
108.0, 0.015310957525629897
109.0, 0.0024691716087249576
110.0, 0.0030602336296703453
111.0, 0.005609193875732546
112.0, 0.015940583449511804
113.0, 0.029127046166852733
114.0, 0.037713642390629194
115.0, 0.046797912399845966
116.0, 0.06854135415621498
117.0, 0.09842521824337624
118.0, 0.13246798415887923
119.0, 0.17139101113364627
120.0, 0.21382268438047178
121.0, 0.24513813659832384
122.0, 0.26566617472050674
123.0, 0.2728480745276617
124.0, 0.2643892983433859
125.0, 0.24084743383247062
126.0, 0.20719624808888823
127.0, 0.17504403538407926
128.0, 0.15117836043260283
129.0, 0.13113480252660292
130.0, 0.11661879134531164
131.0, 0.10993840866375189
132.0, 0.11042282683975344
133.0, 0.11467298295044238
134.0, 0.12240954277333903
135.0, 0.13482526985809493
136.0, 0.1520570412528078
137.0, 0.17331354180345768
138.0, 0.19925895524252824
139.0, 0.23097293703261007
140.0, 0.2672247714687069
141.0, 0.30389491087722625
142.0, 0.3320289056167835
143.0, 0.3749489401139141
144.0, 0.39718628626938274
145.0, 0.37129153640522644
146.0, 0.3313966979899407
147.0, 0.28551079568149274
148.0, 0.24426831367607083
149.0, 0.21136547334265568
150.0, 0.18108589387989663
151.0, 0.160304301439693
152.0, 0.1444789305983249
153.0, 0.13523347987378667
154.0, 0.1378195445898515
155.0, 0.14572106731282802
156.0, 0.15720683253552015
157.0, 0.17739175130932408
158.0, 0.21104279464217088
159.0, 0.25612870727600523
160.0, 0.30738376763576963
161.0, 0.3684104428096865
162.0, 0.43773907331930045
163.0, 0.5090216747866488
164.0, 0.5520244065829263
165.0, 0.5548761834191276
166.0, 0.5175074726771743
167.0, 0.44473239504270423
168.0, 0.3840280092694699
169.0, 0.3236908698527713
170.0, 0.2687673341400444
171.0, 0.2302051643508882
172.0, 0.1906380297715706
173.0, 0.1689206570166209
174.0, 0.15478945249459597
175.0, 0.13665600309008172
176.0, 0.1212443710906587
177.0, 0.12125855912031219
178.0, 0.1230566323943034
179.0, 0.1216874046751578
180.0, 0.1259159245156567
181.0, 0.13632697373080502
182.0, 0.14489970352051773
183.0, 0.14965339629795363
184.0, 0.1543391501723296
185.0, 0.1644605945613874
186.0, 0.17318380511857343
187.0, 0.17480230022088475
188.0, 0.1679655083299221
189.0, 0.15713663023178567
190.0, 0.15034010769694725
191.0, 0.14258768621115245
192.0, 0.12981906357317463
193.0, 0.11273148743634552
194.0, 0.09654444217841344
195.0, 0.08865022582639476
196.0, 0.08361233927329395
197.0, 0.07165580176446804
198.0, 0.05980434942517962
199.0, 0.055134720681101174
200.0, 0.05361239987778524
201.0, 0.05170097306218203
202.0, 0.05324765007402244
203.0, 0.05513832974710477
204.0, 0.05847938763891202
205.0, 0.06386289254181143
206.0, 0.07060736137739437
207.0, 0.07633972824576522
208.0, 0.09281148157119473
209.0, 0.11288266352020507
210.0, 0.12640590390550435
211.0, 0.1428134022815662
212.0, 0.16674358396409472
213.0, 0.19568693977326154
214.0, 0.2270218339405244
215.0, 0.26131368871861
216.0, 0.3000210808637637
217.0, 0.3455706099922893
218.0, 0.3972496501976171
219.0, 0.45324135331141086
220.0, 0.5158127322664168
221.0, 0.5860489286760643
222.0, 0.6604836204307619
223.0, 0.7360280981073822
224.0, 0.8131903675729617
225.0, 0.8792827253981326
226.0, 0.9368455417077888
227.0, 0.979622536545934
228.0, 0.9960451739250884
229.0, 0.9990418054699921
230.0, 0.9714048368084326
231.0, 0.9180186874255633
232.0, 0.8481795060195524
233.0, 0.7633888720461318
234.0, 0.679957802225163
235.0, 0.5984663292245865
236.0, 0.5257343318772312
237.0, 0.47591810950270763
238.0, 0.4232541343481267
239.0, 0.36955425821180654
240.0, 0.3229087181410894
241.0, 0.285550855126041
242.0, 0.24301189164407222
243.0, 0.21785292520343189
244.0, 0.2014952086579571
245.0, 0.18641043501235802
246.0, 0.17158811912172053
247.0, 0.15916454615837072
248.0, 0.14381979682090462
249.0, 0.12820467347144426
250.0, 0.1167374070518226
251.0, 0.10826040774472179
252.0, 0.09723916477999446
253.0, 0.08721368410980046
254.0, 0.07723249924325036
255.0, 0.0671761761734227
256.0, 0.05920701224441528
257.0, 0.04738258691892073
258.0, 0.03650688213188307
259.0, 0.023776989275238004
260.0, 0.019945412481271484
261.0, 0.009499745542617392
262.0, 0.001710758694725071
263.0, 0.0012332714776238035
264.0, 0.0005067503458115117
265.0, 0.0032638698764915516
266.0, 0.004612635193549869
267.0, 0.007865346700419785
268.0, 0.013339590862161646
269.0, 0.0084857651998218
270.0, 0.010057347132553811
271.0, 0.012917996544562453
272.0, 0.014156855392724528
273.0, 0.015321751812812732
274.0, 0.01617658164016359
275.0, 0.013768919280835883
276.0, 0.015329537809619173
277.0, 0.015098248553287574
278.0, 0.014794330111759358
279.0, 0.014209290716237494
280.0, 0.010796887522686871
281.0, 0.006276690733125581
282.0, 0.0023839894238203993
283.0, 0.0018283783769782185
284.0, 0.005922426474696431
285.0, 0.014248183835763293
286.0, 0.023609876050545032
287.0, 0.02352137874012608
288.0, 0.02476749258908751
289.0, 0.035007077724288585
290.0, 0.04436277572847036
291.0, 0.04405883138972471
292.0, 0.048779984677530225
293.0, 0.0533469755023019
294.0, 0.05495008849431839
295.0, 0.05558655985016748
296.0, 0.05812103455772457
297.0, 0.0621380991822108
298.0, 0.06282583821930593
299.0, 0.06454223904426312
300.0, 0.06644348733122513
301.0, 0.07031693365047649
302.0, 0.07141503256814642
303.0, 0.0722038537154419
304.0, 0.07468946998009997
305.0, 0.078767212108807
306.0, 0.07850865535817493
307.0, 0.08373616787683608
308.0, 0.08679314791508087
309.0, 0.0875195642319467
310.0, 0.09430902461417345
311.0, 0.09843478463014889
312.0, 0.10030718791912059
313.0, 0.10516157492900166
314.0, 0.11350919661870353
315.0, 0.11780640001274846
316.0, 0.12249263298740032
317.0, 0.12741095993727697
318.0, 0.13125486199042158
319.0, 0.13544792784597487
320.0, 0.1482900229387453
321.0, 0.15114864116128915
322.0, 0.15554280888718489
323.0, 0.16345437182823583
324.0, 0.1652953185899054
325.0, 0.16095586690054048
326.0, 0.15966164368231475
327.0, 0.15833012283772407
328.0, 0.15434057655885397
329.0, 0.1536177779571504
330.0, 0.14495276999184112
331.0, 0.13672022651794108
332.0, 0.13180391485827178
333.0, 0.12762884330153126
334.0, 0.11853340890100815
335.0, 0.10602341756707301
336.0, 0.09992570216043527
337.0, 0.09509069556587603
338.0, 0.07998542297705265
339.0, 0.07642397236512573
340.0, 0.06953734040201164
341.0, 0.06274767148506269
342.0, 0.05941822828664549
343.0, 0.05536507216253161
344.0, 0.04572077153521094
345.0, 0.03756737642597542
346.0, 0.03345724779606073
347.0, 0.03144951392155148
348.0, 0.029748450703461316
349.0, 0.027670563075049042
350.0, 0.02572543270292367
351.0, 0.02464633573170267
352.0, 0.02495158225972911
353.0, 0.024671313490977783
354.0, 0.024739081528738948
355.0, 0.02484771984746909
356.0, 0.024965536196396357
357.0, 0.02517900190233332
358.0, 0.025260583496241003
359.0, 0.02848746141192115
360.0, 0.030814845307510174
361.0, 0.031556312636694554
362.0, 0.03405652170111361
363.0, 0.03984298644246211
364.0, 0.04416688843823882
365.0, 0.04939628000298825
366.0, 0.05569473753106922
367.0, 0.059101848604801374
368.0, 0.061027114945065616
369.0, 0.06467403076107014
370.0, 0.06707857633411791
371.0, 0.0671699034599132
372.0, 0.07120208439435963
373.0, 0.08027492675174945
374.0, 0.08410189620433581
375.0, 0.08585384171586175
376.0, 0.08935741057879099
377.0, 0.08586806004211558
378.0, 0.08798329528708228
379.0, 0.09088227911919831
380.0, 0.09122922601873162
381.0, 0.09286940340202993
382.0, 0.0925831313901521
383.0, 0.09330233241170109
384.0, 0.09411236715726873
385.0, 0.09419883478364394
386.0, 0.08994269723973404
387.0, 0.08584064444149189
388.0, 0.08583539616706404
389.0, 0.08477711390115013
390.0, 0.08038101321451849
391.0, 0.07477412846662755
392.0, 0.07200145737110202
393.0, 0.06791687423240766
394.0, 0.06326115915498108
395.0, 0.05631947676366689
396.0, 0.04497668665502997
397.0, 0.0426431469868426
398.0, 0.03965032810290425
399.0, 0.03667192897789207
400.0, 0.03486849636998986
401.0, 0.03319710123889493
402.0, 0.034599013755484916
403.0, 0.02928148393377607
404.0, 0.024405670264896977
405.0, 0.025561545942076467
406.0, 0.030211327243925667
407.0, 0.030739671538658694
408.0, 0.024718854314029284
409.0, 0.022687289431287245
410.0, 0.02602676871137725
411.0, 0.023682035778108915
412.0, 0.02956714963729254
413.0, 0.03348867984390629
414.0, 0.03786510262272784
415.0, 0.04287047678611617
416.0, 0.04238820646971737
417.0, 0.044393236310993685
418.0, 0.047749479689667404
419.0, 0.05382555734874504
420.0, 0.05927832216174925
421.0, 0.0564297706903275
422.0, 0.05682939978451806
423.0, 0.061864284153860145
424.0, 0.06518540086798615
425.0, 0.06599477021741262
426.0, 0.06651544345058051
427.0, 0.06706202309968542
428.0, 0.06752145090850982
429.0, 0.06940599767705759
430.0, 0.07075452833659676
431.0, 0.06642428869550505
432.0, 0.06848031986718561
433.0, 0.06823009629342354
434.0, 0.06599997445827238
435.0, 0.06355769889170235
436.0, 0.06018509451666725
437.0, 0.05526507791974552
438.0, 0.044917632534779824
439.0, 0.03561739765691089
440.0, 0.03185111436471677
441.0, 0.030611646197350777
442.0, 0.026588846859232844
443.0, 0.023725437822108206
444.0, 0.023616455117255207
445.0, 0.02033464720706564
446.0, 0.007082883742918449
447.0, 0.00902392256857965
448.0, 0.00802771991849515
449.0, 0.004045021988540557
450.0, 0.0017616195098063023
451.0, 0.003894689316871244
452.0, 0.0018194527350756723
453.0, 0.004115730678308971
454.0, 0.004223086399271619
455.0, 0.0015286520400719578
456.0, 0.0012054082023903949
457.0, 0.0010927857655910265
458.0, 0.0033446761785153527
459.0, 0.006022930647723628
460.0, 0.004558080613435803
461.0, 0.001663487342056488
462.0, 0.0016275993170038884
463.0, 0.0019525581199997754
464.0, 0.0015011730235829543
465.0, 0.000757828622422304
466.0, 0.001315742775421598
467.0, 0.0024926742181424627
468.0, 0.0012866217208308513
469.0, 0.001963398469406965
470.0, 0.004384329046075496
471.0, 0.005416573060666563
472.0, 0.0047503697484605565
473.0, 0.005609158121980684
474.0, 0.005594281550336016
475.0, 0.005636641466555433
476.0, 0.004809848749281107
477.0, 0.0022321748532224896
478.0, 0.0009442261036621594
479.0, 0.0024746210271301868
480.0, 0.003618145900893254
481.0, 0.0010621304986872294
482.0, 0.004733757426248618
483.0, 0.007859740323939657
484.0, 0.009006836038710532
485.0, 0.007239503994130883
486.0, 0.007114306774600459
487.0, 0.010228672337401636
488.0, 0.013413904282835122
489.0, 0.01621473522155748
490.0, 0.019188171725801968
491.0, 0.022123464479473443
492.0, 0.025407436575137027
493.0, 0.028329308453816853
494.0, 0.031570641611401815
495.0, 0.034362532794898475
496.0, 0.04092072571199804
497.0, 0.049725134921590815
498.0, 0.0552007200372077
499.0, 0.05992018875876437
500.0, 0.06554773089545404
501.0, 0.06970060934566175
502.0, 0.07470672812797867
503.0, 0.08486134315447703
504.0, 0.08317662880990037
505.0, 0.0914577541979016
506.0, 0.1021365653311989
507.0, 0.10696107612961304
508.0, 0.10807577254709663
509.0, 0.11607285564009687
510.0, 0.1255369863058851
511.0, 0.1299223269949625
512.0, 0.13075320693061523
513.0, 0.13295158978382401
514.0, 0.139487911378158
515.0, 0.1431086204467094
516.0, 0.14046557683693353
517.0, 0.1397490759763658
518.0, 0.1430342180180114
519.0, 0.14347120413763823
520.0, 0.14173010970164504
521.0, 0.14160791071648035
522.0, 0.13876675368549016
523.0, 0.13650417929877928
524.0, 0.1394583029434752
525.0, 0.14040193723546707
526.0, 0.1414754963198567
527.0, 0.1419048544705984
528.0, 0.14212257181775798
529.0, 0.14290368916135784
530.0, 0.14291722120375236
531.0, 0.14369083680124997
532.0, 0.14388790032914217
533.0, 0.14441601585012145
534.0, 0.14530555715474142
535.0, 0.14656631950404564
536.0, 0.1481304264699513
537.0, 0.14990848501646503
538.0, 0.15151447731457762
539.0, 0.15292959237451148
540.0, 0.15491593948368268
541.0, 0.15667830928384988
542.0, 0.15908316422094074
543.0, 0.16150619749457787
544.0, 0.16368431606208164
545.0, 0.16484186258451564
546.0, 0.16511105730125447
547.0, 0.16518854132701347
548.0, 0.16578291715622975
549.0, 0.16589800603737928
550.0, 0.16520781128205964
551.0, 0.16379480682255543
552.0, 0.16088734332954777
553.0, 0.15753092787703055
554.0, 0.15375461302293353
555.0, 0.1500036283848347
556.0, 0.14668595833239456
557.0, 0.14406153347004
558.0, 0.14147451704340913
559.0, 0.13869010253397374
560.0, 0.13593438135134944
561.0, 0.13236434640851633
562.0, 0.1292248454368222
563.0, 0.12540248690099096
564.0, 0.12178702554233481
565.0, 0.11815419839818876
566.0, 0.11480067768233462
567.0, 0.11118269417874639
568.0, 0.1074138576923091
569.0, 0.10447731623739069
570.0, 0.10069964386978596
571.0, 0.09731388456035048
572.0, 0.09392713148478887
573.0, 0.09047332826916941
574.0, 0.08702705436358572
575.0, 0.08350653752329666
576.0, 0.07931817215705629
577.0, 0.07484814136760706
578.0, 0.06886585596143172
579.0, 0.06423743040560902
580.0, 0.057345649902216925
581.0, 0.05378150872636888
582.0, 0.049647132911743615
583.0, 0.046467692628807906
584.0, 0.04429337675508822
585.0, 0.03782317118699856
586.0, 0.026573325026454545
587.0, 0.02284390234707803
588.0, 0.021717518592621905
589.0, 0.019432036212516896
590.0, 0.015673210274812926
591.0, 0.008437356299672972
592.0, 0.0072810536174249775
593.0, 0.004355733947993517
594.0, 0.00010051993319694689
595.0, 0.002189313819943163
596.0, 0.0017497976519232255
597.0, 0.0019541992172133005
598.0, 0.0021777137973963425
599.0, 0.006190109546413715
600.0, 0.008087878428780101
601.0, 0.00687547848611123
602.0, 0.011669155625217125
603.0, 0.005809887786687834
604.0, 0.0041659005311931695
605.0, 0.007773199684639304
606.0, 0.006721245268283908
607.0, 0.002378771069637475
608.0, 0.0045743350217730275
609.0, 0.0015072419407064128
610.0, 0.006023270496544859
611.0, 0.008411364705106743
612.0, 0.01027046621527439
613.0, 0.019731631013251746
614.0, 0.017423378197609224
615.0, 0.019007493151272075
616.0, 0.026250578165925
617.0, 0.03209553190552082
618.0, 0.032692236056698264
619.0, 0.03396411484317826
620.0, 0.048497194704735666
621.0, 0.05329686962981585
622.0, 0.05707077355196742
623.0, 0.06581438478819475
624.0, 0.07847268700191781
625.0, 0.0910038881674565
626.0, 0.09996200087481431
627.0, 0.11301048885984794
628.0, 0.1282284534800301
629.0, 0.1407187606331776
630.0, 0.1536602302685922
631.0, 0.17565824626579962
632.0, 0.19207366710875676
633.0, 0.20522817923859096
634.0, 0.22495950596859737
635.0, 0.2495953287799882
636.0, 0.2716185959585841
637.0, 0.2904161487238605
638.0, 0.31965372817933263
639.0, 0.3454248344185696
640.0, 0.3696101731908192
641.0, 0.3927149850926748
642.0, 0.41469403090181994
643.0, 0.4453808638522779
644.0, 0.47550430150918216
645.0, 0.5001364701893357
646.0, 0.5245983449759086
647.0, 0.550145031124151
648.0, 0.5739595053856209
649.0, 0.5987647065159807
650.0, 0.6193395429122399
651.0, 0.6353218403580217
652.0, 0.6523034384224033
653.0, 0.6725829676454943
654.0, 0.6905188978937884
655.0, 0.6936569378975179
656.0, 0.6996758263702789
657.0, 0.7061145537016783
658.0, 0.7143116365085729
659.0, 0.7222262906437451
660.0, 0.7247947573841489
661.0, 0.7326756567784805
662.0, 0.7372374753525912
663.0, 0.7377044797578046
664.0, 0.7422510773951865
665.0, 0.7460680075705871
666.0, 0.7366497884858278
667.0, 0.7305259626319381
668.0, 0.6992738466802054
669.0, 0.6801777964317904
670.0, 0.6641574782042657
671.0, 0.6345865636968947
672.0, 0.5984829434285769
673.0, 0.5682376779920361
674.0, 0.5262438220240547
675.0, 0.5015840490914873
676.0, 0.47515178465976227
677.0, 0.4405330104893359
678.0, 0.4140753321715209
679.0, 0.3920066454964294
680.0, 0.36870176005231675
681.0, 0.35338974797918304
682.0, 0.3453149640797805
683.0, 0.33815906402467294
684.0, 0.3305728050901252
685.0, 0.32771678215985095
686.0, 0.321756780427419
687.0, 0.31781751295628735
688.0, 0.3118454220738526
689.0, 0.3065250977101401
690.0, 0.298789836623874
691.0, 0.29076280957545647
692.0, 0.27888313247168406
693.0, 0.2661613427324704
694.0, 0.2526645582418214
695.0, 0.23413431332204582
696.0, 0.19801295467650706
697.0, 0.15932450430459177
698.0, 0.1381325382032109
699.0, 0.114988958445412
700.0, 0.09287843254163582
701.0, 0.07125324951879
702.0, 0.04948884119775764
703.0, 0.03316564753425796
704.0, 0.016727301950096897
705.0, 0.004803261967287939
706.0, 0.005421427569288313
707.0, 0.011430026252500964
708.0, 0.013466079356669564
709.0, 0.01518678512153647
710.0, 0.009657570695269941
711.0, 0.01773347914425978
712.0, 0.017477390637937594
713.0, 0.01162233646342146
714.0, 0.0054757570905012345
715.0, 0.005083032629820914
716.0, 0.01735433074006209
717.0, 0.024971454571406232
718.0, 0.03131233430250646
719.0, 0.03769780216128125
720.0, 0.04840451890978165
721.0, 0.06514977394778798
722.0, 0.07908075556554713
723.0, 0.07876672472871492
724.0, 0.08520174597041962
725.0, 0.09184021471677128
726.0, 0.09766023153164016
727.0, 0.10579446902788146
728.0, 0.11167087534304948
729.0, 0.11897721025028539
730.0, 0.12660782679489768
731.0, 0.13365745032781767
732.0, 0.1390002689664433
733.0, 0.1410864608741851
734.0, 0.14255443127012815
735.0, 0.14340392028094953
736.0, 0.15748388158482135
737.0, 0.1611745334601394
738.0, 0.16791333607875214
739.0, 0.18143913292276734
740.0, 0.19130805019009794
741.0, 0.1965386660280649
742.0, 0.20408283903304006
743.0, 0.20974800126750887
744.0, 0.21449034599226038
745.0, 0.2188328762678439
746.0, 0.2245659631038716
747.0, 0.23226926119264849
748.0, 0.23461096183139787
749.0, 0.23278662400474287
750.0, 0.23778301437933733
751.0, 0.23517201003159285
752.0, 0.22167528035206527
753.0, 0.21203677807358767
754.0, 0.20857952066917632
755.0, 0.20516532056732506
756.0, 0.2025325431769714
757.0, 0.19937568860808844
758.0, 0.19545592160961453
759.0, 0.19076482236114728
760.0, 0.18136473739118944
761.0, 0.1655057363825793
762.0, 0.1482652726862393
763.0, 0.1353658669636139
764.0, 0.12720198659618095
765.0, 0.11314812045042125
766.0, 0.09497110491100293
767.0, 0.09228738350494745
768.0, 0.07769839879051824
769.0, 0.06744659854707037
770.0, 0.06113610724697863
771.0, 0.05596730108303938
772.0, 0.04886606145894369
773.0, 0.039830287086132295
774.0, 0.03626500988186098
775.0, 0.031836381184435096
776.0, 0.030530449426720417
777.0, 0.03310433493049556
778.0, 0.03504479398084276
779.0, 0.035291875928876074
780.0, 0.03680239554774619
781.0, 0.03353991799762582
782.0, 0.03835030681673843
783.0, 0.04125991892205981
784.0, 0.044422141069995244
785.0, 0.046627800752609735
786.0, 0.047288140936891175
787.0, 0.05432722332285469
788.0, 0.056563799463718784
789.0, 0.05238636420684138
790.0, 0.05600391414914338
791.0, 0.060011717046458704
792.0, 0.06183739281614655
793.0, 0.067205924047738
794.0, 0.06719497210898927
795.0, 0.06802127236537517
796.0, 0.06679397439881052
797.0, 0.06583039102567644
798.0, 0.06988782351786656
799.0, 0.07335924938145644
800.0, 0.06939952419164055
801.0, 0.07553403419385937
802.0, 0.07115859127238157
803.0, 0.06996125796077557
804.0, 0.07282817368825396
805.0, 0.07290953379707721
806.0, 0.07016239050407358
807.0, 0.07059239448048166
808.0, 0.07199892148920213
809.0, 0.06300552773215054
810.0, 0.06552093289385032
811.0, 0.06295404289390608
812.0, 0.05939149238366365
813.0, 0.06464525727058366
814.0, 0.06413435271515326
815.0, 0.06068019177383698
816.0, 0.05878688270157948
817.0, 0.058746404267238476
818.0, 0.06208507749716616
819.0, 0.06060804822955012
820.0, 0.050552772556476694
821.0, 0.044191341004235024
822.0, 0.04858845352204616
823.0, 0.050627673279569886
824.0, 0.04828890745932074
825.0, 0.04667177301031729
826.0, 0.04533608525119482
827.0, 0.04128406079625051
828.0, 0.037927334662446896
829.0, 0.042990885825552626
830.0, 0.03984595325116167
831.0, 0.038500027722894715
832.0, 0.03043202988560839
833.0, 0.024932765670595068
834.0, 0.030009119453582856
835.0, 0.026448142861135355
836.0, 0.01745182162451211
837.0, 0.015645870777435258
838.0, 0.01711158158222936
839.0, 0.010274406278737646
840.0, 0.006662146009944766
841.0, 0.012653907289447243
842.0, 0.008797924419881111
843.0, 0.01218943067449514
844.0, 0.011410545350318426
845.0, 0.006653429997934687
846.0, 0.00288168690795544
847.0, 0.0009313709362448817
848.0, 0.0007003998170083736
849.0, 0.002188306505026939
850.0, 0.004706597935395229
851.0, 0.003494912315054352
852.0, 0.004564044903790463
853.0, 0.005138314140165447
854.0, 0.006214049901050735
855.0, 0.006047056903169866
856.0, 0.0011148117703779986
857.0, 0.006720333171254626
858.0, 0.008740081811833042
859.0, 0.004204137851637248
860.0, 0.002491658272378827
861.0, 0.004079587022306437
862.0, 0.005604679213594265
863.0, 0.0057589016094537005
864.0, 0.0035971063233042177
865.0, 0.001417157163701876
866.0, 0.00044282673285634045
867.0, 0.002356359488862739
868.0, 0.004196287080424477
869.0, 0.006256969815231076
870.0, 0.008491073028772
871.0, 0.007805949556873299
872.0, 0.007093622288221458
873.0, 0.011070937396734228
874.0, 0.011258722499904327
875.0, 0.01685614304148175
876.0, 0.020850288193738374
877.0, 0.02173365971801863
878.0, 0.032040124504334425
879.0, 0.032092216968184144
880.0, 0.035966583476103695
881.0, 0.033398001194627665
882.0, 0.03969909415058064
883.0, 0.047951632819664844
884.0, 0.048475700489963525
885.0, 0.04835353612948486
886.0, 0.05376157826780011
887.0, 0.05969683469410963
888.0, 0.06413094632348285
889.0, 0.06937553397499302
890.0, 0.07347684196612947
891.0, 0.07783776622983699
892.0, 0.08416749097851238
893.0, 0.08869817142189129
894.0, 0.08999728343369186
895.0, 0.09516386544270855
896.0, 0.10370155240393485
897.0, 0.10401317457864086
898.0, 0.1080504291586636
899.0, 0.11511360861968195
900.0, 0.1148193338019136
901.0, 0.12189341929919266
902.0, 0.11926942811110909
903.0, 0.12286730107012576
904.0, 0.1272880522751134
905.0, 0.13151155191248645
906.0, 0.1376063287838225
907.0, 0.14365876907296743
908.0, 0.14373319031942963
909.0, 0.13988071244661843
910.0, 0.13699058632427621
911.0, 0.13780503684638468
912.0, 0.13816702106880005
913.0, 0.13680065072701655
914.0, 0.13524999996791565
915.0, 0.13379710899911507
916.0, 0.13316868938820023
917.0, 0.12686003808908908
918.0, 0.12233334324816246
919.0, 0.12098244964197605
920.0, 0.11974215470971275
921.0, 0.11598895588582056
922.0, 0.11350721645693744
923.0, 0.11392065779003095
924.0, 0.10844068832353927
925.0, 0.10409344476256338
926.0, 0.10270862724383631
927.0, 0.09698893545687967
928.0, 0.09367044030470004
929.0, 0.08710364234117976
930.0, 0.07686496384585711
931.0, 0.07270191589953466
932.0, 0.06881065826805889
933.0, 0.05314171791691919
934.0, 0.04699372271490293
935.0, 0.041575781303566685
936.0, 0.035476670512963694
937.0, 0.029034534274625223
938.0, 0.023785098790708264
939.0, 0.020248082857382735
940.0, 0.01269562363813156
941.0, 0.009233745244201917
942.0, 0.011172832390711512
943.0, 0.003996680093267906
944.0, 0.0010703643995787875
945.0, 0.0007725877712185162
946.0, 0.0015586291147549176
947.0, 0.00393372940313524
948.0, 0.0039992494707883006
949.0, 0.0037089888082145767
950.0, 0.003546037357647941
951.0, 0.0034053017457069366
952.0, 0.0032499287359037494
953.0, 0.000710398447824085
954.0, 0.0017204468324319598
955.0, 0.0014428750256418891
956.0, 0.0012216654333923938
957.0, 0.0009559147364502044
958.0, 0.0007455430687266249
959.0, 0.002953397278998998
960.0, 0.0026333831341824126
961.0, 0.003684821191088882
962.0, 0.0050634911344381375
963.0, 0.006585856912210417
964.0, 0.00729660537044817
965.0, 0.007541865705534126
966.0, 0.009356950138210104
967.0, 0.009858925288185048
968.0, 0.00816305558482901
969.0, 0.01073622638992117
970.0, 0.01513509084157666
971.0, 0.014140142583651765
972.0, 0.01107799067110169
973.0, 0.012030514279698238
974.0, 0.013051355969302845
975.0, 0.01335638891570597
976.0, 0.014109481483241208
977.0, 0.01398602885862738
978.0, 0.01167919903296115
979.0, 0.013136792194023836
980.0, 0.013648802857632324
981.0, 0.009957051083998397
982.0, 0.01567552630250142
983.0, 0.023103980031226663
984.0, 0.022389601249924965
985.0, 0.02489830164224917
986.0, 0.029428888373162577
987.0, 0.030577446040032045
988.0, 0.032848202578783375
989.0, 0.03818961026145108
990.0, 0.043452880565587576
991.0, 0.05296808828867124
992.0, 0.058091075171739795
993.0, 0.06298566765202052
994.0, 0.0727525265926346
995.0, 0.07981991584853175
996.0, 0.08379635292016838
997.0, 0.09748242210161313
998.0, 0.1056041066437306
999.0, 0.11745751189058458
1000.0, 0.12835103408945225
1001.0, 0.13739864144873035
1002.0, 0.15301205144076283
1003.0, 0.17132581416700451
1004.0, 0.18365773671537033
1005.0, 0.19210479808873834
1006.0, 0.2047333160744072
1007.0, 0.22123351621393722
1008.0, 0.2389360021242486
1009.0, 0.25330599711105656
1010.0, 0.26646397735482913
1011.0, 0.27838558534888724
1012.0, 0.28821238380192016
1013.0, 0.29456314549369755
1014.0, 0.2981092613214224
1015.0, 0.31029036099536256
1016.0, 0.31249168318333487
1017.0, 0.3195794734700841
1018.0, 0.3184745472357592
1019.0, 0.31712289865814686
1020.0, 0.3172622304676078
1021.0, 0.3129061062391856
1022.0, 0.30778115101798414
1023.0, 0.3070960520348926
1024.0, 0.2984412113858765
1025.0, 0.2961151789821098
1026.0, 0.28848602683590535
1027.0, 0.2767736874527547
1028.0, 0.2727885945859529
1029.0, 0.2685796527472994
1030.0, 0.2586571059156882
1031.0, 0.24820798497642202
1032.0, 0.23564249991451375
1033.0, 0.22594417972728195
1034.0, 0.2230141132768382
1035.0, 0.2126872558676665
1036.0, 0.1996817832527457
1037.0, 0.19370294977723018
1038.0, 0.18781218193262403
1039.0, 0.17589449536698684
1040.0, 0.1638989061294275
1041.0, 0.1575820709846786
1042.0, 0.14815130797832174
1043.0, 0.13466575731652877
1044.0, 0.1346695362999302
1045.0, 0.12743941521937188
1046.0, 0.12062847376091287
1047.0, 0.11781231443602794
1048.0, 0.11088940623504903
1049.0, 0.1033702274656069
1050.0, 0.10333739535974348
1051.0, 0.09653036141001507
1052.0, 0.09500256584470125
1053.0, 0.08698229297806745
1054.0, 0.08041526210984669
1055.0, 0.08147465518837964
1056.0, 0.07631551015962976
1057.0, 0.0743641537420499
1058.0, 0.07268832213487354
1059.0, 0.07162094524353493
1060.0, 0.07014738653616537
1061.0, 0.059393195203142714
1062.0, 0.0532306758862056
1063.0, 0.05707578152354643
1064.0, 0.059284313361506684
1065.0, 0.05455380933850661
1066.0, 0.050433403386688204
1067.0, 0.04788582041278558
1068.0, 0.04342492455929539
1069.0, 0.04228492592376405
1070.0, 0.04038087830620363
1071.0, 0.03722646477768918
1072.0, 0.03510451987072932
1073.0, 0.03224790818637927
1074.0, 0.030589430885856108
1075.0, 0.029978598921870502
1076.0, 0.02867530334473902
1077.0, 0.02692116763364084
1078.0, 0.024371189722891845
1079.0, 0.01948985379293905
1080.0, 0.020140726993825818
1081.0, 0.017655408568790727
1082.0, 0.016054030198275997
1083.0, 0.013900184100246661
1084.0, 0.0102832402781283
1085.0, 0.008966551345524397
1086.0, 0.009046383828252253
1087.0, 0.007840229125156755
1088.0, 0.011778057413684342
1089.0, 0.012169218778146848
1090.0, 0.010111826065256083
1091.0, 0.007954424915218621
1092.0, 0.006956129353402403
1093.0, 0.00971924497645888
1094.0, 0.006357285057905928
1095.0, 0.00664560368981494
1096.0, 0.0071677782042086045
1097.0, 0.006854664199236469
1098.0, 0.005379939501121462
1099.0, 0.0043867529622786195
1100.0, 0.006614400449618529
1101.0, 0.006581070049360112
1102.0, 0.0025222695057138733
1103.0, 0.0029348516196954604
1104.0, 0.0023247702963231512
1105.0, 0.0017358773990539143
1106.0, 0.00221636435594195
1107.0, 0.0006019230698932483
1108.0, 0.00045618419081386546
1109.0, 0.001154314115213623
1110.0, 0.0010234598051338788
1111.0, 0.0007727985301772685
1112.0, 0.00014326641304460546
1113.0, 0.0007746144444199527
1114.0, 0.0003912038166373327
1115.0, 0.0004771705141302131
1116.0, 0.0011006339023172118
1117.0, 0.0027869927313046846
1118.0, 0.001985514870759021
1119.0, 0.0006843083705088001
1120.0, 0.0038528506527197044
1121.0, 0.0005544665504251219
1122.0, 0.0014901875892141536
1123.0, 0.0034079972022470883
1124.0, 0.004791334703821824
1125.0, 0.004480667154292403
1126.0, 0.002861320356078514
1127.0, 0.0028695475799756214
1128.0, 0.00225289396428762
1129.0, 0.00162198401046227
1130.0, 0.0006145034979533904
1131.0, 0.0005336166558990147
1132.0, 0.0030873455115803835
1133.0, 0.0016081356414519676
1134.0, 0.0011273490671876957
1135.0, 0.003467035302853038
1136.0, 0.005745562449141824
1137.0, 0.007295390119237981
1138.0, 0.007746299465174898
1139.0, 0.007305735937802557
1140.0, 0.007836702864328757
1141.0, 0.0076307217359133026
1142.0, 0.009347423080564516
1143.0, 0.008896803302616715
1144.0, 0.005082166259959151
1145.0, 0.006834507697242663
1146.0, 0.01268691063696451
1147.0, 0.013534020894216006
1148.0, 0.009785477108308481
1149.0, 0.009053108920812068
1150.0, 0.014373269842307586
1151.0, 0.017170233542314207
1152.0, 0.020285721772926327
1153.0, 0.014176959915611586
1154.0, 0.014560007925079114
1155.0, 0.014157618073200188
1156.0, 0.015054413817592814
1157.0, 0.02021392861540899
1158.0, 0.02174101765198839
1159.0, 0.017111022694633608
1160.0, 0.015060873203322802
1161.0, 0.017700195223878216
1162.0, 0.017511092124505523
1163.0, 0.01951648161572189
1164.0, 0.02334095251181377
1165.0, 0.021872265535411103
1166.0, 0.018874247574004764
1167.0, 0.01784405316223603
1168.0, 0.018852808495282328
1169.0, 0.019882560208045207
1170.0, 0.019072352339047166
1171.0, 0.01787089266811325
1172.0, 0.01887921170019357
1173.0, 0.017371896182029247
1174.0, 0.020057109836784243
1175.0, 0.022192867934443965
1176.0, 0.016665141794237285
1177.0, 0.020929253930248613
1178.0, 0.020732996316936605
1179.0, 0.01652634158934185
1180.0, 0.01871892913571783
1181.0, 0.016873888193096535
1182.0, 0.015458842382535655
1183.0, 0.015520573869727518
1184.0, 0.013888427485850346
1185.0, 0.015030210785668895
1186.0, 0.01272303321707113
1187.0, 0.014894839177405209
1188.0, 0.013795337916312982
1189.0, 0.010338784672637932
1190.0, 0.009615895369311097
1191.0, 0.012626200766189524
1192.0, 0.01340608945355129
1193.0, 0.007496566696103998
1194.0, 0.007789471217142227
1195.0, 0.00845345941318635
1196.0, 0.009768564830935194
1197.0, 0.013173754234590154
1198.0, 0.011505091442853041
1199.0, 0.01312057786752383
1200.0, 0.013496618894323673
1201.0, 0.01155506239196998
1202.0, 0.011630511464711482
1203.0, 0.014987025898667638
1204.0, 0.012954289777245323
1205.0, 0.005903090845653435
1206.0, 0.0077505590916743805
1207.0, 0.008318495209517284
1208.0, 0.00643832628393658
1209.0, 0.012347108860409201
1210.0, 0.0078848114193254
1211.0, 0.005799126838505297
1212.0, 0.01029872748622076
1213.0, 0.008670853035583069
1214.0, 0.00992079019332503
1215.0, 0.012089551063060783
1216.0, 0.010221660650293432
1217.0, 0.013612735225396983
1218.0, 0.011108393027255017
1219.0, 0.011506523098351177
1220.0, 0.012179966468181789
1221.0, 0.01094273422755502
1222.0, 0.009906591813901196
1223.0, 0.009790418653179976
1224.0, 0.008466962288046193
1225.0, 0.007484880861435646
1226.0, 0.009409460168247213
1227.0, 0.009280833975729017
1228.0, 0.006930270546408999
1229.0, 0.009475723466677214
1230.0, 0.007190927064983725
1231.0, 0.0074258055047734675
1232.0, 0.007836082442643515
1233.0, 0.007765179299138917
1234.0, 0.006718944420258619
1235.0, 0.006597639090714481
1236.0, 0.004687167088465292
1237.0, 0.005556474399305354
1238.0, 0.006098535343374691
1239.0, 0.006658691632975391
1240.0, 0.009008472807838412
1241.0, 0.0074887292855035535
1242.0, 0.007061851504257561
1243.0, 0.006836428238254753
1244.0, 0.009354802843140069
1245.0, 0.009591083206360694
1246.0, 0.009260501569717347
1247.0, 0.010390739766809251
1248.0, 0.009780853583651212
1249.0, 0.009248874825945509
1250.0, 0.009515993929270612
1251.0, 0.008898966969141078
1252.0, 0.009750874627191512
1253.0, 0.008901073806018081
1254.0, 0.010260077491038851
1255.0, 0.007564333228444185
1256.0, 0.006372960631817496
1257.0, 0.012019448117121214
1258.0, 0.013078309881342185
1259.0, 0.012656053267273436
1260.0, 0.007144473532345993
1261.0, 0.003717742116799106
1262.0, 0.01090931313814005
1263.0, 0.0054988030375862
1264.0, 0.004026274602805773
1265.0, 0.0062305289747913465
1266.0, 0.006385866943813716
1267.0, 0.0020773437950271376
1268.0, 0.003500800393462889
1269.0, 0.009384624483091486
1270.0, 0.0035367601340679793
1271.0, 0.006593401330222977
1272.0, 0.01027609159769656
1273.0, 0.009324163383158425
1274.0, 0.003120858074808675
1275.0, 0.00327979064586998
1276.0, 0.006031947743960046
1277.0, 0.009061052651780206
1278.0, 0.003988432267230241
1279.0, 0.005183247761990459
1280.0, 0.0043241586805990734
1281.0, 0.0052545770616224076
1282.0, 0.009573466768254206
1283.0, 0.004255180848779336
1284.0, 0.002562337794613576
1285.0, 0.0019259947759159715
1286.0, 0.004200134372309626
1287.0, 0.004577774344530992
1288.0, 0.0009934742624569907
1289.0, 0.005433170627881025
1290.0, 0.0023941190262748106
1291, 0.0
1292, 0.0
1293, 0.0
1294, 0.0
1295, 0.0
1296, 0.0
1297, 0.0
1298, 0.0
1299, 0.0
1300, 0.0
1301, 0.0
1302, 0.0
1303, 0.0
1304, 0.0
1305, 0.0
1306, 0.0
1307, 0.0
1308, 0.0
1309, 0.0
1310, 0.0
1311, 0.0
1312, 0.0
1313, 0.0
1314, 0.0
1315, 0.0
1316, 0.0
1317, 0.0
1318, 0.0
1319, 0.0
1320, 0.0
1321, 0.0
1322, 0.0
1323, 0.0
1324, 0.0
1325, 0.0
1326, 0.0
1327, 0.0
1328, 0.0
1329, 0.0
1330, 0.0
1331, 0.0
1332, 0.0
1333, 0.0
1334, 0.0
1335, 0.0
1336, 0.0
1337, 0.0
1338, 0.0
1339, 0.0
1340, 0.0
1341, 0.0
1342, 0.0
1343, 0.0
1344, 0.0
1345, 0.0
1346, 0.0
1347, 0.0
1348, 0.0
1349, 0.0
1350, 0.0
1351, 0.0
1352, 0.0
1353, 0.0
1354, 0.0
1355, 0.0
1356, 0.0
1357, 0.0
1358, 0.0
1359, 0.0
1360, 0.0
1361, 0.0
1362, 0.0
1363, 0.0
1364, 0.0
1365, 0.0
1366, 0.0
1367, 0.0
1368, 0.0
1369, 0.0
1370, 0.0
1371, 0.0
1372, 0.0
1373, 0.0
1374, 0.0
1375, 0.0
1376, 0.0
1377, 0.0
1378, 0.0
1379, 0.0
1380, 0.0
1381, 0.0
1382, 0.0
1383, 0.0
1384, 0.0
1385, 0.0
1386, 0.0
1387, 0.0
1388, 0.0
1389, 0.0
1390, 0.0
1391, 0.0
1392, 0.0
1393, 0.0
1394, 0.0
1395, 0.0
1396, 0.0
1397, 0.0
1398, 0.0
1399, 0.0
1400, 0.0
1401, 0.0
1402, 0.0
1403, 0.0
1404, 0.0
1405, 0.0
1406, 0.0
1407, 0.0
1408, 0.0
1409, 0.0
1410, 0.0
1411, 0.0
1412, 0.0
1413, 0.0
1414, 0.0
1415, 0.0
1416, 0.0
1417, 0.0
1418, 0.0
1419, 0.0
1420, 0.0
1421, 0.0
1422, 0.0
1423, 0.0
1424, 0.0
1425, 0.0
1426, 0.0
1427, 0.0
1428, 0.0
1429, 0.0
1430, 0.0
1431, 0.0
1432, 0.0
1433, 0.0
1434, 0.0
1435, 0.0
1436, 0.0
1437, 0.0
1438, 0.0
1439, 0.0
1440, 0.0
1441, 0.0
1442, 0.0
1443, 0.0
1444, 0.0
1445, 0.0
1446, 0.0
1447, 0.0
1448, 0.0
1449, 0.0
1450, 0.0
1451, 0.0
1452, 0.0
1453, 0.0
1454, 0.0
1455, 0.0
1456, 0.0
1457, 0.0
1458, 0.0
1459, 0.0
1460, 0.0
1461, 0.0
1462, 0.0
1463, 0.0
1464, 0.0
1465, 0.0
1466, 0.0
1467, 0.0
1468, 0.0
1469, 0.0
1470, 0.0
1471, 0.0
1472, 0.0
1473, 0.0
1474, 0.0
1475, 0.0
1476, 0.0
1477, 0.0
1478, 0.0
1479, 0.0
1480, 0.0
1481, 0.0
1482, 0.0
1483, 0.0
1484, 0.0
1485, 0.0
1486, 0.0
1487, 0.0
1488, 0.0
1489, 0.0
1490, 0.0
1491, 0.0
1492, 0.0
1493, 0.0
1494, 0.0
1495, 0.0
1496, 0.0
1497, 0.0
1498, 0.0
1499, 0.0
1500, 0.0
1501, 0.0
1502, 0.0
1503, 0.0
1504, 0.0
1505, 0.0
1506, 0.0
1507, 0.0
1508, 0.0
1509, 0.0
1510, 0.0
1511, 0.0
1512, 0.0
1513, 0.0
1514, 0.0
1515, 0.0
1516, 0.0
1517, 0.0
1518, 0.0
1519, 0.0
1520, 0.0
1521, 0.0
1522, 0.0
1523, 0.0
1524, 0.0
1525, 0.0
1526, 0.0
1527, 0.0
1528, 0.0
1529, 0.0
1530, 0.0
1531, 0.0
1532, 0.0
1533, 0.0
1534, 0.0
1535, 0.0
1536, 0.0
1537, 0.0
1538, 0.0
1539, 0.0
1540, 0.0
1541, 0.0
1542, 0.0
1543, 0.0
1544, 0.0
1545, 0.0
1546, 0.0
1547, 0.0
1548, 0.0
1549, 0.0
1550, 0.0
1551, 0.0
1552, 0.0
1553, 0.0
1554, 0.0
1555, 0.0
1556, 0.0
1557, 0.0
1558, 0.0
1559, 0.0
1560, 0.0
1561, 0.0
1562, 0.0
1563, 0.0
1564, 0.0
1565, 0.0
1566, 0.0
1567, 0.0
1568, 0.0
1569, 0.0
1570, 0.0
1571, 0.0
1572, 0.0
1573, 0.0
1574, 0.0
1575, 0.0
1576, 0.0
1577, 0.0
1578, 0.0
1579, 0.0
1580, 0.0
1581, 0.0
1582, 0.0
1583, 0.0
1584, 0.0
1585, 0.0
1586, 0.0
1587, 0.0
1588, 0.0
1589, 0.0
1590, 0.0
1591, 0.0
1592, 0.0
1593, 0.0
1594, 0.0
1595, 0.0
1596, 0.0
1597, 0.0
1598, 0.0
1599, 0.0
