30, 0.0
31, 0.0
32, 0.0
33, 0.0
34, 0.0
35, 0.0
36, 0.0
37, 0.0
38, 0.0
39, 0.0
40, 0.0
41, 0.0
42, 0.0
43, 0.0
44, 0.0
45, 0.0
46, 0.0
47, 0.0
48, 0.0
49, 0.0
50, 0.0
51, 0.0
52, 0.0
53, 0.0
54, 0.0
55, 0.0
56, 0.0
57, 0.0
58, 0.0
59, 0.0
60, 0.0
61, 0.0
62, 0.0
63, 0.0
64, 0.0
65, 0.0
66, 0.0
67, 0.0
68, 0.0
69, 0.0
70, 0.0
71, 0.0
72, 0.0
73, 0.0
74, 0.0
75, 0.0
76, 0.0
77, 0.0
78, 0.0
79, 0.0
80, 0.0
81, 0.0
82, 0.0
83, 0.0
84, 0.0
85, 0.0
86, 0.0
87, 0.0
88, 0.0
89, 0.0
90, 0.0
91, 0.0
92, 0.0
93, 0.0
94, 0.0
95, 0.0
96, 0.0
97, 0.0
98, 0.0
99, 0.0
100, 0.0
101.0, 5.416580660250898e-06
102.0, 0.001678096866221343
103.0, 0.005262582884686954
104.0, 0.018305233806215886
105.0, 0.030647955811311217
106.0, 0.04218910506036435
107.0, 0.05414134315527219
108.0, 0.055387900527534124
109.0, 0.05506635265303642
110.0, 0.058568037566570974
111.0, 0.06454536182832069
112.0, 0.06479618649262305
113.0, 0.057081220333180874
114.0, 0.05128504843590489
115.0, 0.04555747152115355
116.0, 0.034651342492482015
117.0, 0.04131788579258792
118.0, 0.04396839109184074
119.0, 0.037113440849536786
120.0, 0.030149581928971582
121.0, 0.0343827440723322
122.0, 0.029833150266982127
123.0, 0.017778591145291667
124.0, 0.012274749404644007
125.0, 0.017629534282717855
126.0, 0.00959497597242744
127.0, 0.00387375114394985
128.0, 0.02095494620016471
129.0, 0.01476210822715821
130.0, 0.005437156078933499
131.0, 0.0026066068185861178
132.0, 0.008991430726126865
133.0, 0.008386711112235223
134.0, 0.006541331572320501
135.0, 0.007881691939018878
136.0, 0.008574114488449844
137.0, 0.0008102320316268796
138.0, 0.0023147429222048245
139.0, 0.00266247713718694
140.0, 0.004053007527722001
141.0, 0.009274765350762507
142.0, 0.01653941082113282
143.0, 0.027605274882645043
144.0, 0.04368307114739451
145.0, 0.06623155152949953
146.0, 0.09666424722474669
147.0, 0.13046081029837578
148.0, 0.16884761389634334
149.0, 0.21763633477770009
150.0, 0.2814911336722201
151.0, 0.33622362892247804
152.0, 0.3819620378542886
153.0, 0.4108874047876829
154.0, 0.4063636731023831
155.0, 0.3774751654142982
156.0, 0.3392409669212564
157.0, 0.2997652079315429
158.0, 0.263186755194906
159.0, 0.23289559778754315
160.0, 0.21226915317490852
161.0, 0.20349430418243053
162.0, 0.20375700012231673
163.0, 0.19711945108541504
164.0, 0.1984674102204513
165.0, 0.20555047305923288
166.0, 0.21598489446130809
167.0, 0.2318235191315247
168.0, 0.2420853728971372
169.0, 0.25119151186117017
170.0, 0.26038170023135354
171.0, 0.2681705070445689
172.0, 0.2801750851348176
173.0, 0.280080597980096
174.0, 0.2700797293816348
175.0, 0.255700156132673
176.0, 0.2338086059240147
177.0, 0.21518102368684144
178.0, 0.19234115295193668
179.0, 0.16510059116734274
180.0, 0.15203487036477595
181.0, 0.13245668700054636
182.0, 0.12001286650017376
183.0, 0.11424701202633109
184.0, 0.10290958542790149
185.0, 0.09682242249760875
186.0, 0.09217321325699168
187.0, 0.08947148274597884
188.0, 0.08830158910858958
189.0, 0.08135737633984275
190.0, 0.0823888560019932
191.0, 0.08418940945053847
192.0, 0.08469767254139557
193.0, 0.09012135624133413
194.0, 0.09864491606642162
195.0, 0.10091439209321491
196.0, 0.10291070604181154
197.0, 0.1160370415489642
198.0, 0.1348226876538075
199.0, 0.1386942022379923
200.0, 0.13679880550135542
201.0, 0.14112980938220565
202.0, 0.1496935683718913
203.0, 0.1561311822219578
204.0, 0.17132260874244923
205.0, 0.18950744559462082
206.0, 0.1999809369680253
207.0, 0.20705690711101135
208.0, 0.22099489689020876
209.0, 0.23491948953924277
210.0, 0.2470520060390636
211.0, 0.26636793149320953
212.0, 0.27807491360826336
213.0, 0.2895306358107555
214.0, 0.30589859646854206
215.0, 0.32708905266131405
216.0, 0.3432733841204399
217.0, 0.35642347775668404
218.0, 0.3705884095064676
219.0, 0.3848628049651729
220.0, 0.3885151526595594
221.0, 0.39388735207953396
222.0, 0.3971289262549423
223.0, 0.39853838190880625
224.0, 0.4029930419559637
225.0, 0.3970186316377214
226.0, 0.38725684478214173
227.0, 0.37627675017938317
228.0, 0.3669989044121983
229.0, 0.3667444372970137
230.0, 0.3569018616509084
231.0, 0.3422666805266326
232.0, 0.3314514653432027
233.0, 0.32878519354382824
234.0, 0.30897690816454293
235.0, 0.2905226300488492
236.0, 0.271287068931905
237.0, 0.24817135813574692
238.0, 0.23302826382651887
239.0, 0.21571432095212517
240.0, 0.20012075821803724
241.0, 0.18783535336972054
242.0, 0.1743183853787799
243.0, 0.15420033486076817
244.0, 0.1456425284570938
245.0, 0.14169504016178153
246.0, 0.13261893833438132
247.0, 0.11980957350638005
248.0, 0.11577921877709933
249.0, 0.10574029026728106
250.0, 0.0960574889987308
251.0, 0.09623842023667893
252.0, 0.09200887129756617
253.0, 0.0874201810025832
254.0, 0.0793255443333826
255.0, 0.06974331504245138
256.0, 0.06806383870098097
257.0, 0.06524192804240558
258.0, 0.05647941357516245
259.0, 0.04726271727239789
260.0, 0.04457641075756927
261.0, 0.040640409319214144
262.0, 0.03843828416067923
263.0, 0.03382347682878662
264.0, 0.025913332431976858
265.0, 0.01993468523577952
266.0, 0.01802318126002621
267.0, 0.019998919457975807
268.0, 0.018263886898255494
269.0, 0.012720892984315248
270.0, 0.013129899926639219
271.0, 0.00940709777904741
272.0, 0.004480653462178959
273.0, 0.0009516258253593911
274.0, 0.0023000622309112995
275.0, 0.009000090196438347
276.0, 0.008513960410913889
277.0, 0.008662075414291892
278.0, 0.011771118252446077
279.0, 0.012651410274887883
280.0, 0.009471121307645236
281.0, 0.008178756976808355
282.0, 0.00836686062093638
283.0, 0.007256481562966365
284.0, 0.0021054688691930735
285.0, 0.0009749716795007246
286.0, 0.001039011355955386
287.0, 0.005987202592655609
288.0, 0.0132251130731186
289.0, 0.02215422860659192
290.0, 0.03316860133430727
291.0, 0.03987108024582812
292.0, 0.04478645828679101
293.0, 0.05665171630353007
294.0, 0.06585013331382464
295.0, 0.07659441451468556
296.0, 0.08873735818835353
297.0, 0.09831506097720222
298.0, 0.10157571979594406
299.0, 0.10505835817971904
300.0, 0.10826718644837734
301.0, 0.10979715874272467
302.0, 0.11042094163418574
303.0, 0.11394707488912244
304.0, 0.11447902026038025
305.0, 0.11203992535448307
306.0, 0.11023147427590597
307.0, 0.11000395953171967
308.0, 0.10268020186529878
309.0, 0.09650200178518632
310.0, 0.09234607614495734
311.0, 0.08805159166452851
312.0, 0.08193379560025428
313.0, 0.07890477964848373
314.0, 0.07590391434326235
315.0, 0.07323334448193304
316.0, 0.07221011001204289
317.0, 0.0733637452037488
318.0, 0.07406616687461705
319.0, 0.07023061564321373
320.0, 0.07180737872930487
321.0, 0.08004068458093254
322.0, 0.075245098178111
323.0, 0.0745500038328574
324.0, 0.07480986103120948
325.0, 0.07551047167737632
326.0, 0.07601494971988053
327.0, 0.06792806231985862
328.0, 0.06735812836334819
329.0, 0.06664906758125157
330.0, 0.06081385026410953
331.0, 0.05189682787181931
332.0, 0.047444459492774683
333.0, 0.04273859157061644
334.0, 0.03408828762654767
335.0, 0.027592070292174958
336.0, 0.029143074687959302
337.0, 0.02090910829337387
338.0, 0.01496672992016581
339.0, 0.012448939965727141
340.0, 0.009520151095805033
341.0, 0.002255796927160867
342.0, 0.0064461712353979855
343.0, 0.003501506209999271
344.0, 0.0016877220358210772
345.0, 0.007324971259007373
346.0, 0.00932543317893807
347.0, 0.007055168606940846
348.0, 0.005626100520309737
349.0, 0.011543448381823543
350.0, 0.020818450529813168
351.0, 0.02297096704956193
352.0, 0.02371433934892845
353.0, 0.029359629515848897
354.0, 0.034993384297548884
355.0, 0.039228097669149836
356.0, 0.0465514749701672
357.0, 0.05474656031086329
358.0, 0.06470874958008986
359.0, 0.07354516205441664
360.0, 0.07788632528984804
361.0, 0.07824310096098742
362.0, 0.08897641537982562
363.0, 0.09492699496844002
364.0, 0.0972485025305437
365.0, 0.10105155646704242
366.0, 0.10503013004163068
367.0, 0.11143325864760895
368.0, 0.11648375326830965
369.0, 0.11905630697559952
370.0, 0.11802481093929401
371.0, 0.11160804515671277
372.0, 0.11312476527936462
373.0, 0.11404897365571771
374.0, 0.11448225342798646
375.0, 0.11466280632717134
376.0, 0.10845635042693008
377.0, 0.10808923052105587
378.0, 0.10537236986275413
379.0, 0.1006717565167989
380.0, 0.09738403073112084
381.0, 0.09383594928441073
382.0, 0.08282670561897156
383.0, 0.07869534393446022
384.0, 0.07564654176354549
385.0, 0.070205142367342
386.0, 0.07008415760643825
387.0, 0.0633315593197657
388.0, 0.06087275230825077
389.0, 0.05721096446786939
390.0, 0.04898818470163349
391.0, 0.04317879137648039
392.0, 0.04195807930193094
393.0, 0.039297289639481196
394.0, 0.03779598552767482
395.0, 0.037491087538994064
396.0, 0.03404966030715472
397.0, 0.032217246033355684
398.0, 0.03194813407802303
399.0, 0.02944983658666961
400.0, 0.02590296515387896
401.0, 0.025335828679829697
402.0, 0.020138058479422884
403.0, 0.01465489336500824
404.0, 0.01489593113860505
405.0, 0.01678615835240789
406.0, 0.011765076080474704
407.0, 0.0073181460957826225
408.0, 0.0015755291407138898
409.0, 0.0008248061601423948
410.0, 0.00017941715137342326
411.0, 0.0004913558534838227
412.0, 0.0033098045410613233
413.0, 0.0047336167763775356
414.0, 0.0031857468288775193
415.0, 0.0026754556913279872
416.0, 0.004090748386281783
417.0, 0.0005367043548369355
418.0, 0.0009077106967411307
419.0, 0.0015225707425755646
420.0, 0.0029317828229472047
421.0, 0.0002700952843781106
422.0, 0.0046233292480746405
423.0, 0.008427145942570158
424.0, 0.01093764654574924
425.0, 0.015262141108791264
426.0, 0.020663402389218346
427.0, 0.023019508523368745
428.0, 0.024195993630899273
429.0, 0.022224102990579205
430.0, 0.021161016730614803
431.0, 0.023739501074759493
432.0, 0.02766818506342988
433.0, 0.025925767224331417
434.0, 0.020059990341248484
435.0, 0.01441921573806165
436.0, 0.01284917291272966
437.0, 0.014366873898842914
438.0, 0.011570095024277678
439.0, 0.008879562241052533
440.0, 0.011967448378020296
441.0, 0.013226739615474584
442.0, 0.009372666886838842
443.0, 0.0075676839539395874
444.0, 0.006736730676140224
445.0, 0.006563447756188347
446.0, 0.006486204981384246
447.0, 0.006232166169037253
448.0, 0.005589713981403451
449.0, 0.0003951036734345461
450.0, 0.0005119925160199035
451.0, 0.0058422628544053815
452.0, 0.008070060411510122
453.0, 0.0037734492465876196
454.0, 0.00547374228990702
455.0, 0.0015612571925494214
456.0, 0.0012915948108895244
457.0, 0.0007803321471666675
458.0, 0.002789854904742357
459.0, 0.001210336658088263
460.0, 0.0022573585836908262
461.0, 0.004233354703938811
462.0, 0.0067194923081486365
463.0, 0.008732682332084284
464.0, 0.008289675697737642
465.0, 0.005693190903235219
466.0, 0.006613618498768899
467.0, 0.008404888778525634
468.0, 0.008018137508034899
469.0, 0.005672737896009397
470.0, 0.0043343477888984055
471.0, 0.00456329507517447
472.0, 0.004262550360920665
473.0, 0.003037023671418125
474.0, 0.001084267857444901
475.0, 0.0013007559624948495
476.0, 0.007333646885815402
477.0, 0.0020765781497107177
478.0, 0.0012589939319335578
479.0, 0.0011301274160015317
480.0, 0.0004287157984573514
481.0, 0.00039944046151455995
482.0, 0.0003499155700605217
483.0, 0.0008795331805896581
484.0, 0.002375933236054672
485.0, 0.0018180369692493321
486.0, 0.00013043089283739046
487.0, 0.00441392792082904
488.0, 0.0044204319144933195
489.0, 0.0068090326575487095
490.0, 0.007665836068618993
491.0, 0.005309443158703059
492.0, 0.009713807955496355
493.0, 0.010928963550966
494.0, 0.008060567601260471
495.0, 0.009341134169198358
496.0, 0.015049341932111904
497.0, 0.019051389201452083
498.0, 0.022005526179086455
499.0, 0.018924995512895566
500.0, 0.020166175973552903
501.0, 0.024617974604664472
502.0, 0.0276813130834541
503.0, 0.03096094086082666
504.0, 0.03192705355507551
505.0, 0.03497018337941454
506.0, 0.03630664429172879
507.0, 0.03819349967201333
508.0, 0.044280937924792235
509.0, 0.047195188054704136
510.0, 0.049849981833529296
511.0, 0.05268924087077085
512.0, 0.05713274082690065
513.0, 0.06161609223643293
514.0, 0.06179613473878529
515.0, 0.0653683565089375
516.0, 0.06863867785894005
517.0, 0.07252562512634735
518.0, 0.07761785216513946
519.0, 0.08173076659980136
520.0, 0.08234619650745198
521.0, 0.08641909444214411
522.0, 0.09176653059277202
523.0, 0.09575975328544509
524.0, 0.09950444563571959
525.0, 0.1051807473400832
526.0, 0.11128542832366968
527.0, 0.12140583439387347
528.0, 0.12788586856775577
529.0, 0.1354991402071599
530.0, 0.14433180176567284
531.0, 0.1447831901885897
532.0, 0.15300360845630884
533.0, 0.1613889446476757
534.0, 0.1656677277799777
535.0, 0.17167351839243797
536.0, 0.17837673135243806
537.0, 0.17705341698109203
538.0, 0.18822011076609407
539.0, 0.19039763019839903
540.0, 0.1858410013199631
541.0, 0.18459242242836546
542.0, 0.19012326706583388
543.0, 0.18755484020110552
544.0, 0.1886363287922051
545.0, 0.18486146117577498
546.0, 0.18108935718481098
547.0, 0.17982681531269856
548.0, 0.17734242379968382
549.0, 0.17313650997273924
550.0, 0.1709503533970342
551.0, 0.16860040295928944
552.0, 0.1661615599810122
553.0, 0.1600204793069186
554.0, 0.14858059774507526
555.0, 0.14969300332846536
556.0, 0.14556264433320332
557.0, 0.13803655422926997
558.0, 0.13156518074490167
559.0, 0.12711215637654177
560.0, 0.12239718508592276
561.0, 0.12024579920561385
562.0, 0.11680707030962185
563.0, 0.10721816417190955
564.0, 0.09988252447200271
565.0, 0.09824653624257478
566.0, 0.09457815187546999
567.0, 0.08505645313607196
568.0, 0.08127176449126143
569.0, 0.08321045993373552
570.0, 0.08238178680000385
571.0, 0.07642672239943829
572.0, 0.07344108135368942
573.0, 0.07040889261028145
574.0, 0.06578405774416864
575.0, 0.06488874949455276
576.0, 0.06514861289943587
577.0, 0.06273834186384246
578.0, 0.060184623306423574
579.0, 0.0600511389087917
580.0, 0.06088487138809467
581.0, 0.05991488774734332
582.0, 0.05679849329600458
583.0, 0.053182694973374044
584.0, 0.051130607651208665
585.0, 0.04753957885708335
586.0, 0.047911133301301444
587.0, 0.04303856530320182
588.0, 0.037000076572944816
589.0, 0.03229829789728677
590.0, 0.024287935667471238
591.0, 0.021353887174760038
592.0, 0.021494999013077373
593.0, 0.012697163128697078
594.0, 0.004759369124331417
595.0, 0.0032785197722448325
596.0, 0.002386533541944481
597.0, 0.0014813085566397605
598.0, 0.004065752150986628
599.0, 0.005654429448742748
600.0, 0.004931789973772491
601.0, 0.002475262749666327
602.0, 0.0017611774825749694
603.0, 0.0037781049789902058
604.0, 0.0029379986199046275
605.0, 0.0019924793895366795
606.0, 0.002304447854627568
607.0, 0.0032393251394282406
608.0, 0.003894457064683247
609.0, 0.004124382211147541
610.0, 0.0012681503061545258
611.0, 0.0009066620431922246
612.0, 0.000596030424818545
613.0, 0.0002586636199862091
614.0, 0.0011526341559203832
615.0, 0.0033956836930898746
616.0, 0.004269105954048711
617.0, 0.010354891638126026
618.0, 0.011419445730396209
619.0, 0.009854298963532813
620.0, 0.010546396919110312
621.0, 0.012432343671965086
622.0, 0.014062521413014499
623.0, 0.015755716041613407
624.0, 0.015236151361903302
625.0, 0.014227008773372986
626.0, 0.014531986917123854
627.0, 0.01563515569995267
628.0, 0.015600490876534078
629.0, 0.01493433836121638
630.0, 0.018203226525320096
631.0, 0.02330438598108508
632.0, 0.026416543157927394
633.0, 0.024928668958269506
634.0, 0.019004106089507807
635.0, 0.02666015068622301
636.0, 0.02680199537410999
637.0, 0.028599091790141577
638.0, 0.03194612463729646
639.0, 0.03617889817100345
640.0, 0.04122893677481932
641.0, 0.03852065952787889
642.0, 0.04326969759889807
643.0, 0.04556882607493567
644.0, 0.04880148842963863
645.0, 0.05308196106458897
646.0, 0.05609042226447782
647.0, 0.060181241332938125
648.0, 0.06628909826580925
649.0, 0.07327715663699506
650.0, 0.08010706798068158
651.0, 0.08909866061371605
652.0, 0.09752055794110544
653.0, 0.10198674055869886
654.0, 0.11045194404818925
655.0, 0.12482587722833985
656.0, 0.1344020428560019
657.0, 0.14817693831666964
658.0, 0.162191291945076
659.0, 0.1752638649999719
660.0, 0.19921400817005777
661.0, 0.21426714890395201
662.0, 0.23709444471231783
663.0, 0.27185280175984533
664.0, 0.3071045167122532
665.0, 0.3424894616594284
666.0, 0.38481271659332833
667.0, 0.43304646375071293
668.0, 0.4898390970867777
669.0, 0.5430938121092758
670.0, 0.6103215839666395
671.0, 0.687750327596248
672.0, 0.7598876119854752
673.0, 0.8269442084366279
674.0, 0.8920565953108899
675.0, 0.9519318899636705
676.0, 0.9830608327646845
677.0, 0.9972734353032046
678.0, 0.9957483601259173
679.0, 0.9667880939901481
680.0, 0.9088106444466058
681.0, 0.8386574906421093
682.0, 0.756972751251803
683.0, 0.6726172311407631
684.0, 0.5886807405564064
685.0, 0.5076483014361347
686.0, 0.4363066070918371
687.0, 0.37589050687784675
688.0, 0.31763600569823613
689.0, 0.27552362431409255
690.0, 0.2360557414515107
691.0, 0.20183231478686164
692.0, 0.17681522296878494
693.0, 0.15347922524782032
694.0, 0.1343356158526536
695.0, 0.12087376643573337
696.0, 0.10882906715723016
697.0, 0.09757661249438677
698.0, 0.08651587178564324
699.0, 0.07685734688601102
700.0, 0.07047286291673516
701.0, 0.06365472750783446
702.0, 0.057722534369683234
703.0, 0.05576408246888963
704.0, 0.0494501114440713
705.0, 0.04361471160781741
706.0, 0.04314358895247994
707.0, 0.039902357055061406
708.0, 0.03740723827329737
709.0, 0.03352154154821154
710.0, 0.029430480277684676
711.0, 0.02981357510146899
712.0, 0.030447226949132378
713.0, 0.028352700104656004
714.0, 0.027442322842334655
715.0, 0.027523594208357146
716.0, 0.023345593424902666
717.0, 0.019886519979849547
718.0, 0.022911472208068256
719.0, 0.024200783613211443
720.0, 0.020512697978296322
721.0, 0.020501281513577975
722.0, 0.022736867130981695
723.0, 0.021756300477161587
724.0, 0.01985857567565208
725.0, 0.016853726813004635
726.0, 0.01557896122781477
727.0, 0.016463103518611546
728.0, 0.016951993032433683
729.0, 0.019456479250165207
730.0, 0.018407873214752624
731.0, 0.014243484076569154
732.0, 0.011821691509087682
733.0, 0.010745361106622846
734.0, 0.009979503838262275
735.0, 0.011906893391560635
736.0, 0.016595041465538994
737.0, 0.011838712958995868
738.0, 0.01137017499796625
739.0, 0.010807282808753557
740.0, 0.006415155449165339
741.0, 0.003891361126670414
742.0, 0.005987724500866413
743.0, 0.005462631841550963
744.0, 0.004532397091987933
745.0, 0.0021749087020607478
746.0, 0.004721384840495773
747.0, 0.005298225873107938
748.0, 0.0028398773751202385
749.0, 0.0020506854320587876
750.0, 0.00012952425474605132
751.0, 0.001421773708667179
752.0, 0.0005620731183138965
753.0, 0.0011306996315527385
754.0, 0.002407411826027474
755.0, 0.00042798611881444016
756.0, 0.0014897925755932295
757.0, 0.0027292618662100505
758.0, 0.004004798104580861
759.0, 0.0049956566878383716
760.0, 0.0022828715995283897
761.0, 0.0018610742359315567
762.0, 0.002031463812515679
763.0, 0.001128423210165128
764.0, 0.0005891357145982463
765.0, 0.001502781564410788
766.0, 0.0012552372745405183
767.0, 0.0004643875372562715
768.0, 0.000506611583337381
769.0, 0.0005436420173147071
770.0, 0.0013299531386558932
771.0, 0.00099042884801818
772.0, 0.0012921334612152403
773.0, 0.0015315298878255292
774.0, 0.0034533555903400333
775.0, 0.002276583785409198
776.0, 0.0033771293422924023
777.0, 0.002170086952198881
778.0, 0.0037255988996315235
779.0, 0.0023064290248041405
780.0, 0.0007047928815325609
781.0, 0.005149373067916706
782.0, 0.0067312599927034965
783.0, 0.00736185529313722
784.0, 0.006452148475617254
785.0, 0.0045443730444274626
786.0, 0.004681826985274798
787.0, 0.0063721021626862795
788.0, 0.0020739559798226633
789.0, 0.0017484548005879642
790.0, 0.006134305961300033
791.0, 0.00525516879745222
792.0, 0.0034793967378858844
793.0, 0.004173659734273271
794.0, 0.005569332896609705
795.0, 0.006145515061571987
796.0, 0.006721758669086231
797.0, 0.005540522186645096
798.0, 0.0032612228912960186
799.0, 0.002713604671431678
800.0, 0.004617688384995669
801.0, 0.004896498453782718
802.0, 0.003337274740157984
803.0, 0.005156684028147784
804.0, 0.007543756633098415
805.0, 0.009805309303806476
806.0, 0.007489875604172344
807.0, 0.006989898148019224
808.0, 0.00721180691235706
809.0, 0.007200730459581788
810.0, 0.008257618456302015
811.0, 0.008319050733640448
812.0, 0.006261709798741655
813.0, 0.00535719342213838
814.0, 0.004835333355499994
815.0, 0.006951439678547963
816.0, 0.005774685233654175
817.0, 0.0015436367504627108
818.0, 0.0010295875636464208
819.0, 0.0025766877170708504
820.0, 0.00046805919680520587
821.0, 0.0033368670580808985
822.0, 0.0025614547044801816
823.0, 0.0015487660562018776
824.0, 0.0036450773730752023
825.0, 0.0037662880381014
826.0, 0.0021961352952329736
827.0, 0.005889179776612757
828.0, 0.008949016012397452
829.0, 0.008217071803153803
830.0, 0.006898472086789829
831.0, 0.004771871749520214
832.0, 0.004466873280996537
833.0, 0.004537109417328061
834.0, 0.002121535115031571
835.0, 0.0018900171969326337
836.0, 0.005496569568909668
837.0, 0.00554998631317816
838.0, 0.0074362686063966805
839.0, 0.003759097653989139
840.0, 0.0041811501821887994
841.0, 0.007686574532415355
842.0, 0.006138285257916847
843.0, 0.002700600613620017
844.0, 0.005979550152175625
845.0, 0.00491107594361921
846.0, 0.002748963199695262
847.0, 0.003098044003855829
848.0, 0.004881931389842553
849.0, 0.004322357767386406
850.0, 0.0038825684738165844
851.0, 0.005201886834718149
852.0, 0.00376937753802252
853.0, 0.0012045334895344243
854.0, 0.001569577461648895
855.0, 0.0038090610570769303
856.0, 0.0059967041811645186
857.0, 0.002308369197276306
858.0, 0.0014206261975091956
859.0, 0.0014218128122525536
860.0, 0.0012869398594459504
861.0, 0.0031169059358052134
862.0, 0.0011309208810406876
863.0, 0.003684635061642413
864.0, 0.004179935437060965
865.0, 0.003432654968635018
866.0, 0.002118199518612487
867.0, 0.0022010930102408866
868.0, 0.0015826066235060767
869.0, 0.0026349027566228388
870.0, 0.0041498916974371655
871.0, 0.0017344621026252748
872.0, 0.002624868095866252
873.0, 0.00433010393183682
874.0, 0.0035878694575735633
875.0, 0.0029994300815176936
876.0, 0.00375527815975629
877.0, 0.004604839318543072
878.0, 0.004732171621241454
879.0, 0.0033003196773968638
880.0, 0.0009295180425873879
881.0, 0.0026315503141558817
882.0, 0.0018423360591933423
883.0, 0.0031104417776148825
884.0, 0.006454916504246924
885.0, 0.004203725735309815
886.0, 0.0010882033738207713
887.0, 0.002692737051093191
888.0, 0.0061000565250428395
889.0, 0.009230404201893859
890.0, 0.008538605952647011
891.0, 0.009188409978009359
892.0, 0.006388191880369326
893.0, 0.00517685171335355
894.0, 0.006825885292619929
895.0, 0.0044834989040387335
896.0, 0.0019036438784643217
897.0, 0.009013422633771669
898.0, 0.010467744774084225
899.0, 0.008921066944016162
900.0, 0.0071348694013428126
901.0, 0.010628579703160952
902.0, 0.013633573264402574
903.0, 0.013352865326792052
904.0, 0.011924640107422226
905.0, 0.009968482699867727
906.0, 0.014961830618393606
907.0, 0.01558616149847695
908.0, 0.012991905859056806
909.0, 0.01675472321659145
910.0, 0.01919113959035232
911.0, 0.01871671455396545
912.0, 0.01971160514045454
913.0, 0.021241280849279107
914.0, 0.02222593983080086
915.0, 0.0258078479346291
916.0, 0.025676136843602728
917.0, 0.030763476781281638
918.0, 0.028129471577106876
919.0, 0.03282822072625694
920.0, 0.03307198504309516
921.0, 0.03437258780882743
922.0, 0.03842343767691213
923.0, 0.0388491507249954
924.0, 0.04238191936680509
925.0, 0.0435497247976088
926.0, 0.03933745717848836
927.0, 0.04368236173107579
928.0, 0.04556103687303244
929.0, 0.04403586393425911
930.0, 0.04378401029447723
931.0, 0.041084074056698824
932.0, 0.03760767830652263
933.0, 0.039127157947944836
934.0, 0.03753765459739872
935.0, 0.037299635329288094
936.0, 0.036413030301719364
937.0, 0.029250395771607127
938.0, 0.029827710033790002
939.0, 0.03149713556138394
940.0, 0.030323603778484122
941.0, 0.02743659215998085
942.0, 0.023050866945900212
943.0, 0.021594551212741578
944.0, 0.02561081806917022
945.0, 0.01975670643481244
946.0, 0.02220728210389654
947.0, 0.02018853132112896
948.0, 0.018131922199486967
949.0, 0.01966086551439842
950.0, 0.020631853821943033
951.0, 0.020255297480549612
952.0, 0.021263253030400175
953.0, 0.023497920766498776
954.0, 0.025713335597787403
955.0, 0.023970690794024502
956.0, 0.023000024673504458
957.0, 0.022596216108547087
958.0, 0.0232124180328727
959.0, 0.02572862318887482
960.0, 0.022901013926132984
961.0, 0.021380859478684653
962.0, 0.025808792092196046
963.0, 0.027051256960941163
964.0, 0.024657111804765465
965.0, 0.02571376416068378
966.0, 0.026524466085625184
967.0, 0.02394564277210006
968.0, 0.02441300907706737
969.0, 0.023794439203276407
970.0, 0.02229329161536294
971.0, 0.022515547202315585
972.0, 0.023023065370865098
973.0, 0.02200098603323171
974.0, 0.021379726826396387
975.0, 0.02106494961038866
976.0, 0.01892248897780262
977.0, 0.01833976453445802
978.0, 0.017085999093664032
979.0, 0.01539182252734353
980.0, 0.012999987318537905
981.0, 0.018088005274997227
982.0, 0.017032472480815505
983.0, 0.0203733116152471
984.0, 0.03235947757512786
985.0, 0.008105319177419105
986.0, 0.010419503552179334
987.0, 0.003589326348410685
988.0, 0.0028709765982870483
989.0, 0.004217280816593956
990.0, 0.0021579276627956274
991.0, 0.0003092399588423903
992.0, 0.0018677422430545272
993.0, 0.0035659259650492455
994.0, 0.0023856623663756583
995.0, 0.0010888777434467888
996.0, 0.0015310214278331377
997.0, 0.0005997959504847779
998.0, 0.00041011705747833084
999.0, 0.004370031885833223
1000.0, 0.0016568182018406213
1001.0, 0.0001591078139839431
1002.0, 0.0005331996002851575
1003.0, 0.0028399108137534368
1004.0, 0.0018082108982345052
1005.0, 0.001453444483116141
1006.0, 0.0016676942961621067
1007.0, 0.001038126013893977
1008.0, 0.004556084325549127
1009.0, 0.0013038084645976833
1010.0, 0.0011492037619275362
1011.0, 0.001822876990561833
1012.0, 0.0022943905181867594
1013.0, 0.004339566418431142
1014.0, 0.004383326416651266
1015.0, 0.0018086720115141942
1016.0, 0.0008248029553077009
1017.0, 0.003080011202849039
1018.0, 0.005535955183970738
1019.0, 0.0034101879105850543
1020.0, 0.004235404204093402
1021.0, 0.005901881863912113
1022.0, 0.005464018900404082
1023.0, 0.0050069353862579186
1024.0, 0.004711509523930854
1025.0, 0.004247904290946725
1026.0, 0.005085082313429918
1027.0, 0.006976991241185288
1028.0, 0.009200909752493687
1029.0, 0.01169938783678829
1030.0, 0.01298172851921018
1031.0, 0.013941317619866861
1032.0, 0.01455202773185965
1033.0, 0.017676724490971137
1034.0, 0.02174698562853109
1035.0, 0.022188827684499073
1036.0, 0.0229985250026303
1037.0, 0.025106913972967968
1038.0, 0.032197429408609
1039.0, 0.0367161296464856
1040.0, 0.03624829029968117
1041.0, 0.03941618797331075
1042.0, 0.04467945593119001
1043.0, 0.04524084841545512
1044.0, 0.04595410797864316
1045.0, 0.05141013254271894
1046.0, 0.05814848530277021
1047.0, 0.060649572250060894
1048.0, 0.06319061964823995
1049.0, 0.06669134893969836
1050.0, 0.07190562060956551
1051.0, 0.07964616017814433
1052.0, 0.08305494965280083
1053.0, 0.08339831856195354
1054.0, 0.09210076830265877
1055.0, 0.10395655060326728
1056.0, 0.10593021267797308
1057.0, 0.1120712408078489
1058.0, 0.11334617060405174
1059.0, 0.12039466373941167
1060.0, 0.12739749326246413
1061.0, 0.13009289865548254
1062.0, 0.13117774567538923
1063.0, 0.13055827450293406
1064.0, 0.12846438147351064
1065.0, 0.12835360349311034
1066.0, 0.12998248545900065
1067.0, 0.12942136953674227
1068.0, 0.12674581968859067
1069.0, 0.11925631314806182
1070.0, 0.11173501443449439
1071.0, 0.11196702928890236
1072.0, 0.10112060952989013
1073.0, 0.0969409977285241
1074.0, 0.0935414336980045
1075.0, 0.0864327466541127
1076.0, 0.0816013899442883
1077.0, 0.07737736459463061
1078.0, 0.07121986584795084
1079.0, 0.065396462322401
1080.0, 0.05917242081276301
1081.0, 0.05277027384936725
1082.0, 0.0512227342883059
1083.0, 0.047918850246709055
1084.0, 0.0445526442500192
1085.0, 0.041622538445487633
1086.0, 0.03590498633472785
1087.0, 0.03248098494956641
1088.0, 0.03055900849239407
1089.0, 0.031061529765139397
1090.0, 0.030008188894145322
1091.0, 0.027366436412390227
1092.0, 0.024690473265286898
1093.0, 0.022294142258078114
1094.0, 0.023083317548251717
1095.0, 0.02403809691650706
1096.0, 0.02081701224459794
1097.0, 0.01772651972419458
1098.0, 0.015319016222514279
1099.0, 0.010931176819942144
1100.0, 0.010137318001951258
1101.0, 0.010984375878402862
1102.0, 0.010018967312116323
1103.0, 0.011893739409598016
1104.0, 0.01317512344224632
1105.0, 0.010148617214529981
1106.0, 0.01007089314894718
1107.0, 0.010645580384022912
1108.0, 0.00693580908441486
1109.0, 0.0123358437450278
1110.0, 0.01080255846494853
1111.0, 0.008218416362645012
1112.0, 0.010230819612439926
1113.0, 0.010517814193705384
1114.0, 0.01223430967687688
1115.0, 0.011102495350101552
1116.0, 0.010992992025426989
1117.0, 0.010952961192676046
1118.0, 0.01073490399918979
1119.0, 0.011323599952555562
1120.0, 0.011447951037330395
1121.0, 0.011123974560646809
1122.0, 0.011777021715293696
1123.0, 0.01172020599711102
1124.0, 0.010338080156449604
1125.0, 0.011454995876309802
1126.0, 0.0068900428974658055
1127.0, 0.005277211353802022
1128.0, 0.008453856220462448
1129.0, 0.007282242810142072
1130.0, 0.004336580348860556
1131.0, 0.012564700589656233
1132.0, 0.013471321351576224
1133.0, 0.010717404425034315
1134.0, 0.008001522249082032
1135.0, 0.005174531366927133
1136.0, 0.00473196888356332
1137.0, 0.00618867357689155
1138.0, 0.008145473264935737
1139.0, 0.006672001656566669
1140.0, 0.004516723158167478
1141.0, 0.006013334089220349
1142.0, 0.005356186721219663
1143.0, 0.004981281742254209
1144.0, 0.002511143052075409
1145.0, 0.0039216630132127206
1146.0, 0.004333087126121012
1147.0, 0.0008636503686338954
1148.0, 0.00409515040221675
1149.0, 0.003854257717890595
1150.0, 0.00024253568583351226
1151.0, 0.0009534224582734976
1152.0, 0.001255841227509994
1153.0, 0.0019108301415177392
1154.0, 0.0007167534813788487
1155.0, 0.0022242695741576785
1156.0, 0.0008565581625936094
1157.0, 0.0012482437733543092
1158.0, 0.00048472310774002583
1159.0, 0.00202768318662318
1160.0, 0.0022624474605419244
1161.0, 0.0016733962017976252
1162.0, 0.0013602469469568752
1163.0, 0.0007100335488559721
1164.0, 0.0012508060547335447
1165.0, 0.0005161387522747998
1166.0, 0.0004908176572225924
1167.0, 0.0011086283872002848
1168.0, 0.0008444237777946963
1169.0, 0.001576076273983712
1170.0, 0.0005853346236050982
1171.0, 0.0008713333952359704
1172.0, 0.0027551926525816025
1173.0, 0.0015047778446635528
1174.0, 0.0016042532436292647
1175.0, 0.004663273053273261
1176.0, 0.004668803223096684
1177.0, 0.0019662338529162927
1178.0, 0.0047643711002420125
1179.0, 0.007013717665037654
1180.0, 0.004104042093572557
1181.0, 0.0035065029983950805
1182.0, 0.007115945629755121
1183.0, 0.0049557808898986816
1184.0, 0.0034680546843905437
1185.0, 0.004751582876861649
1186.0, 0.0064700872273972376
1187.0, 0.005325485057334613
1188.0, 0.004351512451326293
1189.0, 0.0054904480304511245
1190.0, 0.005159447331483715
1191.0, 0.006176905426602123
1192.0, 0.006301977023561249
1193.0, 0.006315255343788524
1194.0, 0.009347903810183078
1195.0, 0.010658412197896979
1196.0, 0.009893939259950886
1197.0, 0.007837403472630584
1198.0, 0.006727337356027928
1199.0, 0.009527608387496214
1200.0, 0.009412351092186577
1201.0, 0.012179424523628175
1202.0, 0.007579123825173287
1203.0, 0.006795302495528974
1204.0, 0.00919639320470905
1205.0, 0.00996891862044512
1206.0, 0.009500174127734838
1207.0, 0.00985734922212067
1208.0, 0.010191426054913253
1209.0, 0.010547438332567985
1210.0, 0.010698156722695674
1211.0, 0.007892385164653846
1212.0, 0.008355000094398215
1213.0, 0.009610968882229651
1214.0, 0.011597484794755234
1215.0, 0.006367836645725447
1216.0, 0.01001220652265219
1217.0, 0.010349357489012098
1218.0, 0.010053797644481922
1219.0, 0.009023507384567052
1220.0, 0.009952293948671692
1221.0, 0.00859829591341646
1222.0, 0.008916159416612886
1223.0, 0.0078094769739057825
1224.0, 0.006772523503208595
1225.0, 0.005214383122846422
1226.0, 0.00421304198485687
1227.0, 0.007410151246887032
1228.0, 0.007701872157396223
1229.0, 0.004251073524505956
1230.0, 0.003995169082125466
1231.0, 0.005424357413563761
1232.0, 0.005797578122537987
1233.0, 0.004848857494661999
1234.0, 0.004854151353286887
1235.0, 0.0054551584236028705
1236.0, 0.003953930124736866
1237.0, 0.0021608792882111053
1238.0, 0.007648853525728669
1239.0, 0.0066553822681018875
1240.0, 0.00446512718378189
1241.0, 0.0082426887055809
1242.0, 0.007830361844591677
1243.0, 0.0037908836154284314
1244.0, 0.0051721404958857435
1245.0, 0.0035295358116742026
1246.0, 0.0030626967929405563
1247.0, 0.0037600425950316545
1248.0, 0.004450425725116385
1249.0, 0.0016966648496074144
1250.0, 0.0034961373436191343
1251.0, 0.004716418652654235
1252.0, 0.001547840910837484
1253.0, 0.0003053817611970741
1254.0, 0.0020165508705296434
1255.0, 0.003883421797381422
1256.0, 0.003385757730418713
1257.0, 0.0043047188686313985
1258.0, 0.003981687215634522
1259.0, 0.0014613489944421774
1260.0, 0.0028431357913488334
1261.0, 0.0034640996476668615
1262.0, 0.002777988225989306
1263.0, 0.0031791216775274114
1264.0, 0.004057487717186751
1265.0, 0.003797228954670047
1266.0, 0.0017909564960698987
1267.0, 0.004347038505530774
1268.0, 0.0011454285440433145
1269.0, 0.0048552701292469275
1270.0, 0.002528168442228996
1271.0, 0.0018535413447390565
1272.0, 0.002792924067050875
1273.0, 0.0030158318150671918
1274.0, 0.0012174504574133595
1275.0, 9.93534389683529e-05
1276.0, 0.002600196712059446
1277.0, 0.0010877060555389707
1278.0, 0.0016063331611703394
1279.0, 0.004800084761815886
1280.0, 0.0031393359402616667
1281.0, 0.0010196430963968356
1282.0, 0.0024940658833093304
1283.0, 0.0020634714543160387
1284, 0.0
1285, 0.0
1286, 0.0
1287, 0.0
1288, 0.0
1289, 0.0
1290, 0.0
1291, 0.0
1292, 0.0
1293, 0.0
1294, 0.0
1295, 0.0
1296, 0.0
1297, 0.0
1298, 0.0
1299, 0.0
1300, 0.0
1301, 0.0
1302, 0.0
1303, 0.0
1304, 0.0
1305, 0.0
1306, 0.0
1307, 0.0
1308, 0.0
1309, 0.0
1310, 0.0
1311, 0.0
1312, 0.0
1313, 0.0
1314, 0.0
1315, 0.0
1316, 0.0
1317, 0.0
1318, 0.0
1319, 0.0
1320, 0.0
1321, 0.0
1322, 0.0
1323, 0.0
1324, 0.0
1325, 0.0
1326, 0.0
1327, 0.0
1328, 0.0
1329, 0.0
1330, 0.0
1331, 0.0
1332, 0.0
1333, 0.0
1334, 0.0
1335, 0.0
1336, 0.0
1337, 0.0
1338, 0.0
1339, 0.0
1340, 0.0
1341, 0.0
1342, 0.0
1343, 0.0
1344, 0.0
1345, 0.0
1346, 0.0
1347, 0.0
1348, 0.0
1349, 0.0
1350, 0.0
1351, 0.0
1352, 0.0
1353, 0.0
1354, 0.0
1355, 0.0
1356, 0.0
1357, 0.0
1358, 0.0
1359, 0.0
1360, 0.0
1361, 0.0
1362, 0.0
1363, 0.0
1364, 0.0
1365, 0.0
1366, 0.0
1367, 0.0
1368, 0.0
1369, 0.0
1370, 0.0
1371, 0.0
1372, 0.0
1373, 0.0
1374, 0.0
1375, 0.0
1376, 0.0
1377, 0.0
1378, 0.0
1379, 0.0
1380, 0.0
1381, 0.0
1382, 0.0
1383, 0.0
1384, 0.0
1385, 0.0
1386, 0.0
1387, 0.0
1388, 0.0
1389, 0.0
1390, 0.0
1391, 0.0
1392, 0.0
1393, 0.0
1394, 0.0
1395, 0.0
1396, 0.0
1397, 0.0
1398, 0.0
1399, 0.0
1400, 0.0
1401, 0.0
1402, 0.0
1403, 0.0
1404, 0.0
1405, 0.0
1406, 0.0
1407, 0.0
1408, 0.0
1409, 0.0
1410, 0.0
1411, 0.0
1412, 0.0
1413, 0.0
1414, 0.0
1415, 0.0
1416, 0.0
1417, 0.0
1418, 0.0
1419, 0.0
1420, 0.0
1421, 0.0
1422, 0.0
1423, 0.0
1424, 0.0
1425, 0.0
1426, 0.0
1427, 0.0
1428, 0.0
1429, 0.0
1430, 0.0
1431, 0.0
1432, 0.0
1433, 0.0
1434, 0.0
1435, 0.0
1436, 0.0
1437, 0.0
1438, 0.0
1439, 0.0
1440, 0.0
1441, 0.0
1442, 0.0
1443, 0.0
1444, 0.0
1445, 0.0
1446, 0.0
1447, 0.0
1448, 0.0
1449, 0.0
1450, 0.0
1451, 0.0
1452, 0.0
1453, 0.0
1454, 0.0
1455, 0.0
1456, 0.0
1457, 0.0
1458, 0.0
1459, 0.0
1460, 0.0
1461, 0.0
1462, 0.0
1463, 0.0
1464, 0.0
1465, 0.0
1466, 0.0
1467, 0.0
1468, 0.0
1469, 0.0
1470, 0.0
1471, 0.0
1472, 0.0
1473, 0.0
1474, 0.0
1475, 0.0
1476, 0.0
1477, 0.0
1478, 0.0
1479, 0.0
1480, 0.0
1481, 0.0
1482, 0.0
1483, 0.0
1484, 0.0
1485, 0.0
1486, 0.0
1487, 0.0
1488, 0.0
1489, 0.0
1490, 0.0
1491, 0.0
1492, 0.0
1493, 0.0
1494, 0.0
1495, 0.0
1496, 0.0
1497, 0.0
1498, 0.0
1499, 0.0
1500, 0.0
1501, 0.0
1502, 0.0
1503, 0.0
1504, 0.0
1505, 0.0
1506, 0.0
1507, 0.0
1508, 0.0
1509, 0.0
1510, 0.0
1511, 0.0
1512, 0.0
1513, 0.0
1514, 0.0
1515, 0.0
1516, 0.0
1517, 0.0
1518, 0.0
1519, 0.0
1520, 0.0
1521, 0.0
1522, 0.0
1523, 0.0
1524, 0.0
1525, 0.0
1526, 0.0
1527, 0.0
1528, 0.0
1529, 0.0
1530, 0.0
1531, 0.0
1532, 0.0
1533, 0.0
1534, 0.0
1535, 0.0
1536, 0.0
1537, 0.0
1538, 0.0
1539, 0.0
1540, 0.0
1541, 0.0
1542, 0.0
1543, 0.0
1544, 0.0
1545, 0.0
1546, 0.0
1547, 0.0
1548, 0.0
1549, 0.0
1550, 0.0
1551, 0.0
1552, 0.0
1553, 0.0
1554, 0.0
1555, 0.0
1556, 0.0
1557, 0.0
1558, 0.0
1559, 0.0
1560, 0.0
1561, 0.0
1562, 0.0
1563, 0.0
1564, 0.0
1565, 0.0
1566, 0.0
1567, 0.0
1568, 0.0
1569, 0.0
1570, 0.0
1571, 0.0
1572, 0.0
1573, 0.0
1574, 0.0
1575, 0.0
1576, 0.0
1577, 0.0
1578, 0.0
1579, 0.0
1580, 0.0
1581, 0.0
1582, 0.0
1583, 0.0
1584, 0.0
1585, 0.0
1586, 0.0
1587, 0.0
1588, 0.0
1589, 0.0
1590, 0.0
1591, 0.0
1592, 0.0
1593, 0.0
1594, 0.0
1595, 0.0
1596, 0.0
1597, 0.0
1598, 0.0
1599, 0.0
