30, 0.0
31, 0.0
32, 0.0
33, 0.0
34, 0.0
35, 0.0
36, 0.0
37, 0.0
38, 0.0
39, 0.0
40, 0.0
41, 0.0
42, 0.0
43, 0.0
44, 0.0
45, 0.0
46, 0.0
47, 0.0
48, 0.0
49, 0.0
50, 0.0
51, 0.0
52, 0.0
53, 0.0
54, 0.0
55, 0.0
56, 0.0
57, 0.0
58, 0.0
59, 0.0
60, 0.0
61, 0.0
62, 0.0
63, 0.0
64, 0.0
65, 0.0
66, 0.0
67, 0.0
68, 0.0
69, 0.0
70, 0.0
71, 0.0
72, 0.0
73, 0.0
74, 0.0
75, 0.0
76, 0.0
77, 0.0
78, 0.0
79, 0.0
80, 0.0
81, 0.0
82, 0.0
83, 0.0
84, 0.0
85, 0.0
86, 0.0
87, 0.0
88, 0.0
89, 0.0
90, 0.0
91, 0.0
92, 0.0
93, 0.0
94, 0.0
95, 0.0
96, 0.0
97, 0.0
98, 0.0
99, 0.0
100, 0.0
101, 0.0
102, 0.0
103, 0.0
104, 0.0
105, 0.0
106, 0.0
107, 0.0
108, 0.0
109, 0.0
110, 0.0
111, 0.0
112, 0.0
113, 0.0
114, 0.0
115, 0.0
116, 0.0
117, 0.0
118, 0.0
119, 0.0
120, 0.0
121, 0.0
122, 0.0
123, 0.0
124, 0.0
125, 0.0
126, 0.0
127, 0.0
128, 0.0
129, 0.0
130, 0.0
131, 0.0
132, 0.0
133, 0.0
134, 0.0
135, 0.0
136, 0.0
137, 0.0
138.0, 0.0020103833226444907
139.0, 0.004880886035130348
140.0, 0.0070304987773153515
141.0, 0.015838735315060658
142.0, 0.01554562991629407
143.0, 0.016114959845228902
144.0, 0.018941129338064102
145.0, 0.024931230736709067
146.0, 0.03855470956870878
147.0, 0.05456189166202916
148.0, 0.054073607240544615
149.0, 0.06076258646650204
150.0, 0.08063373865819162
151.0, 0.09860747474808965
152.0, 0.10108569372795875
153.0, 0.10848878598371708
154.0, 0.10862544014893154
155.0, 0.10615725779269587
156.0, 0.10902369253675687
157.0, 0.10653505203125327
158.0, 0.10903995550330695
159.0, 0.11507984868409142
160.0, 0.12188431118106197
161.0, 0.12847696687712754
162.0, 0.13735501100870226
163.0, 0.14249276117762624
164.0, 0.13709074433450313
165.0, 0.13312656986082258
166.0, 0.1287813600414128
167.0, 0.11409988040157339
168.0, 0.09202837533965835
169.0, 0.08826225264978327
170.0, 0.07641010571752105
171.0, 0.06293321575894985
172.0, 0.054886139763490584
173.0, 0.04017852623906576
174.0, 0.02738064464955883
175.0, 0.021955215895578868
176.0, 0.016248281903659553
177.0, 0.010097794847572325
178.0, 0.009861140148045532
179.0, 0.0036789214727059264
180.0, 0.0021634184293431043
181.0, 0.004633424157938433
182.0, 0.008712061684245176
183.0, 0.011115951951932431
184.0, 0.007699881463425571
185.0, 0.002789067641112283
186.0, 0.01960231994952904
187.0, 0.0335542636573749
188.0, 0.03668180726703774
189.0, 0.04430822417928121
190.0, 0.05011328833541621
191.0, 0.06341948784936322
192.0, 0.069359275255472
193.0, 0.07220419704310586
194.0, 0.07999479604401123
195.0, 0.08563843194110338
196.0, 0.0776983087735209
197.0, 0.07771230569429416
198.0, 0.08473886544201928
199.0, 0.09344682650154014
200.0, 0.09715658209727884
201.0, 0.10315524181883454
202.0, 0.09991663515069242
203.0, 0.09185687587217731
204.0, 0.0782588669283005
205.0, 0.06124573275231571
206.0, 0.06072212928339477
207.0, 0.05609995063922056
208.0, 0.05980955209627771
209.0, 0.06552841452179083
210.0, 0.06831160572033532
211.0, 0.06806219752683629
212.0, 0.07582683897382136
213.0, 0.07896642386964386
214.0, 0.07934334986783347
215.0, 0.07758570607737197
216.0, 0.0748616318919933
217.0, 0.07525792097374479
218.0, 0.07472655067526483
219.0, 0.07471973292259684
220.0, 0.07380823589201034
221.0, 0.07103206611825953
222.0, 0.06623255610964397
223.0, 0.05944724203063442
224.0, 0.0527193142977693
225.0, 0.04789913103192288
226.0, 0.04512473638361498
227.0, 0.043064779926652044
228.0, 0.038379642841002856
229.0, 0.03719598111310105
230.0, 0.03783625417627497
231.0, 0.03527070217754566
232.0, 0.031354838829658074
233.0, 0.031017831271041747
234.0, 0.024402988155938582
235.0, 0.02752416509061167
236.0, 0.027249493606299774
237.0, 0.024916804596847707
238.0, 0.023402987419509257
239.0, 0.023178503677749054
240.0, 0.026557813473163137
241.0, 0.024009043724796505
242.0, 0.023809684510170903
243.0, 0.02516916048926721
244.0, 0.024168085186758306
245.0, 0.02303450257959691
246.0, 0.023667720352742404
247.0, 0.0244536920895962
248.0, 0.025385571527306177
249.0, 0.02594550542035999
250.0, 0.0251667101017355
251.0, 0.024298011341813894
252.0, 0.023284782053829736
253.0, 0.020688321153429386
254.0, 0.01896396810156229
255.0, 0.019439648417616123
256.0, 0.018782102475750368
257.0, 0.016797312247082478
258.0, 0.010678158440996439
259.0, 0.007184640320538783
260.0, 0.0057902137779297985
261.0, 0.0027791751510785603
262.0, 0.0012321586585784302
263.0, 0.0006465874996308305
264.0, 0.005116738045148112
265.0, 0.006878632271796694
266.0, 0.004886564249011547
267.0, 0.006079626607509483
268.0, 0.001140000195880592
269.0, 0.0004401826820695108
270.0, 0.002014566481793794
271.0, 0.006400862226658637
272.0, 0.012067818233265568
273.0, 0.012373206923169476
274.0, 0.006018173486723767
275.0, 0.001985330010336955
276.0, 0.002974370375749751
277.0, 0.007085134091428705
278.0, 0.009494873914359474
279.0, 0.0037905991220716613
280.0, 0.006021344140052454
281.0, 0.0036526946080195407
282.0, 0.003495955569031693
283.0, 0.005804387891618352
284.0, 0.00478979195756499
285.0, 0.008468108563741113
286.0, 0.009187072010782263
287.0, 0.0130938976221606
288.0, 0.018827663441104044
289.0, 0.024040977146712873
290.0, 0.027411050371129717
291.0, 0.024054103674595106
292.0, 0.02328156897761161
293.0, 0.022048457557519694
294.0, 0.024815620989701297
295.0, 0.0339744496484384
296.0, 0.04081876742231072
297.0, 0.03455635610830593
298.0, 0.03675440866979703
299.0, 0.03822544500703277
300.0, 0.03716050778275557
301.0, 0.03572640246247457
302.0, 0.03184843456597131
303.0, 0.03947376700349949
304.0, 0.04622533336535339
305.0, 0.04745951092914201
306.0, 0.04425902640107935
307.0, 0.041570194774224294
308.0, 0.04121438501474212
309.0, 0.037262339214430104
310.0, 0.034396170862430415
311.0, 0.032244047128647424
312.0, 0.02933004302323065
313.0, 0.024806303582414608
314.0, 0.028132518876492776
315.0, 0.0238860574328348
316.0, 0.023197110807683812
317.0, 0.021426477918671416
318.0, 0.014813335905831265
319.0, 0.00808186667598354
320.0, 0.008820454033132655
321.0, 0.011492396091911496
322.0, 0.01326034470854344
323.0, 0.013125634308507685
324.0, 0.01021059508889893
325.0, 0.0023647618902570737
326.0, 0.002482393863504995
327.0, 0.0020465536371162877
328.0, 0.005610448576586676
329.0, 0.0076478074012049395
330.0, 0.00404053267899095
331.0, 0.009078127371822335
332.0, 0.004071997494409332
333.0, 0.0032637296440214247
334.0, 0.003965308545034681
335.0, 0.005777842083868668
336.0, 0.00845516058110136
337.0, 0.005061702068428712
338.0, 0.006419721474590986
339.0, 0.006623897774873885
340.0, 0.004645884903733932
341.0, 0.00234711012396545
342.0, 0.0024006883631222877
343.0, 0.00287551947590536
344.0, 0.011760344236829704
345.0, 0.009341646518628524
346.0, 0.014645777700296715
347.0, 0.023893395751348426
348.0, 0.01877111942997655
349.0, 0.033761411164122616
350.0, 0.03844360552731451
351.0, 0.03903092992822417
352.0, 0.038261642406849095
353.0, 0.0391905258888252
354.0, 0.04426353443932093
355.0, 0.04918748894748899
356.0, 0.05055051989523115
357.0, 0.05716458637515477
358.0, 0.06600992129555272
359.0, 0.0691502455842102
360.0, 0.060741643126452
361.0, 0.06984327463100264
362.0, 0.07316671725325363
363.0, 0.0678997456378301
364.0, 0.061463925523863344
365.0, 0.05990646252951502
366.0, 0.06338427718931067
367.0, 0.05848303883698836
368.0, 0.058701730741512484
369.0, 0.05541235785760035
370.0, 0.05543398213966971
371.0, 0.057677234856041475
372.0, 0.05213697481805749
373.0, 0.05583743398187711
374.0, 0.04772782816404163
375.0, 0.050771048683074374
376.0, 0.04798753482317315
377.0, 0.03834604850767158
378.0, 0.04221662131566634
379.0, 0.03912866028053269
380.0, 0.03795219769508028
381.0, 0.03793378104996105
382.0, 0.03885719230681724
383.0, 0.03978657741642029
384.0, 0.03953411004768479
385.0, 0.0407017253864559
386.0, 0.040111195569078405
387.0, 0.03771586813465934
388.0, 0.035703627230778814
389.0, 0.03477745910799187
390.0, 0.03405044774881656
391.0, 0.03502941771494957
392.0, 0.03411607221310344
393.0, 0.03533021247302935
394.0, 0.03765760420650804
395.0, 0.039029075228570013
396.0, 0.03733079149764496
397.0, 0.030695710110121382
398.0, 0.027713575006523813
399.0, 0.027125953001226968
400.0, 0.02876140955507079
401.0, 0.028822172795469607
402.0, 0.023563574841691182
403.0, 0.020753087707326926
404.0, 0.022816813240654536
405.0, 0.021055969636880726
406.0, 0.019674260304492874
407.0, 0.01831939055879075
408.0, 0.014663067287015165
409.0, 0.012602011553237192
410.0, 0.012917881302569609
411.0, 0.013015316942164968
412.0, 0.01176526311236685
413.0, 0.012840175235147574
414.0, 0.017315132191945467
415.0, 0.013535807656972003
416.0, 0.014705328789554667
417.0, 0.01851748843287766
418.0, 0.0138693247233703
419.0, 0.01142097752947986
420.0, 0.01916434686743932
421.0, 0.021044228329849785
422.0, 0.015642128464856218
423.0, 0.024157226082439948
424.0, 0.028587950370960083
425.0, 0.030362842787848354
426.0, 0.033972185224505715
427.0, 0.03816293683600625
428.0, 0.04156350271702058
429.0, 0.038432547007185444
430.0, 0.04090442341834973
431.0, 0.04324749179068274
432.0, 0.04400110050998454
433.0, 0.04867970756413256
434.0, 0.04471597920368868
435.0, 0.042910331094698675
436.0, 0.044646336797491096
437.0, 0.049543811216092574
438.0, 0.05240555746664532
439.0, 0.047392991091292545
440.0, 0.0399216240111165
441.0, 0.04386070034075005
442.0, 0.038054062847365365
443.0, 0.0342419690543968
444.0, 0.031158526764049326
445.0, 0.024555937456562055
446.0, 0.025998161723345965
447.0, 0.02865131139542942
448.0, 0.02642593144562989
449.0, 0.02714592938066372
450.0, 0.025646640415739778
451.0, 0.01906060856562856
452.0, 0.016384142727431262
453.0, 0.01269472713080564
454.0, 0.008303257954472558
455.0, 0.006271733541744125
456.0, 0.006676276983694971
457.0, 0.007738400350899153
458.0, 0.007294731857245916
459.0, 0.007473560114796153
460.0, 0.007439187310388136
461.0, 0.00834449246389183
462.0, 0.007308832558514929
463.0, 0.005460981454698221
464.0, 0.005310311747297608
465.0, 0.003201946734259318
466.0, 0.0007944255094314452
467.0, 0.002203463729000096
468.0, 0.0029494471466379527
469.0, 0.004166900700841417
470.0, 0.006505891578306661
471.0, 0.005285145907011437
472.0, 0.006767884580460569
473.0, 0.013295485718465718
474.0, 0.012869941156147723
475.0, 0.013376276149353349
476.0, 0.016078813659747854
477.0, 0.01367588549913978
478.0, 0.025986861600209674
479.0, 0.024381444880182925
480.0, 0.030975184579244513
481.0, 0.03233048957735048
482.0, 0.027801217765301204
483.0, 0.026463024166287638
484.0, 0.031821163137385124
485.0, 0.03240913137217025
486.0, 0.03955236742050713
487.0, 0.039451305049195716
488.0, 0.03723481308745749
489.0, 0.04056168215538883
490.0, 0.04794174129217089
491.0, 0.044709789117952335
492.0, 0.04893519289361591
493.0, 0.05095038855872128
494.0, 0.054626899556432025
495.0, 0.05964368675567602
496.0, 0.06024194140785026
497.0, 0.05105370163857019
498.0, 0.04791894558228156
499.0, 0.049477328061133884
500.0, 0.05454042492136939
501.0, 0.0566105642024089
502.0, 0.054680590375704045
503.0, 0.05864079927488941
504.0, 0.052117463692355114
505.0, 0.04574086549405312
506.0, 0.05271967355165695
507.0, 0.05904554888331208
508.0, 0.05671240581336295
509.0, 0.05213363215781335
510.0, 0.06281101803229207
511.0, 0.05567844305309752
512.0, 0.05257519395340816
513.0, 0.05269017764091073
514.0, 0.05521279232744526
515.0, 0.05909469640193924
516.0, 0.061999747877924324
517.0, 0.058460478906876064
518.0, 0.06496699512479445
519.0, 0.06663895942007102
520.0, 0.06929537596203314
521.0, 0.07062007945593225
522.0, 0.06749961996457433
523.0, 0.08871806516241969
524.0, 0.08159173275064951
525.0, 0.08318840815542297
526.0, 0.09377756630951137
527.0, 0.09885932058200142
528.0, 0.09298460772186852
529.0, 0.09112068612308591
530.0, 0.09785145493581357
531.0, 0.10553280176408293
532.0, 0.104904800140006
533.0, 0.10492366432858932
534.0, 0.10869171370901005
535.0, 0.11093065869925758
536.0, 0.10257712993924452
537.0, 0.11054207973911448
538.0, 0.11221516648408633
539.0, 0.10927483114066809
540.0, 0.10601163564297268
541.0, 0.10636247452984493
542.0, 0.11096421983774886
543.0, 0.11203051078159265
544.0, 0.10592609958372562
545.0, 0.11023878426781282
546.0, 0.11179534735978441
547.0, 0.11045693273220615
548.0, 0.10853776678082595
549.0, 0.10039067697038713
550.0, 0.10361678268601905
551.0, 0.09630745093148906
552.0, 0.09775628130721072
553.0, 0.1015207120954429
554.0, 0.09909233498954868
555.0, 0.09185172140215339
556.0, 0.09978432156925458
557.0, 0.09556995000036847
558.0, 0.08302473498261938
559.0, 0.07507206373995928
560.0, 0.07673687597259883
561.0, 0.07765577036604725
562.0, 0.06355080023761059
563.0, 0.06069793875178685
564.0, 0.06274558920728512
565.0, 0.05279194885243383
566.0, 0.05090097816286949
567.0, 0.05122449442390837
568.0, 0.04551023008829435
569.0, 0.04105752811439355
570.0, 0.04081813786885486
571.0, 0.03273600134000303
572.0, 0.032320575793404645
573.0, 0.02359848187115318
574.0, 0.01483035543573403
575.0, 0.017167037220051782
576.0, 0.014555262170634587
577.0, 0.010168442613648833
578.0, 0.008653504841924911
579.0, 0.004816396701569443
580.0, 0.003961453318722131
581.0, 0.004572871475809641
582.0, 0.0018575084209163338
583.0, 0.0005696450069729562
584.0, 0.004544626745112148
585.0, 0.008176291384349967
586.0, 0.008211168994747818
587.0, 0.006607393213306123
588.0, 0.005117813496989433
589.0, 0.004761664014075282
590.0, 0.009428341825158384
591.0, 0.013767907387707176
592.0, 0.004546236825878263
593.0, 0.007107081334151826
594.0, 0.012761990635214831
595.0, 0.014437168119630226
596.0, 0.019116565217805616
597.0, 0.027434933745751636
598.0, 0.02854717165434614
599.0, 0.03875406782819743
600.0, 0.04184484568572417
601.0, 0.04346598416623708
602.0, 0.0486986129265957
603.0, 0.051616641177020334
604.0, 0.05481183945627853
605.0, 0.06051161370254411
606.0, 0.06072042796913477
607.0, 0.06381865774561485
608.0, 0.06800088158463556
609.0, 0.07169082729564016
610.0, 0.07929683257400406
611.0, 0.08840395145799354
612.0, 0.09054550889845624
613.0, 0.09622867030063967
614.0, 0.0995794031550722
615.0, 0.10651173607026695
616.0, 0.11626116705431837
617.0, 0.1162076197714777
618.0, 0.12986853229241113
619.0, 0.1315017472395942
620.0, 0.1445241503247976
621.0, 0.15222697972590804
622.0, 0.16353980982494884
623.0, 0.18360374519604428
624.0, 0.19655852818361258
625.0, 0.212689456336958
626.0, 0.23471650294700352
627.0, 0.2561299993550583
628.0, 0.2808129243177968
629.0, 0.30756567160810944
630.0, 0.33627027655995817
631.0, 0.3703089328337674
632.0, 0.4031774305713349
633.0, 0.43956021239491655
634.0, 0.4775140735155534
635.0, 0.5127083824112177
636.0, 0.5520588741379765
637.0, 0.5985626079821843
638.0, 0.6442398969187307
639.0, 0.6845242846013031
640.0, 0.7340140133125176
641.0, 0.7736738434542298
642.0, 0.8065427007309421
643.0, 0.8413353603899787
644.0, 0.8808475156529139
645.0, 0.917478146104881
646.0, 0.9386910142300969
647.0, 0.9572895307983127
648.0, 0.9754293807374218
649.0, 0.9853664795171547
650.0, 0.993266455745423
651.0, 0.9997357544270908
652.0, 0.9981135937697088
653.0, 0.9924070014872642
654.0, 0.9792932158820286
655.0, 0.9780083269384184
656.0, 0.9692942804776103
657.0, 0.9484361270895856
658.0, 0.9210796710257189
659.0, 0.9000911219985248
660.0, 0.8993145481608413
661.0, 0.8704900157923471
662.0, 0.8555981612583888
663.0, 0.8222797283856835
664.0, 0.8014145962864938
665.0, 0.7862871414633795
666.0, 0.7560450766313331
667.0, 0.7296175716398813
668.0, 0.710581189178022
669.0, 0.703723445488512
670.0, 0.6883588172056566
671.0, 0.6735621342788463
672.0, 0.6602134538879455
673.0, 0.6473165635333984
674.0, 0.6379529574836132
675.0, 0.6197116765440775
676.0, 0.607861890866198
677.0, 0.5995121335678447
678.0, 0.5979951808859257
679.0, 0.5963584929361478
680.0, 0.5905141533750814
681.0, 0.5837866077130489
682.0, 0.5773720965713007
683.0, 0.5664565855724696
684.0, 0.5709378612292728
685.0, 0.5724623409059243
686.0, 0.5660752630919464
687.0, 0.556411915560048
688.0, 0.5480320063666878
689.0, 0.5353724398398754
690.0, 0.5161298277990866
691.0, 0.5041879390469829
692.0, 0.4860449196368056
693.0, 0.46618388405266165
694.0, 0.44518532441195685
695.0, 0.42318209137145174
696.0, 0.40227339619134933
697.0, 0.36930225612998124
698.0, 0.35258702637873884
699.0, 0.32007007255745157
700.0, 0.29191276015686846
701.0, 0.278100302509936
702.0, 0.26552384390442096
703.0, 0.23917192513943825
704.0, 0.22636363293391626
705.0, 0.2092358617634461
706.0, 0.19283323948918393
707.0, 0.1860778290622625
708.0, 0.1786809020355629
709.0, 0.16881696536991442
710.0, 0.15844232072358702
711.0, 0.14399942669585114
712.0, 0.1356274643199301
713.0, 0.13244761369898536
714.0, 0.12933784209560475
715.0, 0.12266306798556578
716.0, 0.1125410840029191
717.0, 0.1028339752336651
718.0, 0.09658412642068002
719.0, 0.0885297274466558
720.0, 0.08553661427435563
721.0, 0.0801287305073289
722.0, 0.07690974194267876
723.0, 0.0691724535945617
724.0, 0.06100108717054306
725.0, 0.05520799526836256
726.0, 0.044835907853856494
727.0, 0.05642727737599711
728.0, 0.0584411158285758
729.0, 0.05827257878551141
730.0, 0.05330690878323013
731.0, 0.04984850519838235
732.0, 0.04947943863066593
733.0, 0.04695880083041742
734.0, 0.04019801341505783
735.0, 0.03712118852594621
736.0, 0.02818972861575983
737.0, 0.02771004757912735
738.0, 0.02643849239361093
739.0, 0.024689645102126456
740.0, 0.024485330747065402
741.0, 0.020946347759103146
742.0, 0.009970952934840578
743.0, 0.0141993748201683
744.0, 0.013047207435323893
745.0, 0.0071707587969703545
746.0, 0.004062777622577681
747.0, 0.00665539513548353
748.0, 0.009332278621302483
749.0, 0.0037338289027056227
750.0, 0.00472347295468314
751.0, 0.00605889684901645
752.0, 0.0028243887471108425
753.0, 0.00576741723503513
754.0, 0.007996411607537576
755.0, 0.0050872865072526755
756.0, 0.001704102247004248
757.0, 0.0026510328691624024
758.0, 0.006416221202274975
759.0, 0.00719177791924059
760.0, 0.006171761578418019
761.0, 0.004859729243565304
762.0, 0.004626698200643068
763.0, 0.005260626645747742
764.0, 0.005690187105384696
765.0, 0.007026212076425511
766.0, 0.00956754359774569
767.0, 0.01146189160822196
768.0, 0.007657105416609265
769.0, 0.007606526703012923
770.0, 0.008455349955318842
771.0, 0.005233514970446518
772.0, 0.0017401093459246011
773.0, 0.0039193596489734694
774.0, 0.005859361068106313
775.0, 0.005029079075674184
776.0, 0.007189534303830579
777.0, 0.00450391177772892
778.0, 0.0004941700304660911
779.0, 0.0018029078696099542
780.0, 0.005173986731802405
781.0, 0.001451848158332577
782.0, 0.002912999725580857
783.0, 0.0009590480401441391
784.0, 0.0020246785002134096
785.0, 0.004774516345925043
786.0, 0.0067141682939027645
787.0, 0.006885747090965263
788.0, 0.0062694436024189
789.0, 0.0073426556688942195
790.0, 0.006768496346982131
791.0, 0.015460963133377281
792.0, 0.015407052459057494
793.0, 0.017936947947837012
794.0, 0.019838522358349143
795.0, 0.013957424748359159
796.0, 0.010104565187017054
797.0, 0.017877534531592205
798.0, 0.011309583216498043
799.0, 0.011439527163867319
800.0, 0.022621037031767342
801.0, 0.02401116293359541
802.0, 0.01717404304291006
803.0, 0.015230328044733451
804.0, 0.019362027416010088
805.0, 0.02698559575061646
806.0, 0.035024306332112475
807.0, 0.03131307839859408
808.0, 0.03272588799640856
809.0, 0.029839602248820214
810.0, 0.028586837683415283
811.0, 0.03579511093328787
812.0, 0.040900844845084335
813.0, 0.03205964812473011
814.0, 0.04371137236157967
815.0, 0.04261553545211793
816.0, 0.042051353806397206
817.0, 0.046396955072170405
818.0, 0.04757986061842934
819.0, 0.047285386595754965
820.0, 0.05468191910665176
821.0, 0.050125782832862474
822.0, 0.0638135242644101
823.0, 0.057772806807229675
824.0, 0.05935440737574057
825.0, 0.06549232986312811
826.0, 0.07130803538241921
827.0, 0.07432910584545485
828.0, 0.07345346452512744
829.0, 0.06883710889706955
830.0, 0.0741474542271533
831.0, 0.07873932366359565
832.0, 0.0843110441758073
833.0, 0.08818049787414046
834.0, 0.09065088241939949
835.0, 0.09284919164346687
836.0, 0.09491773139260955
837.0, 0.09629008106689319
838.0, 0.09888489076319215
839.0, 0.10027079558685291
840.0, 0.1037464837265864
841.0, 0.10858601580801001
842.0, 0.11323722794351761
843.0, 0.11832344852647056
844.0, 0.12254338179702388
845.0, 0.124308657910361
846.0, 0.1352139271417011
847.0, 0.14684749703928696
848.0, 0.14534310589648106
849.0, 0.1481759794887877
850.0, 0.14641080740730134
851.0, 0.14839059331966686
852.0, 0.156162833961495
853.0, 0.16195960549149208
854.0, 0.16947058194866338
855.0, 0.16260086606618318
856.0, 0.173789937379433
857.0, 0.18653002947987096
858.0, 0.18717494127960477
859.0, 0.19119669322737423
860.0, 0.19414816219600556
861.0, 0.18881498913492004
862.0, 0.18992566239961947
863.0, 0.19470997722277175
864.0, 0.19449925403993273
865.0, 0.20870688857156838
866.0, 0.21166675824706874
867.0, 0.21449722846649982
868.0, 0.222334208135013
869.0, 0.22963697932245158
870.0, 0.23286722489596032
871.0, 0.24078908578508543
872.0, 0.24462696291343147
873.0, 0.2534673326197809
874.0, 0.2640167742375578
875.0, 0.27197982803151766
876.0, 0.2775095612960135
877.0, 0.2834023268604365
878.0, 0.2909452999375913
879.0, 0.2979015601208553
880.0, 0.30204616531605477
881.0, 0.31374742985798376
882.0, 0.3222454751321854
883.0, 0.3275961161755928
884.0, 0.3326251810905461
885.0, 0.3378435432417694
886.0, 0.3423240652536933
887.0, 0.3443627429311062
888.0, 0.34169002895881573
889.0, 0.3328394610543491
890.0, 0.325588789135346
891.0, 0.32160625103339235
892.0, 0.3167230085925667
893.0, 0.3050150764621893
894.0, 0.2941721722779633
895.0, 0.28622766637875535
896.0, 0.27227847764363067
897.0, 0.25215863749584544
898.0, 0.259793320769062
899.0, 0.235353648951175
900.0, 0.2199428240828227
901.0, 0.2094951054486724
902.0, 0.19830379696499284
903.0, 0.18332449910048854
904.0, 0.16905179366483114
905.0, 0.15867867781512454
906.0, 0.141594331364298
907.0, 0.1364219637880692
908.0, 0.12902071236636847
909.0, 0.12727966885461045
910.0, 0.1282839942319757
911.0, 0.12934573115823123
912.0, 0.12496439702198399
913.0, 0.11559276657887436
914.0, 0.1063939201038198
915.0, 0.09354598225135052
916.0, 0.08669577096472138
917.0, 0.0786203002695718
918.0, 0.08133177732023658
919.0, 0.08824383143269215
920.0, 0.08081143895193628
921.0, 0.07137435671593406
922.0, 0.0690739317237095
923.0, 0.06394668682950967
924.0, 0.0665278238575598
925.0, 0.07346991902056406
926.0, 0.06270193043162846
927.0, 0.06000721986503067
928.0, 0.053357040617415204
929.0, 0.051153838186517524
930.0, 0.052131145646207355
931.0, 0.051202687924825
932.0, 0.05261198176554676
933.0, 0.06227041486795703
934.0, 0.04627392350911602
935.0, 0.049350566315463376
936.0, 0.058523531379321814
937.0, 0.049454557746115825
938.0, 0.04537408121044818
939.0, 0.05170911171798435
940.0, 0.05576584341238244
941.0, 0.052253455647154695
942.0, 0.053671907701825325
943.0, 0.05593756730725728
944.0, 0.047933005528523705
945.0, 0.044677448424510935
946.0, 0.04206064822937266
947.0, 0.042228460860871786
948.0, 0.04327992641510501
949.0, 0.043556185136695735
950.0, 0.04393059545838619
951.0, 0.045005470780413934
952.0, 0.044802160095388184
953.0, 0.046493291756910124
954.0, 0.046066756388541574
955.0, 0.04562984886837336
956.0, 0.04721953880074494
957.0, 0.04744669324374051
958.0, 0.04370755614185276
959.0, 0.042532620238182446
960.0, 0.04822294851494072
961.0, 0.0398261435660887
962.0, 0.0489579432385599
963.0, 0.048658991604435826
964.0, 0.0523455166060292
965.0, 0.05215309121392495
966.0, 0.046499102921068965
967.0, 0.04978538037249105
968.0, 0.06130305739490173
969.0, 0.06178342535539402
970.0, 0.05097067099104556
971.0, 0.06819040260014471
972.0, 0.05519083902836574
973.0, 0.06379345782517686
974.0, 0.06961271860958736
975.0, 0.0731717137219791
976.0, 0.07536510062245318
977.0, 0.07458462325815676
978.0, 0.07293287345001898
979.0, 0.07479262731217154
980.0, 0.0743417198900247
981.0, 0.07355614328653126
982.0, 0.07592334581521373
983.0, 0.07259877457988452
984.0, 0.07298326895122255
985.0, 0.07320778120769288
986.0, 0.07290239394172962
987.0, 0.07289107647892347
988.0, 0.0725201768981075
989.0, 0.07239092899021037
990.0, 0.07441474182362184
991.0, 0.07088628179086638
992.0, 0.07087869408344913
993.0, 0.07049085291537263
994.0, 0.06589045399780522
995.0, 0.0610263853770522
996.0, 0.05825538514083969
997.0, 0.06040964565382082
998.0, 0.06353526184997206
999.0, 0.05403968075682353
1000.0, 0.05971859279343703
1001.0, 0.06041139067154848
1002.0, 0.05701038833270035
1003.0, 0.05545230698946361
1004.0, 0.05835250459631791
1005.0, 0.05777369687911444
1006.0, 0.054583174555896626
1007.0, 0.05301419332600378
1008.0, 0.05048161022545544
1009.0, 0.044032171316674716
1010.0, 0.04253584557101062
1011.0, 0.03885254545771803
1012.0, 0.0482773537336039
1013.0, 0.047453588720405435
1014.0, 0.055351151800094776
1015.0, 0.05765175525121001
1016.0, 0.05475744682700287
1017.0, 0.05405504303915654
1018.0, 0.05280742850141924
1019.0, 0.055789477051565096
1020.0, 0.054495081407291604
1021.0, 0.05188518973934603
1022.0, 0.057002939017534004
1023.0, 0.055975790755786306
1024.0, 0.059722357802220495
1025.0, 0.06613252804191008
1026.0, 0.06804346324926129
1027.0, 0.06518519450612474
1028.0, 0.061833466063095824
1029.0, 0.05742309673361679
1030.0, 0.057540899183656416
1031.0, 0.06096780531154709
1032.0, 0.058842832830533834
1033.0, 0.058692339485049254
1034.0, 0.06200873676988897
1035.0, 0.056654520791324235
1036.0, 0.05400025976828974
1037.0, 0.054303473997617674
1038.0, 0.051552926943424685
1039.0, 0.06291415995775654
1040.0, 0.05446452802019699
1041.0, 0.05778204163017164
1042.0, 0.0439386062011282
1043.0, 0.0445690757598308
1044.0, 0.04147955283722879
1045.0, 0.045952768920485935
1046.0, 0.04237298006313397
1047.0, 0.03468712895904122
1048.0, 0.03852500617009377
1049.0, 0.040779468285500164
1050.0, 0.03334282417527617
1051.0, 0.03994893230332493
1052.0, 0.03222933072584598
1053.0, 0.033307896263179634
1054.0, 0.03604385076235639
1055.0, 0.034926172998559435
1056.0, 0.03355271447710223
1057.0, 0.028880709752139192
1058.0, 0.022125690526631235
1059.0, 0.021303035961079193
1060.0, 0.023633189318693855
1061.0, 0.02726568870281869
1062.0, 0.02714374991882661
1063.0, 0.02899494187018659
1064.0, 0.027649330370181364
1065.0, 0.021530295719107365
1066.0, 0.019839163509319874
1067.0, 0.018707059143115955
1068.0, 0.014948619794343027
1069.0, 0.013672062812592653
1070.0, 0.01683901915278288
1071.0, 0.015622843420143077
1072.0, 0.01455701813501554
1073.0, 0.010106464107687278
1074.0, 0.006288895561712175
1075.0, 0.004862270701845313
1076.0, 0.006645523062630746
1077.0, 0.006323666455196708
1078.0, 0.004558451132636986
1079.0, 0.00710163898674621
1080.0, 0.011053664175968416
1081.0, 0.005950570227943378
1082.0, 0.002135684788031966
1083.0, 0.008534938964798377
1084.0, 0.0012627015486998423
1085.0, 0.00547037552343114
1086.0, 0.0028196062728314394
1087.0, 0.0017701757644548687
1088.0, 0.001991700470126527
1089.0, 0.003791302299157146
1090.0, 0.004578945127955109
1091.0, 0.003649482925035974
1092.0, 0.006998233548338844
1093.0, 0.004943788181780515
1094.0, 0.0003528860161406992
1095.0, 0.007584751592514864
1096.0, 0.011522401719581151
1097.0, 0.00903061621262033
1098.0, 0.007874219170019214
1099.0, 0.00831767166021164
1100.0, 0.006026749225905154
1101.0, 0.004565008536293865
1102.0, 0.006342092696468316
1103.0, 0.003343627489525512
1104.0, 0.0010580550058669445
1105.0, 0.003302707717893024
1106.0, 0.0005173359424617892
1107.0, 0.0016305143014291807
1108.0, 0.005360949648254806
1109.0, 0.011950338635344344
1110.0, 0.006994539286152519
1111.0, 0.0028595190824120226
1112.0, 0.005783169664553742
1113.0, 0.006232382370555944
1114.0, 0.002829504466091098
1115.0, 0.0010719814495538014
1116.0, 0.0012741742244755919
1117.0, 0.0020917320266877486
1118.0, 0.0029518387551429695
1119.0, 0.002446684269107279
1120.0, 0.003131275227356043
1121.0, 0.0035701699755136297
1122.0, 0.0036113541745761875
1123.0, 0.0046090639349385286
1124.0, 0.005652809305409996
1125.0, 0.004757248529007381
1126.0, 0.0033667376479972625
1127.0, 0.0025493819426632104
1128.0, 0.005861123298158046
1129.0, 0.006279916330832196
1130.0, 0.006145395204004014
1131.0, 0.008441261923767165
1132.0, 0.011111831206296942
1133.0, 0.01059974139340747
1134.0, 0.00827055251920456
1135.0, 0.00594369588946755
1136.0, 0.003284112508533176
1137.0, 0.002117604631861677
1138.0, 0.0057644749410564545
1139.0, 0.0032432716434651083
1140.0, 0.008728572679957913
1141.0, 0.00996001304726366
1142.0, 0.009796069909363821
1143.0, 0.004995984356330792
1144.0, 0.006319423769669968
1145.0, 0.006565039132128275
1146.0, 0.002840598543694752
1147.0, 0.0012078496723687032
1148.0, 0.002369086670599422
1149.0, 0.0013684872296230413
1150.0, 0.0031828993023284447
1151.0, 0.0005772453803301943
1152.0, 0.00020775458168522325
1153.0, 0.004105259370113523
1154.0, 0.00272926452244556
1155.0, 0.0019805026563938267
1156.0, 0.0037471875736947934
1157.0, 0.004854412164485604
1158.0, 0.004906872832748119
1159.0, 0.007960063209925183
1160.0, 0.00994245701247329
1161.0, 0.00363385173795811
1162.0, 0.004320731524675879
1163.0, 0.007917177864946749
1164.0, 0.0032373962522482297
1165.0, 0.006343023016262434
1166.0, 0.003807476983004515
1167.0, 0.0031069641001696215
1168.0, 0.008312682400674043
1169.0, 0.008452961945296388
1170.0, 0.005657602327142988
1171.0, 0.00834747605998138
1172.0, 0.013947863738917427
1173.0, 0.016005070753465505
1174.0, 0.01840153519377888
1175.0, 0.01456035723601473
1176.0, 0.016257620389103656
1177.0, 0.01472962453456999
1178.0, 0.013605063352048606
1179.0, 0.011417917998374594
1180.0, 0.017008150564709973
1181.0, 0.021780591112736277
1182.0, 0.020096729605930178
1183.0, 0.01727214689526745
1184.0, 0.015930305401174356
1185.0, 0.01560281991987098
1186.0, 0.01947831414956397
1187.0, 0.019943017289201153
1188.0, 0.022100464875495676
1189.0, 0.02513816035756445
1190.0, 0.025179252603551878
1191.0, 0.027011567137912928
1192.0, 0.03126974584650576
1193.0, 0.026589682676606517
1194.0, 0.03144891875665729
1195.0, 0.03061111963717917
1196.0, 0.020120236326724918
1197.0, 0.019412017702572296
1198.0, 0.024731309859667636
1199.0, 0.01899678475865574
1200.0, 0.03367081968525948
1201.0, 0.022419012668491323
1202.0, 0.03152821328304741
1203.0, 0.0317514151180409
1204.0, 0.027812785856600134
1205.0, 0.030640492989857063
1206.0, 0.03440901029134751
1207.0, 0.036727995409150734
1208.0, 0.03592692823879615
1209.0, 0.035960675443590766
1210.0, 0.03842589721158027
1211.0, 0.0392751099472856
1212.0, 0.0406390709143618
1213.0, 0.044230968691278946
1214.0, 0.04245086429689202
1215.0, 0.04685329913678297
1216.0, 0.03636551800010417
1217.0, 0.03356508057206768
1218.0, 0.03736987990666898
1219.0, 0.03938792762193671
1220.0, 0.03426171379654779
1221.0, 0.03082250743006134
1222.0, 0.03344567738727687
1223.0, 0.0319567735015616
1224.0, 0.027327288855402306
1225.0, 0.03489302337486385
1226.0, 0.03795612143260236
1227.0, 0.03222062894190377
1228.0, 0.03351291391436802
1229.0, 0.02788014073433207
1230.0, 0.031543824157497735
1231.0, 0.03257499127353368
1232.0, 0.026005849179583446
1233.0, 0.019267880765057654
1234.0, 0.021474336206321137
1235.0, 0.02385358106812183
1236.0, 0.02526605404863777
1237.0, 0.0276558646217066
1238.0, 0.02714627419717174
1239.0, 0.02876035020052222
1240.0, 0.023736197994343858
1241.0, 0.026250405676856502
1242.0, 0.018125563896026365
1243.0, 0.013956592574708165
1244.0, 0.013995646213303242
1245.0, 0.012089756043747025
1246.0, 0.012954703574030137
1247.0, 0.014305631302124299
1248.0, 0.016340215819825296
1249.0, 0.020134833285660146
1250.0, 0.02057065394444995
1251.0, 0.020250942705684432
1252.0, 0.026931589523336297
1253.0, 0.028253193675598132
1254.0, 0.018192927653445972
1255.0, 0.026529671974458786
1256.0, 0.02779607093732609
1257.0, 0.038552870995106195
1258.0, 0.03150891890803389
1259.0, 0.03266806483308825
1260.0, 0.03684040997382221
1261.0, 0.032809505379277355
1262.0, 0.026494228608845403
1263.0, 0.024436730291387276
1264.0, 0.024915811570485877
1265.0, 0.025639184879408455
1266.0, 0.026861088468719967
1267.0, 0.02949801752657912
1268.0, 0.035579159957397494
1269.0, 0.03273051714574276
1270.0, 0.04130979688633772
1271.0, 0.048001924279524766
1272.0, 0.04064402330692404
1273.0, 0.058155667985866966
1274.0, 0.05871097857923502
1275.0, 0.04680792840558291
1276.0, 0.053018378124949375
1277.0, 0.05866251159352117
1278.0, 0.055137453627345276
1279.0, 0.051266279671496315
1280.0, 0.05007583674054147
1281.0, 0.05514669133816228
1282.0, 0.06570203421748429
1283.0, 0.06231569588858972
1284.0, 0.06663497927607512
1285.0, 0.06276117247652634
1286.0, 0.07670281364947465
1287.0, 0.07209724145853444
1288.0, 0.0718209134232476
1289.0, 0.07730317798259627
1290.0, 0.06933928953928178
1291.0, 0.07623374243662524
1292.0, 0.08801366398319135
1293.0, 0.08840181579036929
1294.0, 0.08739551408756095
1295.0, 0.09054567994105123
1296.0, 0.09152782435036788
1297.0, 0.09335190373902179
1298.0, 0.09008502213641782
1299.0, 0.09449768520099938
1300.0, 0.09005901339506715
1301.0, 0.10176187951182458
1302.0, 0.0898541114204165
1303.0, 0.09632671579890617
1304.0, 0.10086972341535971
1305.0, 0.09930112188449032
1306.0, 0.10894218239185849
1307.0, 0.1090470493952169
1308.0, 0.10907193814989233
1309.0, 0.10416753261172947
1310.0, 0.09942392476640098
1311.0, 0.10637537777846227
1312.0, 0.10838629430566651
1313.0, 0.10541269446035093
1314.0, 0.10568813027732299
1315.0, 0.10680158555549854
1316.0, 0.10463220909822635
1317.0, 0.10383249385738368
1318.0, 0.1049832220351369
1319.0, 0.10760579351960939
1320.0, 0.10727507759919674
1321.0, 0.10743526572861188
1322.0, 0.10829583307178811
1323.0, 0.1057200138544905
1324.0, 0.1037538667966521
1325.0, 0.10390789410419932
1326.0, 0.10199001745847065
1327.0, 0.0997051054391424
1328.0, 0.1005675922753375
1329.0, 0.09872481344501413
1330.0, 0.09526961241774927
1331.0, 0.10003113618745972
1332.0, 0.10356133323309993
1333.0, 0.10597894391773605
1334.0, 0.10401200686201142
1335.0, 0.1003717856367696
1336.0, 0.0998342275604706
1337.0, 0.09415681382549942
1338.0, 0.09364849482403367
1339.0, 0.0935836082079048
1340.0, 0.08980748547380349
1341.0, 0.08749614978041376
1342.0, 0.08812570441212554
1343.0, 0.08748121448572989
1344.0, 0.08398931589579772
1345.0, 0.08271006078085552
1346.0, 0.08652479899283788
1347.0, 0.0843179930408435
1348.0, 0.08036660982454964
1349.0, 0.08185256774547867
1350.0, 0.08753612758509484
1351.0, 0.06590749362604739
1352.0, 0.08331456730406435
1353.0, 0.07705605884868572
1354.0, 0.07032568003468494
1355.0, 0.08019483457317099
1356.0, 0.07611338338898072
1357.0, 0.06642155523622044
1358.0, 0.06887723483307792
1359.0, 0.06690943515871822
1360.0, 0.061488586095138784
1361.0, 0.06556614580175937
1362.0, 0.06605309385924395
1363.0, 0.06279043275048249
1364.0, 0.06825789949547977
1365.0, 0.05525722931720166
1366.0, 0.061237665754634456
1367.0, 0.061242955582367656
1368.0, 0.04999886482346644
1369.0, 0.056819388187972095
1370.0, 0.05091459326101194
1371.0, 0.04647577488330076
1372.0, 0.044487628704071615
1373.0, 0.0463585369650106
1374.0, 0.038684531217604186
1375.0, 0.04714335308636847
1376.0, 0.04189786738266368
1377.0, 0.04196043560825015
1378.0, 0.04790115406739389
1379.0, 0.042764710339706725
1380.0, 0.039622341692092514
1381.0, 0.03526793923143673
1382.0, 0.0338457519674223
1383.0, 0.03745599001520264
1384.0, 0.031272782346310486
1385.0, 0.02715453869252421
1386.0, 0.04447244171344071
1387.0, 0.03740937912705532
1388.0, 0.030342931401781775
1389.0, 0.030068494889152076
1390.0, 0.027093057277308662
1391.0, 0.022093790479441
1392.0, 0.020192421913913367
1393.0, 0.02097413124342443
1394.0, 0.0207457100703171
1395.0, 0.02016697302907449
1396.0, 0.01658991269167208
1397.0, 0.014446914494005309
1398.0, 0.01317165268204201
1399.0, 0.015023526471008186
1400.0, 0.020820519151763767
1401.0, 0.012834548765907424
1402.0, 0.013451416086849218
1403.0, 0.01593424889943494
1404.0, 0.004872179656017824
1405.0, 0.008476625458145226
1406.0, 0.006385084171979987
1407.0, 0.0026775595939478804
1408.0, 0.0021109995249203217
1409.0, 0.0015081953844667316
1410.0, 0.002697409416738089
1411.0, 0.003460124994914137
1412.0, 0.0031882716660943883
1413.0, 0.005514468011447735
1414.0, 0.005964577009384004
1415.0, 0.005866345470046724
1416.0, 0.004630769793141635
1417.0, 0.004885082720509271
1418.0, 0.0066513059489571175
1419.0, 0.005475944569435618
1420.0, 0.004463716003788687
1421.0, 0.004778094835371943
1422.0, 0.0013344577771965736
1423.0, 0.0015442039664259625
1424.0, 0.001848261486363904
1425.0, 0.0030322223712425855
1426.0, 0.003521946305224596
1427.0, 0.002051033802898608
1428.0, 0.00445662200796133
1429.0, 0.0035025538721114163
1430.0, 0.0014558654382358033
1431.0, 0.004767656932102973
1432.0, 0.009071295044071089
1433.0, 0.007647490572295529
1434.0, 0.0074577088099897475
1435.0, 0.00644501684243024
1436.0, 0.0129205084612763
1437.0, 0.011358924960752427
1438.0, 0.015315984533311339
1439.0, 0.019386027076671402
1440.0, 0.012672249202067056
1441.0, 0.013430191980793022
1442.0, 0.01581515565339067
1443.0, 0.019129087735686442
1444.0, 0.021181101943115805
1445.0, 0.02130530263743132
1446.0, 0.0211830551989209
1447.0, 0.023563761580558607
1448.0, 0.019346971012387797
1449.0, 0.018936470432924297
1450.0, 0.013559145365939593
1451.0, 0.013495319275545623
1452.0, 0.014972999367206365
1453.0, 0.012098507634425534
1454.0, 0.010926540044324508
1455.0, 0.009772515235485361
1456.0, 0.01463370598305832
1457.0, 0.011533274405402203
1458.0, 0.008258924182853462
1459.0, 0.011385136741670816
1460.0, 0.010302327078519913
1461.0, 0.008255170815950353
1462.0, 0.007602208678956604
1463.0, 0.005662474103384361
1464.0, 0.00834752081976413
1465.0, 0.010785287477535835
1466.0, 0.006566686548143517
1467.0, 0.006525049382646827
1468.0, 0.010533134991349495
1469.0, 0.009060203307932451
1470.0, 0.008400732826961493
1471.0, 0.01130182695387934
1472.0, 0.010786999952395987
1473.0, 0.012089322503807527
1474.0, 0.008463240498874812
1475.0, 0.014723068766730789
1476.0, 0.008072084816372383
1477.0, 0.0034865320934398406
1478.0, 0.00390074555976289
1479.0, 0.01494586395298872
1480.0, 0.01066992733848802
1481.0, 0.015543132088738046
1482.0, 0.015127724173421177
1483.0, 0.009944250724142482
1484.0, 0.005275403423789524
1485.0, 0.004127312371738738
1486.0, 0.003758609105014392
1487.0, 0.002838268882538854
1488.0, 0.0023456588043096124
1489.0, 0.005636336604334002
1490.0, 0.011392586620807716
1491.0, 0.008249104421853413
1492.0, 0.008731747575478392
1493.0, 0.010435475678843854
1494.0, 0.0035720286214298456
1495.0, 0.009581037879772637
1496.0, 0.017988659181672386
1497.0, 0.014277392165615395
1498.0, 0.019222615837415566
1499.0, 0.013936043700595896
1500.0, 0.011820173102470122
1501.0, 0.01054285267789697
1502.0, 0.009036976529541859
1503.0, 0.012529747364787213
1504.0, 0.012497865610155682
1505.0, 0.006863931823943806
1506.0, 0.011317446052422641
1507.0, 0.0060435014092183595
1508.0, 0.009175633724001276
1509.0, 0.010405894338106894
1510.0, 0.014083586304210652
1511.0, 0.0172899130185536
1512.0, 0.0174729991416433
1513.0, 0.015375113649200302
1514.0, 0.013900710545357879
1515.0, 0.008320278025233932
1516.0, 0.0057611875614058065
1517.0, 0.009890473610197336
1518.0, 0.008497004412799164
1519.0, 0.015984264361609553
1520.0, 0.014630644454059611
1521.0, 0.005917305479537191
1522.0, 0.011347003234769247
1523.0, 0.017185659005450046
1524.0, 0.006116005225636582
1525.0, 0.0052112514608444235
1526.0, 0.010436903434260467
1527.0, 0.016062983848014547
1528.0, 0.00974395888359232
1529.0, 0.015779844515484538
1530.0, 0.014883813743257208
1531.0, 0.020013648447299658
1532.0, 0.013798751697271263
1533.0, 0.013562466109049352
1534.0, 0.00718513104463802
1535.0, 0.007902200662180376
1536.0, 0.009242888790865222
1537.0, 0.00807705721404531
1538.0, 0.010532657531191024
1539.0, 0.004854972154900167
1540.0, 0.003286210397305154
1541.0, 0.005860218018996511
1542.0, 0.00821415481563062
1543.0, 0.011012669538289058
1544.0, 0.0060203731543998044
1545.0, 3.488833501439296e-05
1546, 0.0
1547, 0.0
1548, 0.0
1549, 0.0
1550, 0.0
1551, 0.0
1552, 0.0
1553, 0.0
1554, 0.0
1555, 0.0
1556, 0.0
1557, 0.0
1558, 0.0
1559, 0.0
1560, 0.0
1561, 0.0
1562, 0.0
1563, 0.0
1564, 0.0
1565, 0.0
1566, 0.0
1567, 0.0
1568, 0.0
1569, 0.0
1570, 0.0
1571, 0.0
1572, 0.0
1573, 0.0
1574, 0.0
1575, 0.0
1576, 0.0
1577, 0.0
1578, 0.0
1579, 0.0
1580, 0.0
1581, 0.0
1582, 0.0
1583, 0.0
1584, 0.0
1585, 0.0
1586, 0.0
1587, 0.0
1588, 0.0
1589, 0.0
1590, 0.0
1591, 0.0
1592, 0.0
1593, 0.0
1594, 0.0
1595, 0.0
1596, 0.0
1597, 0.0
1598, 0.0
1599, 0.0
