30, 0.0
31, 0.0
32, 0.0
33, 0.0
34, 0.0
35, 0.0
36, 0.0
37, 0.0
38, 0.0
39, 0.0
40, 0.0
41, 0.0
42, 0.0
43, 0.0
44, 0.0
45, 0.0
46, 0.0
47, 0.0
48, 0.0
49, 0.0
50, 0.0
51, 0.0
52, 0.0
53, 0.0
54, 0.0
55, 0.0
56, 0.0
57, 0.0
58, 0.0
59, 0.0
60, 0.0
61, 0.0
62, 0.0
63, 0.0
64, 0.0
65, 0.0
66, 0.0
67, 0.0
68, 0.0
69, 0.0
70, 0.0
71, 0.0
72, 0.0
73, 0.0
74, 0.0
75, 0.0
76, 0.0
77, 0.0
78, 0.0
79, 0.0
80, 0.0
81, 0.0
82, 0.0
83, 0.0
84, 0.0
85, 0.0
86, 0.0
87, 0.0
88, 0.0
89, 0.0
90, 0.0
91, 0.0
92, 0.0
93, 0.0
94, 0.0
95, 0.0
96, 0.0
97, 0.0
98, 0.0
99, 0.0
100, 0.0
101, 0.0
102, 0.0
103, 0.0
104, 0.0
105, 0.0
106, 0.0
107, 0.0
108, 0.0
109, 0.0
110, 0.0
111, 0.0
112, 0.0
113, 0.0
114, 0.0
115, 0.0
116, 0.0
117, 0.0
118, 0.0
119, 0.0
120, 0.0
121, 0.0
122, 0.0
123, 0.0
124, 0.0
125, 0.0
126, 0.0
127, 0.0
128, 0.0
129, 0.0
130, 0.0
131, 0.0
132, 0.0
133, 0.0
134, 0.0
135, 0.0
136, 0.0
137, 0.0
138, 0.0
139, 0.0
140, 0.0
141, 0.0
142, 0.0
143, 0.0
144, 0.0
145, 0.0
146, 0.0
147, 0.0
148, 0.0
149, 0.0
150, 0.0
151.0, 0.0023043030970280693
152.0, 0.006350731332399755
153.0, 0.010827875284945906
154.0, 0.014375605142473703
155.0, 0.016581740694793463
156.0, 0.006497905136620826
157.0, 0.0012695117409092485
158.0, 0.0029374881504092253
159.0, 0.008021039104674001
160.0, 0.007261299770732004
161.0, 0.022682754480095362
162.0, 0.0356180230697629
163.0, 0.04555798086608004
164.0, 0.05906165227137116
165.0, 0.08469765711163459
166.0, 0.07716610705338799
167.0, 0.10086132413687154
168.0, 0.11033719263804857
169.0, 0.10907270002674285
170.0, 0.11225712189220922
171.0, 0.09752107673287201
172.0, 0.08987768085584431
173.0, 0.06473864719351999
174.0, 0.04857960924235574
175.0, 0.050218943868040905
176.0, 0.03144056757666379
177.0, 0.011592416608868313
178.0, 0.011214871364466805
179.0, 0.010356184940887426
180.0, 0.00608585743857001
181.0, 0.008551216572280008
182.0, 0.0028395198434986134
183.0, 0.001768454253775095
184.0, 0.003146106636240188
185.0, 0.011916119928819508
186.0, 0.029650702868235162
187.0, 0.0385402668629678
188.0, 0.03492708118493676
189.0, 0.035569753879891544
190.0, 0.032735441162851264
191.0, 0.029709981405573082
192.0, 0.04659623772401999
193.0, 0.02724246813828322
194.0, 0.03276808312890194
195.0, 0.037948779136413084
196.0, 0.03248363027414695
197.0, 0.021027160450620284
198.0, 0.04439424106340641
199.0, 0.06698023227260465
200.0, 0.07583095259566341
201.0, 0.07803552066640307
202.0, 0.07703664695386175
203.0, 0.06023549536884853
204.0, 0.03411416166099469
205.0, 0.021486982614193663
206.0, 0.015494376851362271
207.0, 0.01118818073027622
208.0, 0.00797256721991953
209.0, 0.02343732000612786
210.0, 0.027042714821134753
211.0, 0.02304556672173262
212.0, 0.021856320590275244
213.0, 0.028090757891760635
214.0, 0.02663859873117849
215.0, 0.043268694294205046
216.0, 0.042525328378884286
217.0, 0.03976240106687583
218.0, 0.04614211597427665
219.0, 0.06251101668055938
220.0, 0.05499428324525617
221.0, 0.05114881985784951
222.0, 0.050711773410462464
223.0, 0.04874485517760365
224.0, 0.04311922518026705
225.0, 0.04423625110793095
226.0, 0.031314540031454174
227.0, 0.030725552724771683
228.0, 0.028797088842328393
229.0, 0.022150468500729516
230.0, 0.01959249710436266
231.0, 0.01755076018681786
232.0, 0.016129169226956355
233.0, 0.020176115413877243
234.0, 0.022336438513680324
235.0, 0.018468050739811885
236.0, 0.024266422944575372
237.0, 0.024861525247177472
238.0, 0.013774237364819072
239.0, 0.008911534997057496
240.0, 0.013826931656145524
241.0, 0.01704285353801621
242.0, 0.004398603606743105
243.0, 0.003232140190952367
244.0, 0.010425104092157012
245.0, 0.012864297571070264
246.0, 0.005025346573503268
247.0, 0.004996623444668593
248.0, 0.007832931456550563
249.0, 0.020446303137016116
250.0, 0.022889032663600883
251.0, 0.015263363623974903
252.0, 0.01110970708589657
253.0, 0.008320721861663896
254.0, 0.013705513899034363
255.0, 0.010919254501364634
256.0, 0.008251262827229579
257.0, 0.02115699013947613
258.0, 0.06615237258594864
259.0, 0.05538701110380071
260.0, 0.05373922380625811
261.0, 0.057146816060787003
262.0, 0.05327601543862587
263.0, 0.03346007844371937
264.0, 0.018996094150628185
265.0, 0.02652432375179311
266.0, 0.03671138907422713
267.0, 0.037318629946151025
268.0, 0.027234979867307323
269.0, 0.01731276948359076
270.0, 0.02368421008439346
271.0, 0.03364131718422436
272.0, 0.028940988390589253
273.0, 0.02491681830628747
274.0, 0.03629919571532531
275.0, 0.05191807993579702
276.0, 0.05660533770760161
277.0, 0.06398188959215588
278.0, 0.07759122627124689
279.0, 0.08217554017574029
280.0, 0.06340135576054641
281.0, 0.07086027478593004
282.0, 0.07856885351503512
283.0, 0.07866762717669826
284.0, 0.07763994823881828
285.0, 0.08386035134311555
286.0, 0.1015847862429189
287.0, 0.08426611991210951
288.0, 0.0849807190486311
289.0, 0.08572868222499244
290.0, 0.09252095476605943
291.0, 0.10747059870341383
292.0, 0.1070402423448664
293.0, 0.1204910930247621
294.0, 0.12394819560023525
295.0, 0.1262778819231853
296.0, 0.13248006241431956
297.0, 0.14137018589944286
298.0, 0.1388473499121822
299.0, 0.16158783215996272
300.0, 0.16743224654894331
301.0, 0.17538672577511757
302.0, 0.1905022893051685
303.0, 0.1995241954961568
304.0, 0.22123436868830154
305.0, 0.2320395265592411
306.0, 0.24257200715650937
307.0, 0.2521555000725454
308.0, 0.25918466804860096
309.0, 0.2651926522536123
310.0, 0.28285335861499666
311.0, 0.2805984856392152
312.0, 0.2852041224943548
313.0, 0.2857312931793269
314.0, 0.2672477781128658
315.0, 0.2453260568884977
316.0, 0.23337563975830827
317.0, 0.22913557648889035
318.0, 0.22234827532894913
319.0, 0.20868241386451122
320.0, 0.19177346610197366
321.0, 0.19010360704941331
322.0, 0.17858134687291194
323.0, 0.1554155858689398
324.0, 0.13926893209260394
325.0, 0.1254490711516177
326.0, 0.09518346829699326
327.0, 0.09474772570824323
328.0, 0.07686197520833801
329.0, 0.06703529735588007
330.0, 0.059883650549072465
331.0, 0.04709580135032759
332.0, 0.026979402257221195
333.0, 0.032795429817085844
334.0, 0.02464781866851083
335.0, 0.029362293723799126
336.0, 0.024723913152820565
337.0, 0.004806932655098293
338.0, 0.010196192875688312
339.0, 0.004172588331454168
340.0, 0.0037286605815411
341.0, 0.0032015615479464967
342.0, 0.0022986446874667314
343.0, 0.004227003447222311
344.0, 0.014743273652482906
345.0, 0.011525209778079842
346.0, 0.0038233246621097883
347.0, 0.00271603319801141
348.0, 0.00547854471634027
349.0, 0.006442009040027339
350.0, 0.011273651960854572
351.0, 0.016928701206489562
352.0, 0.011160113758347663
353.0, 0.005743156424893737
354.0, 0.00635707127872761
355.0, 0.012012262712723466
356.0, 0.015394582361454811
357.0, 0.023416954680041485
358.0, 0.03110279682122436
359.0, 0.036910505643358474
360.0, 0.04202609815813119
361.0, 0.04783364244194919
362.0, 0.049401342077443004
363.0, 0.04953142452561695
364.0, 0.0483333153516559
365.0, 0.0530686098925205
366.0, 0.054658869948649234
367.0, 0.040401761411687796
368.0, 0.040292550750405956
369.0, 0.04431853779175926
370.0, 0.03594441090489761
371.0, 0.03327130016886612
372.0, 0.038364423472729677
373.0, 0.04027132638237214
374.0, 0.048830115231452746
375.0, 0.04519452956994171
376.0, 0.046056114875831375
377.0, 0.04091169717190497
378.0, 0.03586961114757973
379.0, 0.0468571195308068
380.0, 0.051777159178061145
381.0, 0.05016530752175496
382.0, 0.040539623044331036
383.0, 0.03725445993826541
384.0, 0.03698072761495761
385.0, 0.027691609331020817
386.0, 0.04338936781247239
387.0, 0.036124278963312204
388.0, 0.029815801261657827
389.0, 0.030719561685035937
390.0, 0.03376555325533017
391.0, 0.029437584866290133
392.0, 0.024606300709875947
393.0, 0.020938967953472918
394.0, 0.018746406690112943
395.0, 0.018085597992399647
396.0, 0.016791339805334437
397.0, 0.012569979099517996
398.0, 0.009756109085135661
399.0, 0.003367419543599523
400.0, 0.005294760133424125
401.0, 0.012422642090125136
402.0, 0.01856401780168082
403.0, 0.01694746975352742
404.0, 0.001416209275074777
405.0, 0.0020634393354423113
406.0, 0.004336423846845601
407.0, 0.0030461046674755566
408.0, 0.003470132795950033
409.0, 0.011017563975074583
410.0, 0.011430567518188106
411.0, 0.019447592736507674
412.0, 0.02458786859928627
413.0, 0.03282466038754366
414.0, 0.04553482912084456
415.0, 0.05893818316069522
416.0, 0.0645540155396199
417.0, 0.07597173386057378
418.0, 0.08817898130034503
419.0, 0.09549817047689883
420.0, 0.09811988567761215
421.0, 0.09968442178279302
422.0, 0.10473779312311947
423.0, 0.12583314586517108
424.0, 0.13002820286232242
425.0, 0.13679124943202264
426.0, 0.14456062467726782
427.0, 0.14755795800249794
428.0, 0.14689085827999873
429.0, 0.1578707211018728
430.0, 0.15174137402427382
431.0, 0.143760884987585
432.0, 0.14232533770135491
433.0, 0.1461152878324473
434.0, 0.14510697579860976
435.0, 0.13623578331293695
436.0, 0.12673636129621874
437.0, 0.12219889184897632
438.0, 0.12016889877705318
439.0, 0.11267970402652172
440.0, 0.09701586604574312
441.0, 0.11168726079344399
442.0, 0.09106445471432202
443.0, 0.08449986150230598
444.0, 0.08513933707189865
445.0, 0.07893653678160543
446.0, 0.060966863943168484
447.0, 0.055051017625415546
448.0, 0.05037348792427051
449.0, 0.04483178383010991
450.0, 0.03955896612562888
451.0, 0.03133570882353028
452.0, 0.018667601461973007
453.0, 0.007690882883396673
454.0, 0.01644585385159151
455.0, 0.019400612683330376
456.0, 0.010426657682306951
457.0, 0.0025608753451220804
458.0, 0.0025696038066004828
459.0, 0.002451732047228306
460.0, 0.007747143360327061
461.0, 0.00718011902783147
462.0, 0.006612062663218249
463.0, 0.0042867593687405635
464.0, 0.002037994548909375
465.0, 0.0038284572800082
466.0, 0.005522514832679688
467.0, 0.0035783012459252336
468.0, 0.00556706371926045
469.0, 0.0041590495969358035
470.0, 0.0016586746694969093
471.0, 0.004607548554837964
472.0, 0.014465332354983457
473.0, 0.002198234834232784
474.0, 0.0018336513158218742
475.0, 0.0024235903877047396
476.0, 0.006494508751069954
477.0, 0.012490051309459899
478.0, 0.009709921851066687
479.0, 0.0058927612955341786
480.0, 0.008848088261228414
481.0, 0.027455517344568046
482.0, 0.04131319935941646
483.0, 0.04137040877778317
484.0, 0.03614310100554932
485.0, 0.04514496482401439
486.0, 0.04014868098773715
487.0, 0.043667523322289306
488.0, 0.04021470928275238
489.0, 0.035241213608869414
490.0, 0.03743646024755653
491.0, 0.04098867913932231
492.0, 0.03612195891555776
493.0, 0.03515692459028347
494.0, 0.0176998110821454
495.0, 0.016026396489121086
496.0, 0.025651975382179948
497.0, 0.009406410353058944
498.0, 0.011593513239164497
499.0, 0.02787946166191225
500.0, 0.03103587175182581
501.0, 0.03197272291281181
502.0, 0.03221650870342185
503.0, 0.03246604021863235
504.0, 0.04484676446131742
505.0, 0.04223582991740044
506.0, 0.03974733681501192
507.0, 0.036428352764442305
508.0, 0.04570741265963294
509.0, 0.05822299996068904
510.0, 0.0508107016828354
511.0, 0.07534155793655267
512.0, 0.07115817799238794
513.0, 0.0602861892776689
514.0, 0.07606323458880501
515.0, 0.09571346077124662
516.0, 0.09185869002944369
517.0, 0.09497593848723214
518.0, 0.1026213554283551
519.0, 0.11367015042973143
520.0, 0.11329104022604607
521.0, 0.10967035675564024
522.0, 0.11500848541551925
523.0, 0.130831526095963
524.0, 0.12524625971050213
525.0, 0.11584463219205741
526.0, 0.1266318245385673
527.0, 0.13653268636400057
528.0, 0.13702662017420697
529.0, 0.1330491536449408
530.0, 0.13679419692004452
531.0, 0.14602407479972826
532.0, 0.12747863127155368
533.0, 0.13392084115428224
534.0, 0.13563574194294184
535.0, 0.12429927064111951
536.0, 0.11538930286081896
537.0, 0.09926249347130255
538.0, 0.10605191993417006
539.0, 0.11453293711457702
540.0, 0.11918094805123756
541.0, 0.12144192194542419
542.0, 0.1230533348981139
543.0, 0.12210407579838455
544.0, 0.1132409763164764
545.0, 0.11186939199932379
546.0, 0.10515364116707891
547.0, 0.10271873703812
548.0, 0.10718419675887654
549.0, 0.11450093117935904
550.0, 0.11940541601376714
551.0, 0.12068711358301963
552.0, 0.11760370615163707
553.0, 0.11388817821189087
554.0, 0.11196332275132252
555.0, 0.10850344062826366
556.0, 0.10497119728416948
557.0, 0.12984073597631923
558.0, 0.10353461127307025
559.0, 0.11320407652612449
560.0, 0.11489660164999276
561.0, 0.11135782844872341
562.0, 0.11438174049221918
563.0, 0.12240287059940229
564.0, 0.11854802335418119
565.0, 0.12994573230408205
566.0, 0.12218406742704345
567.0, 0.1222482641656302
568.0, 0.12192436818141444
569.0, 0.1113720347659601
570.0, 0.10643280392257452
571.0, 0.10367393053053285
572.0, 0.09759818862401712
573.0, 0.09415404104819489
574.0, 0.09149608958517412
575.0, 0.09074192533006106
576.0, 0.09274714550642095
577.0, 0.09288017467487962
578.0, 0.08716701533407852
579.0, 0.05611318059453576
580.0, 0.04502658700026579
581.0, 0.04499714719546653
582.0, 0.03585384854571371
583.0, 0.014113294308817435
584.0, 0.014473661539918574
585.0, 0.010911857181217314
586.0, 0.009672311456380773
587.0, 0.014212128574441645
588.0, 0.014082922523479034
589.0, 0.006978244329410232
590.0, 0.004176538648006553
591.0, 0.023113337172452963
592.0, 0.005344034513210445
593.0, 0.01107228502368039
594.0, 0.017312755895561152
595.0, 0.012530849614218478
596.0, 0.008413521327972876
597.0, 0.02124106603250445
598.0, 0.014323757474513202
599.0, 0.03178893523485016
600.0, 0.039557804993155726
601.0, 0.0509099429094985
602.0, 0.061672274324035464
603.0, 0.06787811573254789
604.0, 0.07343063595521929
605.0, 0.08092601215768938
606.0, 0.08584307692832338
607.0, 0.07914240572335778
608.0, 0.08472120606866036
609.0, 0.08752734491083906
610.0, 0.0857429081553511
611.0, 0.10089041629483592
612.0, 0.10707772438314025
613.0, 0.11119127257817092
614.0, 0.1101429518533549
615.0, 0.11151713794568908
616.0, 0.11810161507070983
617.0, 0.12618199815023565
618.0, 0.12859574182341676
619.0, 0.12448919477893387
620.0, 0.1601286030913011
621.0, 0.18107297596820213
622.0, 0.17250918585989256
623.0, 0.16302586185298834
624.0, 0.1758985426515354
625.0, 0.20121240564682105
626.0, 0.2018934968640121
627.0, 0.19770410983219003
628.0, 0.2112125466001955
629.0, 0.23891626636539315
630.0, 0.2581729388707156
631.0, 0.2674689558979423
632.0, 0.28533668236003074
633.0, 0.2957975649530615
634.0, 0.3388102664886406
635.0, 0.3676682755410906
636.0, 0.4067632806308173
637.0, 0.445074364135038
638.0, 0.47959586679531135
639.0, 0.518837336688514
640.0, 0.5488639829255761
641.0, 0.5994955120745694
642.0, 0.6426315245708591
643.0, 0.676983339468258
644.0, 0.7045964731742482
645.0, 0.7359768407026606
646.0, 0.7833025491280698
647.0, 0.8447314068679032
648.0, 0.8594055202125261
649.0, 0.8927316698521557
650.0, 0.9080645846195531
651.0, 0.9203503970855321
652.0, 0.9434785562876303
653.0, 0.9680394362758277
654.0, 0.9656447073068533
655.0, 0.9947934373061583
656.0, 0.9830930339251097
657.0, 0.9829176276412974
658.0, 0.9868888405905538
659.0, 0.9910811860634212
660.0, 0.9961983533518273
661.0, 0.9962498109986467
662.0, 0.9621571837136216
663.0, 0.9723485556069438
664.0, 0.9635884642804363
665.0, 0.9425878653140423
666.0, 0.9358549337753909
667.0, 0.9403017337891674
668.0, 0.9217889603534959
669.0, 0.8872293421132389
670.0, 0.9006772534583615
671.0, 0.8854004593955229
672.0, 0.8907809641503148
673.0, 0.9010015410696861
674.0, 0.8949526459006868
675.0, 0.8776916716714178
676.0, 0.879626691403056
677.0, 0.8721514671150544
678.0, 0.8631233464405557
679.0, 0.8736223381121409
680.0, 0.8683503074034463
681.0, 0.8555172493672292
682.0, 0.8531536982744862
683.0, 0.8451331969323375
684.0, 0.8630636922752721
685.0, 0.8664240712365957
686.0, 0.8462601077186058
687.0, 0.8471538677349846
688.0, 0.8434723831669276
689.0, 0.8187894691233594
690.0, 0.8026918959582716
691.0, 0.8162301611852663
692.0, 0.7966784689855938
693.0, 0.7710274051210777
694.0, 0.7405728519933479
695.0, 0.7272437903157383
696.0, 0.702592249750387
697.0, 0.6469420829918754
698.0, 0.6262357275802706
699.0, 0.5753590655431837
700.0, 0.5300004532753659
701.0, 0.49722525087655445
702.0, 0.4674848075698447
703.0, 0.44690088047899124
704.0, 0.4269165988193557
705.0, 0.3880670417723523
706.0, 0.3735042042134782
707.0, 0.33440915676783695
708.0, 0.313811221647729
709.0, 0.30047584676977446
710.0, 0.28105713099874075
711.0, 0.24997830184362624
712.0, 0.21800776953672032
713.0, 0.2095644925190073
714.0, 0.21019321121003517
715.0, 0.18025239332112392
716.0, 0.17559682543760857
717.0, 0.1750397150795347
718.0, 0.16239030306366906
719.0, 0.1455703567337908
720.0, 0.1416534522673168
721.0, 0.13212692333167106
722.0, 0.12536400643109155
723.0, 0.10632533566045664
724.0, 0.1104619475164699
725.0, 0.10643385393652245
726.0, 0.09308621187448705
727.0, 0.08778550645199289
728.0, 0.090053357177117
729.0, 0.1058592902335801
730.0, 0.10048333710702206
731.0, 0.10140776434799217
732.0, 0.09915671519352198
733.0, 0.09520297102020525
734.0, 0.09118406939277614
735.0, 0.08558273558680318
736.0, 0.07852301748330151
737.0, 0.07096920287315288
738.0, 0.06635777722214016
739.0, 0.05951741618717732
740.0, 0.057770973052718465
741.0, 0.0553805145816477
742.0, 0.04856780628871108
743.0, 0.04311884080746055
744.0, 0.04164149116019328
745.0, 0.02937981990203691
746.0, 0.027052744370852262
747.0, 0.020895511830484853
748.0, 0.021717123765419146
749.0, 0.018161678423853047
750.0, 0.006357981437140148
751.0, 0.006520947639499464
752.0, 0.0014571335713617815
753.0, 0.004066028439450626
754.0, 0.004303237052908205
755.0, 0.005682622317639972
756.0, 0.005411920593417006
757.0, 0.008294162592609384
758.0, 0.01464887825137272
759.0, 0.01191818480484349
760.0, 0.0160320842755432
761.0, 0.01586613955116789
762.0, 0.019854144776999486
763.0, 0.013601680317832264
764.0, 0.006471007835844124
765.0, 0.010204494913370655
766.0, 0.016920735435075277
767.0, 0.002424276363682246
768.0, 0.01803791919085545
769.0, 0.020583410317397258
770.0, 0.01337496855878592
771.0, 0.013412545557983348
772.0, 0.013121065665329
773.0, 0.008616207113820926
774.0, 0.006154744514106735
775.0, 0.008105249136365046
776.0, 0.0011784522349450014
777.0, 0.011008142477848683
778.0, 0.006603910332926613
779.0, 0.012240351025862259
780.0, 0.014310232954067637
781.0, 0.009602256773139204
782.0, 0.007964019334236558
783.0, 0.0026024570467812714
784.0, 0.0064740636335920525
785.0, 0.00861765583212863
786.0, 0.016390591206147446
787.0, 0.010867821699967573
788.0, 0.007421889648781383
789.0, 0.008392952546466598
790.0, 0.006922678142259461
791.0, 0.016029705810498604
792.0, 0.009540422270172138
793.0, 0.01804284132055867
794.0, 0.018463726159469007
795.0, 0.01587730723181022
796.0, 0.014354106869256282
797.0, 0.013612761659505992
798.0, 0.013391332523151375
799.0, 0.016560402855549137
800.0, 0.015068915509632689
801.0, 0.019625993824486217
802.0, 0.029012386044511052
803.0, 0.03673382410676568
804.0, 0.04161809389271867
805.0, 0.04192351120151607
806.0, 0.04026313898523984
807.0, 0.04444135625942462
808.0, 0.045199472584696684
809.0, 0.04652979413314736
810.0, 0.048370510593228035
811.0, 0.0485197592409686
812.0, 0.04927844045136129
813.0, 0.04833478808747121
814.0, 0.04500107928944526
815.0, 0.04286427640200752
816.0, 0.03830917661075137
817.0, 0.05141583655638877
818.0, 0.06095526887592581
819.0, 0.061779435405939484
820.0, 0.05906088160323281
821.0, 0.059424068592780085
822.0, 0.061001423312074095
823.0, 0.06019898257381956
824.0, 0.06748956676639016
825.0, 0.055928887295568504
826.0, 0.06448684163702982
827.0, 0.06522958548027352
828.0, 0.05840350956664277
829.0, 0.0576891217174966
830.0, 0.06545708445159913
831.0, 0.07257172849876463
832.0, 0.07525292161277078
833.0, 0.08142847437357
834.0, 0.07109055777816937
835.0, 0.07607531291713734
836.0, 0.07938043872027839
837.0, 0.08227025489128995
838.0, 0.08794260018749037
839.0, 0.0950631221583717
840.0, 0.09828157513654745
841.0, 0.09302954516489045
842.0, 0.108545250403606
843.0, 0.10569325153088588
844.0, 0.10037359889714124
845.0, 0.10412359076839434
846.0, 0.10934296694078437
847.0, 0.10458796013026465
848.0, 0.09839847323252371
849.0, 0.1187190297079642
850.0, 0.12298215036320276
851.0, 0.12448801611869934
852.0, 0.14200102731765227
853.0, 0.14507028026290328
854.0, 0.14749563925476641
855.0, 0.15310551144214102
856.0, 0.15530888944445181
857.0, 0.15420253951052645
858.0, 0.15460596804289561
859.0, 0.14967591937626004
860.0, 0.16212792192579006
861.0, 0.1515157627767812
862.0, 0.15642680706001985
863.0, 0.177521606757257
864.0, 0.18422152219525312
865.0, 0.17538814431113722
866.0, 0.19789686994491798
867.0, 0.1976444057185978
868.0, 0.20965692986285075
869.0, 0.20136217137466256
870.0, 0.21436117531985446
871.0, 0.22261475786176363
872.0, 0.2315525397886216
873.0, 0.2422157467723977
874.0, 0.23773222421054505
875.0, 0.23047864789065925
876.0, 0.24427821927900664
877.0, 0.2445774243811758
878.0, 0.2658819231995756
879.0, 0.2690802804500545
880.0, 0.27675560283523537
881.0, 0.2954952111245148
882.0, 0.30712181049218734
883.0, 0.3032805148192367
884.0, 0.31030194412448026
885.0, 0.31385915123886565
886.0, 0.32624713733959093
887.0, 0.3310662097425048
888.0, 0.3351978867693465
889.0, 0.3338131996694869
890.0, 0.3332839675990241
891.0, 0.3377077974327151
892.0, 0.33468308375204064
893.0, 0.32329294296650973
894.0, 0.3168589406971151
895.0, 0.31257693853771507
896.0, 0.3174213965193884
897.0, 0.303998541497693
898.0, 0.2940654364520853
899.0, 0.2833236543832848
900.0, 0.26992556462342904
901.0, 0.2854815775376859
902.0, 0.2788874397189014
903.0, 0.26598364183863404
904.0, 0.25215668647741907
905.0, 0.23649275631169767
906.0, 0.2490042510045765
907.0, 0.260227216211899
908.0, 0.2566284858732865
909.0, 0.2480485859297109
910.0, 0.23556711411322592
911.0, 0.23260572527523815
912.0, 0.22501419425958832
913.0, 0.21215090659265073
914.0, 0.21212739839617953
915.0, 0.19728275645942564
916.0, 0.18457902692859834
917.0, 0.1820192756702168
918.0, 0.18283837614207316
919.0, 0.1857877913189103
920.0, 0.18143535252977677
921.0, 0.17412543982090153
922.0, 0.186859824622365
923.0, 0.1719545626889669
924.0, 0.16495230223436247
925.0, 0.1599589719564708
926.0, 0.1500639623199181
927.0, 0.14925078514965684
928.0, 0.1595888373416547
929.0, 0.12914549664534275
930.0, 0.14594536433484573
931.0, 0.12964996810826615
932.0, 0.13189471285277216
933.0, 0.14385185446949575
934.0, 0.14173199088000243
935.0, 0.14280900555523404
936.0, 0.1507607088431534
937.0, 0.14298258388742585
938.0, 0.1377818764397183
939.0, 0.15312708897954383
940.0, 0.13741162817209518
941.0, 0.1520449015254771
942.0, 0.1370829964634346
943.0, 0.13870039870461837
944.0, 0.15205357586374504
945.0, 0.1524605192515685
946.0, 0.14870524445386657
947.0, 0.1660087758523283
948.0, 0.16024121226736604
949.0, 0.15144535295776831
950.0, 0.1660675062551413
951.0, 0.16925162649022674
952.0, 0.16257748722597476
953.0, 0.16338031327023442
954.0, 0.17649195526600353
955.0, 0.17693969731888723
956.0, 0.15107328475584803
957.0, 0.16078638965693742
958.0, 0.16642374499973392
959.0, 0.13954022587552672
960.0, 0.15783669759084723
961.0, 0.18347909409509927
962.0, 0.18240393326171267
963.0, 0.17218498118221903
964.0, 0.170144644350664
965.0, 0.16928894603025618
966.0, 0.16682881703680438
967.0, 0.17526890466054032
968.0, 0.15083689341174147
969.0, 0.15399496970003296
970.0, 0.13862124022703642
971.0, 0.1399042500159318
972.0, 0.14196490526527653
973.0, 0.13437328568308268
974.0, 0.13390183920272852
975.0, 0.15074010851322348
976.0, 0.15405113554887873
977.0, 0.1364026103705017
978.0, 0.13862256025055872
979.0, 0.13478132522926065
980.0, 0.12798869562551848
981.0, 0.12036671323727112
982.0, 0.1166421817018925
983.0, 0.1168192438057352
984.0, 0.11598420064734459
985.0, 0.11422764748008209
986.0, 0.12202163803288357
987.0, 0.11604865601166914
988.0, 0.09618394797886198
989.0, 0.09922427967216872
990.0, 0.08945161110626851
991.0, 0.1032704010765631
992.0, 0.10818474682797741
993.0, 0.10048872617018448
994.0, 0.0975455445832915
995.0, 0.08232555251620416
996.0, 0.08723102778303483
997.0, 0.0798789219325189
998.0, 0.07815214475140533
999.0, 0.07497256756802448
1000.0, 0.07756620459569735
1001.0, 0.07408815087445489
1002.0, 0.06959826882273046
1003.0, 0.0732547903559671
1004.0, 0.07987122972306476
1005.0, 0.07807259294900282
1006.0, 0.07883238818231099
1007.0, 0.07959429306870479
1008.0, 0.07992961948052986
1009.0, 0.0784713598219436
1010.0, 0.08130830250739633
1011.0, 0.07701163127137298
1012.0, 0.07546040802128483
1013.0, 0.07779624432012977
1014.0, 0.07787070087073437
1015.0, 0.08068680866880847
1016.0, 0.08248747762225414
1017.0, 0.08305326233623132
1018.0, 0.08556297848070024
1019.0, 0.08495712144196023
1020.0, 0.09444935657095722
1021.0, 0.09961024836207527
1022.0, 0.09775732273222133
1023.0, 0.09632872088650432
1024.0, 0.0969142280532994
1025.0, 0.09574319310731043
1026.0, 0.09869202530982
1027.0, 0.09263386142678709
1028.0, 0.09395012044198528
1029.0, 0.09705056503802381
1030.0, 0.11280106958921123
1031.0, 0.11624417422511427
1032.0, 0.11800233664160813
1033.0, 0.11675929165185513
1034.0, 0.10973001232772384
1035.0, 0.10886622262272397
1036.0, 0.11425854561753322
1037.0, 0.09862714220240579
1038.0, 0.10317421533022257
1039.0, 0.09644979123728901
1040.0, 0.09910664076565535
1041.0, 0.10409706786699408
1042.0, 0.09646264919897447
1043.0, 0.09667703637054033
1044.0, 0.0992080003952092
1045.0, 0.09179121773515947
1046.0, 0.09089020506780066
1047.0, 0.07207667766640138
1048.0, 0.08161363937609567
1049.0, 0.083725957729312
1050.0, 0.07695081099115714
1051.0, 0.07038996017975276
1052.0, 0.06866339032334695
1053.0, 0.06438898802807703
1054.0, 0.06543620789081495
1055.0, 0.06760673104255424
1056.0, 0.05397820803326286
1057.0, 0.03908112874241988
1058.0, 0.05011664113279999
1059.0, 0.041896758836501846
1060.0, 0.029850200269008184
1061.0, 0.03227898458500365
1062.0, 0.030756635914587428
1063.0, 0.03168482655790597
1064.0, 0.03200592443795742
1065.0, 0.03329149448841495
1066.0, 0.02901390212863522
1067.0, 0.01133286692052813
1068.0, 0.008377704515757882
1069.0, 0.02113746939010964
1070.0, 0.014742805322356271
1071.0, 0.02654889952600465
1072.0, 0.012792984202069247
1073.0, 0.020448088633548335
1074.0, 0.025399692906375435
1075.0, 0.012698865641110824
1076.0, 0.003156358141098988
1077.0, 0.013188977718488105
1078.0, 0.020631590044211466
1079.0, 0.0024748543912673955
1080.0, 0.014636745141914508
1081.0, 0.0042676326161135494
1082.0, 0.0072968776848356485
1083.0, 0.014875322694073068
1084.0, 0.017011825034753583
1085.0, 0.008869266364663654
1086.0, 0.011452273254350033
1087.0, 0.013878850698881862
1088.0, 0.007626402129480367
1089.0, 0.013663293061891832
1090.0, 0.015404149519192292
1091.0, 0.017946670137277933
1092.0, 0.01610807360909898
1093.0, 0.016004903810731486
1094.0, 0.014269984640694606
1095.0, 0.012298453273008136
1096.0, 0.018930804330126564
1097.0, 0.022489243179370122
1098.0, 0.01809121206484632
1099.0, 0.01901668355865283
1100.0, 0.022466877359161964
1101.0, 0.002365201916438073
1102.0, 0.008622149529278499
1103.0, 0.01432481118731328
1104.0, 0.022438345650668486
1105.0, 0.012447506825651908
1106.0, 0.017940524170116753
1107.0, 0.010754745083517666
1108.0, 0.009385298631057986
1109.0, 0.007946389764966057
1110.0, 0.0019133539354609967
1111.0, 0.006130627825085354
1112.0, 0.018602574571435646
1113.0, 0.029222580258329425
1114.0, 0.009835623072757425
1115.0, 0.017391656473961258
1116.0, 0.01996177279299553
1117.0, 0.009783378673612023
1118.0, 0.003970108313430868
1119.0, 0.010719946041994501
1120.0, 0.016792584993247876
1121.0, 0.01707292252372955
1122.0, 0.011926254489464024
1123.0, 0.004414430170582867
1124.0, 0.009311390656491867
1125.0, 0.00043247904127556277
1126.0, 0.004070668237118342
1127.0, 0.0061287966430960735
1128.0, 0.020547331027172988
1129.0, 0.010753979439763129
1130.0, 0.003388162257929294
1131.0, 0.002236003955359851
1132.0, 0.010249988822938951
1133.0, 0.01431610515182356
1134.0, 0.009510519626683476
1135.0, 0.012978701465128572
1136.0, 0.010350080438459627
1137.0, 0.005281120272995875
1138.0, 0.01545388881260315
1139.0, 0.009517006314120781
1140.0, 0.0032998778288290034
1141.0, 0.0025079884731206577
1142.0, 0.0020663154418254057
1143.0, 0.008662340071740389
1144.0, 0.010510253374957063
1145.0, 0.004566203560152133
1146.0, 0.001594744894161445
1147.0, 0.0031867679044340308
1148.0, 0.007824193977897107
1149.0, 0.002442908015586411
1150.0, 0.006121051184758583
1151.0, 0.010419208219468916
1152.0, 0.0055711935876804185
1153.0, 0.0018887741284114466
1154.0, 0.014117561732396092
1155.0, 0.01459961953938475
1156.0, 0.0067420790632818145
1157.0, 0.002572911712935777
1158.0, 0.0015570241546360491
1159.0, 0.0022712140978269676
1160.0, 0.0011240487289237316
1161.0, 0.006633838867386727
1162.0, 0.00515992215224492
1163.0, 0.006015697632224985
1164.0, 0.0022950272320298687
1165.0, 0.0027563695202214088
1166.0, 0.008431243949153783
1167.0, 0.006505318914748309
1168.0, 0.004257603843662242
1169.0, 0.003495275645814743
1170.0, 0.001670431263932712
1171.0, 0.002650418739100538
1172.0, 0.00441919393369636
1173.0, 0.0036905230928661894
1174.0, 0.006461276277536223
1175.0, 0.01681324694501026
1176.0, 0.008302717811917873
1177.0, 0.009050750887126929
1178.0, 0.010757642193416706
1179.0, 0.020365050211479024
1180.0, 0.022470367571293347
1181.0, 0.019053351170887863
1182.0, 0.016965713868348997
1183.0, 0.0131899916802389
1184.0, 0.00821624494890523
1185.0, 0.0070666396154740515
1186.0, 0.0024073188741283082
1187.0, 0.0008508170510622137
1188.0, 0.02002812884491398
1189.0, 0.03043519119988655
1190.0, 0.024061473635837053
1191.0, 0.03328630565656503
1192.0, 0.01573888965926988
1193.0, 0.015038063280396788
1194.0, 0.022953618219594515
1195.0, 0.017290060651215508
1196.0, 0.021837166346340316
1197.0, 0.037287749494369256
1198.0, 0.022704848870490145
1199.0, 0.008685287505391326
1200.0, 0.03354545901354363
1201.0, 0.03926875146232785
1202.0, 0.02436704367005697
1203.0, 0.02814424936374452
1204.0, 0.03901918791280942
1205.0, 0.0438492548967459
1206.0, 0.034095323373296835
1207.0, 0.035947994175652455
1208.0, 0.044957656074305095
1209.0, 0.033522677791770684
1210.0, 0.01855067876983901
1211.0, 0.026084943997517953
1212.0, 0.02935233005946192
1213.0, 0.036327721797367096
1214.0, 0.03877124155681256
1215.0, 0.03238402622080557
1216.0, 0.03893093818581089
1217.0, 0.035215794553183424
1218.0, 0.02960866227187721
1219.0, 0.028507767146102463
1220.0, 0.028105103255444776
1221.0, 0.02798369817244867
1222.0, 0.031072451224429698
1223.0, 0.03445345988271782
1224.0, 0.03293979732646092
1225.0, 0.03070111260069569
1226.0, 0.03715657946931832
1227.0, 0.03510883988782909
1228.0, 0.0373987188577745
1229.0, 0.028004894531666893
1230.0, 0.02707258969022584
1231.0, 0.03423833305530886
1232.0, 0.024164896500039
1233.0, 0.030630084022607175
1234.0, 0.037915950274763105
1235.0, 0.028461991054128565
1236.0, 0.02057479100093293
1237.0, 0.019412039320788572
1238.0, 0.018176136478859222
1239.0, 0.023610789308778406
1240.0, 0.019355214148132405
1241.0, 0.019632946438515875
1242.0, 0.02421025579343638
1243.0, 0.029423107673626023
1244.0, 0.015215717143300802
1245.0, 0.022902701153109422
1246.0, 0.03310660696776246
1247.0, 0.026095188276798725
1248.0, 0.014336154045095665
1249.0, 0.014384355289772739
1250.0, 0.02026472138559347
1251.0, 0.018623860068674676
1252.0, 0.013042004347906354
1253.0, 0.012471044410604405
1254.0, 0.02356570314970535
1255.0, 0.03522369804818886
1256.0, 0.031585090903923294
1257.0, 0.022584930804903265
1258.0, 0.022562219549108375
1259.0, 0.020210440363555588
1260.0, 0.014024945035785379
1261.0, 0.013438797961770797
1262.0, 0.015217390558307637
1263.0, 0.015009763214449696
1264.0, 0.018511753797241737
1265.0, 0.025815001423845844
1266.0, 0.02775267437261272
1267.0, 0.0300340059380932
1268.0, 0.034063539262263985
1269.0, 0.0361334559044989
1270.0, 0.035589687155865586
1271.0, 0.04613990635611802
1272.0, 0.04594032057088902
1273.0, 0.055063381482946434
1274.0, 0.05058289116499945
1275.0, 0.04510492633332053
1276.0, 0.05803440735105238
1277.0, 0.05513207024412526
1278.0, 0.04853130906101588
1279.0, 0.054758447833311845
1280.0, 0.05180339805939794
1281.0, 0.056597962278855066
1282.0, 0.057733902972973386
1283.0, 0.07035063449980489
1284.0, 0.058860711973313384
1285.0, 0.06223195453334239
1286.0, 0.07258761044334296
1287.0, 0.06991735809391221
1288.0, 0.07908620372457191
1289.0, 0.0833229388950348
1290.0, 0.09099850313933495
1291.0, 0.08836632649094267
1292.0, 0.08907861011377571
1293.0, 0.09698565793640189
1294.0, 0.09925549763724141
1295.0, 0.1066056004053114
1296.0, 0.12472347110606838
1297.0, 0.11742429816948287
1298.0, 0.10223345513823615
1299.0, 0.11392048331629837
1300.0, 0.12784789077518788
1301.0, 0.11597689231157944
1302.0, 0.12398817167508014
1303.0, 0.12264041798112214
1304.0, 0.1387616682565644
1305.0, 0.12483630457917987
1306.0, 0.12215477903557455
1307.0, 0.12314120778146552
1308.0, 0.12787023506409662
1309.0, 0.12388392661847451
1310.0, 0.11930132292731038
1311.0, 0.1316898091501668
1312.0, 0.12413940864949995
1313.0, 0.14487262196879716
1314.0, 0.1414947669455721
1315.0, 0.1438622183165617
1316.0, 0.14496348589320182
1317.0, 0.13681987844237292
1318.0, 0.13293695555669482
1319.0, 0.1307451444104017
1320.0, 0.13154176218422556
1321.0, 0.14553442898539268
1322.0, 0.15344896435969255
1323.0, 0.15290424457013402
1324.0, 0.15796608354260744
1325.0, 0.15083833179827763
1326.0, 0.15180267528954136
1327.0, 0.17686579961194726
1328.0, 0.1630490658861702
1329.0, 0.147019235802894
1330.0, 0.1354052549655412
1331.0, 0.1470896014251915
1332.0, 0.16421877181971015
1333.0, 0.14947413309613478
1334.0, 0.16214291724811625
1335.0, 0.1528037133169983
1336.0, 0.16219672904479132
1337.0, 0.16122603422517098
1338.0, 0.15746939508921953
1339.0, 0.1539215025100776
1340.0, 0.150936947636314
1341.0, 0.14843466054325424
1342.0, 0.14495336906241657
1343.0, 0.14487724927298784
1344.0, 0.1459116341800461
1345.0, 0.14084254008299188
1346.0, 0.1507095867464729
1347.0, 0.15306448280683277
1348.0, 0.14353903507057
1349.0, 0.14869490097967883
1350.0, 0.1473212744032074
1351.0, 0.1442796635860107
1352.0, 0.14414609411426033
1353.0, 0.1402509617543724
1354.0, 0.13760855668389071
1355.0, 0.12861771853147816
1356.0, 0.13192886938580853
1357.0, 0.12468829338710315
1358.0, 0.1135714183122826
1359.0, 0.11335516235607147
1360.0, 0.12013748767577981
1361.0, 0.12580024504281162
1362.0, 0.12040559148869417
1363.0, 0.11417999699388003
1364.0, 0.10874295640263833
1365.0, 0.11113499593980096
1366.0, 0.11878753854863773
1367.0, 0.11673969121288927
1368.0, 0.11913047182685996
1369.0, 0.12290347713037732
1370.0, 0.11810088016168423
1371.0, 0.10566155519873878
1372.0, 0.09631259536394715
1373.0, 0.10138789820386326
1374.0, 0.10840371715771777
1375.0, 0.11066036348054155
1376.0, 0.10034932341432368
1377.0, 0.09305567547474802
1378.0, 0.09481823027785936
1379.0, 0.09055555352222565
1380.0, 0.09036494724461117
1381.0, 0.09359911218948923
1382.0, 0.08198875802259196
1383.0, 0.0898827224816977
1384.0, 0.0892185227524429
1385.0, 0.09265193149811474
1386.0, 0.0860856927736445
1387.0, 0.0825737605871928
1388.0, 0.08853960374632615
1389.0, 0.09051797541031388
1390.0, 0.08461515065272959
1391.0, 0.08564102056821679
1392.0, 0.07508670440951583
1393.0, 0.06976589666769492
1394.0, 0.07578338592767067
1395.0, 0.07637935932993258
1396.0, 0.07447345264020297
1397.0, 0.06932306373350439
1398.0, 0.04962309715654993
1399.0, 0.03537865984661102
1400.0, 0.042697671166232715
1401.0, 0.04847226613630708
1402.0, 0.020588126187136794
1403.0, 0.04777666781506821
1404.0, 0.06687466102371134
1405.0, 0.01635352493513269
1406.0, 0.02348692472029534
1407.0, 0.03113481573960984
1408.0, 0.04170399384888821
1409.0, 0.04109459519298135
1410.0, 0.014515860818407547
1411.0, 0.027204590359581247
1412.0, 0.02514061732058429
1413.0, 0.02114015337377079
1414.0, 0.0293798942752299
1415.0, 0.02286393454704666
1416.0, 0.006393944892746377
1417.0, 0.005934892685076208
1418.0, 0.010868460319299222
1419.0, 0.00695381525161427
1420.0, 0.006773927291001538
1421.0, 0.0035578174343911407
1422.0, 0.015425714910869644
1423.0, 0.005753400058169207
1424.0, 0.0029359911636993637
1425.0, 0.024465177122179514
1426.0, 0.013347056914908426
1427.0, 0.025984941499477075
1428.0, 0.018180600489938577
1429.0, 0.003796626781511811
1430.0, 0.0016335554097328476
1431.0, 0.011820726069271899
1432.0, 0.017477824954792272
1433.0, 0.010407048769322766
1434.0, 0.010506517469284172
1435.0, 0.014685428055050156
1436.0, 0.011899760079592935
1437.0, 0.017126593430211317
1438.0, 0.023203501370362867
1439.0, 0.01044983457710674
1440.0, 0.005547595298647722
1441.0, 0.014723554873011073
1442.0, 0.012930863977679228
1443.0, 0.0065122728292777874
1444.0, 0.01311367758717659
1445.0, 0.017642934412462445
1446.0, 0.012223047668438588
1447.0, 0.0187156325442884
1448.0, 0.01431425967849783
1449.0, 0.009699906445381573
1450.0, 0.016997718469790382
1451.0, 0.0038115082778530564
1452.0, 0.0012700404583324896
1453.0, 0.0210788066557284
1454.0, 0.0108462861836525
1455.0, 0.003716316358000096
1456.0, 0.009660303852460417
1457.0, 0.007586587584434057
1458.0, 0.008317106737935254
1459.0, 0.017839225700666202
1460.0, 0.016129506251302092
1461.0, 0.00761283776787897
1462.0, 0.00824770377739217
1463.0, 0.006398066528447716
1464.0, 0.00806202784997189
1465.0, 0.013488612677511837
1466.0, 0.014680537450676986
1467.0, 0.009290320308672387
1468.0, 0.014865046344323583
1469.0, 0.02318610539502658
1470.0, 0.010704761653168218
1471.0, 0.0075272981314329366
1472.0, 0.011696882547657942
1473.0, 0.014723594421311857
1474.0, 0.020682478030604867
1475.0, 0.028804903242463892
1476.0, 0.029020600070735016
1477.0, 0.02776356891814279
1478.0, 0.02766359125660885
1479.0, 0.014131328308951089
1480.0, 0.007980451355647022
1481.0, 0.022935258496065446
1482.0, 0.026752403480207798
1483.0, 0.02285208069088454
1484.0, 0.025507486242226977
1485.0, 0.02205278011478132
1486.0, 0.019750425702585263
1487.0, 0.014246402128548049
1488.0, 0.02508470347083847
1489.0, 0.030830262758140662
1490.0, 0.03350403209593927
1491.0, 0.03027240524205941
1492.0, 0.030283471673055888
1493.0, 0.03456272721995959
1494.0, 0.012406317204868851
1495.0, 0.012660194101609071
1496.0, 0.013271959703259655
1497.0, 0.03370814718083937
1498.0, 0.013148066434207082
1499.0, 0.021371512580747404
1500.0, 0.027785629924665038
1501.0, 0.03225072680996003
1502.0, 0.027951980481679312
1503.0, 0.009116743200298382
1504.0, 0.019376212406546554
1505.0, 0.014314095880943997
1506.0, 0.010771962185627355
1507.0, 0.02006347832208944
1508.0, 0.023253041648030718
1509.0, 0.022871136661952562
1510.0, 0.016727120730617127
1511.0, 0.012059377207335152
1512.0, 0.022509434754454445
1513.0, 0.03162571579804119
1514.0, 0.017711301578252323
1515.0, 0.004100196258380637
1516.0, 0.018549751388499573
1517.0, 0.021261462816988885
1518.0, 0.015775358543975743
1519.0, 0.02836925323024265
1520.0, 0.012367033661479305
1521.0, 0.04715058253658272
1522.0, 0.005809636791002208
1523.0, 0.02303788167507123
1524.0, 0.014360088622994505
1525.0, 0.02960585925417599
1526.0, 0.026623061955707523
1527.0, 0.02008999400665368
1528.0, 0.03356983461666189
1529.0, 0.01856300534925024
1530.0, 0.014358214920295913
1531.0, 0.022711055688877737
1532.0, 0.01686275264308445
1533.0, 0.014104083996235075
1534.0, 0.012950718529232417
1535.0, 0.005011337683573556
1536.0, 0.003431316299243291
1537.0, 0.0037520189033635656
1538, 0.0
1539, 0.0
1540, 0.0
1541, 0.0
1542, 0.0
1543, 0.0
1544, 0.0
1545, 0.0
1546, 0.0
1547, 0.0
1548, 0.0
1549, 0.0
1550, 0.0
1551, 0.0
1552, 0.0
1553, 0.0
1554, 0.0
1555, 0.0
1556, 0.0
1557, 0.0
1558, 0.0
1559, 0.0
1560, 0.0
1561, 0.0
1562, 0.0
1563, 0.0
1564, 0.0
1565, 0.0
1566, 0.0
1567, 0.0
1568, 0.0
1569, 0.0
1570, 0.0
1571, 0.0
1572, 0.0
1573, 0.0
1574, 0.0
1575, 0.0
1576, 0.0
1577, 0.0
1578, 0.0
1579, 0.0
1580, 0.0
1581, 0.0
1582, 0.0
1583, 0.0
1584, 0.0
1585, 0.0
1586, 0.0
1587, 0.0
1588, 0.0
1589, 0.0
1590, 0.0
1591, 0.0
1592, 0.0
1593, 0.0
1594, 0.0
1595, 0.0
1596, 0.0
1597, 0.0
1598, 0.0
1599, 0.0
