30, 0.0
31, 0.0
32, 0.0
33, 0.0
34, 0.0
35, 0.0
36, 0.0
37, 0.0
38, 0.0
39, 0.0
40, 0.0
41, 0.0
42, 0.0
43, 0.0
44, 0.0
45, 0.0
46, 0.0
47, 0.0
48, 0.0
49, 0.0
50, 0.0
51, 0.0
52, 0.0
53, 0.0
54, 0.0
55, 0.0
56, 0.0
57, 0.0
58, 0.0
59, 0.0
60, 0.0
61, 0.0
62, 0.0
63, 0.0
64, 0.0
65, 0.0
66, 0.0
67, 0.0
68, 0.0
69, 0.0
70, 0.0
71, 0.0
72, 0.0
73, 0.0
74, 0.0
75, 0.0
76, 0.0
77, 0.0
78, 0.0
79, 0.0
80, 0.0
81, 0.0
82, 0.0
83, 0.0
84, 0.0
85, 0.0
86, 0.0
87, 0.0
88, 0.0
89, 0.0
90, 0.0
91, 0.0
92, 0.0
93, 0.0
94, 0.0
95, 0.0
96, 0.0
97, 0.0
98, 0.0
99, 0.0
100, 0.0
101, 0.0
102, 0.0
103, 0.0
104, 0.0
105, 0.0
106, 0.0
107, 0.0
108, 0.0
109, 0.0
110, 0.0
111, 0.0
112, 0.0
113, 0.0
114, 0.0
115, 0.0
116, 0.0
117, 0.0
118, 0.0
119, 0.0
120, 0.0
121, 0.0
122, 0.0
123.0, 0.0010104998585402994
124.0, 0.001385843831662934
125.0, 0.0015162743617674749
126.0, 0.0026903004236469947
127.0, 0.002468506603740854
128.0, 0.0017225497906306869
129.0, 0.0007531569492219185
130.0, 0.0009748898587863594
131.0, 0.0012431970891992085
132.0, 0.0013356522747173774
133.0, 0.000799589973584085
134.0, 0.0013543352330885876
135.0, 0.002573278030080488
136.0, 0.00456263907396718
137.0, 0.009127823908586196
138.0, 0.01843534890583015
139.0, 0.03192293976776407
140.0, 0.05014838511810196
141.0, 0.07560300843584788
142.0, 0.10407366042541218
143.0, 0.13251175359310918
144.0, 0.14831143788221718
145.0, 0.15575677148336872
146.0, 0.1543418673264635
147.0, 0.1424720839656961
148.0, 0.11522676196912776
149.0, 0.08797841595937453
150.0, 0.06272310043068162
151.0, 0.04426082246533192
152.0, 0.030754454642351256
153.0, 0.020210686731334013
154.0, 0.012411893053811894
155.0, 0.009640111570265033
156.0, 0.009661808231173208
157.0, 0.010845663571121442
158.0, 0.011581853343238142
159.0, 0.01612417109625185
160.0, 0.020210426521818134
161.0, 0.02383433304400918
162.0, 0.029437600150606907
163.0, 0.03314137524323795
164.0, 0.03560403085663028
165.0, 0.037007511452508794
166.0, 0.04029855894290223
167.0, 0.04245345602926167
168.0, 0.044181280057227705
169.0, 0.04705780711600598
170.0, 0.0476399517736323
171.0, 0.050102009028523034
172.0, 0.0550878673735753
173.0, 0.057422365023561454
174.0, 0.06022895702519817
175.0, 0.06404268715789613
176.0, 0.06961009180357365
177.0, 0.07427676116271058
178.0, 0.07892989616402483
179.0, 0.08356535418304098
180.0, 0.0879068886243518
181.0, 0.09220659062603277
182.0, 0.09564254872546822
183.0, 0.09791253005786073
184.0, 0.10247217360942701
185.0, 0.10534304279725204
186.0, 0.1071377028202135
187.0, 0.1084897793961657
188.0, 0.105875886619393
189.0, 0.10498409746072068
190.0, 0.10594111967450379
191.0, 0.10503060027743769
192.0, 0.10362251560395203
193.0, 0.10222623312484291
194.0, 0.1011243595682532
195.0, 0.10406311605348308
196.0, 0.10761954161079458
197.0, 0.11222331988094279
198.0, 0.11898127398533971
199.0, 0.12202049983039366
200.0, 0.12711919566076588
201.0, 0.13439484525717854
202.0, 0.13617291635361575
203.0, 0.13759075279794736
204.0, 0.13799402953947437
205.0, 0.13678320566621344
206.0, 0.14029520355045708
207.0, 0.14063809623298718
208.0, 0.13794051080239889
209.0, 0.13228015815442182
210.0, 0.13201043020215347
211.0, 0.13122219643116778
212.0, 0.1287740947019507
213.0, 0.12633577381684044
214.0, 0.12582300407355063
215.0, 0.12518970194739443
216.0, 0.12292017391764444
217.0, 0.12469610481263235
218.0, 0.1258944800723571
219.0, 0.1271766701599462
220.0, 0.13040473314611586
221.0, 0.13476338771382093
222.0, 0.13948240037405515
223.0, 0.14439339710380322
224.0, 0.14945719787835593
225.0, 0.1543992724563986
226.0, 0.16047729245700393
227.0, 0.16871166690824713
228.0, 0.17448963383255744
229.0, 0.18245263026529285
230.0, 0.19272029519067396
231.0, 0.20580454581811009
232.0, 0.21744726557768873
233.0, 0.2265647533296526
234.0, 0.23175122429306627
235.0, 0.22545922545598307
236.0, 0.21854346752894013
237.0, 0.20796693347092182
238.0, 0.1916552486575623
239.0, 0.17884031469692843
240.0, 0.16793027203532598
241.0, 0.15891179685930723
242.0, 0.15211056616541602
243.0, 0.1541116135743183
244.0, 0.15534955089650346
245.0, 0.15649751533670447
246.0, 0.1665934452748119
247.0, 0.1751220041171984
248.0, 0.18314488765227002
249.0, 0.19104462183027643
250.0, 0.19829832330465
251.0, 0.20446729858501436
252.0, 0.21031649397939933
253.0, 0.21664799912083277
254.0, 0.21858873499779952
255.0, 0.21996644761574816
256.0, 0.21981949550515564
257.0, 0.21426349859794794
258.0, 0.2120494765335535
259.0, 0.20870272061669637
260.0, 0.20281565555600534
261.0, 0.192977618842613
262.0, 0.186786305864484
263.0, 0.17896221302783716
264.0, 0.16576534109038862
265.0, 0.15606165036223285
266.0, 0.14523394554287183
267.0, 0.1341025120381948
268.0, 0.12408575309271964
269.0, 0.11602020029618186
270.0, 0.10668671381680733
271.0, 0.09619228458842057
272.0, 0.0867477532019175
273.0, 0.08063392655542773
274.0, 0.07539715737144427
275.0, 0.07028874968332231
276.0, 0.06683265422793698
277.0, 0.06263859946842962
278.0, 0.05974679494867078
279.0, 0.06010293836073433
280.0, 0.057759955224871984
281.0, 0.05884956178638813
282.0, 0.06219530960022885
283.0, 0.0653736528179295
284.0, 0.06848299954537766
285.0, 0.07497197767658324
286.0, 0.0840666935189758
287.0, 0.0895641958087215
288.0, 0.1007744983921123
289.0, 0.11172303147010827
290.0, 0.12023314611530483
291.0, 0.1297508250587588
292.0, 0.1362163109546242
293.0, 0.1399239621845324
294.0, 0.1407907587593877
295.0, 0.14205009020565743
296.0, 0.13915195674254244
297.0, 0.13521492277264407
298.0, 0.13627106856358778
299.0, 0.13551146796518487
300.0, 0.1388349235126931
301.0, 0.14597407049578118
302.0, 0.15257110870557103
303.0, 0.16019350352447354
304.0, 0.1714521531660087
305.0, 0.18661554459554938
306.0, 0.19762363035634412
307.0, 0.21382231872673893
308.0, 0.2323361656176804
309.0, 0.2514011298990829
310.0, 0.2788858298895259
311.0, 0.3171959179240528
312.0, 0.3633295895009968
313.0, 0.41394615443703253
314.0, 0.48713584939461746
315.0, 0.5628764393046602
316.0, 0.6360225385020631
317.0, 0.6971051739877542
318.0, 0.7438084298647728
319.0, 0.7606358688088479
320.0, 0.7477459211864649
321.0, 0.7273704881908316
322.0, 0.6785949799475789
323.0, 0.6234431716475253
324.0, 0.5709747503535235
325.0, 0.5158012912214639
326.0, 0.46677696044971745
327.0, 0.425544341278688
328.0, 0.39418850247147275
329.0, 0.3664983075900753
330.0, 0.3463965003600295
331.0, 0.33124787405756817
332.0, 0.3174522088872868
333.0, 0.30226348960897026
334.0, 0.29064745121018226
335.0, 0.2809886598213578
336.0, 0.26769553292406634
337.0, 0.2582909605512012
338.0, 0.24739780810006687
339.0, 0.23540520148475194
340.0, 0.23040075865955795
341.0, 0.2218153949798498
342.0, 0.21617710862819117
343.0, 0.21591271862796166
344.0, 0.21768144386742883
345.0, 0.22250298283793643
346.0, 0.2320513132064951
347.0, 0.24772418275683117
348.0, 0.2640543968210736
349.0, 0.28296459795379714
350.0, 0.3007601471534817
351.0, 0.3130393798285946
352.0, 0.31400793602553656
353.0, 0.3070001703239377
354.0, 0.29173596993212975
355.0, 0.26639533459732545
356.0, 0.2409204542381326
357.0, 0.2156042579320671
358.0, 0.18978329187349163
359.0, 0.16120310353884298
360.0, 0.14033035610514888
361.0, 0.12182964255495242
362.0, 0.10492583892132584
363.0, 0.09210713373578647
364.0, 0.08084897772462377
365.0, 0.07024475472978352
366.0, 0.06033850394300392
367.0, 0.05479927892754724
368.0, 0.04824962464583927
369.0, 0.042001839252830964
370.0, 0.03681761101977787
371.0, 0.0311742587135487
372.0, 0.026259375718596854
373.0, 0.021807120799140364
374.0, 0.017603169137544485
375.0, 0.013398591677062175
376.0, 0.010008783287092086
377.0, 0.006949443803783718
378.0, 0.0035459144535308976
379.0, 0.0011107199795219957
380.0, 0.0006802834762568655
381.0, 0.0019830278603880733
382.0, 0.004488175054902279
383.0, 0.004249207314738016
384.0, 0.004557447192263172
385.0, 0.005013447478623196
386.0, 0.003066849041015213
387.0, 0.0037195624745842465
388.0, 0.0035367307859318765
389.0, 0.0020954716087753346
390.0, 0.0008127464383309224
391.0, 0.00040997685987850325
392.0, 0.0004916796561455708
393.0, 0.0009221198001629747
394.0, 0.001558578438412649
395.0, 0.0032295842134365347
396.0, 0.005017025243714174
397.0, 0.006637391982333344
398.0, 0.009432582788867796
399.0, 0.013083037058600104
400.0, 0.016619089587588433
401.0, 0.019556384421872
402.0, 0.02445488101853441
403.0, 0.02910453171844147
404.0, 0.03428122943952094
405.0, 0.040629233663310726
406.0, 0.04638491549856943
407.0, 0.056109046599247696
408.0, 0.0679320150908556
409.0, 0.07992937933016184
410.0, 0.09523556745877793
411.0, 0.114112051125868
412.0, 0.1369927420565859
413.0, 0.16473372899798977
414.0, 0.1936034524083573
415.0, 0.22890707927142817
416.0, 0.2700114120479462
417.0, 0.3156661546471301
418.0, 0.3735518467640478
419.0, 0.42951978226559234
420.0, 0.48311309002429587
421.0, 0.5363127100003151
422.0, 0.5752255498088694
423.0, 0.6015241980485129
424.0, 0.6140283485358449
425.0, 0.6079658048174595
426.0, 0.5717113984269702
427.0, 0.5303369502581133
428.0, 0.48556959862053384
429.0, 0.4275543136533057
430.0, 0.371521295682344
431.0, 0.31929880976220293
432.0, 0.2716377709952336
433.0, 0.22993915934394657
434.0, 0.19340719990424937
435.0, 0.16043580419332418
436.0, 0.13103758396595855
437.0, 0.10734091017212034
438.0, 0.0899196720380474
439.0, 0.07427520458196789
440.0, 0.05935700834155996
441.0, 0.04750585590741753
442.0, 0.03779176328683996
443.0, 0.029040835377797357
444.0, 0.02097132695380096
445.0, 0.014577593073466646
446.0, 0.008091706386191617
447.0, 0.0029947058549501873
448.0, 0.0005941141951602705
449.0, 0.006174405931787256
450.0, 0.008103726499825693
451.0, 0.010179079328908273
452.0, 0.013914658530233083
453.0, 0.016463574447603997
454.0, 0.016205068880490107
455.0, 0.016138254698195343
456.0, 0.01761905604203491
457.0, 0.018265030294933694
458.0, 0.01663072898688719
459.0, 0.014918175129438724
460.0, 0.014093839664547851
461.0, 0.01082608197634949
462.0, 0.010203333790011879
463.0, 0.00868842073995107
464.0, 0.004535827235424864
465.0, 0.0029411220817165866
466.0, 0.001994561416448098
467.0, 0.00257837587960329
468.0, 0.004976586585947948
469.0, 0.004579170284054137
470.0, 0.008883737613743113
471.0, 0.012736637696309224
472.0, 0.013251859587957843
473.0, 0.016618927031400613
474.0, 0.0195782027033595
475.0, 0.022072517785849594
476.0, 0.024304814313555582
477.0, 0.030260163094994068
478.0, 0.03399715862958993
479.0, 0.03767531036876131
480.0, 0.04254131316262955
481.0, 0.04679555403086843
482.0, 0.05242442722220489
483.0, 0.057616548454200354
484.0, 0.06133474076115332
485.0, 0.0649890713480145
486.0, 0.07142384891206414
487.0, 0.07630410968809466
488.0, 0.07735242970799046
489.0, 0.07920384269077031
490.0, 0.08318775248817821
491.0, 0.08596156364899583
492.0, 0.08625225925977342
493.0, 0.09148477405054294
494.0, 0.0895288259756597
495.0, 0.08775863054746758
496.0, 0.089381855169005
497.0, 0.08737939414752849
498.0, 0.0839464644833111
499.0, 0.08166077398211681
500.0, 0.08114973997407798
501.0, 0.0768201080311991
502.0, 0.07430310760255024
503.0, 0.07187635863309498
504.0, 0.06886436109089057
505.0, 0.06589717563225167
506.0, 0.0653565737505158
507.0, 0.06391334459287713
508.0, 0.061083852734716323
509.0, 0.06201994862185379
510.0, 0.06200705997283145
511.0, 0.062432716943601405
512.0, 0.0638796191767134
513.0, 0.06685603519983344
514.0, 0.0656156406907857
515.0, 0.0663306288019928
516.0, 0.06952364769407769
517.0, 0.06958381165871587
518.0, 0.07156030808873348
519.0, 0.07291183881312664
520.0, 0.07358836259843979
521.0, 0.07563862123251117
522.0, 0.07976131253032608
523.0, 0.08067077521165018
524.0, 0.07986560593736268
525.0, 0.08470466822914055
526.0, 0.08794810347930573
527.0, 0.09020576623593243
528.0, 0.09252020722543554
529.0, 0.09710236351506922
530.0, 0.10043442907012289
531.0, 0.10614121180679562
532.0, 0.11287692828936718
533.0, 0.11729208011591732
534.0, 0.12348071764192298
535.0, 0.13306385785376984
536.0, 0.14229942509345805
537.0, 0.1453324370165061
538.0, 0.15269228223882128
539.0, 0.16108758056301462
540.0, 0.1676693003551646
541.0, 0.16922420509062838
542.0, 0.1759663937049412
543.0, 0.17570434160748993
544.0, 0.1767295337771389
545.0, 0.18653943050875013
546.0, 0.18647471587719888
547.0, 0.1850272013965449
548.0, 0.18256150548982575
549.0, 0.1793966040706095
550.0, 0.17630028719085897
551.0, 0.17551125969030493
552.0, 0.1735433143183
553.0, 0.16858421867737486
554.0, 0.16190792191189493
555.0, 0.1551084960664247
556.0, 0.1466949830696216
557.0, 0.13715119311807059
558.0, 0.13257011871598887
559.0, 0.12869650109831263
560.0, 0.12309819229760624
561.0, 0.11686692893834291
562.0, 0.1168031965080612
563.0, 0.1100603762288908
564.0, 0.11054843029550739
565.0, 0.11594158808769112
566.0, 0.11275364605433007
567.0, 0.11424377652179514
568.0, 0.12059674779380464
569.0, 0.1274749781510972
570.0, 0.12689627359040923
571.0, 0.13647419265413632
572.0, 0.1414699871880448
573.0, 0.14567169220129944
574.0, 0.1551889621998361
575.0, 0.16040093468247257
576.0, 0.16451756219347197
577.0, 0.17169394854554104
578.0, 0.18508232166030822
579.0, 0.1904320456273966
580.0, 0.20142571876548968
581.0, 0.2140450713918045
582.0, 0.22596347850338316
583.0, 0.23915361753891085
584.0, 0.2566468385064445
585.0, 0.27310858787423176
586.0, 0.2883868872168465
587.0, 0.3132676349084907
588.0, 0.3316685658396603
589.0, 0.35118609077045315
590.0, 0.37571027966267756
591.0, 0.41105172519974487
592.0, 0.43522631264956874
593.0, 0.4606118587199029
594.0, 0.4896885010873217
595.0, 0.5234909391063732
596.0, 0.5582742394217863
597.0, 0.6010447840295677
598.0, 0.6414842699643829
599.0, 0.6658723102016846
600.0, 0.7094457440820178
601.0, 0.7492807490331836
602.0, 0.7867603034602503
603.0, 0.8238497378201971
604.0, 0.8704660020486521
605.0, 0.8976534241825622
606.0, 0.9218520192082318
607.0, 0.9498473274919091
608.0, 0.9686590943763587
609.0, 0.9805846754107201
610.0, 0.989467608607604
611.0, 0.9961940751801259
612.0, 0.9995591722799263
613.0, 0.9921282826959008
614.0, 0.978634592049439
615.0, 0.9623074324844604
616.0, 0.94805275884103
617.0, 0.9284254815435148
618.0, 0.9080970881573922
619.0, 0.8859020046364028
620.0, 0.8600696736575819
621.0, 0.8315682279097822
622.0, 0.8025931993630895
623.0, 0.7807562673216453
624.0, 0.7685105188191069
625.0, 0.7298123720194443
626.0, 0.7077359456897504
627.0, 0.6868486427349118
628.0, 0.6611861715913744
629.0, 0.6349296133624727
630.0, 0.6102884235364494
631.0, 0.5855808487218941
632.0, 0.5626271125789633
633.0, 0.5470438637769116
634.0, 0.5226646396800966
635.0, 0.5029607417552598
636.0, 0.48482782373454464
637.0, 0.46189286847397515
638.0, 0.4469203292196466
639.0, 0.43586509071328844
640.0, 0.42021792179415085
641.0, 0.3951108327421985
642.0, 0.386021959266315
643.0, 0.3717313532234265
644.0, 0.35890992139338335
645.0, 0.3501581461307727
646.0, 0.3433524773029684
647.0, 0.32797931498086097
648.0, 0.31636134676956923
649.0, 0.3088617819667044
650.0, 0.29960768188251974
651.0, 0.2906738893074471
652.0, 0.28405077116131844
653.0, 0.2769594902240497
654.0, 0.265827408459944
655.0, 0.26061507418925217
656.0, 0.2579997167300835
657.0, 0.2502959546704791
658.0, 0.23502369938672438
659.0, 0.23596504051415937
660.0, 0.22842771077083351
661.0, 0.21899353297798352
662.0, 0.21082140727895946
663.0, 0.20666870115461453
664.0, 0.20329153455936486
665.0, 0.2005286406715837
666.0, 0.1962113507423172
667.0, 0.18678770740169467
668.0, 0.18368483202177596
669.0, 0.18018449576396856
670.0, 0.17587843205150788
671.0, 0.17086615024342106
672.0, 0.16865942533412512
673.0, 0.16243552965615782
674.0, 0.15591846136479323
675.0, 0.15115566946551706
676.0, 0.14965855639979522
677.0, 0.14635251687871698
678.0, 0.14450300187327444
679.0, 0.1424102745583913
680.0, 0.13545665560276063
681.0, 0.13135866031045798
682.0, 0.1294696835995517
683.0, 0.12713386683028827
684.0, 0.1219892495518736
685.0, 0.11768197772174786
686.0, 0.117750946817595
687.0, 0.11527976593133395
688.0, 0.10883674842159734
689.0, 0.10717806330624535
690.0, 0.104619768027728
691.0, 0.1027843805698273
692.0, 0.10103102963894812
693.0, 0.0974343578151452
694.0, 0.09569740087758691
695.0, 0.09230636187600073
696.0, 0.0890857832612042
697.0, 0.08783368468468646
698.0, 0.08724675185682418
699.0, 0.08289168351754878
700.0, 0.08040077190798031
701.0, 0.08073068961902574
702.0, 0.07767848389753453
703.0, 0.07370616521581475
704.0, 0.07111676347908441
705.0, 0.06926116891986293
706.0, 0.06635839818966821
707.0, 0.06399410783649802
708.0, 0.062096344139772025
709.0, 0.0600741954523977
710.0, 0.057626284870572995
711.0, 0.056286008644956524
712.0, 0.054427486973684984
713.0, 0.05215359210486948
714.0, 0.05018991480381984
715.0, 0.05057042372101659
716.0, 0.04510980473916365
717.0, 0.044000996905401345
718.0, 0.0443372163437446
719.0, 0.04113064269994964
720.0, 0.042652012656122965
721.0, 0.04148114129362202
722.0, 0.03949612934568265
723.0, 0.03811449449249862
724.0, 0.038914993669205575
725.0, 0.035463954611048336
726.0, 0.03258494949740731
727.0, 0.031781845571244256
728.0, 0.033793468139296026
729.0, 0.02963213981559818
730.0, 0.029678953851184485
731.0, 0.030015451940933666
732.0, 0.02735830527957613
733.0, 0.02551144057990541
734.0, 0.02377967609813698
735.0, 0.022140166622758535
736.0, 0.021000620114148834
737.0, 0.021518083516079346
738.0, 0.020393347371996266
739.0, 0.018599778771758946
740.0, 0.01678005640999295
741.0, 0.015405073687893166
742.0, 0.01129661670655071
743.0, 0.011194408216727536
744.0, 0.01044195178091418
745.0, 0.007973321742687212
746.0, 0.008379662494842269
747.0, 0.007880890947039606
748.0, 0.006558370043440715
749.0, 0.005610149061083151
750.0, 0.006622542182662212
751.0, 0.0019022597498585384
752.0, 0.0007138672574707676
753.0, 0.0008082084567135608
754.0, 0.0010886441484624892
755.0, 0.003235909385019223
756.0, 0.0013612824534188525
757.0, 0.0016709409557972065
758.0, 0.003166185538030001
759.0, 0.0018876158674032127
760.0, 0.001799433271657803
761.0, 0.004210925598788488
762.0, 0.005084437220483539
763.0, 0.002717349649888721
764.0, 0.004081075002370208
765.0, 0.0045817562781551
766.0, 0.004528455799831892
767.0, 0.004509302297682519
768.0, 0.0054882036738025265
769.0, 0.005718081492212353
770.0, 0.004604888637240332
771.0, 0.00347409488401061
772.0, 0.003014669566471305
773.0, 0.0008771736288564263
774.0, 0.002885454008178079
775.0, 0.0033010841633961388
776.0, 0.0018426828756328382
777.0, 0.0010463461560201127
778.0, 0.0029945500698093574
779.0, 0.0022002935220624634
780.0, 0.0007999399806997527
781.0, 0.0005746267076337169
782.0, 0.0012445623603008593
783.0, 0.0010965204828511533
784.0, 0.0007309504840956771
785.0, 0.00036752298334460345
786.0, 0.0001244034142601456
787.0, 0.0014307641436676517
788.0, 0.0028664462244257245
789.0, 0.003420578518075153
790.0, 0.0027048020719262133
791.0, 0.0025039129485104894
792.0, 0.005735062339609617
793.0, 0.007934953094623038
794.0, 0.008911020845405631
795.0, 0.010195230404413346
796.0, 0.011138676537267182
797.0, 0.012940519669965338
798.0, 0.015377610147388846
799.0, 0.018189113486110246
800.0, 0.0209703026212319
801.0, 0.023042582277218247
802.0, 0.02535234433694088
803.0, 0.028651286296217788
804.0, 0.033672781583420755
805.0, 0.038176634733278876
806.0, 0.041955404148229555
807.0, 0.046795896271494886
808.0, 0.05298323671153255
809.0, 0.058048284673579545
810.0, 0.0649582230950836
811.0, 0.07134364843333296
812.0, 0.07774102405510266
813.0, 0.08512068209671574
814.0, 0.09277809160939254
815.0, 0.10126269427210557
816.0, 0.10663252504375385
817.0, 0.10993472301455871
818.0, 0.11832536608066488
819.0, 0.12418328218669561
820.0, 0.12869034437722893
821.0, 0.13352746023382614
822.0, 0.13962322534105231
823.0, 0.14291362027188068
824.0, 0.1457257546640908
825.0, 0.14927111283248745
826.0, 0.15324555352325855
827.0, 0.15642953469271548
828.0, 0.15961192576269156
829.0, 0.16038251408536255
830.0, 0.16216841107490304
831.0, 0.16680074563146655
832.0, 0.17250078494792048
833.0, 0.1741140500034817
834.0, 0.18063663148940506
835.0, 0.18804824464591588
836.0, 0.1900940573376193
837.0, 0.20190849896348506
838.0, 0.2151065017573121
839.0, 0.22570152653248046
840.0, 0.23653920036404494
841.0, 0.2593298798341006
842.0, 0.2739746756754148
843.0, 0.288854303980352
844.0, 0.3095228317345237
845.0, 0.33696663371845936
846.0, 0.3520309949746475
847.0, 0.3785983800340548
848.0, 0.4129473965168011
849.0, 0.44631994716321355
850.0, 0.4672616860563928
851.0, 0.5030277163318562
852.0, 0.5260625290289103
853.0, 0.5514334416381631
854.0, 0.5820577684135281
855.0, 0.6034511165331258
856.0, 0.6136928964844054
857.0, 0.6243096069695911
858.0, 0.6259802900441266
859.0, 0.6136470603799808
860.0, 0.6177593488583012
861.0, 0.6101886833256576
862.0, 0.5999526378493435
863.0, 0.5925259248729298
864.0, 0.5926356193799915
865.0, 0.5899061480556819
866.0, 0.5936059878665028
867.0, 0.6044601405253923
868.0, 0.6174063531524588
869.0, 0.6166591483335759
870.0, 0.634841092464343
871.0, 0.63299486243204
872.0, 0.6209639759882161
873.0, 0.6085958186156861
874.0, 0.5818634624795325
875.0, 0.5374537647733676
876.0, 0.5013224259054851
877.0, 0.46796428853674155
878.0, 0.42196619735992735
879.0, 0.38708683282732925
880.0, 0.36010771638757494
881.0, 0.33123278856566674
882.0, 0.30047995207299844
883.0, 0.2782430478437779
884.0, 0.25946656807778806
885.0, 0.23934864623206273
886.0, 0.22135865916849407
887.0, 0.20710242908284063
888.0, 0.1920899736426588
889.0, 0.18169542655433074
890.0, 0.16757845934922821
891.0, 0.15319450451263647
892.0, 0.14366031502879364
893.0, 0.13695626964440452
894.0, 0.12697617199818337
895.0, 0.12077546770542476
896.0, 0.11786605101284107
897.0, 0.11370882352428989
898.0, 0.11346643942196219
899.0, 0.11362345425167387
900.0, 0.11499661845724421
901.0, 0.11797659077109361
902.0, 0.1225422610491879
903.0, 0.12902685859535398
904.0, 0.13778520092441907
905.0, 0.1501742659267913
906.0, 0.1654233652624703
907.0, 0.17579310835513323
908.0, 0.19065456955815088
909.0, 0.2085716331124697
910.0, 0.22258043657250123
911.0, 0.22733365959819166
912.0, 0.23989681722291178
913.0, 0.2333701259161414
914.0, 0.2232717098426259
915.0, 0.21292725768455728
916.0, 0.20073987412928201
917.0, 0.18090208473439404
918.0, 0.16070719341135908
919.0, 0.14027602215093535
920.0, 0.12030650451220465
921.0, 0.10219875997372847
922.0, 0.08657082508601341
923.0, 0.07347212636087029
924.0, 0.06209247973997925
925.0, 0.05252349864101207
926.0, 0.04694507131931902
927.0, 0.03621689898914232
928.0, 0.030181058731672542
929.0, 0.026201773467094184
930.0, 0.021717418791368365
931.0, 0.01910818819872904
932.0, 0.016083042750840403
933.0, 0.012784396460801553
934.0, 0.009948111227562879
935.0, 0.00824350193187385
936.0, 0.006994754841409259
937.0, 0.003974240055593268
938.0, 0.0029572354229268987
939.0, 0.003118991545348631
940.0, 0.0019665435434577183
941.0, 0.000419126554029595
942.0, 0.0012641153595268195
943.0, 0.002051525083510633
944.0, 0.0024686771282940853
945.0, 0.0034946650842623155
946.0, 0.0033745640630317084
947.0, 0.003899542710978095
948.0, 0.004114524166128007
949.0, 0.003852049726251207
950.0, 0.003774514880668614
951.0, 0.003449976153087664
952.0, 0.003324743403006671
953.0, 0.003261000140953173
954.0, 0.0030520578691006083
955.0, 0.0023579606847263642
956.0, 0.0013395343668269135
957.0, 0.001171299309891586
958.0, 0.0008982128853641083
959.0, 0.0002848404271525226
960.0, 0.0012795199815706468
961.0, 0.0007592487529579685
962.0, 0.0003909747010472744
963.0, 0.0007790074277097888
964.0, 0.001962797211977911
965.0, 0.002504313771948816
966.0, 0.0012005680753746336
967.0, 0.002460510471208806
968.0, 0.0036672911200464954
969.0, 0.002434781686451281
970.0, 0.00399417078430683
971.0, 0.0056755189626762825
972.0, 0.006716444303100804
973.0, 0.007159283725350786
974.0, 0.007308802721180106
975.0, 0.007673755247975547
976.0, 0.006965947078331639
977.0, 0.00817387198338727
978.0, 0.009407124977683465
979.0, 0.007828581980758156
980.0, 0.007184466697236314
981.0, 0.009164845776482272
982.0, 0.008965219091065261
983.0, 0.007731786846134689
984.0, 0.008659622998213075
985.0, 0.009485071931501967
986.0, 0.009143431842023843
987.0, 0.009939250249697197
988.0, 0.01090265220335608
989.0, 0.009852739991350246
990.0, 0.011040794565727104
991.0, 0.010189625171391969
992.0, 0.009639610747416691
993.0, 0.010223260006396381
994.0, 0.0118300711375358
995.0, 0.011514514100896019
996.0, 0.011189750612480003
997.0, 0.012104742149667159
998.0, 0.013181563637266209
999.0, 0.012204551164102628
1000.0, 0.014434756245464224
1001.0, 0.015771001743652945
1002.0, 0.01649032099764335
1003.0, 0.017409398884381106
1004.0, 0.019488046446086912
1005.0, 0.017567081412980315
1006.0, 0.018453630958789703
1007.0, 0.019634924531846776
1008.0, 0.02031918274923015
1009.0, 0.020865163835478255
1010.0, 0.02375697362035181
1011.0, 0.02464278246314078
1012.0, 0.02463792752553062
1013.0, 0.02465228572809344
1014.0, 0.02538320900026708
1015.0, 0.02454524472834065
1016.0, 0.025594149544103825
1017.0, 0.02577485181529439
1018.0, 0.025292308556092727
1019.0, 0.026009219605766676
1020.0, 0.02746238732169756
1021.0, 0.02691819247418891
1022.0, 0.027034453024123446
1023.0, 0.027196127533875413
1024.0, 0.025301860515825374
1025.0, 0.02373603274224034
1026.0, 0.023537096877295546
1027.0, 0.021976594891989026
1028.0, 0.01954843416649181
1029.0, 0.018098041999801844
1030.0, 0.016783478141593526
1031.0, 0.014983480926430974
1032.0, 0.013853081266240696
1033.0, 0.012942662417938398
1034.0, 0.011420585540868484
1035.0, 0.01087344224871631
1036.0, 0.00955266444189164
1037.0, 0.008880861292792499
1038.0, 0.008638015046374556
1039.0, 0.008189977589399907
1040.0, 0.00783974698864268
1041.0, 0.006761004192966975
1042.0, 0.006635819536765525
1043.0, 0.006196391980945654
1044.0, 0.004300470433889642
1045.0, 0.003981129669882629
1046.0, 0.005009002033751619
1047.0, 0.004100487729535823
1048.0, 0.0029412697038757023
1049.0, 0.0030846711379043366
1050.0, 0.0023343338242499925
1051.0, 0.0016497662654566233
1052.0, 0.0017906664245848178
1053.0, 0.001644642612472121
1054.0, 0.0007159460667735614
1055.0, 0.0006028312786059429
1056.0, 0.0014546938986683053
1057.0, 0.0012349544360566167
1058.0, 0.0010083550856562875
1059.0, 0.0010896123534251208
1060.0, 7.260483387701376e-05
1061.0, 0.0002506443234643209
1062.0, 0.0002719223094227564
1063.0, 0.00018747624045413756
1064.0, 0.00024393279624694667
1065.0, 0.0008426701026513083
1066.0, 0.0015606491137067804
1067.0, 0.0009725399560775467
1068.0, 0.0012909316956519175
1069.0, 0.002083260508100558
1070.0, 0.0010826929608171655
1071.0, 0.0014801901830163067
1072.0, 0.002291761159480765
1073.0, 0.0027792058007644234
1074.0, 0.003427356820228895
1075.0, 0.004953812341321242
1076.0, 0.004680239604121569
1077.0, 0.004780074619639876
1078.0, 0.005462539639240857
1079.0, 0.006096055720614637
1080.0, 0.006127176853964732
1081.0, 0.00662571183794077
1082.0, 0.00802750167346299
1083.0, 0.008784447814374789
1084.0, 0.009826324985878168
1085.0, 0.011416429146433631
1086.0, 0.010910567949334243
1087.0, 0.010784046818393336
1088.0, 0.011770022865079442
1089.0, 0.012197326849890099
1090.0, 0.011498402970216454
1091.0, 0.011055921460627999
1092.0, 0.011621119139102387
1093.0, 0.010618308956810433
1094.0, 0.009997078455944245
1095.0, 0.009943552236487341
1096.0, 0.009119598394417299
1097.0, 0.008069655467100804
1098.0, 0.008093483655294493
1099.0, 0.006288003895434035
1100.0, 0.004355976442146747
1101.0, 0.005116586706249228
1102.0, 0.003936228283922007
1103.0, 0.0027741586902096053
1104.0, 0.002235395652165463
1105.0, 0.0017900792115884726
1106.0, 0.001129871153767281
1107.0, 0.0015802072012453192
1108.0, 0.002006320941364203
1109.0, 0.0015724528334941238
1110.0, 0.0013328730533429165
1111.0, 0.0015267352263697096
1112.0, 0.0007929887784778027
1113.0, 0.0006659597625393907
1114.0, 0.000610708306002428
1115.0, 0.0004734630552064906
1116.0, 0.0002798154049162112
1117.0, 0.0002062532157542823
1118.0, 0.0005690372660621046
1119.0, 0.0008118839948502874
1120.0, 0.0012800234556029225
1121.0, 0.0015644014028358116
1122.0, 0.0012227865223479078
1123.0, 0.0010265991234853311
1124.0, 0.0019249226128488647
1125.0, 0.0014911056757786092
1126.0, 0.0013753494779802577
1127.0, 0.0021997615196418956
1128.0, 0.0010678896322049423
1129.0, 0.0011567352668519213
1130.0, 0.0016569948545208425
1131.0, 0.00198916965886143
1132.0, 0.0019739845586234394
1133.0, 0.0018792560050604336
1134.0, 0.0030492830525718833
1135.0, 0.0020076960272267085
1136.0, 0.001854796971132592
1137.0, 0.0022392678028955995
1138.0, 0.0018455145267549152
1139.0, 0.0020228958069891207
1140.0, 0.002748784503695697
1141.0, 0.0025370222186819166
1142.0, 0.0019138493553847978
1143.0, 0.0017870485538010196
1144.0, 0.0030980566179925825
1145.0, 0.0022388249771959387
1146.0, 0.003811857239165252
1147.0, 0.004426003148474389
1148.0, 0.003593967818338766
1149.0, 0.0033352828618779485
1150.0, 0.003949849968712691
1151.0, 0.00392442551596711
1152.0, 0.004498138224621104
1153.0, 0.005340835954401664
1154.0, 0.005593178677188856
1155.0, 0.004373315648136885
1156.0, 0.005072256258868132
1157.0, 0.006380723425461652
1158.0, 0.006853679731211133
1159.0, 0.0069137876654276585
1160.0, 0.009194740675265925
1161.0, 0.008155487853201405
1162.0, 0.008849815626507298
1163.0, 0.00975229436521286
1164.0, 0.010110848776842837
1165.0, 0.010140193003025587
1166.0, 0.012949972257997336
1167.0, 0.013560743659127586
1168.0, 0.013352651844907557
1169.0, 0.014797349388125533
1170.0, 0.01796711552047617
1171.0, 0.018415981732664264
1172.0, 0.021549114236345895
1173.0, 0.02430951224577623
1174.0, 0.026429935167851592
1175.0, 0.02931618471906907
1176.0, 0.03459572721867598
1177.0, 0.037904432729957666
1178.0, 0.04018720273255119
1179.0, 0.042013640343531944
1180.0, 0.04275631861558539
1181.0, 0.04250659813854523
1182.0, 0.04332182537584832
1183.0, 0.04025876838926819
1184.0, 0.03801681097828262
1185.0, 0.03557714191436718
1186.0, 0.03281719728849035
1187.0, 0.03028396418381844
1188.0, 0.027249228747853068
1189.0, 0.026487998913608566
1190.0, 0.024417219309507195
1191.0, 0.023000729180980863
1192.0, 0.02344405863029974
1193.0, 0.02252765933632697
1194.0, 0.02195658520994719
1195.0, 0.022658181470428057
1196.0, 0.02323886475374922
1197.0, 0.02320648090737593
1198.0, 0.02302958270653947
1199.0, 0.024708398382674118
1200.0, 0.02316927319270316
1201.0, 0.02252452090360651
1202.0, 0.022210938708869542
1203.0, 0.02106580500894647
1204.0, 0.01874896836777655
1205.0, 0.020192574429437497
1206.0, 0.020567741712155564
1207.0, 0.019774208112323628
1208.0, 0.01953729826487424
1209.0, 0.02146309471540207
1210.0, 0.021110350062499776
1211.0, 0.021702585031628304
1212.0, 0.022410377958684172
1213.0, 0.022586543966186992
1214.0, 0.022455029275127113
1215.0, 0.02323888246270399
1216.0, 0.020685554363920475
1217.0, 0.02022133938162806
1218.0, 0.019625325245679042
1219.0, 0.018765503436548793
1220.0, 0.018181111478023575
1221.0, 0.01747018394472227
1222.0, 0.017677615055495744
1223.0, 0.0166009321689457
1224.0, 0.01642972131234644
1225.0, 0.017031492779217977
1226.0, 0.016170110753801578
1227.0, 0.016746942225228063
1228.0, 0.018604175028857008
1229.0, 0.018244228345897874
1230.0, 0.018012547036729734
1231.0, 0.019383127231529115
1232.0, 0.01903498173443248
1233.0, 0.01678740118422123
1234.0, 0.018265066653792645
1235.0, 0.018846577414372866
1236.0, 0.018569039660723523
1237.0, 0.019633951055096473
1238.0, 0.021160581657199463
1239.0, 0.02027388245039378
1240.0, 0.019777167120955858
1241.0, 0.020464524998330673
1242.0, 0.021469198277341794
1243.0, 0.02092116003715347
1244.0, 0.022914965881753777
1245.0, 0.023328558690289082
1246.0, 0.023135778501735114
1247.0, 0.023540956387686746
1248.0, 0.024399146475589117
1249.0, 0.022909365744682865
1250.0, 0.02246618818141157
1251.0, 0.022969237552855955
1252.0, 0.021328868380355217
1253.0, 0.019402920660496044
1254.0, 0.019741264963928355
1255.0, 0.017370107067320124
1256.0, 0.015043483964307465
1257.0, 0.01529762441494353
1258.0, 0.01459074383733104
1259.0, 0.012348212981536264
1260.0, 0.011115893669763902
1261.0, 0.01236551859582926
1262.0, 0.012764587416446704
1263.0, 0.011736391065191944
1264.0, 0.011005766658266143
1265.0, 0.010540909979993063
1266.0, 0.007572863075350434
1267.0, 0.0088910056168847
1268.0, 0.008716241023128535
1269.0, 0.007234788965865939
1270.0, 0.006776975940701573
1271.0, 0.007815756076794439
1272.0, 0.00516168589951469
1273.0, 0.0068791966179646245
1274.0, 0.006490965890733814
1275.0, 0.005809784971541883
1276.0, 0.005963921939194449
1277.0, 0.006883765841124248
1278.0, 0.006227371974698454
1279.0, 0.0044060314850250335
1280.0, 0.005114996665781396
1281.0, 0.0051644124915311476
1282.0, 0.004303597003744127
1283.0, 0.004525354638113772
1284.0, 0.004472537089007363
1285.0, 0.003888688897381615
1286.0, 0.0039411188659266945
1287.0, 0.004570638947908087
1288.0, 0.005244315482132992
1289.0, 0.005440052325021407
1290.0, 0.0073126034173658
1291.0, 0.0069336674497576965
1292.0, 0.006868364871459199
1293.0, 0.007758121527335895
1294.0, 0.008867615788184386
1295.0, 0.008486906768250018
1296.0, 0.009452444583805057
1297.0, 0.009476298909167263
1298.0, 0.010045465768330101
1299.0, 0.01112375443629304
1300.0, 0.011726763252532586
1301.0, 0.010277398790010966
1302.0, 0.009914344076821792
1303.0, 0.010562433199390086
1304.0, 0.010095044583601866
1305.0, 0.009326936416736377
1306.0, 0.009628044313492286
1307.0, 0.010886837985766232
1308.0, 0.00954513016246824
1309.0, 0.01082170177562447
1310.0, 0.011202372952063137
1311.0, 0.010384061448396927
1312.0, 0.009760361260300368
1313.0, 0.010694034740243967
1314.0, 0.010452402805982088
1315.0, 0.010421836580341948
1316.0, 0.010863813556253873
1317.0, 0.011216945918987137
1318.0, 0.01088162219457856
1319.0, 0.010403414754584324
1320.0, 0.01079146667884146
1321.0, 0.010362763652077776
1322.0, 0.010972799275501858
1323.0, 0.011220428306161262
1324.0, 0.00930480726323559
1325.0, 0.00876781773570488
1326.0, 0.009637794358185866
1327.0, 0.008416905593388332
1328.0, 0.007417220597568066
1329.0, 0.006575312728330557
1330.0, 0.005050121252812383
1331.0, 0.005427675537704577
1332.0, 0.005859691106699588
1333.0, 0.005486609357100306
1334.0, 0.004480337043888432
1335.0, 0.003867976518197558
1336.0, 0.004174247081395492
1337.0, 0.002639584819187319
1338.0, 0.002329319909703838
1339.0, 0.0031733449566893916
1340.0, 0.0027427756748450165
1341.0, 0.0018037200119545005
1342.0, 0.0022516006805029225
1343.0, 0.0025707509475642867
1344.0, 0.00213657433445237
1345.0, 0.0022557810296368742
1346.0, 0.0024021247314807803
1347.0, 0.002005564239685656
1348.0, 0.0012742050144377238
1349.0, 0.0024938115867788675
1350.0, 0.0015770644813269728
1351.0, 0.0011007686879594722
1352.0, 0.0008269687221750526
1353.0, 0.0005141697828933521
1354.0, 0.00023822421780920856
1355.0, 0.000714672500130244
1356.0, 0.0005355632098836919
1357.0, 0.0005274813469121645
1358.0, 0.0006057772707369372
1359.0, 0.0005678160550558736
1360.0, 0.0003714754799190905
1361.0, 0.0004112418969260022
1362.0, 0.0005674902597817368
1363.0, 0.0010257059447854545
1364.0, 0.0007909539781292468
1365.0, 0.00042475030013843
1366.0, 0.0006225674828614735
1367.0, 0.001046596605635879
1368.0, 0.00022162677553296532
1369.0, 0.00027452358434226044
1370.0, 0.0004302415583101289
1371.0, 0.0005699058516563983
1372.0, 0.0008999033551335949
1373.0, 0.001610234186023865
1374.0, 0.0007077579540337047
1375.0, 0.0004835456246227353
1376.0, 0.0006082762741843103
1377.0, 0.0005562045467688813
1378.0, 0.00032058460146387264
1379.0, 0.0004498712274106229
1380.0, 0.000579560368031262
1381.0, 0.0002741179486606278
1382.0, 0.000358765998875731
1383.0, 0.00041120448901954743
1384.0, 0.0004424297089854132
1385.0, 0.0007553252649878664
1386.0, 0.00021671476317327177
1387.0, 0.0005010978011774593
1388.0, 0.0002292694598099547
1389.0, 4.101183289152265e-05
1390.0, 0.00032859879959370894
1391.0, 0.0007984891306203449
1392.0, 0.00010535074263689673
1393.0, 0.00015906828459270352
1394.0, 0.0005225353846782689
1395.0, 0.0005355758049067822
1396.0, 0.00032283278814107454
1397.0, 0.00034673757679011
1398.0, 0.0008526153653211892
1399.0, 0.0004998136001464619
1400.0, 0.000152257755907306
1401.0, 0.00026836035071301834
1402.0, 0.00037092742550409887
1403.0, 0.00020306588144226306
1404.0, 0.00019873038979968677
1405.0, 0.0002837964630993468
1406.0, 0.0002926579099007595
1407.0, 0.000788215761517933
1408.0, 0.0009375772322586798
1409.0, 0.000541627963124055
1410.0, 0.0003363657344913612
1411.0, 0.0014064492487256641
1412.0, 0.0006594278249722394
1413.0, 0.0009787748524820341
1414.0, 0.0017808288174871324
1415.0, 0.001848457042159884
1416.0, 0.0010554241803202935
1417.0, 0.002256011943277714
1418.0, 0.0018022672366037917
1419.0, 0.0016795170235552731
1420.0, 0.0021658533469559042
1421.0, 0.0023357737005044584
1422.0, 0.0018369789093927132
1423.0, 0.0018002424552078177
1424.0, 0.002950990691073244
1425.0, 0.0013036678956807701
1426.0, 0.002100742450657256
1427.0, 0.0029368455757285273
1428.0, 0.002702104124059353
1429.0, 0.002823896375838964
1430.0, 0.004344662545807433
1431.0, 0.003853540884710605
1432.0, 0.004352336774440234
1433.0, 0.005076209325793595
1434.0, 0.005124566742575032
1435.0, 0.004566072092973222
1436.0, 0.005110094602325668
1437.0, 0.005457964085865949
1438.0, 0.005594253402543048
1439.0, 0.00617463762326807
1440.0, 0.007165342087889824
1441.0, 0.00795954448307507
1442.0, 0.007945807973325779
1443.0, 0.008713269271677733
1444.0, 0.008525909391363135
1445.0, 0.008065552967505258
1446.0, 0.009249667174068263
1447.0, 0.010101760318850777
1448.0, 0.008759498010706987
1449.0, 0.009813711411750773
1450.0, 0.01048358669403993
1451.0, 0.009552692721297955
1452.0, 0.00974407515295252
1453.0, 0.010313915383878488
1454.0, 0.01025397074625898
1455.0, 0.009937103404252037
1456.0, 0.01079405267831699
1457.0, 0.0104304294175978
1458.0, 0.00973159311276543
1459.0, 0.010018226189030215
1460.0, 0.010121197803730771
1461.0, 0.008908605911250728
1462.0, 0.009332572691651426
1463.0, 0.009518303251028138
1464.0, 0.00771082944338063
1465.0, 0.00795461729563909
1466.0, 0.008343336731336465
1467.0, 0.0073536770109144485
1468.0, 0.006466938909702738
1469.0, 0.008284047354567696
1470.0, 0.0065938294602799884
1471.0, 0.006183873826577835
1472.0, 0.006903905497103181
1473.0, 0.006780465945924666
1474.0, 0.00519482264051004
1475.0, 0.005482400163303802
1476.0, 0.005152101632119044
1477.0, 0.004049235651968555
1478.0, 0.004281996246497577
1479.0, 0.00467148132670038
1480.0, 0.004194245266604775
1481.0, 0.003335356270881727
1482.0, 0.004481040242469323
1483.0, 0.003891360662349045
1484.0, 0.003005686828557432
1485.0, 0.003356114579929017
1486.0, 0.0035886806590644978
1487.0, 0.002726949570023965
1488.0, 0.00222831867621114
1489.0, 0.0031368395543134716
1490.0, 0.002505667812507595
1491.0, 0.0018928457647138612
1492.0, 0.0020707582352997795
1493.0, 0.0019145577445720428
1494.0, 0.0008982847997037633
1495.0, 0.0022648154873079326
1496.0, 0.0024779817678698916
1497.0, 0.001011168476073241
1498.0, 0.001293908888025224
1499.0, 0.0014366615421231945
1500.0, 0.0007101915685086666
1501.0, 0.0006972566637787826
1502.0, 0.0020732314490769788
1503.0, 0.0010459033885496434
1504.0, 0.0003534196888497487
1505.0, 0.001146166549801352
1506.0, 0.0013200178960889146
1507.0, 0.0005087711662719708
1508.0, 0.0014985995706519157
1509.0, 0.002058126019848216
1510.0, 0.0005223198941150824
1511.0, 0.0014500835632023654
1512.0, 0.0017575393965518465
1513.0, 0.0009829290694776394
1514.0, 0.0006134532746637475
1515.0, 0.0017289764681101029
1516.0, 0.0012326355953053392
1517.0, 0.00027972276933748867
1518.0, 1.2412069649803089e-06
1519, 0.0
1520, 0.0
1521, 0.0
1522, 0.0
1523, 0.0
1524, 0.0
1525, 0.0
1526, 0.0
1527, 0.0
1528, 0.0
1529, 0.0
1530, 0.0
1531, 0.0
1532, 0.0
1533, 0.0
1534, 0.0
1535, 0.0
1536, 0.0
1537, 0.0
1538, 0.0
1539, 0.0
1540, 0.0
1541, 0.0
1542, 0.0
1543, 0.0
1544, 0.0
1545, 0.0
1546, 0.0
1547, 0.0
1548, 0.0
1549, 0.0
1550, 0.0
1551, 0.0
1552, 0.0
1553, 0.0
1554, 0.0
1555, 0.0
1556, 0.0
1557, 0.0
1558, 0.0
1559, 0.0
1560, 0.0
1561, 0.0
1562, 0.0
1563, 0.0
1564, 0.0
1565, 0.0
1566, 0.0
1567, 0.0
1568, 0.0
1569, 0.0
1570, 0.0
1571, 0.0
1572, 0.0
1573, 0.0
1574, 0.0
1575, 0.0
1576, 0.0
1577, 0.0
1578, 0.0
1579, 0.0
1580, 0.0
1581, 0.0
1582, 0.0
1583, 0.0
1584, 0.0
1585, 0.0
1586, 0.0
1587, 0.0
1588, 0.0
1589, 0.0
1590, 0.0
1591, 0.0
1592, 0.0
1593, 0.0
1594, 0.0
1595, 0.0
1596, 0.0
1597, 0.0
1598, 0.0
1599, 0.0
