30, 0.0
31, 0.0
32, 0.0
33, 0.0
34, 0.0
35, 0.0
36, 0.0
37, 0.0
38, 0.0
39, 0.0
40, 0.0
41, 0.0
42, 0.0
43, 0.0
44, 0.0
45, 0.0
46, 0.0
47, 0.0
48, 0.0
49, 0.0
50, 0.0
51, 0.0
52, 0.0
53, 0.0
54, 0.0
55, 0.0
56, 0.0
57, 0.0
58, 0.0
59, 0.0
60, 0.0
61, 0.0
62, 0.0
63, 0.0
64, 0.0
65, 0.0
66, 0.0
67, 0.0
68, 0.0
69, 0.0
70, 0.0
71, 0.0
72, 0.0
73, 0.0
74, 0.0
75, 0.0
76, 0.0
77, 0.0
78, 0.0
79, 0.0
80, 0.0
81, 0.0
82, 0.0
83, 0.0
84, 0.0
85, 0.0
86, 0.0
87, 0.0
88, 0.0
89, 0.0
90, 0.0
91, 0.0
92, 0.0
93, 0.0
94, 0.0
95, 0.0
96, 0.0
97, 0.0
98, 0.0
99, 0.0
100, 0.0
101, 0.0
102, 0.0
103, 0.0
104, 0.0
105, 0.0
106, 0.0
107, 0.0
108, 0.0
109, 0.0
110, 0.0
111, 0.0
112, 0.0
113, 0.0
114, 0.0
115, 0.0
116, 0.0
117, 0.0
118, 0.0
119, 0.0
120.0, 0.012518518955132023
121.0, 0.0173028695793911
122.0, 0.0006944660035817958
123.0, 0.012772708759568568
124.0, 0.010785587262926725
125.0, 0.0012777579656664938
126.0, 0.006534588761328394
127.0, 0.011349288859917418
128.0, 0.010115633756169003
129.0, 0.0008717157128372982
130.0, 0.01649501019504809
131.0, 0.013717028777726046
132.0, 0.006673032383346155
133.0, 0.019466771114674535
134.0, 0.013074810270938214
135.0, 0.00994243283898815
136.0, 0.014428419733910453
137.0, 0.021722216914090747
138.0, 0.02170412179008106
139.0, 0.028463077622767986
140.0, 0.05804590135700827
141.0, 0.05762762675516357
142.0, 0.07674387490836082
143.0, 0.11053716483405096
144.0, 0.11494379262682869
145.0, 0.12535619141106294
146.0, 0.13465598265795983
147.0, 0.1388405834540703
148.0, 0.10945443587581442
149.0, 0.09643275412559996
150.0, 0.0889947810978174
151.0, 0.06082803772632524
152.0, 0.06614031910196119
153.0, 0.0703648657628436
154.0, 0.0656373808884712
155.0, 0.07778247124288336
156.0, 0.09548611574408546
157.0, 0.11012126315962896
158.0, 0.11069146243890829
159.0, 0.14668408887513368
160.0, 0.16520252463406546
161.0, 0.16780310142988036
162.0, 0.19194618981805472
163.0, 0.19552089440661735
164.0, 0.1924278093911374
165.0, 0.1893461159660519
166.0, 0.18952788681322427
167.0, 0.16817830457171629
168.0, 0.14161857879170198
169.0, 0.1459764690265097
170.0, 0.11568974245242214
171.0, 0.09695322530329444
172.0, 0.0984210716037188
173.0, 0.08440593722767205
174.0, 0.07290185497715872
175.0, 0.06786239708430253
176.0, 0.0745819335477329
177.0, 0.055858663034777795
178.0, 0.05703637303447407
179.0, 0.06954087530621147
180.0, 0.050784359929208565
181.0, 0.05708945935006814
182.0, 0.06081065724897268
183.0, 0.051362635559899755
184.0, 0.05055914264588161
185.0, 0.056841359738176334
186.0, 0.058957774605724635
187.0, 0.03933989831448921
188.0, 0.052107510837289504
189.0, 0.05323994229113446
190.0, 0.04233623146716428
191.0, 0.05151780268688235
192.0, 0.0521505805114883
193.0, 0.048913814206496244
194.0, 0.04391912407238459
195.0, 0.058921742278976806
196.0, 0.05387835748727302
197.0, 0.04601934452635857
198.0, 0.06901495536746824
199.0, 0.05835189099359837
200.0, 0.05694270434238552
201.0, 0.06986729210032133
202.0, 0.07173323178325494
203.0, 0.06625973342381182
204.0, 0.06755425559135257
205.0, 0.08625435843269749
206.0, 0.06887386991922964
207.0, 0.07694676576598079
208.0, 0.09267692180398789
209.0, 0.0739014910440888
210.0, 0.07949291802887676
211.0, 0.0864103176968829
212.0, 0.08849747513739875
213.0, 0.07714051122508234
214.0, 0.08877081130777305
215.0, 0.09454633546701764
216.0, 0.07244182778866104
217.0, 0.08997218670327324
218.0, 0.09131646631951124
219.0, 0.0841997753040572
220.0, 0.08852313443780777
221.0, 0.09410585324896768
222.0, 0.09317326834099496
223.0, 0.08783677258714757
224.0, 0.11019012963480854
225.0, 0.10583789660239368
226.0, 0.10457664789267963
227.0, 0.12725637057155043
228.0, 0.1212044576788045
229.0, 0.12354811930712752
230.0, 0.1338434437477848
231.0, 0.15123519226284604
232.0, 0.14433341062802843
233.0, 0.1516225712432879
234.0, 0.17208388305742667
235.0, 0.15155298224385022
236.0, 0.1548924563273671
237.0, 0.15681208315226217
238.0, 0.14289822938713376
239.0, 0.13079812601431226
240.0, 0.13065424546297602
241.0, 0.13044857546618902
242.0, 0.11054294096674315
243.0, 0.13026027786511596
244.0, 0.13413573693545605
245.0, 0.12414838658906403
246.0, 0.14290699317343727
247.0, 0.15477469962961166
248.0, 0.16165959271441102
249.0, 0.16522924086471197
250.0, 0.19289602245244467
251.0, 0.19399561647918123
252.0, 0.1951469234718198
253.0, 0.22624629779347918
254.0, 0.2202914186919539
255.0, 0.22353490387695277
256.0, 0.23462429229602863
257.0, 0.24089377006042662
258.0, 0.2266013314225307
259.0, 0.22717104990425663
260.0, 0.24533670917592107
261.0, 0.2178183586838415
262.0, 0.21777464299546964
263.0, 0.21593982358053534
264.0, 0.19239256915738878
265.0, 0.18071415439157437
266.0, 0.17761639996565984
267.0, 0.1708140604861724
268.0, 0.13871598794448536
269.0, 0.14858945369519466
270.0, 0.14363453605776355
271.0, 0.12609647834874832
272.0, 0.13707009620512053
273.0, 0.13642282018821564
274.0, 0.12912617331942539
275.0, 0.11905880743277117
276.0, 0.140023106886423
277.0, 0.13136426480449537
278.0, 0.12673603067033584
279.0, 0.1558533841519647
280.0, 0.1454916458684372
281.0, 0.15384293559557694
282.0, 0.17371701695859323
283.0, 0.1885191356385409
284.0, 0.19530501871854877
285.0, 0.22340840530053446
286.0, 0.26595750433527743
287.0, 0.2684163798500902
288.0, 0.3134059644471396
289.0, 0.35430078117262614
290.0, 0.3742492315784809
291.0, 0.40403416297365047
292.0, 0.43357630765089455
293.0, 0.44133306676463546
294.0, 0.4058609607099813
295.0, 0.41809652599175523
296.0, 0.3854419275991802
297.0, 0.33262023736421503
298.0, 0.30896987537513476
299.0, 0.27351799619169614
300.0, 0.23566174234351653
301.0, 0.20287838570210548
302.0, 0.20027653808889193
303.0, 0.16900824814982018
304.0, 0.1552448738352032
305.0, 0.16991864675969304
306.0, 0.15513395219050752
307.0, 0.15335885029768304
308.0, 0.1625286769307983
309.0, 0.1821357197765109
310.0, 0.17654808334552505
311.0, 0.20728379244010786
312.0, 0.2463900717561817
313.0, 0.25501249001870036
314.0, 0.31100436104927437
315.0, 0.353696008810576
316.0, 0.3813380637887988
317.0, 0.4023371161128162
318.0, 0.4280210257105538
319.0, 0.41570014773254943
320.0, 0.3694176841293014
321.0, 0.3686899589572702
322.0, 0.32043806176440637
323.0, 0.2730330127826078
324.0, 0.2467603628406025
325.0, 0.22159372510840603
326.0, 0.1899824490107881
327.0, 0.17099832331827336
328.0, 0.18149135169960726
329.0, 0.14725242386014617
330.0, 0.14639953910866516
331.0, 0.15628312792952215
332.0, 0.141320694424348
333.0, 0.13204285986835995
334.0, 0.13390010860836138
335.0, 0.13619927449890648
336.0, 0.10798207816329948
337.0, 0.11851619598930448
338.0, 0.11394741477098301
339.0, 0.09163576408355208
340.0, 0.09863209151628081
341.0, 0.0958853046332765
342.0, 0.08866470655674588
343.0, 0.08165089939507021
344.0, 0.10624619340330022
345.0, 0.0991606732439533
346.0, 0.09860492492129554
347.0, 0.12998635230311087
348.0, 0.12825832259626438
349.0, 0.1370568206456514
350.0, 0.15565934600277428
351.0, 0.18415184046506264
352.0, 0.16523026072344138
353.0, 0.1701575771271456
354.0, 0.17785477613495337
355.0, 0.1413384780637709
356.0, 0.1326768984446945
357.0, 0.1225011936123296
358.0, 0.10514827006074798
359.0, 0.07431840207157125
360.0, 0.07766341472269511
361.0, 0.06634992629601938
362.0, 0.03962311540041831
363.0, 0.055704436625861664
364.0, 0.04535139688569974
365.0, 0.0320432863939151
366.0, 0.02601050973096993
367.0, 0.039230283810362865
368.0, 0.0237166738883908
369.0, 0.016040163532814893
370.0, 0.036328251617951154
371.0, 0.01202910243802027
372.0, 0.012790809085943097
373.0, 0.02000979779730871
374.0, 0.01691140171617931
375.0, 0.008902816396357248
376.0, 0.011530075793509257
377.0, 0.01759662355975992
378.0, 0.016872379165194306
379.0, 0.013256359876961927
380.0, 0.01115030250725525
381.0, 0.010554595734815642
382.0, 0.010975507375626557
383.0, 0.005677327194594997
384.0, 0.011257334139741474
385.0, 0.021876739587019637
386.0, 0.01350330109900744
387.0, 0.015506325861868444
388.0, 0.01230915767133296
389.0, 0.0033301895740880556
390.0, 0.0009355230220480127
391.0, 0.013207959043668099
392.0, 0.017055408926537324
393.0, 0.009631489618454754
394.0, 0.02263221866495508
395.0, 0.012476104749177286
396.0, 0.005871853718789863
397.0, 0.013340379196233099
398.0, 0.01768314263173592
399.0, 0.013205653785925421
400.0, 0.013239471175400083
401.0, 0.024746079043698264
402.0, 0.015992901215158478
403.0, 0.012912894942744025
404.0, 0.010263266075082048
405.0, 0.0039238136876860895
406.0, 0.011219671035342466
407.0, 0.007225370504553533
408.0, 0.010566525141111343
409.0, 0.041818417882945054
410.0, 0.02696755705126128
411.0, 0.037502385175457495
412.0, 0.05811582481611046
413.0, 0.06523618769492268
414.0, 0.07490677195456626
415.0, 0.10457823296813547
416.0, 0.13589486948850274
417.0, 0.13436756230769115
418.0, 0.19036376809069716
419.0, 0.225785097275132
420.0, 0.2456329728919246
421.0, 0.2774356917399508
422.0, 0.31525638378233817
423.0, 0.32783931130731064
424.0, 0.3255139469516111
425.0, 0.3481728831137279
426.0, 0.31317632323733036
427.0, 0.2857115214488392
428.0, 0.2694547230425714
429.0, 0.2368864081800104
430.0, 0.19457947662574399
431.0, 0.1727159568828995
432.0, 0.1642499912496608
433.0, 0.11165368126919528
434.0, 0.10914719293309635
435.0, 0.09989053944845637
436.0, 0.07398535285759324
437.0, 0.06071211772607704
438.0, 0.06258126968600666
439.0, 0.04928693404214458
440.0, 0.02131101758656587
441.0, 0.04197187513170707
442.0, 0.025099349317199152
443.0, 0.012324372438712677
444.0, 0.017081730141383887
445.0, 0.022142778596248115
446.0, 0.015828125736909778
447.0, 0.014912263563110543
448.0, 0.023691753744603843
449.0, 0.017056839096393026
450.0, 0.011928412956460126
451.0, 0.0063524514426724025
452.0, 0.0009862181657097
453.0, 0.011233737465855246
454.0, 0.019938005428358437
455.0, 0.020642435509031717
456.0, 0.012293258148318182
457.0, 0.023707322397056696
458.0, 0.020851642914014656
459.0, 0.01662326560233272
460.0, 0.019525177498218402
461.0, 0.04653462622700176
462.0, 0.040117831439568756
463.0, 0.04778918424561595
464.0, 0.09169593064891668
465.0, 0.08279683742029009
466.0, 0.10214776991261552
467.0, 0.13032243909437013
468.0, 0.15339253102921172
469.0, 0.13769564907279863
470.0, 0.1631704105549349
471.0, 0.17843131054441264
472.0, 0.1554110343656108
473.0, 0.16950457045471143
474.0, 0.16771097310351432
475.0, 0.15266104855431648
476.0, 0.12904058216410697
477.0, 0.14997992047981423
478.0, 0.13339856257129373
479.0, 0.11983894056125333
480.0, 0.1317413328175862
481.0, 0.118911854800981
482.0, 0.11363605740312935
483.0, 0.1171916655126127
484.0, 0.1273868704670644
485.0, 0.09886777779706522
486.0, 0.11306943817622317
487.0, 0.12127965405357749
488.0, 0.09853352369080758
489.0, 0.1013982498991499
490.0, 0.11143307720241648
491.0, 0.10566328052172064
492.0, 0.07809813996467149
493.0, 0.1130771077667302
494.0, 0.09817360242697233
495.0, 0.08590232675042651
496.0, 0.09987056247039289
497.0, 0.09727232797646207
498.0, 0.07868324763203924
499.0, 0.07574742272348972
500.0, 0.09539790964965872
501.0, 0.06220069523022215
502.0, 0.0667626406149513
503.0, 0.07156470949801934
504.0, 0.061620611322397066
505.0, 0.04892670237687262
506.0, 0.06427557624967715
507.0, 0.06112941609424566
508.0, 0.033580395497397726
509.0, 0.05939608649238561
510.0, 0.05342962810284423
511.0, 0.04458310608316705
512.0, 0.04468214768458138
513.0, 0.06330845195982733
514.0, 0.043752687762186174
515.0, 0.045569422368717326
516.0, 0.07013063788912194
517.0, 0.04765449563577278
518.0, 0.05046394952728795
519.0, 0.05943864414527194
520.0, 0.06250640223425853
521.0, 0.03386372908402256
522.0, 0.06295982183410617
523.0, 0.06551219028293723
524.0, 0.04447697907444756
525.0, 0.05713374001670384
526.0, 0.06557107572501934
527.0, 0.05889526737091157
528.0, 0.05206342252808341
529.0, 0.0840955749127607
530.0, 0.06250076397746276
531.0, 0.0631996005850016
532.0, 0.07935583887831671
533.0, 0.08121535123526241
534.0, 0.06789985056600793
535.0, 0.08205782723421698
536.0, 0.0971121083099587
537.0, 0.06774547094183009
538.0, 0.09331965817233713
539.0, 0.09783971268349792
540.0, 0.09014483830189633
541.0, 0.08482578122133426
542.0, 0.1065524046040068
543.0, 0.09021825804173261
544.0, 0.07858048713371645
545.0, 0.11019396200430787
546.0, 0.08284988507126086
547.0, 0.07229994711949879
548.0, 0.07487669297828173
549.0, 0.08467456255744298
550.0, 0.053573236334419114
551.0, 0.06832352928154622
552.0, 0.07682832358879345
553.0, 0.05627395190250582
554.0, 0.061237059236690164
555.0, 0.07747668934266705
556.0, 0.07628113937712815
557.0, 0.05982880897781581
558.0, 0.10573344290179619
559.0, 0.10487628907128252
560.0, 0.1120452841497331
561.0, 0.139759944008206
562.0, 0.17402499761512114
563.0, 0.17686193882820544
564.0, 0.21575754382817208
565.0, 0.27333755570438034
566.0, 0.26816547149114134
567.0, 0.30548435650992023
568.0, 0.3405002153012878
569.0, 0.35927573320000494
570.0, 0.346692071450856
571.0, 0.39093764067013737
572.0, 0.38404559731137883
573.0, 0.36317171645929675
574.0, 0.38525382256772667
575.0, 0.37868268882404005
576.0, 0.36102621634787435
577.0, 0.35934106423660883
578.0, 0.39342118566762113
579.0, 0.34906603239990686
580.0, 0.36020432810070774
581.0, 0.3783909346200435
582.0, 0.37560198359681457
583.0, 0.3759815845404978
584.0, 0.4064652147053928
585.0, 0.41663660179433276
586.0, 0.40294720614965945
587.0, 0.45669389884919226
588.0, 0.4567178052507052
589.0, 0.45902309917612116
590.0, 0.48247922854440506
591.0, 0.5389953839017916
592.0, 0.5280772725222908
593.0, 0.5547061079352532
594.0, 0.6025908246651754
595.0, 0.6060789947029999
596.0, 0.6342868350866723
597.0, 0.6844299166422291
598.0, 0.7227549154574604
599.0, 0.7068852631917996
600.0, 0.7840589075294091
601.0, 0.8064090416803726
602.0, 0.8181068712280696
603.0, 0.8569310867795683
604.0, 0.9106102290045669
605.0, 0.9059433521256471
606.0, 0.9191329984797226
607.0, 0.9723558270917214
608.0, 0.9445501367531046
609.0, 0.9547812722404557
610.0, 0.977926888734458
611.0, 0.9902201978008814
612.0, 0.936188141452173
613.0, 0.9606314299570161
614.0, 0.9412420687253822
615.0, 0.8969743097679396
616.0, 0.9112783822681837
617.0, 0.8866251326494518
618.0, 0.8449896651174712
619.0, 0.8153910564297236
620.0, 0.8302353082476156
621.0, 0.7625494150455009
622.0, 0.737706204327118
623.0, 0.7299331420458537
624.0, 0.7155069844579132
625.0, 0.6548851254410227
626.0, 0.6586868355526259
627.0, 0.6433044186831616
628.0, 0.5899285192627777
629.0, 0.5858888720659932
630.0, 0.5627610993598607
631.0, 0.5273888997871219
632.0, 0.49926034783537365
633.0, 0.5235119679355185
634.0, 0.46877759659785745
635.0, 0.4528564989584112
636.0, 0.4551204905776724
637.0, 0.4288150679024474
638.0, 0.3920060594405858
639.0, 0.40024803070765474
640.0, 0.396960059399155
641.0, 0.3445905092568451
642.0, 0.363985941395264
643.0, 0.3492567635351692
644.0, 0.3256195613550651
645.0, 0.31108355638457286
646.0, 0.3364154875851547
647.0, 0.29569448178552477
648.0, 0.28481527209744834
649.0, 0.2995773854304856
650.0, 0.2777757430854638
651.0, 0.2590182124840977
652.0, 0.2672355932890385
653.0, 0.270093052207016
654.0, 0.22594309878820062
655.0, 0.2521801923364181
656.0, 0.24740348689184927
657.0, 0.22583365472593994
658.0, 0.2046399045296335
659.0, 0.24066056788354956
660.0, 0.20805719845045165
661.0, 0.19779278637169312
662.0, 0.22008279696381858
663.0, 0.19738326828055983
664.0, 0.1849649959325031
665.0, 0.1958802336697419
666.0, 0.2019026010639681
667.0, 0.15235969071240696
668.0, 0.18306441935356932
669.0, 0.17994695327809218
670.0, 0.16277183146572766
671.0, 0.15461172781252025
672.0, 0.17849819891192178
673.0, 0.15033665557872897
674.0, 0.1405999951416157
675.0, 0.16357243390605375
676.0, 0.14245264814587216
677.0, 0.13118569902942095
678.0, 0.141638922672645
679.0, 0.15043809828340132
680.0, 0.10713373802250342
681.0, 0.13222500964750353
682.0, 0.13039791562380476
683.0, 0.11449508227865028
684.0, 0.10420671656596364
685.0, 0.12606054146491832
686.0, 0.10678416721260785
687.0, 0.10001021481045216
688.0, 0.1184361187292083
689.0, 0.10113970512748768
690.0, 0.09160754935972582
691.0, 0.10149765205697803
692.0, 0.10920756591413458
693.0, 0.06758163613575975
694.0, 0.1000527840164037
695.0, 0.09548164097129927
696.0, 0.07852608229643586
697.0, 0.07850032415888367
698.0, 0.09937219142842083
699.0, 0.0752819654823923
700.0, 0.06987938395216274
701.0, 0.09269250576757476
702.0, 0.06840643472888677
703.0, 0.057074676750585175
704.0, 0.06855776782640453
705.0, 0.07718262864059415
706.0, 0.03749521798144892
707.0, 0.06691502024775449
708.0, 0.0660390847454818
709.0, 0.05109083796970007
710.0, 0.04083072003501655
711.0, 0.06598976282334269
712.0, 0.04299483586545863
713.0, 0.038673144141121364
714.0, 0.05776551506652265
715.0, 0.045242651299072914
716.0, 0.03256249211498608
717.0, 0.0489654546968544
718.0, 0.05946072156254366
719.0, 0.019131136320529107
720.0, 0.05226146281870003
721.0, 0.05165972367014328
722.0, 0.03693090777504327
723.0, 0.027210605624562925
724.0, 0.06087477262885768
725.0, 0.032802338430496736
726.0, 0.02966714351651603
727.0, 0.047218930556216385
728.0, 0.03962667494821781
729.0, 0.020338802199162186
730.0, 0.03840947721390724
731.0, 0.04582335330110755
732.0, 0.01119667314667508
733.0, 0.036487833986692725
734.0, 0.035399165759871565
735.0, 0.023500434370389758
736.0, 0.017721125048282618
737.0, 0.05005180278922208
738.0, 0.01624209037698532
739.0, 0.01764155125525688
740.0, 0.033137648167623504
741.0, 0.027128583331917477
742.0, 0.009165113424934937
743.0, 0.02865162695049088
744.0, 0.031189291391184013
745.0, 0.007890187763117099
746.0, 0.025700425303876027
747.0, 0.021631569950986133
748.0, 0.012620048675477299
749.0, 0.013193869201494367
750.0, 0.0389500323785753
751.0, 0.016968516927012137
752.0, 0.012687792742329623
753.0, 0.016065431451885576
754.0, 0.01948246333358333
755.0, 0.01688306108255652
756.0, 0.03252631247153604
757.0, 0.028361285282388488
758.0, 0.013270410628596253
759.0, 0.016394233277892488
760.0, 0.02217725374901905
761.0, 0.022119484937788605
762.0, 0.0254139908027245
763.0, 0.033005084875212976
764.0, 0.010459987999947136
765.0, 0.006113355484065184
766.0, 0.014093530593822642
767.0, 0.024226891439603347
768.0, 0.019971418972550274
769.0, 0.027111320467915898
770.0, 0.014634241621534136
771.0, 0.0023246008362922863
772.0, 0.005896086258468273
773.0, 0.024270603655468345
774.0, 0.0213499304344295
775.0, 0.023109099390812734
776.0, 0.024682878265866445
777.0, 0.0029038152644782714
778.0, 0.004365736275987576
779.0, 0.019696259149063346
780.0, 0.026530915335812543
781.0, 0.014964886918622354
782.0, 0.03182583848565069
783.0, 0.01350856032761448
784.0, 0.0027913111434909937
785.0, 0.008926647555570273
786.0, 0.027526011909236432
787.0, 0.01840657184883626
788.0, 0.025868251966359987
789.0, 0.02753647000241148
790.0, 0.010771637946776111
791.0, 0.003009588714070791
792.0, 0.029496547287065494
793.0, 0.027396324386185462
794.0, 0.012344378198571166
795.0, 0.036965486003054666
796.0, 0.02527179450658227
797.0, 0.011874911877176882
798.0, 0.01959083919456279
799.0, 0.04586843882303005
800.0, 0.008863677495494032
801.0, 0.025321927600866635
802.0, 0.035128855013967376
803.0, 0.0290594753817644
804.0, 0.012460170432715668
805.0, 0.04924843261186946
806.0, 0.03523246731273562
807.0, 0.029298732889609533
808.0, 0.05135636163334476
809.0, 0.05671641823209657
810.0, 0.04084402043460342
811.0, 0.05680525584923346
812.0, 0.07289973190684666
813.0, 0.048545261432820244
814.0, 0.0734371212411939
815.0, 0.08724846961493497
816.0, 0.07738844671280973
817.0, 0.0629898216224379
818.0, 0.10904216421860015
819.0, 0.08368401710525906
820.0, 0.07992818676800954
821.0, 0.09529732922583625
822.0, 0.1134578461684819
823.0, 0.0783151500738784
824.0, 0.10961065670541298
825.0, 0.1151634423838029
826.0, 0.09564545528800265
827.0, 0.10175034224078955
828.0, 0.12621200345060746
829.0, 0.10626664288221087
830.0, 0.10062623289498358
831.0, 0.13017296554850458
832.0, 0.11532778169323597
833.0, 0.10434549049207352
834.0, 0.12121251708652694
835.0, 0.13134978787221743
836.0, 0.09282157683079222
837.0, 0.1320528449244173
838.0, 0.13844935700102193
839.0, 0.13042279391676115
840.0, 0.1310798740610418
841.0, 0.17984446946707106
842.0, 0.1525222008168757
843.0, 0.16095211581337762
844.0, 0.1880665722348599
845.0, 0.2075768711076635
846.0, 0.18679862535054662
847.0, 0.23608307918493554
848.0, 0.2595001373353297
849.0, 0.26394645491946567
850.0, 0.2945879712662006
851.0, 0.3292859635809709
852.0, 0.32888825421407236
853.0, 0.35452413725483817
854.0, 0.4082493848130643
855.0, 0.40229197462208516
856.0, 0.42892783056601536
857.0, 0.46637940217297325
858.0, 0.4799449226438456
859.0, 0.4572768835668058
860.0, 0.5239143726158185
861.0, 0.5274548949419862
862.0, 0.535019818501492
863.0, 0.5691890540545068
864.0, 0.6354741099557718
865.0, 0.628226091999411
866.0, 0.6918895217821746
867.0, 0.758046623789539
868.0, 0.7948431463404264
869.0, 0.8127912583127874
870.0, 0.9147585196483807
871.0, 0.9261202271790542
872.0, 0.923158562352154
873.0, 0.9692814438825926
874.0, 0.9536144940585279
875.0, 0.8836731660527034
876.0, 0.876533818953833
877.0, 0.8813840197974381
878.0, 0.7938067384419728
879.0, 0.7797378335306866
880.0, 0.7752687243154582
881.0, 0.738353489766957
882.0, 0.6876942589024426
883.0, 0.7126505278064642
884.0, 0.654617287486532
885.0, 0.6129153008880049
886.0, 0.5928576852887321
887.0, 0.5779384406138846
888.0, 0.49437718978666073
889.0, 0.4954208788570902
890.0, 0.45974506927610015
891.0, 0.39983013196062417
892.0, 0.35584286121516995
893.0, 0.37024563437637864
894.0, 0.30797220412894843
895.0, 0.28312906761803536
896.0, 0.2898010626037199
897.0, 0.25869371624212
898.0, 0.2295454909965385
899.0, 0.24227756453586025
900.0, 0.23536808479953222
901.0, 0.20434681167432966
902.0, 0.22277461365799386
903.0, 0.22351192572551137
904.0, 0.2008115330846909
905.0, 0.20146888249201045
906.0, 0.23778738768776855
907.0, 0.20160514003714536
908.0, 0.2088487631330248
909.0, 0.23261344909903603
910.0, 0.23574448303893178
911.0, 0.1964278287879686
912.0, 0.2387262851388341
913.0, 0.21315755294920474
914.0, 0.18221432857042946
915.0, 0.17193686278441786
916.0, 0.1911927606945667
917.0, 0.1279375097680247
918.0, 0.1284172715009409
919.0, 0.12383222820125066
920.0, 0.09583721296192094
921.0, 0.0701378710429311
922.0, 0.08941459422427771
923.0, 0.06385883253685017
924.0, 0.046247629749184636
925.0, 0.05866734427841154
926.0, 0.06124093566782083
927.0, 0.027416095203119294
928.0, 0.04155346065032455
929.0, 0.050869815548925695
930.0, 0.021170242525507504
931.0, 0.03385665645876951
932.0, 0.04540692457474851
933.0, 0.02647178020444353
934.0, 0.01659183208016554
935.0, 0.05119461050129406
936.0, 0.02489233437057923
937.0, 0.01664207328790469
938.0, 0.03170247577943778
939.0, 0.04147492224038153
940.0, 0.010047360465236639
941.0, 0.03242906673454564
942.0, 0.02911835041610403
943.0, 0.014743379137117442
944.0, 0.012910182612880336
945.0, 0.05372506287015116
946.0, 0.012288247746377254
947.0, 0.015684679942447644
948.0, 0.030565869966790993
949.0, 0.03309081379849005
950.0, 0.006133988375260718
951.0, 0.038350129405320975
952.0, 0.027361204621181065
953.0, 0.012644932478046423
954.0, 0.019039933672282315
955.0, 0.04488841175539038
956.0, 0.015639674277997565
957.0, 0.027332093492567683
958.0, 0.03864148288035465
959.0, 0.022579979373564027
960.0, 0.007416527237799446
961.0, 0.03826660894017844
962.0, 0.026204396598341322
963.0, 0.014202490746961408
964.0, 0.0357017561913167
965.0, 0.035892712175119926
966.0, 0.011491000942899392
967.0, 0.02863125183272005
968.0, 0.04197332857290981
969.0, 0.01114765622941491
970.0, 0.022555936470918497
971.0, 0.0389873998944631
972.0, 0.026403035850607073
973.0, 0.016611530861635637
974.0, 0.04230471621495653
975.0, 0.023293848253106677
976.0, 0.007821745879821023
977.0, 0.021830273638163047
978.0, 0.03631315066993271
979.0, 0.013932877231911047
980.0, 0.017928289156631697
981.0, 0.026407334491845885
982.0, 0.01853591499344333
983.0, 0.016957686769691047
984.0, 0.05163384409974131
985.0, 0.014440641599574332
986.0, 0.017731455573750315
987.0, 0.02960351710922252
988.0, 0.029520818650864374
989.0, 0.006616563352435077
990.0, 0.0350761770088769
991.0, 0.01735009961366502
992.0, 0.0041317002449323
993.0, 0.01279800081224953
994.0, 0.03981054158248913
995.0, 0.015732114750331837
996.0, 0.026592447715447606
997.0, 0.033667636479358165
998.0, 0.024056538860446453
999.0, 0.0032748843065684326
1000.0, 0.05334206674312971
1001.0, 0.02771041815485407
1002.0, 0.017988361483155673
1003.0, 0.037333749745649944
1004.0, 0.049388562838423966
1005.0, 0.013891154446706818
1006.0, 0.04081636349927223
1007.0, 0.04773117663157556
1008.0, 0.028114139253490922
1009.0, 0.023747883556006148
1010.0, 0.05987835099594254
1011.0, 0.03288154956251733
1012.0, 0.03205070865143004
1013.0, 0.05512870051241873
1014.0, 0.045038695653382685
1015.0, 0.020233007128281508
1016.0, 0.050701086344043536
1017.0, 0.04932901977388125
1018.0, 0.02582595593248283
1019.0, 0.04283366769185955
1020.0, 0.05951828745950391
1021.0, 0.03241288780974961
1022.0, 0.04022761175871715
1023.0, 0.06302416200014371
1024.0, 0.035450910056801906
1025.0, 0.02935753726360478
1026.0, 0.0548027061627652
1027.0, 0.0429516255020732
1028.0, 0.020913409580529535
1029.0, 0.050047791166611365
1030.0, 0.04540201722967338
1031.0, 0.015922499551539123
1032.0, 0.028017361670798456
1033.0, 0.046353156153858203
1034.0, 0.011863689253405071
1035.0, 0.021247565163418476
1036.0, 0.045180597722538525
1037.0, 0.030175800981621
1038.0, 0.015877431102472816
1039.0, 0.049951740221083805
1040.0, 0.031053338170082177
1041.0, 0.017482708930622065
1042.0, 0.03325931727254561
1043.0, 0.04020504678154255
1044.0, 0.009450262864780967
1045.0, 0.032896372497625406
1046.0, 0.03749758089014298
1047.0, 0.02023604342138423
1048.0, 0.022017843583446516
1049.0, 0.05688777120257048
1050.0, 0.01820832403493408
1051.0, 0.01968274316691005
1052.0, 0.03725457921303525
1053.0, 0.035595619074115466
1054.0, 0.011245753805754544
1055.0, 0.041870789601625276
1056.0, 0.028988011424249876
1057.0, 0.010961875407446685
1058.0, 0.02034862853025938
1059.0, 0.04626570199681275
1060.0, 0.004980221258244301
1061.0, 0.025681408116406908
1062.0, 0.045491719107302986
1063.0, 0.03358830503051763
1064.0, 0.011590371243113295
1065.0, 0.05879490273289881
1066.0, 0.030444035083729455
1067.0, 0.0183119720625909
1068.0, 0.03483504365908188
1069.0, 0.048713406453775684
1070.0, 0.004150669889527756
1071.0, 0.03808605194859645
1072.0, 0.045899986246935004
1073.0, 0.028184686391636297
1074.0, 0.020578037495126128
1075.0, 0.0589479454003375
1076.0, 0.023963167642723472
1077.0, 0.022674863288935483
1078.0, 0.04117202025375713
1079.0, 0.04140821549881105
1080.0, 0.005926759824364757
1081.0, 0.049228054802109115
1082.0, 0.04155594384002045
1083.0, 0.025765613099634165
1084.0, 0.03591626407968108
1085.0, 0.06772033149780511
1086.0, 0.020402960881021934
1087.0, 0.037179071766160234
1088.0, 0.055364091451728784
1089.0, 0.04483865198553383
1090.0, 0.022072879712922287
1091.0, 0.06800650889850292
1092.0, 0.04505909170263968
1093.0, 0.02931208497199159
1094.0, 0.043275926824765616
1095.0, 0.05833769609471378
1096.0, 0.012717827525824692
1097.0, 0.03977281159690814
1098.0, 0.05068081048329643
1099.0, 0.02992190422136648
1100.0, 0.020145368827604725
1101.0, 0.06525268676067753
1102.0, 0.02810179439828085
1103.0, 0.02413651744894442
1104.0, 0.044030108620887104
1105.0, 0.043760270498001255
1106.0, 0.008839718625465742
1107.0, 0.04586834135066658
1108.0, 0.037122272143852476
1109.0, 0.015786190829147024
1110.0, 0.020202684768698104
1111.0, 0.043040973398912455
1112.0, 0.005265165505517137
1113.0, 0.01718868363882714
1114.0, 0.04068190494916322
1115.0, 0.032433865692615756
1116.0, 0.014712801855820938
1117.0, 0.05090579912953137
1118.0, 0.0365137684480687
1119.0, 0.016516758186978134
1120.0, 0.03624630837186762
1121.0, 0.0515883929775919
1122.0, 0.014917229945470543
1123.0, 0.02964869453064884
1124.0, 0.0476748589720671
1125.0, 0.02508075638008292
1126.0, 0.020974739425044565
1127.0, 0.05363201456512588
1128.0, 0.022109938234802697
1129.0, 0.012980264173041316
1130.0, 0.043734819978596066
1131.0, 0.04194350187646307
1132.0, 0.014473326185299253
1133.0, 0.04022733195944099
1134.0, 0.051993135156766235
1135.0, 0.019555756303939624
1136.0, 0.0317386643209661
1137.0, 0.051223878318944385
1138.0, 0.015863008477370436
1139.0, 0.01008648139897674
1140.0, 0.052192431668926655
1141.0, 0.03204185628649951
1142.0, 0.01876764655644972
1143.0, 0.05103934384907632
1144.0, 0.051150118749468565
1145.0, 0.014309497742453428
1146.0, 0.041590255649317585
1147.0, 0.04748969185078192
1148.0, 0.022898949711328102
1149.0, 0.023734755936022332
1150.0, 0.06002439501062148
1151.0, 0.02173835574899339
1152.0, 0.026891240566487885
1153.0, 0.051474008374982436
1154.0, 0.04265551987933182
1155.0, 0.012215658767172781
1156.0, 0.055361097252707485
1157.0, 0.04430868358911777
1158.0, 0.027484315088921314
1159.0, 0.03925514110046886
1160.0, 0.06826011954204775
1161.0, 0.014625904702775257
1162.0, 0.03725214612046095
1163.0, 0.050493202108833866
1164.0, 0.03490655010556763
1165.0, 0.016135059022279626
1166.0, 0.06890675459794224
1167.0, 0.03983355415848566
1168.0, 0.030175438263010595
1169.0, 0.048607175178737624
1170.0, 0.06503861603085836
1171.0, 0.012418221677345347
1172.0, 0.05530732053032525
1173.0, 0.0575171718853261
1174.0, 0.038447783717046394
1175.0, 0.036294787828165045
1176.0, 0.07771603821392015
1177.0, 0.03734169523627552
1178.0, 0.04663905942825373
1179.0, 0.0686503138412346
1180.0, 0.061041721411592496
1181.0, 0.02932478164694413
1182.0, 0.07972287365048805
1183.0, 0.061388740315567285
1184.0, 0.03803585753862267
1185.0, 0.050545339624334135
1186.0, 0.06680903431106355
1187.0, 0.022803246074048333
1188.0, 0.0317970357449108
1189.0, 0.05491247112715518
1190.0, 0.030665927174516557
1191.0, 0.0209519233005545
1192.0, 0.057271363326078045
1193.0, 0.04336524782895425
1194.0, 0.02583831550404183
1195.0, 0.05736674739912835
1196.0, 0.05511178078928902
1197.0, 0.027427690018991105
1198.0, 0.040482374820208916
1199.0, 0.07331296976476763
1200.0, 0.029901988508661055
1201.0, 0.03840411463666061
1202.0, 0.059265110260584446
1203.0, 0.04762107125384454
1204.0, 0.018066636800882007
1205.0, 0.0687277824410795
1206.0, 0.04646804051486646
1207.0, 0.033649648349627866
1208.0, 0.05223422979640976
1209.0, 0.0739834803502182
1210.0, 0.02109764267502711
1211.0, 0.05720623348415688
1212.0, 0.06270051989186971
1213.0, 0.04456603802906907
1214.0, 0.03913506515932697
1215.0, 0.08717691637689953
1216.0, 0.03979164902984335
1217.0, 0.03990632506899503
1218.0, 0.05860835091444061
1219.0, 0.054334693838642846
1220.0, 0.017482602431565127
1221.0, 0.06150752919178368
1222.0, 0.051720789830326463
1223.0, 0.028915049323542105
1224.0, 0.04365438131042924
1225.0, 0.0685573243071411
1226.0, 0.022577828274883964
1227.0, 0.036782495519367624
1228.0, 0.06250753932528923
1229.0, 0.04021072578142474
1230.0, 0.02765733891407938
1231.0, 0.05747204684900693
1232.0, 0.05114235343099156
1233.0, 0.018351977810334215
1234.0, 0.059535005712717096
1235.0, 0.056754784137848485
1236.0, 0.02516887532170125
1237.0, 0.03834490001780222
1238.0, 0.07298861866030479
1239.0, 0.020762637621196425
1240.0, 0.032430658278600165
1241.0, 0.05323227961765634
1242.0, 0.04238403618858605
1243.0, 0.012105768558655569
1244.0, 0.06920041840218591
1245.0, 0.04549641192852279
1246.0, 0.028770600732702944
1247.0, 0.04275910878852634
1248.0, 0.06309251950907775
1249.0, 0.012169608962198868
1250.0, 0.04611657290186342
1251.0, 0.052540838786014656
1252.0, 0.030898764547986506
1253.0, 0.02732738904164897
1254.0, 0.0695608518962251
1255.0, 0.02983571662893455
1256.0, 0.021405744952409544
1257.0, 0.05370403621735564
1258.0, 0.04812149101164391
1259.0, 0.015323874963090539
1260.0, 0.03657187637161102
1261.0, 0.05796433626187841
1262.0, 0.01817391034557143
1263.0, 0.03682736978907011
1264.0, 0.05274466499497133
1265.0, 0.02797242812114109
1266.0, 0.013208262687441498
1267.0, 0.06559011158535011
1268.0, 0.02956370033926415
1269.0, 0.020857974505627205
1270.0, 0.04154869812526242
1271.0, 0.05050491278859466
1272.0, 0.007121712301560425
1273.0, 0.04964827095719289
1274.0, 0.04209020342712633
1275.0, 0.01765912702769358
1276.0, 0.022998116062060397
1277.0, 0.06683953463665049
1278.0, 0.013252297377053392
1279.0, 0.02599874417115942
1280.0, 0.0493731475344331
1281.0, 0.03710534645630908
1282.0, 0.018084318938938027
1283.0, 0.05153558264233194
1284.0, 0.03761098545218331
1285.0, 0.01259548952911757
1286.0, 0.03954461557268059
1287.0, 0.04597105586251922
1288.0, 0.01898017404225904
1289.0, 0.025308073632975023
1290.0, 0.06745593659931737
1291.0, 0.021172217207135188
1292.0, 0.024888273710651658
1293.0, 0.04876959896591438
1294.0, 0.04477133687035652
1295.0, 0.004530759960124097
1296.0, 0.055855539877486565
1297.0, 0.035883128726637584
1298.0, 0.01602340441888254
1299.0, 0.030960000923913877
1300.0, 0.05759945556579171
1301.0, 0.0021797577473451485
1302.0, 0.029682322796768433
1303.0, 0.05135233218330105
1304.0, 0.03230363972862207
1305.0, 0.02126118996734362
1306.0, 0.05013848065295619
1307.0, 0.043268044003565334
1308.0, 0.00916969883096232
1309.0, 0.04727283286064478
1310.0, 0.04129285087141105
1311.0, 0.015517536325209334
1312.0, 0.03215089942725033
1313.0, 0.06686497718677009
1314.0, 0.013630039397231779
1315.0, 0.030836596057555198
1316.0, 0.04832999203590993
1317.0, 0.034818750314282734
1318.0, 0.01048418976125496
1319.0, 0.06400287931730052
1320.0, 0.035208739156750456
1321.0, 0.017773942201080455
1322.0, 0.03706308875663997
1323.0, 0.04774358969942874
1324.0, 0.011053903100588588
1325.0, 0.039171876673779644
1326.0, 0.05137994201814489
1327.0, 0.021856456718635335
1328.0, 0.030184256907402975
1329.0, 0.05443014965991338
1330.0, 0.032470172403517725
1331.0, 0.0034571259499087785
1332.0, 0.05963620465749868
1333.0, 0.032181314111379325
1334.0, 0.0161045534094443
1335.0, 0.03926773381637131
1336.0, 0.061973322471231274
1337.0, 0.009758928917242452
1338.0, 0.043300897404802675
1339.0, 0.05287286670447485
1340.0, 0.029546371004952873
1341.0, 0.022387465697576055
1342.0, 0.06379256447640329
1343.0, 0.029071356183799774
1344.0, 0.017277288435386323
1345.0, 0.04822278947154007
1346.0, 0.03634018050015181
1347.0, 0.011688276729340311
1348.0, 0.036542864218007634
1349.0, 0.048673576484702434
1350.0, 0.01560854566930654
1351.0, 0.040381387859710745
1352.0, 0.04105512709679404
1353.0, 0.016134906071164773
1354.0, 0.012703998067374274
1355.0, 0.07001263342794853
1356.0, 0.02419045839623193
1357.0, 0.018967151711467286
1358.0, 0.0486287274248529
1359.0, 0.052360012582895125
1360.0, 0.011487700926973505
1361.0, 0.04920247492291178
1362.0, 0.052615265059594386
1363.0, 0.017359381497170888
1364.0, 0.0361935021214978
1365.0, 0.051088623698672724
1366.0, 0.013047340322324193
1367.0, 0.005333811608818219
1368.0, 0.06839240540530522
1369.0, 0.03025637885832839
1370.0, 0.023023559966877667
1371.0, 0.04851455807059053
1372.0, 0.056469136423759454
1373.0, 0.0036024007612786603
1374.0, 0.053195529670336
1375.0, 0.049369732068655824
1376.0, 0.020379401825150516
1377.0, 0.029908049270538032
1378.0, 0.06266304509577682
1379.0, 0.025927979129581315
1380.0, 0.018878874281028683
1381.0, 0.06199196449869742
1382.0, 0.03822904804889021
1383.0, 0.02532036961428019
1384.0, 0.05023741113980737
1385.0, 0.06104147272139451
1386.0, 0.005365043414937903
1387.0, 0.04956878616355601
1388.0, 0.04781133346586709
1389.0, 0.02477031800429834
1390.0, 0.031079827792353305
1391.0, 0.07418183181380744
1392.0, 0.018648652916163445
1393.0, 0.02524659739001751
1394.0, 0.06561922407548741
1395.0, 0.04326195462559511
1396.0, 0.018113682962168982
1397.0, 0.05463165313396047
1398.0, 0.06611540075286042
1399.0, 0.01468176066412992
1400.0, 0.05069586808172161
1401.0, 0.05261849606848588
1402.0, 0.02555545168158153
1403.0, 0.021840381929098422
1404.0, 0.07598557134208056
1405.0, 0.027493199958356238
1406.0, 0.02019812680906153
1407.0, 0.054297941196702455
1408.0, 0.046590375949788106
1409.0, 0.017504422936472544
1410.0, 0.05697340324879327
1411.0, 0.06436023727562556
1412.0, 0.016485548773538024
1413.0, 0.04898851429770093
1414.0, 0.05636436168701119
1415.0, 0.027117098188279405
1416.0, 0.020484919750521684
1417.0, 0.0841654525888232
1418.0, 0.02768352033853641
1419.0, 0.027867358820029577
1420.0, 0.05539073037140307
1421.0, 0.05013371704410608
1422.0, 0.017830235511241774
1423.0, 0.05631837301101474
1424.0, 0.06258712052000899
1425.0, 0.020147269365168845
1426.0, 0.04537366714833972
1427.0, 0.05954608172732343
1428.0, 0.03374189398560183
1429.0, 0.02188631743235654
1430.0, 0.07795996166848793
1431.0, 0.025097121958995213
1432.0, 0.025440891909367633
1433.0, 0.053538806292109026
1434.0, 0.049914327743609314
1435.0, 0.0110864388501971
1436.0, 0.05745223340072352
1437.0, 0.06570381276530755
1438.0, 0.023731009033233837
1439.0, 0.05048338122586074
1440.0, 0.06628697387197358
1441.0, 0.032336574834040344
1442.0, 0.022303497173011416
1443.0, 0.08715101954054078
1444.0, 0.03428538234028178
1445.0, 0.029825525944944004
1446.0, 0.057705790212803934
1447.0, 0.05958434890738787
1448.0, 0.020838185423339213
1449.0, 0.058118348815713206
1450.0, 0.06897455825135641
1451.0, 0.026440746431337835
1452.0, 0.047034846364773085
1453.0, 0.06741947324863067
1454.0, 0.04131616566550058
1455.0, 0.02473923791059656
1456.0, 0.08634203598251543
1457.0, 0.03886539326005758
1458.0, 0.02894238988818183
1459.0, 0.05986829818153354
1460.0, 0.06526530917109125
1461.0, 0.017527507279220617
1462.0, 0.05651997059721241
1463.0, 0.06885607650614438
1464.0, 0.02118712452838791
1465.0, 0.04546321009882806
1466.0, 0.0687676666420874
1467.0, 0.03957274268497905
1468.0, 0.017200421312680028
1469.0, 0.08836966549553643
1470.0, 0.03442462579482423
1471.0, 0.03182402428120748
1472.0, 0.0607976386987433
1473.0, 0.05601348310094987
1474.0, 0.012228889287013482
1475.0, 0.05935557123962748
1476.0, 0.0678906141208577
1477.0, 0.021049856785956056
1478.0, 0.04456533725324191
1479.0, 0.067490903250601
1480.0, 0.04241313719887817
1481.0, 0.01137637770588842
1482.0, 0.07972407533933197
1483.0, 0.04232967848520575
1484.0, 0.02018529223979771
1485.0, 0.05546750387595032
1486.0, 0.06311346229424926
1487.0, 0.0194918130008838
1488.0, 0.04774289661052315
1489.0, 0.08034196702238094
1490.0, 0.021288026606025627
1491.0, 0.039968472690316184
1492.0, 0.06600081244218309
1493.0, 0.04756469120572269
1494.0, 0.015261772261945604
1495.0, 0.08441168825853956
1496.0, 0.0480531169795471
1497.0, 0.021420257197753624
1498.0, 0.05778555253417925
1499.0, 0.05994168006926624
1500.0, 0.02342365168898676
1501.0, 0.04189531113778826
1502.0, 0.09335437550311954
1503.0, 0.02465682322656906
1504.0, 0.042625368988356935
1505.0, 0.06610049036867892
1506.0, 0.04775333901382212
1507.0, 0.023164762011985238
1508.0, 0.07238591979475624
1509.0, 0.0526837868714328
1510.0, 0.01057537592532609
1511.0, 6.416954942380646e-05
1512, 0.0
1513, 0.0
1514, 0.0
1515, 0.0
1516, 0.0
1517, 0.0
1518, 0.0
1519, 0.0
1520, 0.0
1521, 0.0
1522, 0.0
1523, 0.0
1524, 0.0
1525, 0.0
1526, 0.0
1527, 0.0
1528, 0.0
1529, 0.0
1530, 0.0
1531, 0.0
1532, 0.0
1533, 0.0
1534, 0.0
1535, 0.0
1536, 0.0
1537, 0.0
1538, 0.0
1539, 0.0
1540, 0.0
1541, 0.0
1542, 0.0
1543, 0.0
1544, 0.0
1545, 0.0
1546, 0.0
1547, 0.0
1548, 0.0
1549, 0.0
1550, 0.0
1551, 0.0
1552, 0.0
1553, 0.0
1554, 0.0
1555, 0.0
1556, 0.0
1557, 0.0
1558, 0.0
1559, 0.0
1560, 0.0
1561, 0.0
1562, 0.0
1563, 0.0
1564, 0.0
1565, 0.0
1566, 0.0
1567, 0.0
1568, 0.0
1569, 0.0
1570, 0.0
1571, 0.0
1572, 0.0
1573, 0.0
1574, 0.0
1575, 0.0
1576, 0.0
1577, 0.0
1578, 0.0
1579, 0.0
1580, 0.0
1581, 0.0
1582, 0.0
1583, 0.0
1584, 0.0
1585, 0.0
1586, 0.0
1587, 0.0
1588, 0.0
1589, 0.0
1590, 0.0
1591, 0.0
1592, 0.0
1593, 0.0
1594, 0.0
1595, 0.0
1596, 0.0
1597, 0.0
1598, 0.0
1599, 0.0
