30, 0.0
31, 0.0
32, 0.0
33, 0.0
34, 0.0
35, 0.0
36, 0.0
37, 0.0
38, 0.0
39, 0.0
40, 0.0
41, 0.0
42, 0.0
43, 0.0
44, 0.0
45, 0.0
46, 0.0
47, 0.0
48, 0.0
49, 0.0
50, 0.0
51, 0.0
52, 0.0
53, 0.0
54, 0.0
55, 0.0
56, 0.0
57, 0.0
58, 0.0
59, 0.0
60, 0.0
61, 0.0
62, 0.0
63, 0.0
64, 0.0
65, 0.0
66, 0.0
67, 0.0
68, 0.0
69, 0.0
70, 0.0
71, 0.0
72, 0.0
73.0, 6.299929433382478e-05
74.0, 0.001715074110350787
75.0, 0.00601747358268178
76.0, 0.005459043066217052
77.0, 0.005285274851989721
78.0, 0.005032198908848029
79.0, 0.0028759071040647234
80.0, 0.006539855131331064
81.0, 0.012502639923802746
82.0, 0.01963098778598612
83.0, 0.02687205229799947
84.0, 0.02908630943925827
85.0, 0.02918987045124543
86.0, 0.03329750936865961
87.0, 0.03527112246002381
88.0, 0.038683638655065196
89.0, 0.04454677046784135
90.0, 0.048277299181463736
91.0, 0.052302809861516725
92.0, 0.056940914688588966
93.0, 0.06291831871955308
94.0, 0.061683176911454314
95.0, 0.055378697992459
96.0, 0.04529041703999907
97.0, 0.04342847199446824
98.0, 0.04275696614856572
99.0, 0.0402452758792429
100.0, 0.031897718297495416
101.0, 0.028101846218406897
102.0, 0.023701606940978608
103.0, 0.019361544699329606
104.0, 0.02363089398641402
105.0, 0.02307834150379252
106.0, 0.022366865129135875
107.0, 0.024919613737464496
108.0, 0.018250382134290637
109.0, 0.01749363732908592
110.0, 0.02077624006350697
111.0, 0.01851973688387939
112.0, 0.019391424234067357
113.0, 0.020482381153599957
114.0, 0.02049856827979491
115.0, 0.015655636803836734
116.0, 0.011899096920411922
117.0, 0.008164851184580105
118.0, 0.002014518349935278
119.0, 0.0008335294836015682
120.0, 0.0034494285645361323
121.0, 0.008908111940832863
122.0, 0.0033197079550773673
123.0, 0.0011444310490769168
124.0, 0.001501737477331091
125.0, 0.004009372088318796
126.0, 0.00491270138903576
127.0, 0.005392145621492391
128.0, 0.005222274183861228
129.0, 0.0018962850507837328
130.0, 0.0017344871901335654
131.0, 0.0020414252803090675
132.0, 0.0010388599374481359
133.0, 0.006689157859967792
134.0, 0.00962520580767739
135.0, 0.011578881618745547
136.0, 0.01897681199677833
137.0, 0.02495908531963133
138.0, 0.03467120259957326
139.0, 0.049632171220488575
140.0, 0.04904030372424251
141.0, 0.05420841055784998
142.0, 0.05953398815237686
143.0, 0.05628482238217094
144.0, 0.06086075587897456
145.0, 0.06129237962014298
146.0, 0.05675825209118069
147.0, 0.05621973704079259
148.0, 0.057303970281302324
149.0, 0.05370244393004415
150.0, 0.03979816920785725
151.0, 0.046390623860168824
152.0, 0.04344063513837869
153.0, 0.034715558891600586
154.0, 0.03468282087164326
155.0, 0.0357389805256163
156.0, 0.03554074773117529
157.0, 0.033491191246423795
158.0, 0.036152528756924075
159.0, 0.032042984426805636
160.0, 0.027402280594255132
161.0, 0.030519961682416698
162.0, 0.03164194000931949
163.0, 0.02908350704028406
164.0, 0.024813262686754423
165.0, 0.030625851324457137
166.0, 0.030062859778494308
167.0, 0.03036804128693379
168.0, 0.035750762582471285
169.0, 0.03006402659099734
170.0, 0.033261037590342615
171.0, 0.03967203957385182
172.0, 0.037459008263458576
173.0, 0.03943015545752252
174.0, 0.04130800996723664
175.0, 0.04215841804399766
176.0, 0.042197521990683474
177.0, 0.04764646480106383
178.0, 0.053082422554035585
179.0, 0.05402610078543848
180.0, 0.050709833144135505
181.0, 0.05487772711411867
182.0, 0.06191850681584426
183.0, 0.05704426880891798
184.0, 0.06131753616177558
185.0, 0.06529952983805462
186.0, 0.06674555661903328
187.0, 0.07578041682742241
188.0, 0.07778740309729061
189.0, 0.08033717157814615
190.0, 0.09163206276658974
191.0, 0.0958627411484563
192.0, 0.0950987545362165
193.0, 0.09551579495746215
194.0, 0.11893786647193952
195.0, 0.11879336747164584
196.0, 0.12128384173202171
197.0, 0.1348056898683891
198.0, 0.12773224084435975
199.0, 0.1356549294905573
200.0, 0.14788608443363196
201.0, 0.15249240931814648
202.0, 0.15957434618391275
203.0, 0.1637260387116807
204.0, 0.16661652614376837
205.0, 0.17662872052483392
206.0, 0.18415651803484556
207.0, 0.1874785225422621
208.0, 0.1862708876513363
209.0, 0.1953985947854302
210.0, 0.20573392670769866
211.0, 0.21430345936906964
212.0, 0.21715737627261897
213.0, 0.22208918313976111
214.0, 0.22647085835212644
215.0, 0.23272116295286419
216.0, 0.2509021253932579
217.0, 0.25722960027806224
218.0, 0.2611552847085814
219.0, 0.2659825776724378
220.0, 0.2729528928629102
221.0, 0.27442446333566084
222.0, 0.27469940834784246
223.0, 0.2780996300672763
224.0, 0.28192853985551497
225.0, 0.2799508088273825
226.0, 0.27545205348873775
227.0, 0.2793298044743299
228.0, 0.2765603272518495
229.0, 0.2741662472820338
230.0, 0.27316861241228313
231.0, 0.26220936699299935
232.0, 0.25699028524978057
233.0, 0.25217980576083965
234.0, 0.24349308308160453
235.0, 0.2356823762546453
236.0, 0.23515868689684463
237.0, 0.2367419433027044
238.0, 0.2286958313887162
239.0, 0.23685398488584458
240.0, 0.24030039177187154
241.0, 0.2369379468699655
242.0, 0.24155537184831435
243.0, 0.24483111481315117
244.0, 0.2454354712982067
245.0, 0.24252072725139961
246.0, 0.25122826210484084
247.0, 0.2564716163601114
248.0, 0.2578045243733797
249.0, 0.25389054573953396
250.0, 0.26142392128826253
251.0, 0.26579732176155807
252.0, 0.26648740747669525
253.0, 0.2675574527127182
254.0, 0.26573381527621576
255.0, 0.26653087921099866
256.0, 0.2707993903694269
257.0, 0.26284118193480654
258.0, 0.2618588414296844
259.0, 0.26008052683103383
260.0, 0.2507819643169939
261.0, 0.24541606739716013
262.0, 0.24290089125130834
263.0, 0.2418708548616773
264.0, 0.2398045323793717
265.0, 0.23459030552773472
266.0, 0.2314127605972979
267.0, 0.22977037597950412
268.0, 0.22228012599710673
269.0, 0.2175916539268147
270.0, 0.2148354783298412
271.0, 0.21331936629167966
272.0, 0.20357231672861384
273.0, 0.2012076177105565
274.0, 0.20133611397126688
275.0, 0.1992968769757633
276.0, 0.18606463486239194
277.0, 0.18580836416247834
278.0, 0.19136050299131452
279.0, 0.18389641597475712
280.0, 0.18265906922276548
281.0, 0.18244542513981382
282.0, 0.18169138600037923
283.0, 0.17740390093372815
284.0, 0.17240733457193289
285.0, 0.17062925669258827
286.0, 0.173267333516568
287.0, 0.163996948537076
288.0, 0.15936686632148278
289.0, 0.15890771153806488
290.0, 0.16271553041106146
291.0, 0.15867673418493528
292.0, 0.15700798012567874
293.0, 0.15772426768259057
294.0, 0.16024926302734854
295.0, 0.1635806082717362
296.0, 0.16702308730466994
297.0, 0.16914372761375387
298.0, 0.16396798449000596
299.0, 0.17283324437421732
300.0, 0.17869761234776677
301.0, 0.17605909074576642
302.0, 0.17679436901239642
303.0, 0.18401813001947492
304.0, 0.19337655996217387
305.0, 0.201837097086631
306.0, 0.20948409893677444
307.0, 0.21715207874110967
308.0, 0.22314411891397729
309.0, 0.22467711747446842
310.0, 0.23590784838416862
311.0, 0.24321479762992868
312.0, 0.2473419491399023
313.0, 0.2540782277051431
314.0, 0.25425256640425825
315.0, 0.2599974921274017
316.0, 0.2720666806327633
317.0, 0.2773711281607503
318.0, 0.2767445301604589
319.0, 0.2784225487146917
320.0, 0.28538253363489346
321.0, 0.28113613066763754
322.0, 0.2810092188019186
323.0, 0.27913294099198777
324.0, 0.2703372529883775
325.0, 0.2682463110463939
326.0, 0.2645680898050932
327.0, 0.26023743972121893
328.0, 0.25690528425723985
329.0, 0.25107603636014597
330.0, 0.24221197962380725
331.0, 0.23381365784486507
332.0, 0.23595120254954335
333.0, 0.22766606758654936
334.0, 0.2192929182005934
335.0, 0.21464730420262698
336.0, 0.22180940679453912
337.0, 0.21005167836898755
338.0, 0.20007399027332476
339.0, 0.19938159712107373
340.0, 0.19742273496411358
341.0, 0.194879901140189
342.0, 0.1910723283911669
343.0, 0.18565644514050172
344.0, 0.1958122193624695
345.0, 0.1973883113003866
346.0, 0.1974846220097684
347.0, 0.2042936391643694
348.0, 0.19590865050543502
349.0, 0.1954442827122008
350.0, 0.20004020437710673
351.0, 0.20244211411600882
352.0, 0.1999283115583472
353.0, 0.1976182189801704
354.0, 0.19632163253110785
355.0, 0.19653585950627975
356.0, 0.19484580497782047
357.0, 0.19232244468352575
358.0, 0.19026001945244828
359.0, 0.1942445089854014
360.0, 0.19096707545957226
361.0, 0.188322996713365
362.0, 0.1889597200555921
363.0, 0.18808014037923748
364.0, 0.18623438181257093
365.0, 0.18518216637370657
366.0, 0.18577711391195112
367.0, 0.1805651824267644
368.0, 0.17723606482810944
369.0, 0.17362614529313772
370.0, 0.1677034179447974
371.0, 0.17833172085342455
372.0, 0.17679834192495789
373.0, 0.17082132905258
374.0, 0.17169955702914855
375.0, 0.17437741803813603
376.0, 0.16786137535098958
377.0, 0.1586587024643848
378.0, 0.16168799566613554
379.0, 0.1558575246772408
380.0, 0.1563653194297564
381.0, 0.161240284342513
382.0, 0.15835653844145176
383.0, 0.15892333999534308
384.0, 0.16098787412578167
385.0, 0.1631135436411011
386.0, 0.16071023862999032
387.0, 0.16090607123423212
388.0, 0.16419448881842613
389.0, 0.16971213636821308
390.0, 0.16990400577032583
391.0, 0.16978452794663237
392.0, 0.1706742122747339
393.0, 0.17294253498161552
394.0, 0.17338915474819014
395.0, 0.17412374217169363
396.0, 0.1749560504163139
397.0, 0.17578934710137634
398.0, 0.17702812567038242
399.0, 0.1789022777812691
400.0, 0.17993913847457138
401.0, 0.17889233220888445
402.0, 0.1819684195296579
403.0, 0.1841347917964425
404.0, 0.18554211791903902
405.0, 0.1863195617510183
406.0, 0.19467503408891734
407.0, 0.2003893848521835
408.0, 0.2038645475814877
409.0, 0.20601910934805118
410.0, 0.20947020426797477
411.0, 0.2182133959972086
412.0, 0.22792659316120487
413.0, 0.2300807355126458
414.0, 0.23934933036186046
415.0, 0.24410582106200332
416.0, 0.2472609733875263
417.0, 0.2586199346267601
418.0, 0.24925060688594106
419.0, 0.24709456657995435
420.0, 0.2531137868141335
421.0, 0.2580262639161661
422.0, 0.24951961436583653
423.0, 0.24423996101882106
424.0, 0.2423945140747635
425.0, 0.23256808314407126
426.0, 0.22312496330556564
427.0, 0.21943481285649719
428.0, 0.2180092473789267
429.0, 0.19664846479408588
430.0, 0.19100745694527635
431.0, 0.1833485895249781
432.0, 0.17021281551388295
433.0, 0.16267778038474756
434.0, 0.15404130958474888
435.0, 0.14449164076949625
436.0, 0.13465671471187188
437.0, 0.1284965133973048
438.0, 0.12340653858480452
439.0, 0.11581919759431301
440.0, 0.10506884063373043
441.0, 0.09890038823335595
442.0, 0.087482010438238
443.0, 0.08136718627690057
444.0, 0.08299804980538968
445.0, 0.06343791064954596
446.0, 0.059676414163665634
447.0, 0.05703993690178381
448.0, 0.04875531850391995
449.0, 0.049505509322113214
450.0, 0.045526575346118245
451.0, 0.03962496610488723
452.0, 0.03357440993706192
453.0, 0.029701211425296314
454.0, 0.026577983555546615
455.0, 0.022765504320820897
456.0, 0.017784666181739038
457.0, 0.020839874043852888
458.0, 0.02093143420486976
459.0, 0.020692863808913865
460.0, 0.02152570170537893
461.0, 0.013474262111169946
462.0, 0.013574755913770513
463.0, 0.01196476325823136
464.0, 0.0021946436249049867
465.0, 0.009412264031515757
466.0, 0.005612996100645484
467.0, 0.0033422283224375693
468.0, 0.011614639272347417
469.0, 0.009567193357171874
470.0, 0.00655079647951139
471.0, 0.0073010187518774295
472.0, 0.014903704424314783
473.0, 0.004043990242742201
474.0, 0.006060565510997477
475.0, 0.012056546693788616
476.0, 0.015145974931946379
477.0, 0.020035596494091052
478.0, 0.021381524837220788
479.0, 0.02083592138281798
480.0, 0.019780851242138787
481.0, 0.021422062543200646
482.0, 0.028234564912105246
483.0, 0.02950854231940321
484.0, 0.017909472609389104
485.0, 0.026045578449695603
486.0, 0.028967692343965228
487.0, 0.026757028387852676
488.0, 0.019991561001502123
489.0, 0.023479701304161667
490.0, 0.02565616152741491
491.0, 0.025891857590876144
492.0, 0.023638069011335434
493.0, 0.017842456254096622
494.0, 0.018683961237288257
495.0, 0.019488275902879125
496.0, 0.015955979750144962
497.0, 0.011544465187565495
498.0, 0.011508944525741721
499.0, 0.012765761283029602
500.0, 0.012825167188606497
501.0, 0.0037575793183336295
502.0, 0.006660622221283591
503.0, 0.008116349310133605
504.0, 0.0022108495188379986
505.0, 0.008168560805970459
506.0, 0.0052981412086621086
507.0, 0.0016223947406832943
508.0, 0.0012812955209900681
509.0, 0.004626450010770785
510.0, 0.0031970876699421048
511.0, 0.001470849116660644
512.0, 0.001404129934328576
513.0, 0.0024468075048928372
514.0, 0.0031533891360900376
515.0, 0.0035921842404297885
516.0, 0.003692854035591225
517.0, 0.00290391440681409
518.0, 0.004576462695992914
519.0, 0.004951061950303733
520.0, 0.003926984124154322
521.0, 0.007156753731938279
522.0, 0.007300019078042339
523.0, 0.008287702600266534
524.0, 0.009825630698819443
525.0, 0.006368244599558916
526.0, 0.005038671829366404
527.0, 0.008518400585471616
528.0, 0.013849319243257366
529.0, 0.009620543146363701
530.0, 0.0074592643105999504
531.0, 0.004675312727766979
532.0, 0.0028149071093078295
533.0, 0.007152546933780398
534.0, 0.0026837537340641234
535.0, 0.0017367624127559574
536.0, 0.0038238149090537533
537.0, 0.004569618466323058
538.0, 0.006694897333808383
539.0, 0.006853638314807304
540.0, 0.005893192640479385
541.0, 0.005700182004085789
542.0, 0.011899714926404037
543.0, 0.008912976969276882
544.0, 0.0036696573213803635
545.0, 0.006229893856132998
546.0, 0.00654762867889182
547.0, 0.010153956454989918
548.0, 0.010982965436990313
549.0, 0.0030922545277045693
550.0, 0.0039965023177778915
551.0, 0.008595755943587323
552.0, 0.012755088116929155
553.0, 0.012923858717085138
554.0, 0.00417225196325844
555.0, 0.0036334862312456893
556.0, 0.008174908539456594
557.0, 0.01504730863244673
558.0, 0.015514574097795022
559.0, 0.022791321197060056
560.0, 0.02901614378845227
561.0, 0.03234481744008281
562.0, 0.04263431722356989
563.0, 0.05632166153653857
564.0, 0.06559523599014506
565.0, 0.07197105425002144
566.0, 0.09161453414011086
567.0, 0.09779903351071774
568.0, 0.11066415518145599
569.0, 0.12987322592700254
570.0, 0.14203399318399612
571.0, 0.1446188729341778
572.0, 0.1564351884696956
573.0, 0.1711285950606876
574.0, 0.17110863026806697
575.0, 0.1829058595959698
576.0, 0.18283461546783203
577.0, 0.18224964240743874
578.0, 0.1991094856355254
579.0, 0.19940412248546832
580.0, 0.19720013389252414
581.0, 0.19794564283669966
582.0, 0.2061272930992163
583.0, 0.20656539810121521
584.0, 0.2019934095300328
585.0, 0.200768881214568
586.0, 0.20714495370308877
587.0, 0.20617068374618164
588.0, 0.20412095296387028
589.0, 0.20572282836409883
590.0, 0.211947877275065
591.0, 0.2161322111440421
592.0, 0.21660074046143507
593.0, 0.2179973071611474
594.0, 0.21934351356655626
595.0, 0.2126636770071493
596.0, 0.2195200291882649
597.0, 0.21666680816779552
598.0, 0.20790150448289374
599.0, 0.21020317560491514
600.0, 0.2116319009604716
601.0, 0.2147140208304267
602.0, 0.2181951405850721
603.0, 0.22002393597731007
604.0, 0.21999967823142585
605.0, 0.2230939058747013
606.0, 0.22472516083770333
607.0, 0.221248349211017
608.0, 0.2254238493558146
609.0, 0.22753774987567657
610.0, 0.22712214629959301
611.0, 0.22487837577637956
612.0, 0.22810889950907956
613.0, 0.22649300618392568
614.0, 0.23060921555096098
615.0, 0.24002008899832095
616.0, 0.23807031641756504
617.0, 0.22563217768518334
618.0, 0.2260602351063361
619.0, 0.23486245937941594
620.0, 0.23102279240952248
621.0, 0.2276163615649007
622.0, 0.2317180348967084
623.0, 0.23492844483888958
624.0, 0.22496007685489888
625.0, 0.23075517256051514
626.0, 0.2310195808273284
627.0, 0.2327632825773622
628.0, 0.2406473718809188
629.0, 0.23254860642357886
630.0, 0.23258368457072448
631.0, 0.2349002524152974
632.0, 0.23500395606201968
633.0, 0.22409795430109047
634.0, 0.22595932206263047
635.0, 0.22917869534796861
636.0, 0.2289180194632979
637.0, 0.22037056793569298
638.0, 0.23419201285873753
639.0, 0.23382244862166074
640.0, 0.22372907942858233
641.0, 0.21944274485386553
642.0, 0.22065031811228072
643.0, 0.22453166835305569
644.0, 0.22535767476949012
645.0, 0.21860505269243533
646.0, 0.21951613371998402
647.0, 0.21413990223379273
648.0, 0.21491344641649165
649.0, 0.22403392139112452
650.0, 0.21454488819502995
651.0, 0.21510804384333065
652.0, 0.21161489920139687
653.0, 0.20464309174004988
654.0, 0.20744090610935323
655.0, 0.2064096784143052
656.0, 0.2041060076949902
657.0, 0.2024505426404695
658.0, 0.20382672393881485
659.0, 0.19859347192117727
660.0, 0.20067805499563426
661.0, 0.20221261465205306
662.0, 0.19660553126129654
663.0, 0.18791413508613194
664.0, 0.18754273730754184
665.0, 0.18606714282604442
666.0, 0.1805965442070563
667.0, 0.17726807582971016
668.0, 0.176910094453841
669.0, 0.1729524525498358
670.0, 0.16828435967754776
671.0, 0.17218556506018073
672.0, 0.16742211328301912
673.0, 0.1617170102983298
674.0, 0.15779819605695414
675.0, 0.1578133862549498
676.0, 0.15492299496506842
677.0, 0.15348950992731009
678.0, 0.1517148194958502
679.0, 0.1481545968682484
680.0, 0.14045311191973273
681.0, 0.13494866584117096
682.0, 0.13093968061371655
683.0, 0.13010063759882137
684.0, 0.13739070972625667
685.0, 0.12803745123432225
686.0, 0.12483298443497877
687.0, 0.12744218616871522
688.0, 0.13190453227565296
689.0, 0.11747842837430159
690.0, 0.12431767984731983
691.0, 0.12601205758560993
692.0, 0.11080711949142877
693.0, 0.1208273722006834
694.0, 0.1273640533238772
695.0, 0.11969642286704413
696.0, 0.10549772826186242
697.0, 0.11541669031904854
698.0, 0.10806516692416236
699.0, 0.09879450118521961
700.0, 0.09427209323375434
701.0, 0.10049259659822032
702.0, 0.10293102203461733
703.0, 0.10288414834602971
704.0, 0.09595442912128334
705.0, 0.08283586303909353
706.0, 0.08600668789058537
707.0, 0.08326047632248278
708.0, 0.08083985841850504
709.0, 0.08057578135479454
710.0, 0.08255724351454628
711.0, 0.08505999306376531
712.0, 0.0827636669624305
713.0, 0.07903907288632915
714.0, 0.07812202354175579
715.0, 0.07294443676792962
716.0, 0.0690918661780873
717.0, 0.06738762771143356
718.0, 0.06714045744581003
719.0, 0.06281243604840646
720.0, 0.06453040943427948
721.0, 0.06236887550475022
722.0, 0.05758558837942079
723.0, 0.0570693521207838
724.0, 0.05426896268018752
725.0, 0.051370036284957725
726.0, 0.04969971459077354
727.0, 0.04982684841805806
728.0, 0.04597537200891414
729.0, 0.0447022359956475
730.0, 0.04336573170571052
731.0, 0.04163383230678067
732.0, 0.04187556201913481
733.0, 0.03845737281442444
734.0, 0.03661319925766397
735.0, 0.0362516094206962
736.0, 0.03614736997419448
737.0, 0.030390441307264534
738.0, 0.02703535571265914
739.0, 0.027468541228188984
740.0, 0.031042534769887175
741.0, 0.030061396447447066
742.0, 0.027074682983197706
743.0, 0.025274242354387345
744.0, 0.02501657552294129
745.0, 0.025471745740888965
746.0, 0.026848200538816657
747.0, 0.022816262120271606
748.0, 0.01881392875736852
749.0, 0.019231620231592132
750.0, 0.01921345287680481
751.0, 0.01501206670767002
752.0, 0.014312776221685329
753.0, 0.01558659028268226
754.0, 0.0074379617319308144
755.0, 0.012073719320891343
756.0, 0.011463882024337844
757.0, 0.010400528331666544
758.0, 0.015010241770848167
759.0, 0.0073447607223308085
760.0, 0.008761431631290867
761.0, 0.008344371320179327
762.0, 0.004483332378475259
763.0, 0.00926501959151745
764.0, 0.011065609827478525
765.0, 0.007605687364685337
766.0, 0.0025360421838946543
767.0, 0.0011587501384803444
768.0, 0.0025946279539039493
769.0, 0.006492890961522388
770.0, 0.008728102142896002
771.0, 0.007695765003635378
772.0, 0.006259012162758101
773.0, 0.005239652639361263
774.0, 0.00845680404900263
775.0, 0.011895466980150086
776.0, 0.00856345119730883
777.0, 0.01001039136920943
778.0, 0.006984824831422784
779.0, 0.007180183832129344
780.0, 0.012814954929798427
781.0, 0.011436503003396771
782.0, 0.01200667537430057
783.0, 0.011685693285120174
784.0, 0.012120204706825167
785.0, 0.016829154813648575
786.0, 0.014729311201119972
787.0, 0.01957348691948455
788.0, 0.02617328486987565
789.0, 0.029298471324072567
790.0, 0.01998485883988998
791.0, 0.01910216788330649
792.0, 0.02289381856410934
793.0, 0.02623750812188217
794.0, 0.022177001119374498
795.0, 0.029513935509984258
796.0, 0.03158732128291873
797.0, 0.03464135534045808
798.0, 0.03967053404781792
799.0, 0.03151880516726664
800.0, 0.0324580743461609
801.0, 0.03654962036885187
802.0, 0.038226937492552404
803.0, 0.03116360225613844
804.0, 0.040331921978312424
805.0, 0.03939747783042067
806.0, 0.035036632879720316
807.0, 0.033952957722463775
808.0, 0.047463278906748514
809.0, 0.03990414786209477
810.0, 0.03790520406673599
811.0, 0.04089368994446508
812.0, 0.042187889967593754
813.0, 0.05378827316435346
814.0, 0.05496699299479689
815.0, 0.05550522865006618
816.0, 0.058877293960942455
817.0, 0.059888357601546725
818.0, 0.06133547636271952
819.0, 0.06313173789167915
820.0, 0.0659297017328906
821.0, 0.07007936311629949
822.0, 0.07014142166479333
823.0, 0.07020778867900267
824.0, 0.07219253149092032
825.0, 0.07643826878427598
826.0, 0.08181983920936566
827.0, 0.0826975040136728
828.0, 0.09117318248437375
829.0, 0.10036569683870544
830.0, 0.10313782369076954
831.0, 0.09936812740152005
832.0, 0.10664831472432006
833.0, 0.11692532405285185
834.0, 0.12577498320126804
835.0, 0.1292591125365571
836.0, 0.13227369214155088
837.0, 0.14510789551002304
838.0, 0.1578400532093076
839.0, 0.16471564199922478
840.0, 0.17159988958064168
841.0, 0.18602135515533025
842.0, 0.1942231895797663
843.0, 0.197249555227413
844.0, 0.20083408804897215
845.0, 0.22079510278686518
846.0, 0.23490644016682224
847.0, 0.2411069411017283
848.0, 0.24701035101349197
849.0, 0.2776195781811352
850.0, 0.2858651951626965
851.0, 0.30045821434414777
852.0, 0.32595422899091603
853.0, 0.35896706243663884
854.0, 0.35960087246734695
855.0, 0.38129163083413287
856.0, 0.4020547646019561
857.0, 0.41949194001610857
858.0, 0.4404820172745898
859.0, 0.4739969331494614
860.0, 0.4947008902666349
861.0, 0.5155320895019958
862.0, 0.5447950812792854
863.0, 0.5837237015473303
864.0, 0.618349173168659
865.0, 0.6482437829473991
866.0, 0.676228341923027
867.0, 0.7057061121145533
868.0, 0.7379091142377358
869.0, 0.7685470345246845
870.0, 0.7972641297533486
871.0, 0.8237526439886512
872.0, 0.8477103814381374
873.0, 0.8655056215985464
874.0, 0.8923794023123592
875.0, 0.9156028729516339
876.0, 0.9314978451293611
877.0, 0.9613040129271009
878.0, 0.9609934073819171
879.0, 0.9660511621972365
880.0, 0.9804077176191699
881.0, 0.9999110827384957
882.0, 0.9986408361455782
883.0, 0.9931084491601171
884.0, 0.9870059017601391
885.0, 0.9852036687761638
886.0, 0.9946257506738313
887.0, 0.9758341096817384
888.0, 0.9607419562867102
889.0, 0.9595679542391357
890.0, 0.9625427402188235
891.0, 0.9106919395064937
892.0, 0.9000341210045196
893.0, 0.8739543989085516
894.0, 0.837965311511461
895.0, 0.8056599090253526
896.0, 0.7791022518210778
897.0, 0.7301489180098804
898.0, 0.6937873549129389
899.0, 0.6651518778728448
900.0, 0.6204136011665924
901.0, 0.601138409960428
902.0, 0.5593814945707593
903.0, 0.5150049868511162
904.0, 0.4785734950550649
905.0, 0.4510031329292604
906.0, 0.4225183386835733
907.0, 0.38286085217253957
908.0, 0.3540488076801496
909.0, 0.3439826069581163
910.0, 0.2993640965273412
911.0, 0.2817670414540547
912.0, 0.25398221138023297
913.0, 0.22508416423582314
914.0, 0.21299911393023488
915.0, 0.19954843747972897
916.0, 0.1755807268934172
917.0, 0.153628524395163
918.0, 0.13655873001604482
919.0, 0.12164660960250466
920.0, 0.11110978491525898
921.0, 0.1016452427513247
922.0, 0.08983314390735653
923.0, 0.07422044774237664
924.0, 0.05588261543419618
925.0, 0.05078565579930674
926.0, 0.039058432800478944
927.0, 0.032954153383102154
928.0, 0.03676443903873854
929.0, 0.01792503861204434
930.0, 0.015339937269946183
931.0, 0.008332171455477197
932.0, 0.0011620431624598606
933.0, 0.0025671685244131118
934.0, 0.013465146626316687
935.0, 0.006032443299917244
936.0, 0.011237659373992688
937.0, 0.023844363837489727
938.0, 0.021881150205431254
939.0, 0.01745490939459608
940.0, 0.026129764775294387
941.0, 0.028402508068594054
942.0, 0.021433030296706103
943.0, 0.017970297951952686
944.0, 0.024067805800310815
945.0, 0.017758441587604326
946.0, 0.014261788002794287
947.0, 0.01845740147034207
948.0, 0.014683711958393946
949.0, 0.008467134741865258
950.0, 0.005379522959411315
951.0, 0.00739668268309557
952.0, 0.013207671799985415
953.0, 0.011336722398917833
954.0, 0.02242728007375271
955.0, 0.03281862797855521
956.0, 0.04419386710017406
957.0, 0.058891877881298266
958.0, 0.06388403916399356
959.0, 0.06887657061951896
960.0, 0.08324057158108698
961.0, 0.0984737785965092
962.0, 0.10175546648131448
963.0, 0.11683313384444446
964.0, 0.13760385520034102
965.0, 0.1490794966493093
966.0, 0.15699491132369542
967.0, 0.17910515650862685
968.0, 0.19431176348917295
969.0, 0.19987617561101356
970.0, 0.21104777415603987
971.0, 0.2289419623907491
972.0, 0.24141434246183613
973.0, 0.24310412017169172
974.0, 0.24920633312188425
975.0, 0.25759190499893125
976.0, 0.2665411938537416
977.0, 0.275159394157178
978.0, 0.2647971105025744
979.0, 0.2602978323285472
980.0, 0.26274678052589195
981.0, 0.26696115669574383
982.0, 0.25618949771817656
983.0, 0.2559441061054333
984.0, 0.25461990637491083
985.0, 0.2549537352247854
986.0, 0.25604557199921957
987.0, 0.24138315413424033
988.0, 0.23691190896144884
989.0, 0.23102245576499472
990.0, 0.22411670636636574
991.0, 0.21800706433869482
992.0, 0.21317914766178092
993.0, 0.21526169889358232
994.0, 0.210025213717076
995.0, 0.202857600046929
996.0, 0.20125584649272094
997.0, 0.20183698743056377
998.0, 0.19734392446141316
999.0, 0.1911226386486306
1000.0, 0.1834521742858324
1001.0, 0.1744642042093325
1002.0, 0.16814760908259804
1003.0, 0.16431909218718435
1004.0, 0.16443403864517006
1005.0, 0.16252587005959163
1006.0, 0.1528169226827998
1007.0, 0.15487224449772014
1008.0, 0.15080580145610573
1009.0, 0.1519896734705555
1010.0, 0.15369325478266646
1011.0, 0.14721068167944404
1012.0, 0.15173402798255217
1013.0, 0.15787113229985208
1014.0, 0.16017876830267475
1015.0, 0.15942860524751504
1016.0, 0.1598726806743864
1017.0, 0.17327418689565827
1018.0, 0.16628674691342576
1019.0, 0.1724480265847139
1020.0, 0.18396840882111404
1021.0, 0.1770083297295827
1022.0, 0.19288696377480716
1023.0, 0.203604045103975
1024.0, 0.2073114905325993
1025.0, 0.21391179576152405
1026.0, 0.23602682037093112
1027.0, 0.22869640453569373
1028.0, 0.22929852237066967
1029.0, 0.24252192010932813
1030.0, 0.2548752145623636
1031.0, 0.2470555285292211
1032.0, 0.2654274311495578
1033.0, 0.27065975636203793
1034.0, 0.26941615117928086
1035.0, 0.2717405437365028
1036.0, 0.286767751079017
1037.0, 0.2794206517111152
1038.0, 0.28407570462404996
1039.0, 0.2918445338858594
1040.0, 0.2938108104285114
1041.0, 0.28373168727737713
1042.0, 0.29171948886793536
1043.0, 0.28759045649277004
1044.0, 0.27988167312990886
1045.0, 0.27375451446503507
1046.0, 0.2719746757864765
1047.0, 0.2656014220385926
1048.0, 0.26945638440890585
1049.0, 0.2573970371952646
1050.0, 0.2382822322440851
1051.0, 0.23264198642853573
1052.0, 0.24013565168642545
1053.0, 0.23182864845731788
1054.0, 0.21402181805454362
1055.0, 0.20037674162223182
1056.0, 0.20091426528089834
1057.0, 0.18362454536743483
1058.0, 0.182864587055518
1059.0, 0.1743333768095356
1060.0, 0.1646110973589902
1061.0, 0.16390263677403136
1062.0, 0.1575113555229488
1063.0, 0.14461520314235757
1064.0, 0.14482831182458272
1065.0, 0.14759346012891414
1066.0, 0.14106046073494968
1067.0, 0.13366848828040948
1068.0, 0.13561870343892907
1069.0, 0.13671041223230787
1070.0, 0.1357519955918922
1071.0, 0.13462706279448164
1072.0, 0.14014691611646585
1073.0, 0.14200366104741305
1074.0, 0.1378273771762427
1075.0, 0.1425685231962852
1076.0, 0.1575619878513067
1077.0, 0.15164995351762714
1078.0, 0.17260678744643235
1079.0, 0.17748247851112553
1080.0, 0.17827072502402283
1081.0, 0.1826696504116517
1082.0, 0.1866194352019139
1083.0, 0.18816095992928508
1084.0, 0.19194950540882036
1085.0, 0.19420452121555684
1086.0, 0.1909841600665786
1087.0, 0.17896763386142675
1088.0, 0.18671956948881624
1089.0, 0.1789338529344272
1090.0, 0.17220770757892082
1091.0, 0.16672244063666294
1092.0, 0.1521200455969243
1093.0, 0.1386638668343597
1094.0, 0.13414961809050335
1095.0, 0.12308928244198801
1096.0, 0.10665517291248065
1097.0, 0.09265696255187725
1098.0, 0.0788789373783811
1099.0, 0.0700947825823692
1100.0, 0.05673027082347999
1101.0, 0.04410837254575827
1102.0, 0.03903072536798136
1103.0, 0.036120054131120426
1104.0, 0.026089057355190636
1105.0, 0.02367912956190802
1106.0, 0.02095437289644049
1107.0, 0.012687327416845121
1108.0, 0.0101302201771716
1109.0, 0.003172185835664102
1110.0, 0.0017214783861693504
1111.0, 0.003190720179823306
1112.0, 0.0056109949955186825
1113.0, 0.009569250710354185
1114.0, 0.005797542905060417
1115.0, 0.00840489904673504
1116.0, 0.009204693577633738
1117.0, 0.007506663694950701
1118.0, 0.0090303023314537
1119.0, 0.007918010444151755
1120.0, 0.009896989564455571
1121.0, 0.00997973618573764
1122.0, 0.01058455220829041
1123.0, 0.01548547927893591
1124.0, 0.01174505610433978
1125.0, 0.012212034233774727
1126.0, 0.010389498280149087
1127.0, 0.00724437138764276
1128.0, 0.004767869769952228
1129.0, 0.0017422888009575653
1130.0, 0.006560480054792448
1131.0, 0.00934362302579724
1132.0, 0.0070233365377034025
1133.0, 0.0021525647925721954
1134.0, 0.005335444162167319
1135.0, 0.01624359540387288
1136.0, 0.016861081638933118
1137.0, 0.019494377469346166
1138.0, 0.02821716535438826
1139.0, 0.03847836414709519
1140.0, 0.04250436185767197
1141.0, 0.04653352798413423
1142.0, 0.05604626474764338
1143.0, 0.06873598469544842
1144.0, 0.07967021145011656
1145.0, 0.08971321063531562
1146.0, 0.10152265489850373
1147.0, 0.12165185927649333
1148.0, 0.13796961688952303
1149.0, 0.1447633592588908
1150.0, 0.1618354702891966
1151.0, 0.19174102673001983
1152.0, 0.20942741909647264
1153.0, 0.22709300412690217
1154.0, 0.2491856985504819
1155.0, 0.26851177488860367
1156.0, 0.2981435865228295
1157.0, 0.33095073563534155
1158.0, 0.3567291527933759
1159.0, 0.3844149647513772
1160.0, 0.42624004334653487
1161.0, 0.446355195568665
1162.0, 0.4778036613851636
1163.0, 0.5132186181143644
1164.0, 0.547037833632349
1165.0, 0.5756223792719487
1166.0, 0.5992533932001376
1167.0, 0.645296573100703
1168.0, 0.6770153622135017
1169.0, 0.7031573379995708
1170.0, 0.7325680055080895
1171.0, 0.7693066404679849
1172.0, 0.7909650270499987
1173.0, 0.8194702362218779
1174.0, 0.8427400629336003
1175.0, 0.8600031702698712
1176.0, 0.8744021415356324
1177.0, 0.8796617120595182
1178.0, 0.8653256195757305
1179.0, 0.8653336652677668
1180.0, 0.8612530377154765
1181.0, 0.8412785689784824
1182.0, 0.8236892025871546
1183.0, 0.8228564547430776
1184.0, 0.8042120318404229
1185.0, 0.7806322057822634
1186.0, 0.7640090229234122
1187.0, 0.7599981999152375
1188.0, 0.7363682073053397
1189.0, 0.7280485126887001
1190.0, 0.7147405163192261
1191.0, 0.7027717079285929
1192.0, 0.699610328924033
1193.0, 0.6930915826947196
1194.0, 0.6822976374586706
1195.0, 0.6748459758124601
1196.0, 0.6690762099698601
1197.0, 0.661426364774942
1198.0, 0.6484246157908362
1199.0, 0.6493687631261587
1200.0, 0.6430642157862876
1201.0, 0.6416256541357445
1202.0, 0.6402436938568662
1203.0, 0.6311991144075023
1204.0, 0.6221485419714535
1205.0, 0.6047591073612668
1206.0, 0.5974811431480413
1207.0, 0.5904751206439223
1208.0, 0.5801425832881386
1209.0, 0.5749216834393246
1210.0, 0.5613216432388225
1211.0, 0.5477221694141474
1212.0, 0.5443407242080535
1213.0, 0.5428615739366436
1214.0, 0.5312165257510285
1215.0, 0.5191251164036534
1216.0, 0.5231298739306949
1217.0, 0.5134508775430185
1218.0, 0.515381182999216
1219.0, 0.5277398215539225
1220.0, 0.5065090615381407
1221.0, 0.5065538971425333
1222.0, 0.5215734309150595
1223.0, 0.528329222010685
1224.0, 0.5308687463506039
1225.0, 0.5418850557391711
1226.0, 0.5550969398784706
1227.0, 0.549019960301724
1228.0, 0.5765472691307668
1229.0, 0.5980295701174163
1230.0, 0.5944465017517709
1231.0, 0.588864116772086
1232.0, 0.6208326659706973
1233.0, 0.6148696752596456
1234.0, 0.6252914496136879
1235.0, 0.6447851193935502
1236.0, 0.6488258869682924
1237.0, 0.6417777342537071
1238.0, 0.6627490389246695
1239.0, 0.6692577515569392
1240.0, 0.6631066939869624
1241.0, 0.6601943767111196
1242.0, 0.6796993581381031
1243.0, 0.6670206356813938
1244.0, 0.6574149410186624
1245.0, 0.6525995159037615
1246.0, 0.6437443069167244
1247.0, 0.6295576620713135
1248.0, 0.6338114572088343
1249.0, 0.6071043473370369
1250.0, 0.5931948618431397
1251.0, 0.5870159793287137
1252.0, 0.5792637588639247
1253.0, 0.561566970845859
1254.0, 0.5384312550437234
1255.0, 0.5327414738159993
1256.0, 0.5089428625476561
1257.0, 0.49113834812011287
1258.0, 0.4890329419913499
1259.0, 0.4743263460796945
1260.0, 0.4434441795977269
1261.0, 0.43522158508864894
1262.0, 0.4218740869768762
1263.0, 0.4030571005858702
1264.0, 0.389609122238204
1265.0, 0.38720445228190953
1266.0, 0.37288345260932193
1267.0, 0.35993696375807577
1268.0, 0.3538367780501174
1269.0, 0.34610524047818764
1270.0, 0.3241535880609895
1271.0, 0.3369122459744785
1272.0, 0.31862279988865244
1273.0, 0.30586144856155545
1274.0, 0.30547213215098373
1275.0, 0.3077512597078277
1276.0, 0.28922273000333754
1277.0, 0.28840965026448895
1278.0, 0.3014294432651038
1279.0, 0.29806310615881
1280.0, 0.29135031611753254
1281.0, 0.3027044228232979
1282.0, 0.3166205776496452
1283.0, 0.29475916664727847
1284.0, 0.30140098749971866
1285.0, 0.3073961460772143
1286.0, 0.3058547154581814
1287.0, 0.31102901358170815
1288.0, 0.3198706964133579
1289.0, 0.31647913738042427
1290.0, 0.3195009103833144
1291.0, 0.3286857932948733
1292.0, 0.3391569684011216
1293.0, 0.3458533651092757
1294.0, 0.36182831054668574
1295.0, 0.35696461364707427
1296.0, 0.3606078841927281
1297.0, 0.3732184917706658
1298.0, 0.3834239778611223
1299.0, 0.376898771506302
1300.0, 0.3906003414920436
1301.0, 0.3921196505632979
1302.0, 0.393085114884499
1303.0, 0.39639973035134257
1304.0, 0.4011836731626567
1305.0, 0.4125843209183663
1306.0, 0.4036913259738126
1307.0, 0.4115407930783196
1308.0, 0.41870713355473926
1309.0, 0.415916269866236
1310.0, 0.4068789166435765
1311.0, 0.40696538302570745
1312.0, 0.40705054498073606
1313.0, 0.40854568798075597
1314.0, 0.4077143045211752
1315.0, 0.4021553447052748
1316.0, 0.3935470282802429
1317.0, 0.39924838937285423
1318.0, 0.3869277510890462
1319.0, 0.3826576534416949
1320.0, 0.38335082553718824
1321.0, 0.37742405233374976
1322.0, 0.35492981166502063
1323.0, 0.36317814896799794
1324.0, 0.3511725316008798
1325.0, 0.33611339696194975
1326.0, 0.3260457715791815
1327.0, 0.31822409035954213
1328.0, 0.29574314272347346
1329.0, 0.2993593916111094
1330.0, 0.2920184607867433
1331.0, 0.2800139689915678
1332.0, 0.26850778171477757
1333.0, 0.26030420181161174
1334.0, 0.25420357693607026
1335.0, 0.23913395148503128
1336.0, 0.23284666456402617
1337.0, 0.2235358592247374
1338.0, 0.21011007015494151
1339.0, 0.19907490681487344
1340.0, 0.197590502761955
1341.0, 0.1810138530604239
1342.0, 0.17241545958474364
1343.0, 0.16905562867844176
1344.0, 0.16220552140058683
1345.0, 0.1468914101635218
1346.0, 0.144909410652886
1347.0, 0.13483618878302195
1348.0, 0.12713782603250268
1349.0, 0.12215684371008971
1350.0, 0.11387621363842658
1351.0, 0.0972540774798925
1352.0, 0.09284747759901418
1353.0, 0.09503717798839725
1354.0, 0.08606817927103363
1355.0, 0.07663271700009591
1356.0, 0.07232235919291997
1357.0, 0.06931633021385213
1358.0, 0.056697466949838675
1359.0, 0.05759971093635638
1360.0, 0.05589615795088345
1361.0, 0.05071242553999973
1362.0, 0.04343409002826602
1363.0, 0.03563508268151166
1364.0, 0.02954021499721153
1365.0, 0.02858689500115168
1366.0, 0.02753372612956922
1367.0, 0.01936189697930475
1368.0, 0.011069535130782421
1369.0, 0.01727041031730149
1370.0, 0.014163429301573303
1371.0, 0.004986820005829741
1372.0, 0.006346235108032893
1373.0, 0.006888428011380393
1374.0, 0.005181686538259768
1375.0, 0.010010432805251702
1376.0, 0.006150101739908058
1377.0, 0.007155251417788273
1378.0, 0.00896403843182237
1379.0, 0.008327890261046435
1380.0, 0.008888102252630814
1381.0, 0.01586084053192395
1382.0, 0.008060518425407195
1383.0, 0.006599231822839444
1384.0, 0.00886619508568506
1385.0, 0.006403158383718343
1386.0, 0.001959014148295247
1387.0, 0.004957003984662369
1388.0, 0.006186140125438851
1389.0, 0.001739877271629788
1390.0, 0.006177552995090049
1391.0, 0.008985241966499878
1392.0, 0.005916376622257961
1393.0, 0.001793119729690811
1394.0, 0.007939780893991482
1395.0, 0.0063832517685210284
1396.0, 0.005608615234092393
1397.0, 0.004559891955769625
1398.0, 0.007419741415396098
1399.0, 0.016638499170020152
1400.0, 0.01589432725409709
1401.0, 0.010280401021683837
1402.0, 0.01756046648337018
1403.0, 0.019091077647931328
1404.0, 0.016601156444349324
1405.0, 0.020988683393143033
1406.0, 0.03210307273847634
1407.0, 0.028986184669871472
1408.0, 0.03635284714958137
1409.0, 0.03854471997518845
1410.0, 0.036353059926736986
1411.0, 0.03820437445778638
1412.0, 0.04979425570182561
1413.0, 0.050661142835981485
1414.0, 0.051534891935149756
1415.0, 0.05600316554548944
1416.0, 0.06281143405818314
1417.0, 0.06751745196560185
1418.0, 0.06555888336936849
1419.0, 0.07785775007683694
1420.0, 0.07061712927526799
1421.0, 0.0759940662055982
1422.0, 0.08690797849861978
1423.0, 0.08941656584040669
1424.0, 0.08039618528488186
1425.0, 0.10206523979139959
1426.0, 0.09863831475552233
1427.0, 0.10073907342612934
1428.0, 0.11169290312961788
1429.0, 0.11915175955889715
1430.0, 0.11095552449254348
1431.0, 0.11762974082232382
1432.0, 0.12532567092167113
1433.0, 0.12288829300523896
1434.0, 0.1260316977154959
1435.0, 0.13312072693985566
1436.0, 0.13262859167364763
1437.0, 0.12202186706807229
1438.0, 0.1329738974441435
1439.0, 0.1281454499353069
1440.0, 0.12454622456079602
1441.0, 0.12589819543514394
1442.0, 0.12764600535723744
1443.0, 0.12372380749064416
1444.0, 0.12434134170226203
1445.0, 0.13022669184107008
1446.0, 0.12420423814575197
1447.0, 0.11870559499060498
1448.0, 0.12021486640690673
1449.0, 0.11897891831989248
1450.0, 0.11254672659723657
1451.0, 0.12119026600665114
1452.0, 0.11635903333728899
1453.0, 0.10954298197268877
1454.0, 0.10752759431366297
1455.0, 0.10713949004123649
1456.0, 0.10100688839784495
1457.0, 0.09884350637332616
1458.0, 0.10041565674118073
1459.0, 0.09334924339466635
1460.0, 0.08754003160367106
1461.0, 0.08924515694966242
1462.0, 0.07767056556241764
1463.0, 0.07052634979680146
1464.0, 0.07224105433822219
1465.0, 0.06771131280195274
1466.0, 0.06076872279122718
1467.0, 0.05892266124977886
1468.0, 0.06347455800427149
1469.0, 0.05228717451552151
1470.0, 0.04733007273901428
1471.0, 0.04749244578931706
1472.0, 0.04358358250526941
1473.0, 0.036294336229910365
1474.0, 0.03281892493396825
1475.0, 0.036202082271848596
1476.0, 0.02405683605733282
1477.0, 0.02836267306596661
1478.0, 0.024862048711529243
1479.0, 0.01438634744745814
1480.0, 0.009644818815002777
1481.0, 0.019523162520706086
1482.0, 0.006222201693166958
1483.0, 0.00557767302874697
1484.0, 0.01194224094550512
1485.0, 0.009085871460340893
1486.0, 0.0007417283363955448
1487.0, 0.0016381985807164717
1488.0, 0.0008588021676181102
1489.0, 0.0003265404407157629
1490.0, 0.0071503374034553955
1491.0, 0.0051101783176633825
1492, 0.0
1493, 0.0
1494, 0.0
1495, 0.0
1496, 0.0
1497, 0.0
1498, 0.0
1499, 0.0
1500, 0.0
1501, 0.0
1502, 0.0
1503, 0.0
1504, 0.0
1505, 0.0
1506, 0.0
1507, 0.0
1508, 0.0
1509, 0.0
1510, 0.0
1511, 0.0
1512, 0.0
1513, 0.0
1514, 0.0
1515, 0.0
1516, 0.0
1517, 0.0
1518, 0.0
1519, 0.0
1520, 0.0
1521, 0.0
1522, 0.0
1523, 0.0
1524, 0.0
1525, 0.0
1526, 0.0
1527, 0.0
1528, 0.0
1529, 0.0
1530, 0.0
1531, 0.0
1532, 0.0
1533, 0.0
1534, 0.0
1535, 0.0
1536, 0.0
1537, 0.0
1538, 0.0
1539, 0.0
1540, 0.0
1541, 0.0
1542, 0.0
1543, 0.0
1544, 0.0
1545, 0.0
1546, 0.0
1547, 0.0
1548, 0.0
1549, 0.0
1550, 0.0
1551, 0.0
1552, 0.0
1553, 0.0
1554, 0.0
1555, 0.0
1556, 0.0
1557, 0.0
1558, 0.0
1559, 0.0
1560, 0.0
1561, 0.0
1562, 0.0
1563, 0.0
1564, 0.0
1565, 0.0
1566, 0.0
1567, 0.0
1568, 0.0
1569, 0.0
1570, 0.0
1571, 0.0
1572, 0.0
1573, 0.0
1574, 0.0
1575, 0.0
1576, 0.0
1577, 0.0
1578, 0.0
1579, 0.0
1580, 0.0
1581, 0.0
1582, 0.0
1583, 0.0
1584, 0.0
1585, 0.0
1586, 0.0
1587, 0.0
1588, 0.0
1589, 0.0
1590, 0.0
1591, 0.0
1592, 0.0
1593, 0.0
1594, 0.0
1595, 0.0
1596, 0.0
1597, 0.0
1598, 0.0
1599, 0.0
