30, 0.0
31, 0.0
32, 0.0
33, 0.0
34, 0.0
35, 0.0
36, 0.0
37, 0.0
38, 0.0
39, 0.0
40, 0.0
41, 0.0
42, 0.0
43, 0.0
44, 0.0
45, 0.0
46, 0.0
47, 0.0
48, 0.0
49, 0.0
50, 0.0
51, 0.0
52, 0.0
53, 0.0
54, 0.0
55, 0.0
56, 0.0
57, 0.0
58, 0.0
59, 0.0
60, 0.0
61, 0.0
62, 0.0
63, 0.0
64, 0.0
65, 0.0
66, 0.0
67, 0.0
68, 0.0
69, 0.0
70, 0.0
71, 0.0
72, 0.0
73, 0.0
74, 0.0
75, 0.0
76, 0.0
77, 0.0
78, 0.0
79, 0.0
80, 0.0
81, 0.0
82, 0.0
83, 0.0
84, 0.0
85, 0.0
86, 0.0
87, 0.0
88, 0.0
89, 0.0
90, 0.0
91, 0.0
92, 0.0
93, 0.0
94, 0.0
95, 0.0
96, 0.0
97, 0.0
98, 0.0
99, 0.0
100, 0.0
101, 0.0
102, 0.0
103, 0.0
104, 0.0
105, 0.0
106, 0.0
107, 0.0
108, 0.0
109, 0.0
110, 0.0
111, 0.0
112, 0.0
113, 0.0
114, 0.0
115, 0.0
116, 0.0
117, 0.0
118, 0.0
119, 0.0
120, 0.0
121, 0.0
122, 0.0
123, 0.0
124, 0.0
125, 0.0
126, 0.0
127, 0.0
128, 0.0
129, 0.0
130, 0.0
131.0, 0.004329548668123949
132.0, 0.05276368339839953
133.0, 0.13278742100562532
134.0, 0.19209260431378883
135.0, 0.1861161774152179
136.0, 0.14708804750317384
137.0, 0.1592848942628454
138.0, 0.24101741499744128
139.0, 0.33857213381765877
140.0, 0.35011090305072845
141.0, 0.24204346046450792
142.0, 0.1217286672979852
143.0, 0.04791875297702048
144.0, 0.023743410631370976
145.0, 0.010595627567803963
146.0, 0.013161039860592728
147.0, 0.02799410881929628
148.0, 0.057350722174760456
149.0, 0.09896033901065941
150.0, 0.13389442257801829
151.0, 0.16116589132339426
152.0, 0.18702906298500954
153.0, 0.215932277015725
154.0, 0.258068083078697
155.0, 0.3146359233154947
156.0, 0.3722056820252427
157.0, 0.4060085109991322
158.0, 0.3921291143935123
159.0, 0.33184983431113807
160.0, 0.24813699142367585
161.0, 0.16862739108792846
162.0, 0.1001115945632155
163.0, 0.04779869963218161
164.0, 0.010360206884668531
165.0, 0.014207867884366135
166.0, 0.02490352583303016
167.0, 0.026838146317488272
168.0, 0.020343608926842862
169.0, 0.009825289544060775
170.0, 0.00400044311104451
171.0, 0.010442703986781782
172.0, 0.03037921126026657
173.0, 0.05286394139326725
174.0, 0.07579524583982099
175.0, 0.09642957712152547
176.0, 0.11093538187346881
177.0, 0.11621042836690451
178.0, 0.11148199725344823
179.0, 0.09972639598546398
180.0, 0.08688421540932525
181.0, 0.08435308386397994
182.0, 0.09419571639648497
183.0, 0.10882886991351456
184.0, 0.12652962787226368
185.0, 0.14125810380328463
186.0, 0.15256711801229644
187.0, 0.16681541796763769
188.0, 0.19540148527436343
189.0, 0.22736566567725705
190.0, 0.23705616838215324
191.0, 0.2214545466971086
192.0, 0.20566654331811166
193.0, 0.19788376674161964
194.0, 0.19799752263824705
195.0, 0.20696665781003895
196.0, 0.2254068087242483
197.0, 0.2426109537099802
198.0, 0.2707786788988269
199.0, 0.30591113215711535
200.0, 0.34080117626340456
201.0, 0.3768070840607265
202.0, 0.4106060083732811
203.0, 0.439744183531574
204.0, 0.4642281906494923
205.0, 0.48680286706696174
206.0, 0.52482866231022
207.0, 0.5649994244448238
208.0, 0.5940126407797347
209.0, 0.6043430756264342
210.0, 0.5934093511956874
211.0, 0.5616774406059872
212.0, 0.5180739889482807
213.0, 0.47523017148057406
214.0, 0.4507271281156809
215.0, 0.43555842260096783
216.0, 0.42851181643084274
217.0, 0.4326092557831116
218.0, 0.4510442709328403
219.0, 0.482443997013143
220.0, 0.5234021081269736
221.0, 0.5667881740894606
222.0, 0.6030826138666662
223.0, 0.6197293475123985
224.0, 0.5887036747889064
225.0, 0.530511016341882
226.0, 0.4640041281624654
227.0, 0.4032224935016889
228.0, 0.35331986692980055
229.0, 0.31518674288502346
230.0, 0.28716808050087833
231.0, 0.2696806241618119
232.0, 0.2664258605619918
233.0, 0.2732969160301563
234.0, 0.2888346590604014
235.0, 0.30932717176765556
236.0, 0.3294724732696596
237.0, 0.34961059327143607
238.0, 0.35646420927815997
239.0, 0.3509570034795183
240.0, 0.3320244448100615
241.0, 0.29204081016658917
242.0, 0.24484562187893213
243.0, 0.20190968609925614
244.0, 0.16674719472656657
245.0, 0.13875212026977587
246.0, 0.11838536031891413
247.0, 0.10627099475575191
248.0, 0.1022401694210031
249.0, 0.10387527708960789
250.0, 0.1067717709078809
251.0, 0.11057490230653712
252.0, 0.11087101863444013
253.0, 0.10594566279689176
254.0, 0.09510435159135876
255.0, 0.07665932193580871
256.0, 0.05529706438141023
257.0, 0.03562179312936512
258.0, 0.018447341793200445
259.0, 0.0030727777797259844
260.0, 0.0016864383111080401
261.0, 0.00022473688809000953
262.0, 0.0001152387920772176
263.0, 0.005336142366503597
264.0, 0.010901139431599182
265.0, 0.014885717402000493
266.0, 0.02152419903916947
267.0, 0.030184317502182024
268.0, 0.03670751375536364
269.0, 0.041665571062932394
270.0, 0.047619313089861295
271.0, 0.053644522793876215
272.0, 0.05947126010540469
273.0, 0.06684106680394696
274.0, 0.07407317419652872
275.0, 0.08052773300155691
276.0, 0.09015579013898306
277.0, 0.1050333117146648
278.0, 0.1125485785404041
279.0, 0.11984648798449607
280.0, 0.1232211014212548
281.0, 0.11939620737240418
282.0, 0.10830035186274221
283.0, 0.0903030111589398
284.0, 0.06946503606367019
285.0, 0.047165427000068504
286.0, 0.025448671214993238
287.0, 0.009075886558827791
288.0, 0.004598653936814983
289.0, 0.0022164383682887166
290.0, 0.0077840398609269725
291.0, 0.004617187550527197
292.0, 0.00815875217105276
293.0, 0.006887370223531707
294.0, 0.0035106598679143
295.0, 0.0015114900495838042
296.0, 0.007152406502876306
297.0, 0.00932434924508677
298.0, 0.013258713858359637
299.0, 0.020539451925300885
300.0, 0.02950242694810828
301.0, 0.03810891827768803
302.0, 0.04535028252216855
303.0, 0.05321173459480822
304.0, 0.06099650871783052
305.0, 0.06736785826350233
306.0, 0.07301774563609553
307.0, 0.07659922257683938
308.0, 0.07911380133541629
309.0, 0.08289761883201482
310.0, 0.08873329487613439
311.0, 0.09011191603035124
312.0, 0.09539644673248093
313.0, 0.10536074386017197
314.0, 0.11632224888680846
315.0, 0.12397248025222304
316.0, 0.1257841566088554
317.0, 0.1312160555708176
318.0, 0.13820310656613782
319.0, 0.1404766682938132
320.0, 0.13515677615053984
321.0, 0.12940929924287398
322.0, 0.12253627108799409
323.0, 0.11578430111385175
324.0, 0.11157753152246323
325.0, 0.10974795585709725
326.0, 0.11005443122550286
327.0, 0.11257611783454997
328.0, 0.11658040416489401
329.0, 0.12094655851911851
330.0, 0.12899746271420015
331.0, 0.14017786288012965
332.0, 0.15113343461533327
333.0, 0.1600033787290417
334.0, 0.16829924228723997
335.0, 0.18187348729953956
336.0, 0.19398941007590412
337.0, 0.20818699719443212
338.0, 0.22635714716660313
339.0, 0.23925017391449796
340.0, 0.254954336951634
341.0, 0.271699224168021
342.0, 0.28653271161577926
343.0, 0.2969512546349088
344.0, 0.2963630186525477
345.0, 0.28928966649193505
346.0, 0.27447482073008084
347.0, 0.2530263401144588
348.0, 0.22709633338535273
349.0, 0.19423085125334416
350.0, 0.162389425813265
351.0, 0.1344768333829861
352.0, 0.10937689401463731
353.0, 0.08590119081707219
354.0, 0.06842869661072241
355.0, 0.0521207392787622
356.0, 0.037501122900945476
357.0, 0.026201254354253783
358.0, 0.017983576637927795
359.0, 0.010258645230213947
360.0, 0.0022255125634262672
361.0, 0.002552572270958189
362.0, 0.0021496043409558827
363.0, 0.006611802552135264
364.0, 0.009768873303879605
365.0, 0.012848386429249181
366.0, 0.013845039499561297
367.0, 0.01249072200965835
368.0, 0.013277422929668055
369.0, 0.0146523633889677
370.0, 0.012875419303560986
371.0, 0.009250020171537842
372.0, 0.00646887001008601
373.0, 0.006735011657709742
374.0, 0.004312944509400296
375.0, 0.0016685260017749572
376.0, 0.0024438392899788133
377.0, 0.00765545783438755
378.0, 0.0050763093483582504
379.0, 0.008210574825821448
380.0, 0.012317046556673643
381.0, 0.01528390069430112
382.0, 0.01803649061987976
383.0, 0.016893884986063815
384.0, 0.014670710183672293
385.0, 0.015541990132259554
386.0, 0.01866616908053687
387.0, 0.021109534598193765
388.0, 0.024091668207157503
389.0, 0.032774553617764664
390.0, 0.041863386985135226
391.0, 0.04854754792528782
392.0, 0.05537814661120068
393.0, 0.06729699186703546
394.0, 0.07787145146940205
395.0, 0.08800634036320015
396.0, 0.0978682190155368
397.0, 0.10498599752034404
398.0, 0.10313465018671522
399.0, 0.1023058743000766
400.0, 0.09656414055369764
401.0, 0.08815287064408563
402.0, 0.08413600470130017
403.0, 0.07922246987176544
404.0, 0.07926683392152414
405.0, 0.07969733438551771
406.0, 0.08102716600295216
407.0, 0.08782166426429443
408.0, 0.09762693080078326
409.0, 0.10584458918534917
410.0, 0.11434623793882824
411.0, 0.12638633874218655
412.0, 0.14267317151195513
413.0, 0.15784576470178674
414.0, 0.16962099030468358
415.0, 0.18321617564688814
416.0, 0.2001835209404272
417.0, 0.21814775514958223
418.0, 0.23658290777924176
419.0, 0.2588099166064347
420.0, 0.28473578271035954
421.0, 0.3149866390281057
422.0, 0.3506605186844392
423.0, 0.3884454376261606
424.0, 0.4319514424938544
425.0, 0.473817809323479
426.0, 0.5199125840669073
427.0, 0.5780000606792378
428.0, 0.6321914537096699
429.0, 0.7023282436400993
430.0, 0.7684276477198054
431.0, 0.8269338351863704
432.0, 0.887546561492619
433.0, 0.9514331431111097
434.0, 0.9890597695953569
435.0, 0.9998260577460623
436.0, 0.9864821283415031
437.0, 0.9460414823974803
438.0, 0.8702527584299317
439.0, 0.7785581014565229
440.0, 0.6888246968179157
441.0, 0.5999072206784524
442.0, 0.5123756342559617
443.0, 0.4382359515552302
444.0, 0.37167682318665407
445.0, 0.31672361598600113
446.0, 0.2706465979465983
447.0, 0.22948173154550847
448.0, 0.19197987308356543
449.0, 0.15744378542993825
450.0, 0.1304678112533579
451.0, 0.10314536551491589
452.0, 0.07785130762732226
453.0, 0.06492617815441
454.0, 0.04327463336103958
455.0, 0.028468761785985817
456.0, 0.020841746586351833
457.0, 0.0153841065176306
458.0, 0.010834514037289454
459.0, 0.013462174230834347
460.0, 0.013663087912421254
461.0, 0.01554585345817978
462.0, 0.019648287387598107
463.0, 0.023190120405591333
464.0, 0.027250365419126205
465.0, 0.026971014186913767
466.0, 0.02637022935420646
467.0, 0.023526590707267103
468.0, 0.01755042333423121
469.0, 0.015022779475832316
470.0, 0.010615795835550015
471.0, 0.011221956806494024
472.0, 0.019662640456880712
473.0, 0.03271690724915812
474.0, 0.04490218994083196
475.0, 0.0608373975957135
476.0, 0.07769854015231081
477.0, 0.09643593868005482
478.0, 0.11699899078830728
479.0, 0.13826950128614382
480.0, 0.1644309400592506
481.0, 0.18932669079864214
482.0, 0.21290657980385988
483.0, 0.23818887257933566
484.0, 0.26725102902289855
485.0, 0.29744808890728536
486.0, 0.3246342249728539
487.0, 0.35011523269274336
488.0, 0.36939777613350105
489.0, 0.37851492499519557
490.0, 0.37962747363703725
491.0, 0.36712624284072437
492.0, 0.3413071556212717
493.0, 0.30087993435540655
494.0, 0.24887541366023333
495.0, 0.19684107687858013
496.0, 0.1504123527000375
497.0, 0.10534642603012763
498.0, 0.06918926569213836
499.0, 0.04498870885134905
500.0, 0.028434463401999642
501.0, 0.015394549528952002
502.0, 0.008558547782733269
503.0, 0.007376525197111657
504.0, 0.012858193032815804
505.0, 0.024337246290428015
506.0, 0.0369283720548535
507.0, 0.050148934466595754
508.0, 0.06515727432680546
509.0, 0.08593290739373456
510.0, 0.11277659990967633
511.0, 0.14124946161030433
512.0, 0.1711398018313567
513.0, 0.20760431300373397
514.0, 0.24402483738190775
515.0, 0.27743964367137947
516.0, 0.3105103319115634
517.0, 0.3459959133227531
518.0, 0.3796610074641922
519.0, 0.4008999602444762
520.0, 0.41445310877362335
521.0, 0.41977527774971374
522.0, 0.4060758978497467
523.0, 0.38560985681122767
524.0, 0.3579695333839289
525.0, 0.32494708838383
526.0, 0.2929927697688524
527.0, 0.26521688492999235
528.0, 0.23316336060639375
529.0, 0.206558263560251
530.0, 0.1848000641842478
531.0, 0.1632916965265198
532.0, 0.14094627092223444
533.0, 0.12083614178738195
534.0, 0.10648893822049496
535.0, 0.09478292578283899
536.0, 0.08697104298469462
537.0, 0.08038132009542762
538.0, 0.07317539759162009
539.0, 0.07736763791071062
540.0, 0.08273505601674419
541.0, 0.08461151355284054
542.0, 0.08543532409011897
543.0, 0.08721759702774992
544.0, 0.08759153521852692
545.0, 0.08639846030214568
546.0, 0.08326381702965123
547.0, 0.07983042901370495
548.0, 0.07521007111236586
549.0, 0.0692699036359344
550.0, 0.07083381836932362
551.0, 0.06972751619897331
552.0, 0.07001298096700909
553.0, 0.07028160565876487
554.0, 0.06821097065526273
555.0, 0.0649378759929028
556.0, 0.05986117947075401
557.0, 0.05409052422740156
558.0, 0.04279430307120933
559.0, 0.03011460008484201
560.0, 0.022186998267733682
561.0, 0.014022558461230641
562.0, 0.011348460212386148
563.0, 0.010341178919914762
564.0, 0.008248757695132362
565.0, 0.006032859227228836
566.0, 0.007475292577032942
567.0, 0.013392273110164523
568.0, 0.016649276670117907
569.0, 0.021368762350101284
570.0, 0.025756962764121007
571.0, 0.028028469777612204
572.0, 0.03264772524097519
573.0, 0.030775270669425214
574.0, 0.030808273941143063
575.0, 0.030909026579040915
576.0, 0.02955328176837863
577.0, 0.026998844241350888
578.0, 0.019875719747593862
579.0, 0.008827380274733981
580.0, 0.0026018633661614335
581.0, 0.0005008108431249909
582.0, 0.0011475251452246961
583.0, 0.0031541537279440104
584.0, 0.005707888491373237
585.0, 0.008703249542229785
586.0, 0.010610228048699323
587.0, 0.011171749776911927
588.0, 0.010635734675320134
589.0, 0.00875287439743234
590.0, 0.007730675391503333
591.0, 0.007307191711271313
592.0, 0.006143845766656744
593.0, 0.00556854831193424
594.0, 0.006495568825513613
595.0, 0.005058802479050585
596.0, 0.003754940379260531
597.0, 0.0032293536049483244
598.0, 0.0013928566834134548
599.0, 0.001636024273035764
600.0, 0.0041030766543070085
601.0, 0.00747719517188917
602.0, 0.007225450992005612
603.0, 0.008904119583263393
604.0, 0.011292515660172727
605.0, 0.01317323337705627
606.0, 0.01656735288642179
607.0, 0.018678971696975476
608.0, 0.01838698366632399
609.0, 0.020481514640632074
610.0, 0.02360275565144439
611.0, 0.026014649374678726
612.0, 0.030023257074389686
613.0, 0.03271739173580717
614.0, 0.031225161393567225
615.0, 0.03277750752442346
616.0, 0.03487936783429474
617.0, 0.03341722141502902
618.0, 0.03348908042924379
619.0, 0.033715196924080065
620.0, 0.03369750397257802
621.0, 0.031819796522005825
622.0, 0.03026425905693953
623.0, 0.031449797832379
624.0, 0.033057474084134585
625.0, 0.029180216253508143
626.0, 0.029939868347703333
627.0, 0.03150650610527035
628.0, 0.03313715576785044
629.0, 0.036555502553693206
630.0, 0.03680959915502928
631.0, 0.03749518942037052
632.0, 0.03727000504235618
633.0, 0.03685045282085352
634.0, 0.03748781272217604
635.0, 0.039128071395872974
636.0, 0.04057557207739095
637.0, 0.03721484231519895
638.0, 0.0376273797421476
639.0, 0.03994874997201184
640.0, 0.04074558790378142
641.0, 0.03994596360644977
642.0, 0.03970229282184921
643.0, 0.039792198436978905
644.0, 0.038689629923747706
645.0, 0.036742697211580064
646.0, 0.034879923373925564
647.0, 0.033420302848418716
648.0, 0.031917167763594455
649.0, 0.03235472001090139
650.0, 0.02985827435935101
651.0, 0.026720346342442757
652.0, 0.02542882050802706
653.0, 0.02545337023132186
654.0, 0.02479656989472265
655.0, 0.02242117329472172
656.0, 0.02283112272647842
657.0, 0.021058090291158026
658.0, 0.017536921957886042
659.0, 0.018238828735149915
660.0, 0.019898896714621448
661.0, 0.01930490721420058
662.0, 0.019147713446547948
663.0, 0.017822583836961163
664.0, 0.016454675546595725
665.0, 0.01719951859081213
666.0, 0.017175591943499807
667.0, 0.01715341542920077
668.0, 0.0176221886625953
669.0, 0.01883717375265394
670.0, 0.019222674081505495
671.0, 0.017308357728655566
672.0, 0.015649609376176505
673.0, 0.01699153278540684
674.0, 0.018566459581442016
675.0, 0.01774169928119262
676.0, 0.01715643045660343
677.0, 0.017644497575055137
678.0, 0.01431516583652838
679.0, 0.014235120030493643
680.0, 0.018417832655716383
681.0, 0.018563316909489376
682.0, 0.01589526165511282
683.0, 0.013885168647025761
684.0, 0.01157211352585208
685.0, 0.013505925189030444
686.0, 0.016715344487896366
687.0, 0.015110252341663277
688.0, 0.01336000750466824
689.0, 0.014083238556895352
690.0, 0.013185322728258108
691.0, 0.014432094711317327
692.0, 0.012650444634122723
693.0, 0.011178926086180863
694.0, 0.013219632158705762
695.0, 0.014560283761118712
696.0, 0.01058618846304733
697.0, 0.010199523506789987
698.0, 0.010447923967478033
699.0, 0.010878920049510781
700.0, 0.009734676415789786
701.0, 0.008103499150951265
702.0, 0.008147834645437026
703.0, 0.008592645809597664
704.0, 0.00927211855790669
705.0, 0.008745505363635483
706.0, 0.006617021950601893
707.0, 0.005521864978993395
708.0, 0.006574780325560069
709.0, 0.007027737386458494
710.0, 0.0049428630740474145
711.0, 0.006518838492472082
712.0, 0.0049474349745665756
713.0, 0.003875934821569707
714.0, 0.005552124573779789
715.0, 0.005298807072892629
716.0, 0.004318470563491559
717.0, 0.0054108296070843765
718.0, 0.005041960701796343
719.0, 0.00389148253319602
720.0, 0.00328608442299181
721.0, 0.0036659099714759203
722.0, 0.004879119054168137
723.0, 0.0037912377373420436
724.0, 0.005432585637057662
725.0, 0.0055529175192774675
726.0, 0.004107880422824902
727.0, 0.002991742174594787
728.0, 0.0024928666282722535
729.0, 0.003421933218002683
730.0, 0.0016024574899744144
731.0, 0.0027586447264101744
732.0, 0.0039657580922203015
733.0, 0.0031674458584103763
734.0, 0.0018342779564198136
735.0, 0.0018513782158214353
736.0, 0.00251092136739199
737.0, 0.004508691173086837
738.0, 0.0032681594556747116
739.0, 0.00225619013840293
740.0, 0.004393809313296516
741.0, 0.005171171816487205
742.0, 0.00529001842219795
743.0, 0.00181674506639699
744.0, 0.00013489371681308363
745.0, 0.0016155410564700256
746.0, 0.0027640042799558138
747.0, 0.0011515149002768587
748.0, 0.0027543009471640576
749.0, 0.0012787278066975383
750.0, 0.001778784665571096
751.0, 0.00390798107250388
752.0, 0.00410127382258278
753.0, 0.0014712801522402939
754.0, 0.0001768237064324437
755.0, 0.0016228040127905792
756.0, 0.0005926571526497867
757.0, 0.0006008454774755606
758.0, 0.0007257623649664467
759.0, 0.0001730344719673874
760.0, 0.0011274242153873036
761.0, 0.0012436572159369567
762.0, 0.0013229288260057767
763.0, 0.0003297256320668928
764.0, 0.0018479104920161532
765.0, 0.0019161435522050837
766.0, 0.001653410037486541
767.0, 0.001621714656369766
768.0, 0.0016059024877848192
769.0, 0.0005329156599214593
770.0, 0.0013826611085001818
771.0, 0.0015108240247342032
772.0, 0.0007067319458848888
773.0, 0.0017573277228123535
774.0, 0.00011768684167385083
775.0, 9.847562957821372e-05
776.0, 0.0007092252469003413
777.0, 0.00027226832002847506
778.0, 0.0014751700300825233
779.0, 0.0014827699205754842
780.0, 0.0004596080893556988
781.0, 0.001242514177652565
782.0, 0.0013602376379472539
783.0, 0.0005962774830632762
784.0, 0.0018638464503643174
785.0, 0.0019352079093731946
786.0, 0.0014847546678918452
787.0, 0.0015523163099268025
788.0, 0.001868362736203793
789.0, 0.0011448426342130793
790.0, 0.0008222561933010382
791.0, 0.00045772255174358087
792.0, 0.002430058712638943
793.0, 0.0024868706557681034
794.0, 0.0015910823261684546
795.0, 0.002705180190462365
796.0, 0.001990757193678347
797.0, 0.0007147754904113247
798.0, 0.0014079509078747494
799.0, 0.0011579148957223408
800.0, 0.0007722631130664075
801.0, 0.0031122856548771796
802.0, 0.003538318911833902
803.0, 0.0011917014347701499
804.0, 0.0018993090956486744
805.0, 0.0012193106961207484
806.0, 0.002003471285634114
807.0, 0.003052191065059313
808.0, 0.0006440119284481511
809.0, 0.003753455743462961
810.0, 0.003914593518895769
811.0, 0.001789326724071995
812.0, 0.0021696166677969355
813.0, 0.0030259826341116547
814.0, 0.0036359381047492857
815.0, 0.005549205227565963
816.0, 0.004277333178186597
817.0, 0.005319973125963747
818.0, 0.00625772361889723
819.0, 0.004267747106668179
820.0, 0.0037105270929630404
821.0, 0.0047142187222794845
822.0, 0.0038689184039179102
823.0, 0.005636682091301954
824.0, 0.0056309857769795005
825.0, 0.008098326397719475
826.0, 0.008355220881731767
827.0, 0.008517204969017632
828.0, 0.009404135407767354
829.0, 0.009620839677421424
830.0, 0.01082259122003818
831.0, 0.010041257160537522
832.0, 0.012041151092242073
833.0, 0.011340367683586806
834.0, 0.011325060879083925
835.0, 0.013059966874648693
836.0, 0.013366079326033984
837.0, 0.013282841994665482
838.0, 0.012108563228104833
839.0, 0.012046839856733351
840.0, 0.012612013952563844
841.0, 0.013301105346869164
842.0, 0.013500714420098281
843.0, 0.013501287033768065
844.0, 0.015038634112126891
845.0, 0.017160040252039127
846.0, 0.01575524454290968
847.0, 0.014969214872637549
848.0, 0.015014895993507846
849.0, 0.01552356525661617
850.0, 0.01605723251180187
851.0, 0.015616219040266622
852.0, 0.014882498383871387
853.0, 0.012707270218267832
854.0, 0.009936170398141028
855.0, 0.011277877384541623
856.0, 0.01311201344353011
857.0, 0.011461858655237961
858.0, 0.00773978180443377
859.0, 0.006605432811671129
860.0, 0.0060930972762152005
861.0, 0.006881241672885049
862.0, 0.004557532566521414
863.0, 0.0032039230569360423
864.0, 0.0037851721817056053
865.0, 0.003652288383545992
866.0, 0.0038929371345144724
867.0, 0.0052771497780795895
868.0, 0.00311392454792788
869.0, 0.0032028809158169687
870.0, 0.00038665919408419167
871.0, 0.002556654046488964
872.0, 0.0005820366659952648
873.0, 0.0003231969468551825
874.0, 0.0006713858939902958
875.0, 0.0012942159993441196
876.0, 0.0010147004482560958
877.0, 0.0006163976832210095
878.0, 0.0021432866245745413
879.0, 0.0012043421896398706
880.0, 0.003949483793377297
881.0, 0.0003970140656058606
882.0, 0.005263876993200438
883.0, 0.002810898780750801
884.0, 0.0030710664057669395
885.0, 0.0017519625858612238
886.0, 0.0004306981609539098
887.0, 0.0013795388828924096
888.0, 0.0015826239753443986
889.0, 0.0006967981765930446
890.0, 0.001790354892329729
891.0, 0.0022065399574745835
892.0, 0.001440702293856557
893.0, 0.0002857668304013588
894.0, 0.0006594602946135915
895.0, 0.00325013529526804
896.0, 0.003562152153060666
897.0, 0.0013352600818918496
898.0, 0.003304377409699526
899.0, 0.005784980316029719
900.0, 0.006793459474318417
901.0, 0.00795390587286514
902.0, 0.010459689159507221
903.0, 0.013170952517421218
904.0, 0.015066710935450213
905.0, 0.01744066197445676
906.0, 0.01956467563015063
907.0, 0.02207270192752326
908.0, 0.024549893926773814
909.0, 0.028703103021295365
910.0, 0.03415444042752166
911.0, 0.03954433961396821
912.0, 0.04745553869835846
913.0, 0.05142522411659549
914.0, 0.055301444266485596
915.0, 0.06074278883991202
916.0, 0.06470042960015009
917.0, 0.0671761896866505
918.0, 0.06965984997519502
919.0, 0.07287592860020546
920.0, 0.07737373699605428
921.0, 0.07795411069127664
922.0, 0.07837807009935484
923.0, 0.07969519384232021
924.0, 0.07739971213396801
925.0, 0.07220520424995645
926.0, 0.06773343142359978
927.0, 0.06457665759304625
928.0, 0.06065212105753191
929.0, 0.054959346167004694
930.0, 0.05364877686529915
931.0, 0.05271156363627335
932.0, 0.04981581510468834
933.0, 0.0492521633625786
934.0, 0.05023277606388394
935.0, 0.04834921211929824
936.0, 0.05161060757758904
937.0, 0.05557966571652792
938.0, 0.06295548749092328
939.0, 0.06768383556346598
940.0, 0.07244544161423519
941.0, 0.07889197352845691
942.0, 0.0872710635763834
943.0, 0.10052922480842885
944.0, 0.11562142356206007
945.0, 0.13144498581434216
946.0, 0.1472526896192732
947.0, 0.17051838551843573
948.0, 0.19360892262167823
949.0, 0.2174369252146429
950.0, 0.24540441324993795
951.0, 0.2753388493152603
952.0, 0.3061718056108365
953.0, 0.3365111297459119
954.0, 0.36636679024458707
955.0, 0.3961400502266631
956.0, 0.4231675038221546
957.0, 0.44779101603642546
958.0, 0.47185084065700444
959.0, 0.49220449041107567
960.0, 0.5040114950440272
961.0, 0.5134685460364607
962.0, 0.5205951766215529
963.0, 0.5181602541576712
964.0, 0.5087102796890817
965.0, 0.48666364677180923
966.0, 0.45044462286833675
967.0, 0.4062085671756006
968.0, 0.35904542750538315
969.0, 0.3101826768671409
970.0, 0.2661766069558776
971.0, 0.22345063765347414
972.0, 0.18950906508271917
973.0, 0.1591033984191462
974.0, 0.13570173651646558
975.0, 0.11900743636925519
976.0, 0.10273910760307031
977.0, 0.09347148998202247
978.0, 0.08330853283927203
979.0, 0.07535624771131152
980.0, 0.07047498459071311
981.0, 0.0679458375476173
982.0, 0.06602701746824709
983.0, 0.06308215343276091
984.0, 0.0626278093452467
985.0, 0.06682213628008168
986.0, 0.0656642600911359
987.0, 0.06962175028246498
988.0, 0.07478515639327021
989.0, 0.08099373679061132
990.0, 0.08327824408059752
991.0, 0.08553910087369479
992.0, 0.08761924275897422
993.0, 0.0867738373700215
994.0, 0.09006596276525766
995.0, 0.08690711155335908
996.0, 0.08388941080568968
997.0, 0.08523543689036388
998.0, 0.0827247795437102
999.0, 0.07782916663626117
1000.0, 0.07575212946255525
1001.0, 0.07370043699376846
1002.0, 0.06850857835281708
1003.0, 0.06748877857276013
1004.0, 0.06835825883956241
1005.0, 0.06343876709311294
1006.0, 0.055994443756211085
1007.0, 0.05076605630544043
1008.0, 0.04437541020824972
1009.0, 0.03803635327760375
1010.0, 0.033848437060408625
1011.0, 0.026833498246118144
1012.0, 0.01874361095383035
1013.0, 0.01418004739353937
1014.0, 0.010604429465540391
1015.0, 0.006325582042051975
1016.0, 0.003580629879782391
1017.0, 0.0007780104965769421
1018.0, 0.0023998430934557523
1019.0, 0.004111215238058136
1020.0, 0.004329021124138292
1021.0, 0.0051734623016685384
1022.0, 0.008430501612742775
1023.0, 0.005413558763545061
1024.0, 0.004456223120314526
1025.0, 0.0038365821110460134
1026.0, 0.0018750757887099061
1027.0, 0.00038658303181773917
1028.0, 0.0024863318476849583
1029.0, 0.005445828505668626
1030.0, 0.006814823549817354
1031.0, 0.010866363947131981
1032.0, 0.014744022175680478
1033.0, 0.016232775876905973
1034.0, 0.01952594362017491
1035.0, 0.02325994720681766
1036.0, 0.025478814990724543
1037.0, 0.02890508804181855
1038.0, 0.0342629000136367
1039.0, 0.036329692265161626
1040.0, 0.04142415244661963
1041.0, 0.04623481788105667
1042.0, 0.05443604931798703
1043.0, 0.05938591191392936
1044.0, 0.06807648594396637
1045.0, 0.07418256473086825
1046.0, 0.07539932773028013
1047.0, 0.0804543119603009
1048.0, 0.08569880601048264
1049.0, 0.0860194487214088
1050.0, 0.08634100305843673
1051.0, 0.09058530254933837
1052.0, 0.09001687195469014
1053.0, 0.0892010368299346
1054.0, 0.08881313386878567
1055.0, 0.09020551647121865
1056.0, 0.09383406093475889
1057.0, 0.09353872972009875
1058.0, 0.0878762342627216
1059.0, 0.08318003888514353
1060.0, 0.0765966919161872
1061.0, 0.06663767853029134
1062.0, 0.057791311687846694
1063.0, 0.04752691012706428
1064.0, 0.04068249857787933
1065.0, 0.03799665201328785
1066.0, 0.0329930499280151
1067.0, 0.02892862652008624
1068.0, 0.025946854654189364
1069.0, 0.022006700149285845
1070.0, 0.02012286477205824
1071.0, 0.020427037236666504
1072.0, 0.01702948587119006
1073.0, 0.016459913258713307
1074.0, 0.017480002081250338
1075.0, 0.015691367547800282
1076.0, 0.01474388712893169
1077.0, 0.014605641985731777
1078.0, 0.015057684145609639
1079.0, 0.013512235998156203
1080.0, 0.0120757271517876
1081.0, 0.012544278379956152
1082.0, 0.012602035071758128
1083.0, 0.011577668218082034
1084.0, 0.01215009067099443
1085.0, 0.014309843835162862
1086.0, 0.014353971360682042
1087.0, 0.013780487699077961
1088.0, 0.014575362043527239
1089.0, 0.012959704160553509
1090.0, 0.015414325969622234
1091.0, 0.015050240813739606
1092.0, 0.014465181318907139
1093.0, 0.011936353991028237
1094.0, 0.010036265938769766
1095.0, 0.011861233628910022
1096.0, 0.012689673651866669
1097.0, 0.012437226458308335
1098.0, 0.009841568702569468
1099.0, 0.012210178883547015
1100.0, 0.013803525461137982
1101.0, 0.011766858121426403
1102.0, 0.013603714747639939
1103.0, 0.013569706557422834
1104.0, 0.012886505580289842
1105.0, 0.01688497811802387
1106.0, 0.019455630160293877
1107.0, 0.019216023559631333
1108.0, 0.018091130775015785
1109.0, 0.01339351430180227
1110.0, 0.011733154430738402
1111.0, 0.008156538876016696
1112.0, 0.003767623884460338
1113.0, 0.004342168898773411
1114.0, 0.0027346469375164797
1115.0, 0.0017419732881543302
1116.0, 0.0013655016859865068
1117.0, 0.0023869112215940845
1118.0, 0.00045293043584398746
1119.0, 0.0003207804998332976
1120.0, 0.001762752879564325
1121.0, 0.0031682989214114735
1122.0, 0.0019800652968219833
1123.0, 0.00035371874275970296
1124.0, 0.0004304663316233904
1125.0, 0.00090740117646435
1126.0, 0.001603642513046771
1127.0, 0.0038781276586955685
1128.0, 0.004931873439289988
1129.0, 0.0070375093282935485
1130.0, 0.008649982944324683
1131.0, 0.01014700356774724
1132.0, 0.011021472347720905
1133.0, 0.011875583915694758
1134.0, 0.01433526484657372
1135.0, 0.016025727666829866
1136.0, 0.015918911772442014
1137.0, 0.017206012572604523
1138.0, 0.020834076267948393
1139.0, 0.02067623884170942
1140.0, 0.01980773454513276
1141.0, 0.02133963912206249
1142.0, 0.023435256242679968
1143.0, 0.0224096707691344
1144.0, 0.023604012299450045
1145.0, 0.024642525736536185
1146.0, 0.021498258046132483
1147.0, 0.019496598714663967
1148.0, 0.020655864853244707
1149.0, 0.018563060763739137
1150.0, 0.01743370617682954
1151.0, 0.014888276745563452
1152.0, 0.014018595768472438
1153.0, 0.01347116137719693
1154.0, 0.012530845743375265
1155.0, 0.01127835275743141
1156.0, 0.010740112205220849
1157.0, 0.010711284204982036
1158.0, 0.010497351198388927
1159.0, 0.009718898314832233
1160.0, 0.008079230958279076
1161.0, 0.0067823896795704145
1162.0, 0.006771900126976844
1163.0, 0.008359400109119664
1164.0, 0.00838375251645535
1165.0, 0.0066878176550108515
1166.0, 0.007140435159801706
1167.0, 0.006233653360859154
1168.0, 0.006085615786655206
1169.0, 0.006375204324403988
1170.0, 0.005495402378104483
1171.0, 0.0061404633034876374
1172.0, 0.006570461242422511
1173.0, 0.005497365936646473
1174.0, 0.005883934404280213
1175.0, 0.004060909680728633
1176.0, 0.0024348707042568364
1177.0, 0.0033910603822554074
1178.0, 0.003750036770136451
1179.0, 0.0028395221038512762
1180.0, 0.002275504356571448
1181.0, 0.0017015539181116555
1182.0, 0.0005801226630062469
1183.0, 0.0002780207432603883
1184.0, 0.00037786592444715605
1185.0, 0.0014764503600757694
1186.0, 0.001048006458252967
1187.0, 0.0003823864442393336
1188.0, 0.0005298914538921383
1189.0, 0.0009589450632819587
1190.0, 0.00014186348410939563
1191.0, 0.0004596132116851946
1192.0, 0.0008982262644316003
1193.0, 0.00020823902812240172
1194.0, 0.0002435914250272642
1195.0, 0.001086793197366781
1196.0, 0.0017306011980638743
1197.0, 0.0012169867506801693
1198.0, 0.00045687596157954204
1199.0, 0.00020425674147556307
1200.0, 0.0005184037684985755
1201.0, 0.0021861710787583473
1202.0, 0.000724747522478185
1203.0, 0.00044162920571051424
1204.0, 0.0012297313801237428
1205.0, 0.0009904976503812674
1206.0, 0.00037181267550429314
1207.0, 0.0025945052440345217
1208.0, 0.0018993319311171467
1209.0, 0.0012059305866232856
1210.0, 0.0022426336186416435
1211.0, 0.0030491180601081476
1212.0, 0.003098690181779863
1213.0, 0.0033474968727454373
1214.0, 0.003638397343802856
1215.0, 0.0038488044689709766
1216.0, 0.0034835469386328166
1217.0, 0.0021134945209257444
1218.0, 0.0008249631846057237
1219.0, 0.0008989669159056001
1220.0, 0.0022787934531471217
1221.0, 0.004158193989071868
1222.0, 0.0022473568749696374
1223.0, 0.004276106269823856
1224.0, 0.003255518924919736
1225.0, 0.0021024561924815836
1226.0, 0.001075646011678539
1227.0, 0.0024364111531912113
1228.0, 0.0033660551423300234
1229.0, 0.004050038450024101
1230.0, 0.0048092045300218095
1231.0, 0.0037676070176240087
1232.0, 0.002842486532456779
1233.0, 0.00413881476799276
1234.0, 0.002316237570500991
1235.0, 0.00301604836147158
1236.0, 0.003957276946206965
1237.0, 0.006295061857655902
1238.0, 0.005167798265566904
1239.0, 0.004924401846613313
1240.0, 0.004657953259630278
1241.0, 0.004009355667566113
1242.0, 0.001801528535583406
1243.0, 0.0028177805397002036
1244.0, 0.0050230116709946
1245.0, 0.003294178594073335
1246.0, 0.0036251474644415677
1247.0, 0.0031092905411980614
1248.0, 0.003207841302734338
1249.0, 0.004357106669607642
1250.0, 0.005026500127436092
1251.0, 0.004231621529586673
1252.0, 0.00414803234570144
1253.0, 0.00322386301489405
1254.0, 0.003889868017679983
1255.0, 0.004922683084929264
1256.0, 0.002557658845355029
1257.0, 0.0015380588501882238
1258.0, 0.00393834835088556
1259.0, 0.00419760071635338
1260.0, 0.003414114643276106
1261.0, 0.003123662535087607
1262.0, 0.0025529420306696954
1263.0, 0.003197370048452869
1264.0, 0.0021243955758808797
1265.0, 0.0014008665431382863
1266.0, 0.0026190931330367455
1267.0, 0.00399457372844973
1268.0, 0.0023039395865415775
1269.0, 0.0013422299345973018
1270.0, 0.0017199970060113741
1271.0, 0.00239288345588564
1272.0, 0.0032592488778717408
1273.0, 0.001993288838470181
1274.0, 0.0002176988852359941
1275.0, 0.002599361880670532
1276.0, 0.001825499085847771
1277.0, 0.0007480854326401901
1278.0, 0.0023523398965046606
1279.0, 0.0007931028699266027
1280.0, 0.0015070145491348278
1281.0, 0.001957194868408939
1282.0, 0.0013214972421009745
1283.0, 0.001455595222157635
1284.0, 0.0027337157949021964
1285.0, 0.003081789273416399
1286.0, 0.0012580649503293865
1287.0, 0.0006064627615456549
1288.0, 0.0035100218662442386
1289.0, 0.00382315998101917
1290.0, 0.0007261006974781576
1291.0, 0.0011927298690646033
1292.0, 0.0009568296128442572
1293.0, 0.0019508432032833561
1294.0, 0.0014988986295834718
1295.0, 0.0026548014493009654
1296.0, 0.0016734232418933834
1297.0, 0.0005539510195524131
1298.0, 0.00044243290719631604
1299.0, 0.00011078082038801435
1300.0, 0.0004863516613372588
1301.0, 0.001986571311933255
1302.0, 0.0025464988667539368
1303.0, 0.0016432794657726072
1304.0, 0.00043591821285815133
1305.0, 0.0009592955001782501
1306, 0.0
1307, 0.0
1308, 0.0
1309, 0.0
1310, 0.0
1311, 0.0
1312, 0.0
1313, 0.0
1314, 0.0
1315, 0.0
1316, 0.0
1317, 0.0
1318, 0.0
1319, 0.0
1320, 0.0
1321, 0.0
1322, 0.0
1323, 0.0
1324, 0.0
1325, 0.0
1326, 0.0
1327, 0.0
1328, 0.0
1329, 0.0
1330, 0.0
1331, 0.0
1332, 0.0
1333, 0.0
1334, 0.0
1335, 0.0
1336, 0.0
1337, 0.0
1338, 0.0
1339, 0.0
1340, 0.0
1341, 0.0
1342, 0.0
1343, 0.0
1344, 0.0
1345, 0.0
1346, 0.0
1347, 0.0
1348, 0.0
1349, 0.0
1350, 0.0
1351, 0.0
1352, 0.0
1353, 0.0
1354, 0.0
1355, 0.0
1356, 0.0
1357, 0.0
1358, 0.0
1359, 0.0
1360, 0.0
1361, 0.0
1362, 0.0
1363, 0.0
1364, 0.0
1365, 0.0
1366, 0.0
1367, 0.0
1368, 0.0
1369, 0.0
1370, 0.0
1371, 0.0
1372, 0.0
1373, 0.0
1374, 0.0
1375, 0.0
1376, 0.0
1377, 0.0
1378, 0.0
1379, 0.0
1380, 0.0
1381, 0.0
1382, 0.0
1383, 0.0
1384, 0.0
1385, 0.0
1386, 0.0
1387, 0.0
1388, 0.0
1389, 0.0
1390, 0.0
1391, 0.0
1392, 0.0
1393, 0.0
1394, 0.0
1395, 0.0
1396, 0.0
1397, 0.0
1398, 0.0
1399, 0.0
1400, 0.0
1401, 0.0
1402, 0.0
1403, 0.0
1404, 0.0
1405, 0.0
1406, 0.0
1407, 0.0
1408, 0.0
1409, 0.0
1410, 0.0
1411, 0.0
1412, 0.0
1413, 0.0
1414, 0.0
1415, 0.0
1416, 0.0
1417, 0.0
1418, 0.0
1419, 0.0
1420, 0.0
1421, 0.0
1422, 0.0
1423, 0.0
1424, 0.0
1425, 0.0
1426, 0.0
1427, 0.0
1428, 0.0
1429, 0.0
1430, 0.0
1431, 0.0
1432, 0.0
1433, 0.0
1434, 0.0
1435, 0.0
1436, 0.0
1437, 0.0
1438, 0.0
1439, 0.0
1440, 0.0
1441, 0.0
1442, 0.0
1443, 0.0
1444, 0.0
1445, 0.0
1446, 0.0
1447, 0.0
1448, 0.0
1449, 0.0
1450, 0.0
1451, 0.0
1452, 0.0
1453, 0.0
1454, 0.0
1455, 0.0
1456, 0.0
1457, 0.0
1458, 0.0
1459, 0.0
1460, 0.0
1461, 0.0
1462, 0.0
1463, 0.0
1464, 0.0
1465, 0.0
1466, 0.0
1467, 0.0
1468, 0.0
1469, 0.0
1470, 0.0
1471, 0.0
1472, 0.0
1473, 0.0
1474, 0.0
1475, 0.0
1476, 0.0
1477, 0.0
1478, 0.0
1479, 0.0
1480, 0.0
1481, 0.0
1482, 0.0
1483, 0.0
1484, 0.0
1485, 0.0
1486, 0.0
1487, 0.0
1488, 0.0
1489, 0.0
1490, 0.0
1491, 0.0
1492, 0.0
1493, 0.0
1494, 0.0
1495, 0.0
1496, 0.0
1497, 0.0
1498, 0.0
1499, 0.0
1500, 0.0
1501, 0.0
1502, 0.0
1503, 0.0
1504, 0.0
1505, 0.0
1506, 0.0
1507, 0.0
1508, 0.0
1509, 0.0
1510, 0.0
1511, 0.0
1512, 0.0
1513, 0.0
1514, 0.0
1515, 0.0
1516, 0.0
1517, 0.0
1518, 0.0
1519, 0.0
1520, 0.0
1521, 0.0
1522, 0.0
1523, 0.0
1524, 0.0
1525, 0.0
1526, 0.0
1527, 0.0
1528, 0.0
1529, 0.0
1530, 0.0
1531, 0.0
1532, 0.0
1533, 0.0
1534, 0.0
1535, 0.0
1536, 0.0
1537, 0.0
1538, 0.0
1539, 0.0
1540, 0.0
1541, 0.0
1542, 0.0
1543, 0.0
1544, 0.0
1545, 0.0
1546, 0.0
1547, 0.0
1548, 0.0
1549, 0.0
1550, 0.0
1551, 0.0
1552, 0.0
1553, 0.0
1554, 0.0
1555, 0.0
1556, 0.0
1557, 0.0
1558, 0.0
1559, 0.0
1560, 0.0
1561, 0.0
1562, 0.0
1563, 0.0
1564, 0.0
1565, 0.0
1566, 0.0
1567, 0.0
1568, 0.0
1569, 0.0
1570, 0.0
1571, 0.0
1572, 0.0
1573, 0.0
1574, 0.0
1575, 0.0
1576, 0.0
1577, 0.0
1578, 0.0
1579, 0.0
1580, 0.0
1581, 0.0
1582, 0.0
1583, 0.0
1584, 0.0
1585, 0.0
1586, 0.0
1587, 0.0
1588, 0.0
1589, 0.0
1590, 0.0
1591, 0.0
1592, 0.0
1593, 0.0
1594, 0.0
1595, 0.0
1596, 0.0
1597, 0.0
1598, 0.0
1599, 0.0
