30, 0.0
31, 0.0
32, 0.0
33, 0.0
34, 0.0
35, 0.0
36, 0.0
37, 0.0
38, 0.0
39, 0.0
40, 0.0
41, 0.0
42, 0.0
43, 0.0
44, 0.0
45, 0.0
46, 0.0
47, 0.0
48, 0.0
49, 0.0
50, 0.0
51, 0.0
52, 0.0
53, 0.0
54, 0.0
55, 0.0
56, 0.0
57, 0.0
58, 0.0
59, 0.0
60, 0.0
61, 0.0
62, 0.0
63, 0.0
64, 0.0
65, 0.0
66, 0.0
67, 0.0
68, 0.0
69, 0.0
70, 0.0
71, 0.0
72, 0.0
73, 0.0
74, 0.0
75, 0.0
76, 0.0
77, 0.0
78, 0.0
79, 0.0
80, 0.0
81, 0.0
82, 0.0
83, 0.0
84, 0.0
85, 0.0
86, 0.0
87, 0.0
88, 0.0
89, 0.0
90, 0.0
91, 0.0
92, 0.0
93, 0.0
94, 0.0
95, 0.0
96, 0.0
97, 0.0
98, 0.0
99, 0.0
100, 0.0
101, 0.0
102, 0.0
103, 0.0
104, 0.0
105, 0.0
106, 0.0
107, 0.0
108, 0.0
109, 0.0
110, 0.0
111, 0.0
112, 0.0
113, 0.0
114, 0.0
115, 0.0
116, 0.0
117, 0.0
118, 0.0
119, 0.0
120, 0.0
121, 0.0
122, 0.0
123.0, 0.0010195857199566778
124.0, 0.007741741199462321
125.0, 0.038924637607361395
126.0, 0.0793357267212483
127.0, 0.11680433425897185
128.0, 0.13280845857251547
129.0, 0.14235929458405777
130.0, 0.15101032866237368
131.0, 0.1550798458698354
132.0, 0.15752652855700944
133.0, 0.16192917341468072
134.0, 0.1618807452799242
135.0, 0.17191144509179626
136.0, 0.1891864738240655
137.0, 0.20416543916597726
138.0, 0.22180638335001457
139.0, 0.24272408640321877
140.0, 0.2532327578652011
141.0, 0.24733943992976837
142.0, 0.2503098039128414
143.0, 0.258958481333374
144.0, 0.2599710205614713
145.0, 0.2517071869946871
146.0, 0.25208680569815506
147.0, 0.2531009234356383
148.0, 0.2488638096060218
149.0, 0.2354766603584407
150.0, 0.21890452514044415
151.0, 0.2144891011971236
152.0, 0.21304856175039869
153.0, 0.20730157399375743
154.0, 0.19466496033702668
155.0, 0.1978056873162806
156.0, 0.19123053092524445
157.0, 0.1726440186390457
158.0, 0.14998660269517444
159.0, 0.12927700483895319
160.0, 0.1184978450439863
161.0, 0.10381922569157255
162.0, 0.08117561148863822
163.0, 0.06583208591811668
164.0, 0.050393915111658236
165.0, 0.03464613913541671
166.0, 0.018941553268101586
167.0, 0.011794738376884054
168.0, 0.007929616601038376
169.0, 0.004346985755656359
170.0, 0.0025491747076718165
171.0, 0.0008101587449589379
172.0, 0.0017137523248637568
173.0, 0.0013884739434048272
174.0, 0.004278956415814173
175.0, 0.0062747030816256415
176.0, 0.007314285857032294
177.0, 0.01197576304699457
178.0, 0.014825729691443967
179.0, 0.01521317318307713
180.0, 0.019168753475787715
181.0, 0.02720520143491035
182.0, 0.03309463048379352
183.0, 0.03757578878042935
184.0, 0.04704386986654646
185.0, 0.05430553391856501
186.0, 0.05601718122214443
187.0, 0.057941888463148676
188.0, 0.06626430361985293
189.0, 0.08024129162985456
190.0, 0.0837000941994511
191.0, 0.08240561842515871
192.0, 0.08406382900366097
193.0, 0.09058369157478509
194.0, 0.08964731615699083
195.0, 0.09272447998715326
196.0, 0.09874222874775665
197.0, 0.09756507474554206
198.0, 0.10349261594752947
199.0, 0.11078449260716476
200.0, 0.11198450296728958
201.0, 0.10538461644633217
202.0, 0.1006843709355656
203.0, 0.10385010709282363
204.0, 0.09947839939484557
205.0, 0.08889011891258267
206.0, 0.1003458902874459
207.0, 0.09675196762963573
208.0, 0.09419657720311386
209.0, 0.096921652828058
210.0, 0.0979261946653694
211.0, 0.10847213231245229
212.0, 0.11618887082499572
213.0, 0.11552372302246258
214.0, 0.11138332666122551
215.0, 0.11999017966539902
216.0, 0.12393000149258449
217.0, 0.13340225800739944
218.0, 0.14874425235627792
219.0, 0.15688308445310398
220.0, 0.16550572463896185
221.0, 0.17022975356681402
222.0, 0.17480120066539673
223.0, 0.18493839804049397
224.0, 0.19629680007302702
225.0, 0.21331763835849216
226.0, 0.22513769703289774
227.0, 0.228758182532811
228.0, 0.2354846986898603
229.0, 0.250077880165363
230.0, 0.2558252507282769
231.0, 0.25564630220010964
232.0, 0.2632369860106222
233.0, 0.2715735830406707
234.0, 0.276220656747591
235.0, 0.2765842221934026
236.0, 0.2754808897002359
237.0, 0.2760095944352509
238.0, 0.2772863618524317
239.0, 0.27715800435439286
240.0, 0.2757148053297997
241.0, 0.2754733376285808
242.0, 0.27215483549213254
243.0, 0.27283981520404865
244.0, 0.2744740423162128
245.0, 0.27328492653335995
246.0, 0.2740661755636566
247.0, 0.272673080265264
248.0, 0.27067922950138956
249.0, 0.2691451769949716
250.0, 0.2670291848271405
251.0, 0.2573571324130593
252.0, 0.24909968554328174
253.0, 0.24527417240289195
254.0, 0.24247022264672846
255.0, 0.22954790329381336
256.0, 0.21900603013859907
257.0, 0.21514678647357058
258.0, 0.21043886674943135
259.0, 0.1898992767909239
260.0, 0.17662227147503123
261.0, 0.16640736769506317
262.0, 0.15439617798602265
263.0, 0.14182729755677714
264.0, 0.14261206936478965
265.0, 0.12258493442330365
266.0, 0.104736719836233
267.0, 0.0977336205376258
268.0, 0.08594668783491564
269.0, 0.07919456773737671
270.0, 0.06959599706117721
271.0, 0.061742298632034204
272.0, 0.05984193983770912
273.0, 0.04861650278347795
274.0, 0.037099683334209634
275.0, 0.030625542205813767
276.0, 0.026817330125343333
277.0, 0.019241491318648402
278.0, 0.016788297405006373
279.0, 0.012787589676500054
280.0, 0.010039244971372284
281.0, 0.01052882018257075
282.0, 0.006963789231320951
283.0, 0.003990126591350584
284.0, 0.0017290534317412473
285.0, 0.005143551244670694
286.0, 0.005041697424599895
287.0, 0.006820587727462972
288.0, 0.00721805363585635
289.0, 0.005465270686314285
290.0, 0.003742177153158734
291.0, 0.004953820971039159
292.0, 0.0028259272374718024
293.0, 0.002130829273522803
294.0, 0.0036616745186137454
295.0, 0.0021487245251848967
296.0, 0.0026683542518995042
297.0, 0.005208974201994667
298.0, 0.0021704850308430002
299.0, 0.007637844545556287
300.0, 0.0058978108434646825
301.0, 0.00213058655345231
302.0, 0.005454714957476866
303.0, 0.008435560413313942
304.0, 0.007014441251830593
305.0, 0.004789638453198051
306.0, 0.00814499413229384
307.0, 0.014080389710149417
308.0, 0.014937131483702055
309.0, 0.008836726786825658
310.0, 0.015831145488956658
311.0, 0.018616879325930147
312.0, 0.01648204538786057
313.0, 0.014766743470065938
314.0, 0.018327047249804242
315.0, 0.01649556116854594
316.0, 0.014404815350107462
317.0, 0.014593647786934689
318.0, 0.016296775350330382
319.0, 0.01687346391735006
320.0, 0.017328181027832356
321.0, 0.022564768693560656
322.0, 0.027943148921737226
323.0, 0.02694058027467749
324.0, 0.03993054189584271
325.0, 0.044370828046385535
326.0, 0.04737241490612736
327.0, 0.055440038840581074
328.0, 0.06586400128350609
329.0, 0.0774352184625013
330.0, 0.08697486839226203
331.0, 0.09482574907693558
332.0, 0.10424196989376494
333.0, 0.12068374682219633
334.0, 0.13415905341382606
335.0, 0.15030740567614012
336.0, 0.16866134885720083
337.0, 0.1849788870700153
338.0, 0.2097319759553226
339.0, 0.22571786112575326
340.0, 0.24284317772689237
341.0, 0.2664575670403347
342.0, 0.289604477414885
343.0, 0.3014680343826928
344.0, 0.31697009106111856
345.0, 0.3347351571813593
346.0, 0.34804036110149555
347.0, 0.35590583787883073
348.0, 0.3606903391993738
349.0, 0.3647123906864041
350.0, 0.36563038102139095
351.0, 0.3610449423759513
352.0, 0.35724138324974747
353.0, 0.34041923307329097
354.0, 0.32637456692432654
355.0, 0.31289139531355226
356.0, 0.2879574008997343
357.0, 0.26829771779309386
358.0, 0.2424274592245753
359.0, 0.2201298475769993
360.0, 0.2035709268608922
361.0, 0.18434583723729037
362.0, 0.17198894822284705
363.0, 0.15847221042178317
364.0, 0.14278473899717822
365.0, 0.1287572159770888
366.0, 0.12310445694812713
367.0, 0.11466837009939773
368.0, 0.10193742303980463
369.0, 0.09261168277283598
370.0, 0.08991630975714139
371.0, 0.07758817045850647
372.0, 0.070930200717312
373.0, 0.061910137023478216
374.0, 0.053710255339079534
375.0, 0.05236134375429803
376.0, 0.0465840228107072
377.0, 0.045813044072877104
378.0, 0.04234809946403605
379.0, 0.036535725727439905
380.0, 0.034523391209405126
381.0, 0.03164908281532203
382.0, 0.028988887688837443
383.0, 0.026171035210801403
384.0, 0.022762448177168777
385.0, 0.017990691768979928
386.0, 0.00963470837047037
387.0, 0.0064289131432259715
388.0, 0.005334817269974648
389.0, 0.0036624252264350608
390.0, 0.002837165422199182
391.0, 0.0035179724985083313
392.0, 0.0014258756287520392
393.0, 0.0013106792779505887
394.0, 0.00753898968537674
395.0, 0.012202311686202403
396.0, 0.007660312335782587
397.0, 0.01157761226290113
398.0, 0.01293955412224429
399.0, 0.005273588146547211
400.0, 0.006817565101153913
401.0, 0.009642651386522233
402.0, 0.006440364977157697
403.0, 0.00544852480425773
404.0, 0.01049960839415321
405.0, 0.007604329293915064
406.0, 0.004171640182473867
407.0, 0.0019507541786612423
408.0, 0.0063398204417680175
409.0, 0.007925719645594256
410.0, 0.004242692388405289
411.0, 0.009463414766137889
412.0, 0.011861229177184246
413.0, 0.011221784565501837
414.0, 0.013557285213971985
415.0, 0.01678693906057928
416.0, 0.020924298622378736
417.0, 0.01743411707886533
418.0, 0.010949956159533697
419.0, 0.009279111892120629
420.0, 0.01210213209106254
421.0, 0.013099655364480801
422.0, 0.012672525995572729
423.0, 0.014198963687864136
424.0, 0.017740376752826283
425.0, 0.011133321278854762
426.0, 0.01153748046861975
427.0, 0.011252626416672932
428.0, 0.008352424371568983
429.0, 0.00693982889405343
430.0, 0.009608584656775443
431.0, 0.009473474546072877
432.0, 0.006445475515914268
433.0, 0.003891457076803833
434.0, 0.0057812141743197685
435.0, 0.013833666761652085
436.0, 0.012548506063928887
437.0, 0.018572973713835834
438.0, 0.02738230710665851
439.0, 0.028887035551624748
440.0, 0.03393734834238107
441.0, 0.03381585057814772
442.0, 0.04089630879172597
443.0, 0.053017437100709025
444.0, 0.06336033781593228
445.0, 0.07426882293148585
446.0, 0.08102878643063019
447.0, 0.09556383316926699
448.0, 0.11207811725004545
449.0, 0.12381093439558774
450.0, 0.14031840124243236
451.0, 0.159351418613415
452.0, 0.17382867017603695
453.0, 0.18566834230201149
454.0, 0.20151331759708999
455.0, 0.22172256473948238
456.0, 0.2320329176692456
457.0, 0.2633870354503807
458.0, 0.29686261680886866
459.0, 0.31216645818428457
460.0, 0.3200188558926706
461.0, 0.33086006442190413
462.0, 0.3434983614791741
463.0, 0.3632937241890275
464.0, 0.389454801061282
465.0, 0.4119102159814154
466.0, 0.41928654370048246
467.0, 0.439024914408812
468.0, 0.4611474227147554
469.0, 0.4750292778357607
470.0, 0.48380831520450734
471.0, 0.4994563191754424
472.0, 0.5193841810900025
473.0, 0.5358340940739347
474.0, 0.5484230590550495
475.0, 0.5623974379315545
476.0, 0.5783206206895063
477.0, 0.5967887251653713
478.0, 0.609277248303715
479.0, 0.6160539522145704
480.0, 0.6251224006419536
481.0, 0.6416552408146247
482.0, 0.6617110851094844
483.0, 0.6784018241640201
484.0, 0.6915987507380656
485.0, 0.702662127289533
486.0, 0.708249135605495
487.0, 0.7195798103346172
488.0, 0.7334242988930506
489.0, 0.7397999962274496
490.0, 0.7367249660862897
491.0, 0.7376168507233387
492.0, 0.73043037442199
493.0, 0.7232063509174836
494.0, 0.7192040157013516
495.0, 0.7124261968433011
496.0, 0.696930691231658
497.0, 0.6827340129624732
498.0, 0.6669447785783288
499.0, 0.6482939019494725
500.0, 0.6276211779822335
501.0, 0.605122938198074
502.0, 0.5745751412357802
503.0, 0.5550040253923553
504.0, 0.5309363966661778
505.0, 0.5013412512286507
506.0, 0.4740190110191047
507.0, 0.4512222601239998
508.0, 0.4337636117208912
509.0, 0.4138434097932931
510.0, 0.3938403805934263
511.0, 0.37433443535445216
512.0, 0.349695186772805
513.0, 0.3277397030167041
514.0, 0.3136164715475603
515.0, 0.29959498496398723
516.0, 0.2858983000602343
517.0, 0.27941446186438473
518.0, 0.2620193047017074
519.0, 0.252722079240607
520.0, 0.24543898320223073
521.0, 0.24081289183309879
522.0, 0.23854575810871434
523.0, 0.22245868080908415
524.0, 0.21760484264575133
525.0, 0.21512199970707668
526.0, 0.2093607141328255
527.0, 0.19976799116106173
528.0, 0.1905232073666267
529.0, 0.18889423173040853
530.0, 0.18914578216890585
531.0, 0.17899953625061757
532.0, 0.1666124481930339
533.0, 0.1654873673215449
534.0, 0.15827433106041125
535.0, 0.14184394447521928
536.0, 0.14047831101740352
537.0, 0.12985237016918721
538.0, 0.12440998878334755
539.0, 0.1215301419086282
540.0, 0.11406886207352535
541.0, 0.11083735637407786
542.0, 0.10034922725968326
543.0, 0.09221665743974891
544.0, 0.08950655099502804
545.0, 0.08165081802105223
546.0, 0.07044372240713592
547.0, 0.06796268545005638
548.0, 0.06932283161112575
549.0, 0.06335974007701471
550.0, 0.05243719831874051
551.0, 0.046965610703672736
552.0, 0.04004715224747678
553.0, 0.03481967791008873
554.0, 0.03352778445940745
555.0, 0.032263117105880215
556.0, 0.034572054936359765
557.0, 0.03020657202144989
558.0, 0.023815069427313488
559.0, 0.019613088556383173
560.0, 0.016237502083894406
561.0, 0.01036715210801968
562.0, 0.008713949657554074
563.0, 0.0113127992257884
564.0, 0.013588275838286092
565.0, 0.012260781021952038
566.0, 0.007415710885464111
567.0, 0.0013427894970426818
568.0, 0.001312241607162933
569.0, 0.0018842375505392886
570.0, 0.003047333659601895
571.0, 0.003085979552977733
572.0, 0.009424275484365927
573.0, 0.004507742092408983
574.0, 0.006005690201484765
575.0, 0.007068554663793789
576.0, 0.003968001648259786
577.0, 0.008107743924833365
578.0, 0.00947110589235253
579.0, 0.0070868651787224235
580.0, 0.0057422542798491695
581.0, 0.005094872187514892
582.0, 0.004719762238449209
583.0, 0.008327451298782148
584.0, 0.0036621399668065164
585.0, 0.0018441030250336964
586.0, 0.005437405134433498
587.0, 0.005880624510542458
588.0, 0.0028906038080133466
589.0, 0.00263629409554498
590.0, 0.004588673876471971
591.0, 0.001937472500061871
592.0, 0.001253042232853198
593.0, 0.0013615730829835764
594.0, 0.004072435967035043
595.0, 0.009127529301688983
596.0, 0.0072914073513638865
597.0, 0.005523477933646051
598.0, 0.003611345566112347
599.0, 0.001595477742560188
600.0, 0.00551565326034494
601.0, 0.014664612229051598
602.0, 0.009608952483162597
603.0, 0.006328794097543133
604.0, 0.009806900799655854
605.0, 0.00868016474148898
606.0, 0.0077580257914047395
607.0, 0.007902647093036851
608.0, 0.011733155154674014
609.0, 0.013190773706551634
610.0, 0.010053936438625401
611.0, 0.00881741069870665
612.0, 0.012165165629078585
613.0, 0.013555549892767247
614.0, 0.014590620383491161
615.0, 0.015156225746258486
616.0, 0.014134470487559283
617.0, 0.012741536978724908
618.0, 0.015489073806530324
619.0, 0.017307745171882796
620.0, 0.014586335269756513
621.0, 0.012043021645728501
622.0, 0.01569365947731456
623.0, 0.021859512312949764
624.0, 0.02295025452743024
625.0, 0.021154614911050206
626.0, 0.019306980162920654
627.0, 0.01917587034880665
628.0, 0.022236685103322034
629.0, 0.027176372804540442
630.0, 0.018396270332147757
631.0, 0.018616011089161673
632.0, 0.020384971280775842
633.0, 0.01722843602360213
634.0, 0.01966763153035266
635.0, 0.022229743456486983
636.0, 0.02443902670154483
637.0, 0.018171266425716943
638.0, 0.013948423814607515
639.0, 0.017404203218645463
640.0, 0.01671764485440906
641.0, 0.015100388009073925
642.0, 0.011489638791698889
643.0, 0.012331833280774255
644.0, 0.012437158688289159
645.0, 0.008559080705668807
646.0, 0.008842135616043254
647.0, 0.00861945785021909
648.0, 0.0026591871989477584
649.0, 0.0025455733929293733
650.0, 0.006537868353399916
651.0, 0.006580171911546309
652.0, 0.004685743964144682
653.0, 0.011525623939477037
654.0, 0.0123134692732981
655.0, 0.010017825630952939
656.0, 0.010976556805436861
657.0, 0.013695811378143954
658.0, 0.012634827281415765
659.0, 0.01571051241400342
660.0, 0.015162178855109742
661.0, 0.012396780564327074
662.0, 0.010793287687430477
663.0, 0.009781312250371389
664.0, 0.007286378954971587
665.0, 0.012661903573780574
666.0, 0.013583792707245971
667.0, 0.014115359814776013
668.0, 0.012927832109474307
669.0, 0.009119826779549148
670.0, 0.01352129851786469
671.0, 0.015871855448726265
672.0, 0.013114975116709688
673.0, 0.0057526875481050685
674.0, 0.0039098284229506855
675.0, 0.01067453116503061
676.0, 0.010342439995127363
677.0, 0.007962322152978093
678.0, 0.01007277916804928
679.0, 0.009745099154504474
680.0, 0.009136782603655684
681.0, 0.00942494051536472
682.0, 0.0017547301999603117
683.0, 0.001745129690288822
684.0, 0.008625576025700696
685.0, 0.004427008361202462
686.0, 0.005130646554915308
687.0, 0.00840226552417076
688.0, 0.007028270162472034
689.0, 0.009734320669325103
690.0, 0.007406205059958929
691.0, 0.011628645153531195
692.0, 0.009644268128114156
693.0, 0.007152879828424225
694.0, 0.006223777421235713
695.0, 0.002964492079937313
696.0, 0.0033580915055484058
697.0, 0.0035235661413056418
698.0, 0.00663703335848469
699.0, 0.006952647907193556
700.0, 0.009498678682767185
701.0, 0.012068757346323438
702.0, 0.008078216677568148
703.0, 0.0031222375472659105
704.0, 0.003704093332420753
705.0, 0.007813852117838803
706.0, 0.009529422413412293
707.0, 0.01106731050895317
708.0, 0.010987274432935156
709.0, 0.009551684997130822
710.0, 0.004623130150056624
711.0, 0.0017842636174640156
712.0, 0.005500888268291123
713.0, 0.008958000397642807
714.0, 0.015147208086152622
715.0, 0.014571609368211955
716.0, 0.010478112441452183
717.0, 0.010167860451808806
718.0, 0.012117159887920892
719.0, 0.004828049927043958
720.0, 0.007688940161385158
721.0, 0.006670178556343315
722.0, 0.00578657994395141
723.0, 0.010895467178173886
724.0, 0.014593482705906874
725.0, 0.007334990550925949
726.0, 0.0071832794840479865
727.0, 0.01415996087391017
728.0, 0.016939486477967957
729.0, 0.0183550291498435
730.0, 0.0182860640896837
731.0, 0.013433396460794368
732.0, 0.021130152300757026
733.0, 0.014873569042301464
734.0, 0.015670642424598525
735.0, 0.016849870347630497
736.0, 0.01852334045807858
737.0, 0.019880304566493784
738.0, 0.017787121064741212
739.0, 0.021845253873767786
740.0, 0.014129897798883052
741.0, 0.013175893409235391
742.0, 0.012156935907148538
743.0, 0.00940753259715365
744.0, 0.014656108614710145
745.0, 0.008990733481171333
746.0, 0.007044413059126123
747.0, 0.009574475555273508
748.0, 0.012510055413164153
749.0, 0.01227968000621288
750.0, 0.006788665934734328
751.0, 0.011054340785896895
752.0, 0.00536994409796495
753.0, 0.003565957670250407
754.0, 0.004242445585481617
755.0, 0.001333719265944316
756.0, 0.0029894416490318
757.0, 0.005019409913480113
758.0, 0.008958334273545731
759.0, 0.012007438316655022
760.0, 0.006236816353838186
761.0, 0.005026378773934866
762.0, 0.006537140018917319
763.0, 0.005209740084845343
764.0, 0.011809743728731411
765.0, 0.010999424510546717
766.0, 0.007292397938014501
767.0, 0.0038748294148658923
768.0, 0.004171804671190982
769.0, 0.009974963210815565
770.0, 0.00956168127770058
771.0, 0.00983173070296567
772.0, 0.009598406592012162
773.0, 0.004854703159075767
774.0, 0.0052907471272494525
775.0, 0.012050456777186986
776.0, 0.01742284613477509
777.0, 0.01760277570139993
778.0, 0.02135089177151301
779.0, 0.02442884329376116
780.0, 0.03012081151120177
781.0, 0.032378840097196694
782.0, 0.033353450242055445
783.0, 0.03758007014949811
784.0, 0.037552807981739364
785.0, 0.04602752663147625
786.0, 0.053058153686717506
787.0, 0.058012424834727086
788.0, 0.05701940121511936
789.0, 0.06954152878300673
790.0, 0.06949765097155859
791.0, 0.07478895570873992
792.0, 0.08039227837437585
793.0, 0.08934113657066729
794.0, 0.09576737280217217
795.0, 0.10404482282220986
796.0, 0.10874926464982405
797.0, 0.11028880656980682
798.0, 0.12216928154997875
799.0, 0.12872431759291106
800.0, 0.13422851293796959
801.0, 0.14329001215574008
802.0, 0.1475438036562986
803.0, 0.15141452342792766
804.0, 0.1563474983715601
805.0, 0.1731637675377695
806.0, 0.17465597107484016
807.0, 0.1804325412881973
808.0, 0.185100137052292
809.0, 0.1890375258444516
810.0, 0.19987171776643967
811.0, 0.2131574321232834
812.0, 0.22547283028870968
813.0, 0.22652441732408019
814.0, 0.2350525584354563
815.0, 0.24929139614484663
816.0, 0.26121930306525565
817.0, 0.26884151477287627
818.0, 0.27719275246206637
819.0, 0.2954556739135258
820.0, 0.3111630709855743
821.0, 0.3249541530269436
822.0, 0.34355406367059826
823.0, 0.3627381455471817
824.0, 0.37702997576138286
825.0, 0.3990565016925125
826.0, 0.42364183913202397
827.0, 0.4436205036400982
828.0, 0.4749407091589579
829.0, 0.5104719437560055
830.0, 0.543004546802477
831.0, 0.5743856959519893
832.0, 0.6062526214711497
833.0, 0.6523181952958969
834.0, 0.705082961714588
835.0, 0.7389745881217261
836.0, 0.7754423314153576
837.0, 0.8240756615207646
838.0, 0.8708382895936212
839.0, 0.9070800678661429
840.0, 0.9377087342481412
841.0, 0.9628799521542094
842.0, 0.9785642610742503
843.0, 0.9925094985086361
844.0, 0.9984624468660024
845.0, 0.99119097562211
846.0, 0.9862676528804304
847.0, 0.9719845793083318
848.0, 0.924179520693078
849.0, 0.8883416303101498
850.0, 0.8546150752086247
851.0, 0.8098686547580338
852.0, 0.7655775343450003
853.0, 0.7377697196937112
854.0, 0.6947614882332964
855.0, 0.6436487213565982
856.0, 0.5939428725017575
857.0, 0.5525002572622717
858.0, 0.5181525464355593
859.0, 0.4828421756289562
860.0, 0.4439597022361071
861.0, 0.4104076912245861
862.0, 0.37128449292762694
863.0, 0.3478068573527155
864.0, 0.3301135044695054
865.0, 0.3094343170507911
866.0, 0.2858542740979668
867.0, 0.2693016115041842
868.0, 0.26140733552049206
869.0, 0.23500627297493693
870.0, 0.21648777822305917
871.0, 0.2083339980980994
872.0, 0.19923416110785225
873.0, 0.1857512320134535
874.0, 0.17183614404667483
875.0, 0.15829252804602467
876.0, 0.15363614106930698
877.0, 0.14677607766720613
878.0, 0.13990107792639508
879.0, 0.12868395470707297
880.0, 0.11516044563089291
881.0, 0.10498437869734298
882.0, 0.09937713320326243
883.0, 0.10035002429178717
884.0, 0.08887985271510983
885.0, 0.08380811877837346
886.0, 0.0786931330864853
887.0, 0.06899347046415014
888.0, 0.057886918279767045
889.0, 0.05147259955604326
890.0, 0.055748548294326995
891.0, 0.04749978441024106
892.0, 0.04771183450959261
893.0, 0.038216369880945164
894.0, 0.03686576542911561
895.0, 0.03562007545779892
896.0, 0.0234936233351383
897.0, 0.016139529144714247
898.0, 0.012810451627275917
899.0, 0.011058054419095888
900.0, 0.012475216596643116
901.0, 0.00806457015697358
902.0, 0.003819929582355384
903.0, 0.0037052371556557887
904.0, 0.003615643525982818
905.0, 0.0012109849927011242
906.0, 0.0017574697417595659
907.0, 0.00437349911651165
908.0, 0.0019270143623960588
909.0, 0.007438118131200766
910.0, 0.005777215251005036
911.0, 0.0022377043429929397
912.0, 0.0026552819006505604
913.0, 0.004529040338184666
914.0, 0.0022455668483314394
915.0, 0.00391599863869283
916.0, 0.007090959840729623
917.0, 0.0038943240585795273
918.0, 0.003981541856764009
919.0, 0.0065330558747087215
920.0, 0.003970548394297961
921.0, 0.0025391940387231703
922.0, 0.007527946465780644
923.0, 0.0029375823779081932
924.0, 0.003481911350356105
925.0, 0.007353855650192627
926.0, 0.007281464606439128
927.0, 0.003807353360241114
928.0, 0.0029725888339258272
929.0, 0.005544738512378292
930.0, 0.005454365161373849
931.0, 0.001475882223032287
932.0, 0.002297625002688241
933.0, 0.003520068708145793
934.0, 0.0032400026359692066
935.0, 0.005213798017515957
936.0, 0.0033239560917437154
937.0, 0.00825772116063433
938.0, 0.002532538595827501
939.0, 0.0024155560366522226
940.0, 0.00893085599142502
941.0, 0.011991987432195273
942.0, 0.008784633261831192
943.0, 0.00489104230588035
944.0, 0.007798308311025821
945.0, 0.014393943999498122
946.0, 0.01225430860975983
947.0, 0.011350175538681615
948.0, 0.012520990653426723
949.0, 0.013405335189339902
950.0, 0.013280715674568955
951.0, 0.01502531740726116
952.0, 0.02002854189606142
953.0, 0.0192519397784829
954.0, 0.011961411270573917
955.0, 0.014303149514393015
956.0, 0.014285904828909575
957.0, 0.016342138774896802
958.0, 0.019757699878225083
959.0, 0.019451577604237408
960.0, 0.019373044195769618
961.0, 0.01909721610967476
962.0, 0.019842688197575904
963.0, 0.02157529272237963
964.0, 0.019946381825001178
965.0, 0.019875089540407554
966.0, 0.021825189060592543
967.0, 0.021604640548210232
968.0, 0.018243920475618323
969.0, 0.01169949633896918
970.0, 0.013804945089886323
971.0, 0.01601954561508573
972.0, 0.01789847107285499
973.0, 0.021287994846004892
974.0, 0.021453316797637508
975.0, 0.018038810389539493
976.0, 0.016751954179485884
977.0, 0.018531242741541637
978.0, 0.020608223573157773
979.0, 0.015841027003150904
980.0, 0.016017164342859883
981.0, 0.017678589648633877
982.0, 0.015032586509470775
983.0, 0.012293359460283253
984.0, 0.012993608117981805
985.0, 0.012093618576101734
986.0, 0.01293527630127908
987.0, 0.015123345228097078
988.0, 0.01364206971544438
989.0, 0.009547534884102999
990.0, 0.00843144865331668
991.0, 0.01275672926796929
992.0, 0.015628191341403152
993.0, 0.010723128369978992
994.0, 0.005831000729016756
995.0, 0.008389138243755192
996.0, 0.008804099092503287
997.0, 0.0053722183392391504
998.0, 0.004480203575964422
999.0, 0.006249921829845337
1000.0, 0.006080351609572867
1001.0, 0.0048475894593915545
1002.0, 0.007209507224713637
1003.0, 0.004373095203682696
1004.0, 0.008247341845542166
1005.0, 0.006940241776494283
1006.0, 0.006523154828345843
1007.0, 0.006108745521270523
1008.0, 0.005575991001925115
1009.0, 0.006111167443117487
1010.0, 0.006720219120388934
1011.0, 0.006622931198362695
1012.0, 0.005588713421383945
1013.0, 0.007202511472384583
1014.0, 0.0066776864327588266
1015.0, 0.007336766228345997
1016.0, 0.005114480774919639
1017.0, 0.004864610316478836
1018.0, 0.009720708567281707
1019.0, 0.01155759076793005
1020.0, 0.009261671343685622
1021.0, 0.012482234018619556
1022.0, 0.004620192497915437
1023.0, 0.010649244139986967
1024.0, 0.011704555363264134
1025.0, 0.005699779239686565
1026.0, 0.004469124514919074
1027.0, 0.006039999403757751
1028.0, 0.00318836149501048
1029.0, 0.007300848239784504
1030.0, 0.011149807683487233
1031.0, 0.005871678956281323
1032.0, 0.005518739248789817
1033.0, 0.0052037618215106515
1034.0, 0.0019502178454161524
1035.0, 0.00318807010910092
1036.0, 0.0039720882442247155
1037.0, 0.008342453476019676
1038.0, 0.004238439478154663
1039.0, 0.0053604784426844465
1040.0, 0.0072123280884163025
1041.0, 0.006419281150351876
1042.0, 0.007362712084383674
1043.0, 0.004488725089496049
1044.0, 0.002654626413784863
1045.0, 0.004501610231018135
1046.0, 0.009524327284096998
1047.0, 0.006865283343575097
1048.0, 0.005845481588173516
1049.0, 0.007560452078087327
1050.0, 0.004390662528969721
1051.0, 0.007033718385401131
1052.0, 0.008688224099797155
1053.0, 0.00362332990955291
1054.0, 0.0014958618667267056
1055.0, 0.00560507883458118
1056.0, 0.0020611560661906846
1057.0, 0.008446775798936303
1058.0, 0.005403703751074186
1059.0, 0.001442588947361915
1060.0, 0.0027287844248677254
1061.0, 0.005830010088751278
1062.0, 0.006058819202874889
1063.0, 0.005392954787861286
1064.0, 0.006679420449279076
1065.0, 0.00812623660090853
1066.0, 0.006560785922606593
1067.0, 0.002313467455927355
1068.0, 0.002316164958570959
1069.0, 0.0035546331664663322
1070.0, 0.006427125761952136
1071.0, 0.00631947487848975
1072.0, 0.0030472060253426978
1073.0, 0.005229672054660426
1074.0, 0.004443082128787653
1075.0, 0.0026748406196268637
1076.0, 0.008838840610109637
1077.0, 0.005015084538702084
1078.0, 0.007643503774809156
1079.0, 0.007374726763622898
1080.0, 0.006394440205851803
1081.0, 0.007137213502106371
1082.0, 0.007102209907894108
1083.0, 0.004242570136464868
1084.0, 0.0032071418710052806
1085.0, 0.007952907303005036
1086.0, 0.008933706735784296
1087.0, 0.008351206560914266
1088.0, 0.0052475235905868065
1089.0, 0.003297667780411709
1090.0, 0.0036335455112369943
1091.0, 0.0043050159342114735
1092.0, 0.0026364320787766403
1093.0, 0.002546452959458943
1094.0, 0.006112168998017137
1095.0, 0.0021720243236828564
1096.0, 0.001645682490691343
1097.0, 0.00580542693748236
1098.0, 0.008015039760728931
1099.0, 0.007864297370235423
1100.0, 0.006102884642411879
1101.0, 0.004288846708980595
1102.0, 0.0033503177877490953
1103.0, 0.0024793085714637586
1104.0, 0.0018013750493697952
1105.0, 0.003548797040858733
1106.0, 0.005946531098812508
1107.0, 0.004833100544733098
1108.0, 0.0017917176003996616
1109.0, 0.004139595256412702
1110.0, 0.0033359346396155012
1111.0, 0.007110371239036313
1112.0, 0.002474270451645164
1113.0, 0.0017109624681350627
1114.0, 0.003092537337811939
1115.0, 0.0018219607739962491
1116.0, 0.002122895147919257
1117.0, 0.0036904699338309982
1118.0, 0.005015579477485762
1119.0, 0.0022907436886935246
1120.0, 0.004686823807356901
1121.0, 0.0018354682746534474
1122.0, 0.001721811285095947
1123.0, 0.0023649522387566057
1124.0, 0.0032983398013854475
1125.0, 0.002715651642503221
1126.0, 0.005099696359269862
1127.0, 0.0020870708657379326
1128.0, 0.0015280849211026493
1129.0, 0.005384139143934202
1130.0, 0.005601603033917027
1131.0, 0.008013144016174511
1132.0, 0.006815584133366548
1133.0, 0.0033695468845333287
1134.0, 0.0038064248956881327
1135.0, 0.0038729408888804875
1136.0, 0.00340421926865474
1137.0, 0.007901562752276405
1138.0, 0.00675590546805746
1139.0, 0.001614090191784451
1140.0, 0.0036429077026798058
1141.0, 0.006201136849421789
1142.0, 0.004932006157575579
1143.0, 0.003937681642019622
1144.0, 0.005583489061109036
1145.0, 0.006111566516016362
1146.0, 0.0028347699024705484
1147.0, 0.004336153400227761
1148.0, 0.00746958081613826
1149.0, 0.008219554096549212
1150.0, 0.008964285908732734
1151.0, 0.003738818288314205
1152.0, 0.004450516277131313
1153.0, 0.0032327635491097772
1154.0, 0.002744084788214016
1155.0, 0.0022645942668020826
1156.0, 0.0029295935200049318
1157.0, 0.0038769657992874427
1158.0, 0.007354869814307045
1159.0, 0.00926312776113309
1160.0, 0.005023203856907046
1161.0, 0.006179690226160429
1162.0, 0.0038229827443830014
1163.0, 0.008095866282225486
1164.0, 0.00843427705534701
1165.0, 0.006626691961437081
1166.0, 0.0051388813563031654
1167.0, 0.003039595705784349
1168.0, 0.003809291216854211
1169.0, 0.004566117423540243
1170.0, 0.008431841901649468
1171.0, 0.008923681389632085
1172.0, 0.010670595305634545
1173.0, 0.01062674490350362
1174.0, 0.009131972592968638
1175.0, 0.007127565251634737
1176.0, 0.008489792025460437
1177.0, 0.007825917233207155
1178.0, 0.002972782831691076
1179.0, 0.0014477905758894997
1180.0, 0.0018307754074718956
1181.0, 0.00640012356142814
1182.0, 0.009892452149205231
1183.0, 0.0076046964838390445
1184.0, 0.007945423571898858
1185.0, 0.009889959378159563
1186.0, 0.01215727935505295
1187.0, 0.011297767009161623
1188.0, 0.009259275261364042
1189.0, 0.009893609841324471
1190.0, 0.009999879377488804
1191.0, 0.007299512074584243
1192.0, 0.008964913540561255
1193.0, 0.007311585105699981
1194.0, 0.004092888573493446
1195.0, 0.005746208200915109
1196.0, 0.005078075390768586
1197.0, 0.009112161115423647
1198.0, 0.008171622001197395
1199.0, 0.007436522417807409
1200.0, 0.0072161674287532784
1201.0, 0.00510813378675743
1202.0, 0.003485576836710086
1203.0, 0.0040954986069466175
1204.0, 0.006786820272422975
1205.0, 0.008505351282021702
1206.0, 0.005912847606740484
1207.0, 0.00938417059501934
1208.0, 0.009422653631500195
1209.0, 0.01047744924690885
1210.0, 0.005940227158134312
1211.0, 0.005270778097808764
1212.0, 0.00810015882983544
1213.0, 0.009915008334458427
1214.0, 0.006019498213313441
1215.0, 0.0013027027501462075
1216.0, 0.005994591615880811
1217.0, 0.005580045631406907
1218.0, 0.006717212070685391
1219.0, 0.0068721073553443
1220.0, 0.006141122025804464
1221.0, 0.004012571931732437
1222.0, 0.0029522794252475407
1223.0, 0.0032616990482299286
1224.0, 0.002435833646638111
1225.0, 0.0023106286745670627
1226.0, 0.004856455917144214
1227.0, 0.004648735814215857
1228.0, 0.00706100733120361
1229.0, 0.00591709932304533
1230.0, 0.007277416780265307
1231.0, 0.0075190643934238
1232.0, 0.0065832119131914
1233.0, 0.005163989498584188
1234.0, 0.005224753906382031
1235.0, 0.006579617905233384
1236.0, 0.00848052729520409
1237.0, 0.009458382222168925
1238.0, 0.009211939937251824
1239.0, 0.010235161349609837
1240.0, 0.010854581830056895
1241.0, 0.008558649846416915
1242.0, 0.007369483111467059
1243.0, 0.0028145985682397298
1244.0, 0.006092625623221469
1245.0, 0.012152870124381883
1246.0, 0.010172324781982328
1247.0, 0.006831478907180667
1248.0, 0.0040206974192837
1249.0, 0.004676613351507969
1250.0, 0.008210224776100731
1251.0, 0.010393903050903777
1252.0, 0.009574838579965335
1253.0, 0.006165912958858621
1254.0, 0.0026861684371759335
1255.0, 0.004959196655924189
1256.0, 0.012348941411678145
1257.0, 0.011515177140655235
1258.0, 0.010079287766658456
1259.0, 0.006188308478598267
1260.0, 0.0037096020522179884
1261.0, 0.004352134706967421
1262.0, 0.00843962794067019
1263.0, 0.006539285389122152
1264.0, 0.004149506118532402
1265.0, 0.00508698725097704
1266.0, 0.005846975149292085
1267.0, 0.005060237239361799
1268.0, 0.005071842864841433
1269.0, 0.008144895190078402
1270.0, 0.009821205025656077
1271.0, 0.010973850395092832
1272.0, 0.00611051107848181
1273.0, 0.006572779862635051
1274.0, 0.006061267522902235
1275.0, 0.010270243179005297
1276.0, 0.0031154209369766324
1277.0, 0.006421033306736357
1278.0, 0.006355774514736627
1279.0, 0.0012653973097718715
1280.0, 0.001109385841071537
1281.0, 0.0009633005793032904
1282.0, 0.003008691640375506
1283.0, 0.005529509534008772
1284.0, 0.001434995761964077
1285.0, 0.00360482177001054
1286.0, 0.00463214269041739
1287.0, 0.0014498265953055655
1288.0, 0.0014995161280568845
1289, 0.0
1290, 0.0
1291, 0.0
1292, 0.0
1293, 0.0
1294, 0.0
1295, 0.0
1296, 0.0
1297, 0.0
1298, 0.0
1299, 0.0
1300, 0.0
1301, 0.0
1302, 0.0
1303, 0.0
1304, 0.0
1305, 0.0
1306, 0.0
1307, 0.0
1308, 0.0
1309, 0.0
1310, 0.0
1311, 0.0
1312, 0.0
1313, 0.0
1314, 0.0
1315, 0.0
1316, 0.0
1317, 0.0
1318, 0.0
1319, 0.0
1320, 0.0
1321, 0.0
1322, 0.0
1323, 0.0
1324, 0.0
1325, 0.0
1326, 0.0
1327, 0.0
1328, 0.0
1329, 0.0
1330, 0.0
1331, 0.0
1332, 0.0
1333, 0.0
1334, 0.0
1335, 0.0
1336, 0.0
1337, 0.0
1338, 0.0
1339, 0.0
1340, 0.0
1341, 0.0
1342, 0.0
1343, 0.0
1344, 0.0
1345, 0.0
1346, 0.0
1347, 0.0
1348, 0.0
1349, 0.0
1350, 0.0
1351, 0.0
1352, 0.0
1353, 0.0
1354, 0.0
1355, 0.0
1356, 0.0
1357, 0.0
1358, 0.0
1359, 0.0
1360, 0.0
1361, 0.0
1362, 0.0
1363, 0.0
1364, 0.0
1365, 0.0
1366, 0.0
1367, 0.0
1368, 0.0
1369, 0.0
1370, 0.0
1371, 0.0
1372, 0.0
1373, 0.0
1374, 0.0
1375, 0.0
1376, 0.0
1377, 0.0
1378, 0.0
1379, 0.0
1380, 0.0
1381, 0.0
1382, 0.0
1383, 0.0
1384, 0.0
1385, 0.0
1386, 0.0
1387, 0.0
1388, 0.0
1389, 0.0
1390, 0.0
1391, 0.0
1392, 0.0
1393, 0.0
1394, 0.0
1395, 0.0
1396, 0.0
1397, 0.0
1398, 0.0
1399, 0.0
1400, 0.0
1401, 0.0
1402, 0.0
1403, 0.0
1404, 0.0
1405, 0.0
1406, 0.0
1407, 0.0
1408, 0.0
1409, 0.0
1410, 0.0
1411, 0.0
1412, 0.0
1413, 0.0
1414, 0.0
1415, 0.0
1416, 0.0
1417, 0.0
1418, 0.0
1419, 0.0
1420, 0.0
1421, 0.0
1422, 0.0
1423, 0.0
1424, 0.0
1425, 0.0
1426, 0.0
1427, 0.0
1428, 0.0
1429, 0.0
1430, 0.0
1431, 0.0
1432, 0.0
1433, 0.0
1434, 0.0
1435, 0.0
1436, 0.0
1437, 0.0
1438, 0.0
1439, 0.0
1440, 0.0
1441, 0.0
1442, 0.0
1443, 0.0
1444, 0.0
1445, 0.0
1446, 0.0
1447, 0.0
1448, 0.0
1449, 0.0
1450, 0.0
1451, 0.0
1452, 0.0
1453, 0.0
1454, 0.0
1455, 0.0
1456, 0.0
1457, 0.0
1458, 0.0
1459, 0.0
1460, 0.0
1461, 0.0
1462, 0.0
1463, 0.0
1464, 0.0
1465, 0.0
1466, 0.0
1467, 0.0
1468, 0.0
1469, 0.0
1470, 0.0
1471, 0.0
1472, 0.0
1473, 0.0
1474, 0.0
1475, 0.0
1476, 0.0
1477, 0.0
1478, 0.0
1479, 0.0
1480, 0.0
1481, 0.0
1482, 0.0
1483, 0.0
1484, 0.0
1485, 0.0
1486, 0.0
1487, 0.0
1488, 0.0
1489, 0.0
1490, 0.0
1491, 0.0
1492, 0.0
1493, 0.0
1494, 0.0
1495, 0.0
1496, 0.0
1497, 0.0
1498, 0.0
1499, 0.0
1500, 0.0
1501, 0.0
1502, 0.0
1503, 0.0
1504, 0.0
1505, 0.0
1506, 0.0
1507, 0.0
1508, 0.0
1509, 0.0
1510, 0.0
1511, 0.0
1512, 0.0
1513, 0.0
1514, 0.0
1515, 0.0
1516, 0.0
1517, 0.0
1518, 0.0
1519, 0.0
1520, 0.0
1521, 0.0
1522, 0.0
1523, 0.0
1524, 0.0
1525, 0.0
1526, 0.0
1527, 0.0
1528, 0.0
1529, 0.0
1530, 0.0
1531, 0.0
1532, 0.0
1533, 0.0
1534, 0.0
1535, 0.0
1536, 0.0
1537, 0.0
1538, 0.0
1539, 0.0
1540, 0.0
1541, 0.0
1542, 0.0
1543, 0.0
1544, 0.0
1545, 0.0
1546, 0.0
1547, 0.0
1548, 0.0
1549, 0.0
1550, 0.0
1551, 0.0
1552, 0.0
1553, 0.0
1554, 0.0
1555, 0.0
1556, 0.0
1557, 0.0
1558, 0.0
1559, 0.0
1560, 0.0
1561, 0.0
1562, 0.0
1563, 0.0
1564, 0.0
1565, 0.0
1566, 0.0
1567, 0.0
1568, 0.0
1569, 0.0
1570, 0.0
1571, 0.0
1572, 0.0
1573, 0.0
1574, 0.0
1575, 0.0
1576, 0.0
1577, 0.0
1578, 0.0
1579, 0.0
1580, 0.0
1581, 0.0
1582, 0.0
1583, 0.0
1584, 0.0
1585, 0.0
1586, 0.0
1587, 0.0
1588, 0.0
1589, 0.0
1590, 0.0
1591, 0.0
1592, 0.0
1593, 0.0
1594, 0.0
1595, 0.0
1596, 0.0
1597, 0.0
1598, 0.0
1599, 0.0
