30, 0.0
31, 0.0
32, 0.0
33, 0.0
34, 0.0
35, 0.0
36, 0.0
37, 0.0
38, 0.0
39, 0.0
40, 0.0
41, 0.0
42, 0.0
43, 0.0
44, 0.0
45, 0.0
46, 0.0
47, 0.0
48, 0.0
49, 0.0
50, 0.0
51, 0.0
52, 0.0
53, 0.0
54, 0.0
55, 0.0
56, 0.0
57, 0.0
58, 0.0
59, 0.0
60, 0.0
61, 0.0
62, 0.0
63, 0.0
64, 0.0
65, 0.0
66, 0.0
67, 0.0
68, 0.0
69, 0.0
70, 0.0
71, 0.0
72, 0.0
73, 0.0
74, 0.0
75, 0.0
76, 0.0
77, 0.0
78, 0.0
79, 0.0
80, 0.0
81, 0.0
82, 0.0
83, 0.0
84, 0.0
85, 0.0
86, 0.0
87, 0.0
88, 0.0
89, 0.0
90, 0.0
91, 0.0
92, 0.0
93, 0.0
94, 0.0
95, 0.0
96, 0.0
97, 0.0
98, 0.0
99, 0.0
100, 0.0
101, 0.0
102, 0.0
103, 0.0
104, 0.0
105, 0.0
106, 0.0
107, 0.0
108, 0.0
109, 0.0
110, 0.0
111, 0.0
112, 0.0
113, 0.0
114, 0.0
115, 0.0
116, 0.0
117, 0.0
118, 0.0
119, 0.0
120, 0.0
121, 0.0
122, 0.0
123, 0.0
124, 0.0
125, 0.0
126, 0.0
127, 0.0
128, 0.0
129, 0.0
130, 0.0
131, 0.0
132, 0.0
133, 0.0
134, 0.0
135, 0.0
136, 0.0
137, 0.0
138.0, 0.0008573378627755151
139.0, 0.0004257830460218359
140.0, 0.0018454632857099348
141.0, 0.00644722250140483
142.0, 0.01266776036600194
143.0, 0.020473426247058703
144.0, 0.0314069861219753
145.0, 0.047819962560525134
146.0, 0.0660603888512408
147.0, 0.08283047993422925
148.0, 0.10147412393141586
149.0, 0.11615796361306614
150.0, 0.12285957774655722
151.0, 0.12199609076056844
152.0, 0.11798643998912976
153.0, 0.11371681188603687
154.0, 0.11567583426293446
155.0, 0.12352512869178721
156.0, 0.1329816803767976
157.0, 0.13810019407434185
158.0, 0.1353290401210139
159.0, 0.12530895289248134
160.0, 0.11060527746871758
161.0, 0.09977781053804176
162.0, 0.09951610234636019
163.0, 0.10285285698154956
164.0, 0.106228639222343
165.0, 0.107105869857081
166.0, 0.10368318499578773
167.0, 0.09351149996897103
168.0, 0.07947691570293547
169.0, 0.06846886052865354
170.0, 0.06835191912216555
171.0, 0.07097374894629353
172.0, 0.07517500821586176
173.0, 0.08241051662342501
174.0, 0.0908451598105207
175.0, 0.09643800674448225
176.0, 0.10125919455490898
177.0, 0.10349092583156709
178.0, 0.09545898117257796
179.0, 0.08204934339093518
180.0, 0.06314182160642011
181.0, 0.04073852400562867
182.0, 0.019539019346878864
183.0, 0.00459764558486284
184.0, 0.00685434519985619
185.0, 0.012892110098473467
186.0, 0.013446068087772824
187.0, 0.0125125281205395
188.0, 0.0063907721847553545
189.0, 0.002774534647806262
190.0, 0.01420827428009006
191.0, 0.02926977828725525
192.0, 0.044702865804752405
193.0, 0.06122364211753615
194.0, 0.07795130924888954
195.0, 0.09342693953304508
196.0, 0.10953523515018719
197.0, 0.1216940110009897
198.0, 0.1347819326669681
199.0, 0.15212381262194144
200.0, 0.16832991931508787
201.0, 0.18219148050300005
202.0, 0.19459603589354763
203.0, 0.20596819186562038
204.0, 0.21540683518026252
205.0, 0.21981619370588573
206.0, 0.2262235242300849
207.0, 0.232723761199774
208.0, 0.23629779480184807
209.0, 0.23956915910401974
210.0, 0.23743332068800954
211.0, 0.23409110095522212
212.0, 0.23103570911097718
213.0, 0.22582017648548394
214.0, 0.21588854307024768
215.0, 0.2058476541128797
216.0, 0.19282120383352344
217.0, 0.17474937199163684
218.0, 0.1616875980937407
219.0, 0.15017524582669808
220.0, 0.14142730697494535
221.0, 0.13396422051575957
222.0, 0.12384994053416705
223.0, 0.11468797303032155
224.0, 0.1031488004155928
225.0, 0.09387728847120307
226.0, 0.08993593763533303
227.0, 0.08688200629166336
228.0, 0.08631981685159004
229.0, 0.08831696226164795
230.0, 0.0934353370930593
231.0, 0.10228852316244225
232.0, 0.11119011891158637
233.0, 0.11748443795543446
234.0, 0.12459161235357781
235.0, 0.13581312330180675
236.0, 0.1500432817911766
237.0, 0.15956318040150783
238.0, 0.1696900004914052
239.0, 0.18254311245700766
240.0, 0.19448176249299093
241.0, 0.20427828658718172
242.0, 0.21473272033380134
243.0, 0.223910202385313
244.0, 0.23004864739076974
245.0, 0.23491214274039923
246.0, 0.23828272299052636
247.0, 0.24099548930815107
248.0, 0.24131181949396163
249.0, 0.23693557866648132
250.0, 0.22965260321951983
251.0, 0.22431451185085596
252.0, 0.2200245846633463
253.0, 0.21629840295818453
254.0, 0.21572744084503756
255.0, 0.21229249600951042
256.0, 0.21150172417341104
257.0, 0.21233507129520152
258.0, 0.2098411204966528
259.0, 0.2070662639309976
260.0, 0.2018014881078979
261.0, 0.19352902678953884
262.0, 0.18258405189281338
263.0, 0.17000702638387105
264.0, 0.15908287179798053
265.0, 0.1466612181355152
266.0, 0.13256195515403946
267.0, 0.11785873565324763
268.0, 0.10283603326855903
269.0, 0.0872811177385063
270.0, 0.07231304246427318
271.0, 0.05959602644989102
272.0, 0.049911117319747754
273.0, 0.04023029522281901
274.0, 0.035110496025614016
275.0, 0.031128617746872447
276.0, 0.026849294642169553
277.0, 0.026176137982427194
278.0, 0.02560241728018144
279.0, 0.023936186202682987
280.0, 0.022333959156662347
281.0, 0.021855014058385205
282.0, 0.019116770703713752
283.0, 0.017298311529330177
284.0, 0.014526696279766847
285.0, 0.011185945744319987
286.0, 0.010019526317402386
287.0, 0.008514296734661033
288.0, 0.008301942908743495
289.0, 0.007946779529799825
290.0, 0.00671987255718267
291.0, 0.0060627981709953285
292.0, 0.006611530637092898
293.0, 0.0060743485741607105
294.0, 0.005480977227660436
295.0, 0.005569628345028184
296.0, 0.004848539068568524
297.0, 0.0036596673812098295
298.0, 0.0025796092790893346
299.0, 0.0020590398673585313
300.0, 0.0018890519767810216
301.0, 0.0004929264006671959
302.0, 0.0025878428547327207
303.0, 0.00413393504432416
304.0, 0.0044932331921074715
305.0, 0.004266437263552882
306.0, 0.004933604453538313
307.0, 0.005015897215252255
308.0, 0.004149527990234322
309.0, 0.0027098056374623945
310.0, 0.001545105592107928
311.0, 0.0008479085406998786
312.0, 0.0024571579409788714
313.0, 0.0034361582543263654
314.0, 0.004550461482462261
315.0, 0.004780609724159011
316.0, 0.005473077309858383
317.0, 0.006511688864449434
318.0, 0.005837127780601544
319.0, 0.0028625104564859276
320.0, 0.0008357044113315685
321.0, 0.0002820376673349576
322.0, 0.0015016937598091341
323.0, 0.0017194474027830968
324.0, 0.00038643232799176285
325.0, 0.0011905984635272053
326.0, 0.004414114527927576
327.0, 0.00905417093819857
328.0, 0.01424487162596972
329.0, 0.02016536138546401
330.0, 0.029474597553917462
331.0, 0.03933078802059876
332.0, 0.050748768545957494
333.0, 0.06448187956720525
334.0, 0.07929050453925228
335.0, 0.09312657180032137
336.0, 0.10464349097177873
337.0, 0.11485002011981674
338.0, 0.12525653992237154
339.0, 0.13605206380339255
340.0, 0.1477249964409872
341.0, 0.15996310197120037
342.0, 0.17377006724270933
343.0, 0.18802939456311732
344.0, 0.19956813126817072
345.0, 0.21352410555116907
346.0, 0.22749679232053532
347.0, 0.24112206868720293
348.0, 0.255546457047121
349.0, 0.27097594438703737
350.0, 0.280736747826142
351.0, 0.2869307502476626
352.0, 0.2863221290147881
353.0, 0.2759739069496699
354.0, 0.2597928039004614
355.0, 0.23607639620791085
356.0, 0.21381540060415527
357.0, 0.19646827933838518
358.0, 0.18369639277701094
359.0, 0.17379339095378452
360.0, 0.1696116504567342
361.0, 0.16927896892031022
362.0, 0.17111608512854226
363.0, 0.17445525624297842
364.0, 0.18043760106607873
365.0, 0.18627851865058448
366.0, 0.19386761074444792
367.0, 0.2022678890516334
368.0, 0.2087399990916534
369.0, 0.21489357243365836
370.0, 0.22054564657247264
371.0, 0.22397724264022298
372.0, 0.22540165502131992
373.0, 0.2263682271581657
374.0, 0.22796510615496235
375.0, 0.22678553761065887
376.0, 0.22495447353498926
377.0, 0.22387176151794602
378.0, 0.22335802465108653
379.0, 0.22282464582499467
380.0, 0.21931049084528564
381.0, 0.2152943748062109
382.0, 0.21028035546696583
383.0, 0.20269818554017907
384.0, 0.19564496347353144
385.0, 0.18540001692522476
386.0, 0.1737651429362473
387.0, 0.16199920076581087
388.0, 0.1493566322158769
389.0, 0.13373864872254174
390.0, 0.11700669749193252
391.0, 0.1010992219812032
392.0, 0.08735009035676458
393.0, 0.07461333624189952
394.0, 0.05900097256884536
395.0, 0.04548029424321102
396.0, 0.03470390210877273
397.0, 0.026778520146461798
398.0, 0.02109940508188572
399.0, 0.015371299514989094
400.0, 0.011191479526333138
401.0, 0.007508601548520023
402.0, 0.0046902484701826725
403.0, 0.003311806597738287
404.0, 0.002428763221932072
405.0, 0.0005760562737701474
406.0, 0.0013938087990174092
407.0, 0.003475154779101119
408.0, 0.005038725654006763
409.0, 0.004915974828226399
410.0, 0.005340171267909379
411.0, 0.00469469840444824
412.0, 0.00512853344411391
413.0, 0.00603451100936112
414.0, 0.004628943901881017
415.0, 0.0024674007261652783
416.0, 0.001729230909864978
417.0, 0.0006293406100739698
418.0, 0.0021294698128905176
419.0, 0.003042055575431069
420.0, 0.004582564818690805
421.0, 0.008696654641661259
422.0, 0.010174811805820673
423.0, 0.010592463446489115
424.0, 0.012726705346555001
425.0, 0.012609458998457883
426.0, 0.012686090562883364
427.0, 0.012529347910974212
428.0, 0.011665060927497264
429.0, 0.010177848395528113
430.0, 0.008629697345904935
431.0, 0.007500770088917763
432.0, 0.008990085058370949
433.0, 0.00960678519008384
434.0, 0.008505535672324748
435.0, 0.008551094463508714
436.0, 0.009290864127995634
437.0, 0.0077387869484329
438.0, 0.006873822493503446
439.0, 0.00772934853545781
440.0, 0.0089524179093729
441.0, 0.010199645323354432
442.0, 0.013795906939250443
443.0, 0.018728522589657425
444.0, 0.024808075566267712
445.0, 0.03265353295930075
446.0, 0.04188398847612477
447.0, 0.050511328293105215
448.0, 0.0597001817621594
449.0, 0.07018110223977306
450.0, 0.08057921799237598
451.0, 0.08936678492026714
452.0, 0.10116897818512642
453.0, 0.11260380945712345
454.0, 0.12412525974192168
455.0, 0.135754127396213
456.0, 0.146682320456072
457.0, 0.15893597346905305
458.0, 0.169646356360909
459.0, 0.17962310435300183
460.0, 0.19277763657154737
461.0, 0.20825404485106153
462.0, 0.21742259778610187
463.0, 0.22455054096457883
464.0, 0.22957678372845405
465.0, 0.2304448841322918
466.0, 0.22589653797941167
467.0, 0.2170370360605912
468.0, 0.2085811352998064
469.0, 0.20144257741069913
470.0, 0.19363654822817197
471.0, 0.1852304808436717
472.0, 0.1765927042968068
473.0, 0.16562206121207196
474.0, 0.15635094845202563
475.0, 0.1476933082521333
476.0, 0.13975535128063685
477.0, 0.13299711671606423
478.0, 0.12732578863648839
479.0, 0.12408522206163275
480.0, 0.12032025806346437
481.0, 0.11674004727119297
482.0, 0.11437322727028737
483.0, 0.11346891368097445
484.0, 0.11358480072532454
485.0, 0.11274382293002601
486.0, 0.11421485513774123
487.0, 0.11691500724141889
488.0, 0.11919406426169779
489.0, 0.12170445590018035
490.0, 0.12904334529268668
491.0, 0.13337028773149487
492.0, 0.13964519087455265
493.0, 0.14717603971054577
494.0, 0.15252670843483426
495.0, 0.16096294515431067
496.0, 0.1662248628847264
497.0, 0.17080166242575334
498.0, 0.17667079356418014
499.0, 0.1834204160375297
500.0, 0.1890793344336885
501.0, 0.19333737317779423
502.0, 0.1945276042253271
503.0, 0.1955223302556699
504.0, 0.1937643897537494
505.0, 0.18731294188624117
506.0, 0.18184207042160175
507.0, 0.17095287982793794
508.0, 0.15609612830320696
509.0, 0.1393594955536286
510.0, 0.12057632454623612
511.0, 0.09949792607162973
512.0, 0.08376554946964725
513.0, 0.06781935808470116
514.0, 0.05195452417206073
515.0, 0.03927333471976505
516.0, 0.030317036738507667
517.0, 0.02284016159284918
518.0, 0.01915207546419793
519.0, 0.015813912106036918
520.0, 0.014379987354939578
521.0, 0.013631271580111197
522.0, 0.01206685925308398
523.0, 0.014284320159919638
524.0, 0.018605537042599398
525.0, 0.023301808371544337
526.0, 0.0274605643232411
527.0, 0.03232266509238598
528.0, 0.03950095545469446
529.0, 0.04618098317881308
530.0, 0.05309582422803991
531.0, 0.06196620189469694
532.0, 0.07122567421400386
533.0, 0.08018324046322284
534.0, 0.09025417673270547
535.0, 0.10045067102124733
536.0, 0.10803484301779918
537.0, 0.1160776880784828
538.0, 0.12434512288716584
539.0, 0.1314610832341616
540.0, 0.138744309710703
541.0, 0.1444966902299642
542.0, 0.14995187036193652
543.0, 0.15301158654939018
544.0, 0.15391119338478285
545.0, 0.15340106932415648
546.0, 0.14952798559293085
547.0, 0.1440636271634752
548.0, 0.13557419666334627
549.0, 0.12822892545145487
550.0, 0.11980190221137264
551.0, 0.1064599821025829
552.0, 0.0949623946425035
553.0, 0.08127548078837855
554.0, 0.06899780714977836
555.0, 0.05869415815061073
556.0, 0.04871119938122941
557.0, 0.039067143515265586
558.0, 0.0318256706524647
559.0, 0.024470926997622766
560.0, 0.019286667498777506
561.0, 0.014522590309853225
562.0, 0.009608260106146831
563.0, 0.005992008726488535
564.0, 0.0029568286129645427
565.0, 0.0010003122582156229
566.0, 0.0007165472867027509
567.0, 0.0028508918231994486
568.0, 0.004101406913435341
569.0, 0.003561855896592117
570.0, 0.0048457074058339085
571.0, 0.005132247700975062
572.0, 0.005052862769988483
573.0, 0.004965778536733569
574.0, 0.004529379360173286
575.0, 0.0036670832889929253
576.0, 0.00262088150838137
577.0, 0.0021016496414809844
578.0, 0.0007624829030313325
579.0, 0.0004310276757667893
580.0, 0.0003719171568948844
581.0, 0.00031803426667077506
582.0, 0.0022586698543916976
583.0, 0.003831774568476797
584.0, 0.004209878650454511
585.0, 0.005940919267641103
586.0, 0.007950187052927453
587.0, 0.007535018416819076
588.0, 0.007286846195213005
589.0, 0.00824996593441193
590.0, 0.008533552779087829
591.0, 0.008673097466726048
592.0, 0.008528961752187782
593.0, 0.0072344854591160765
594.0, 0.0066571399240483485
595.0, 0.007275363179341276
596.0, 0.006747368368039798
597.0, 0.006466281286978579
598.0, 0.007279049249310372
599.0, 0.007559174076470184
600.0, 0.006686528261813179
601.0, 0.007222511771065344
602.0, 0.0071620733730097036
603.0, 0.007258539774889163
604.0, 0.007302330725663464
605.0, 0.006804689630566305
606.0, 0.006974550334995519
607.0, 0.0060587384417417536
608.0, 0.005837940517584078
609.0, 0.005490002968393628
610.0, 0.005393330286406013
611.0, 0.005824519510333207
612.0, 0.0053653002188950635
613.0, 0.005180402797086154
614.0, 0.005652854194706577
615.0, 0.006008575802685848
616.0, 0.00612969199868859
617.0, 0.006342087891502265
618.0, 0.006651309965780338
619.0, 0.006164253492115331
620.0, 0.006625086009091694
621.0, 0.006881768617052766
622.0, 0.006732926575100059
623.0, 0.007084904711077199
624.0, 0.007940067407194992
625.0, 0.007871472638390081
626.0, 0.007663260204410712
627.0, 0.006847938355732079
628.0, 0.00679944900050192
629.0, 0.007074160264372743
630.0, 0.006284781428825742
631.0, 0.004906982444588071
632.0, 0.004466317969820075
633.0, 0.0044653244940668566
634.0, 0.005061852493896699
635.0, 0.005399277027482144
636.0, 0.0048328452709602955
637.0, 0.004440590180478709
638.0, 0.005233834746877353
639.0, 0.004538673465800623
640.0, 0.005467119562329982
641.0, 0.006343761147631052
642.0, 0.005943716856282295
643.0, 0.005267425658536287
644.0, 0.005842496450934602
645.0, 0.005807182712936759
646.0, 0.006440965510246101
647.0, 0.00738778666642238
648.0, 0.008072884430928406
649.0, 0.008156363988401869
650.0, 0.007949350029005502
651.0, 0.009012516452150808
652.0, 0.009677394187069305
653.0, 0.009110176695423728
654.0, 0.008875602796751992
655.0, 0.009427961491843438
656.0, 0.009521774078212628
657.0, 0.008471666023176052
658.0, 0.009447665677083649
659.0, 0.009679335778501814
660.0, 0.010239460651806647
661.0, 0.010278600015048907
662.0, 0.00932989629921674
663.0, 0.008780843923988138
664.0, 0.00865460935444324
665.0, 0.008157482764830292
666.0, 0.008675462829789234
667.0, 0.00893509390533196
668.0, 0.008479547287062903
669.0, 0.008041476173639818
670.0, 0.007934530253996867
671.0, 0.007169011545266632
672.0, 0.006847164401357761
673.0, 0.0074761552597624546
674.0, 0.007083370244852062
675.0, 0.006145457968256938
676.0, 0.006300274671596268
677.0, 0.006251038521969518
678.0, 0.005220752933941359
679.0, 0.004772471702364487
680.0, 0.004207634136208893
681.0, 0.004219500366922451
682.0, 0.00420048704529525
683.0, 0.002973620138924288
684.0, 0.0034808191568578162
685.0, 0.0034613129326605133
686.0, 0.003532709657096365
687.0, 0.0035315594021444355
688.0, 0.0031568449875154694
689.0, 0.002561949809044378
690.0, 0.0022204636595463214
691.0, 0.0022726449229422785
692.0, 0.0012623503215242228
693.0, 0.001295726326820683
694.0, 0.001578036674629064
695.0, 0.0006996577350935784
696.0, 0.0001969514469822745
697.0, 0.0006720796459942997
698.0, 0.00032359389093121195
699.0, 2.92598238173397e-05
700.0, 0.0001954020898630865
701.0, 0.00014536889007653626
702.0, 0.0003940727315161558
703.0, 0.0011475485473061108
704.0, 0.0020288189727015837
705.0, 0.0017608431497939158
706.0, 0.0012010629651881316
707.0, 0.0018794000508516391
708.0, 0.0013047142207143034
709.0, 1.627252217455152e-05
710.0, 0.00048591144956268775
711.0, 0.0005446891557688754
712.0, 0.0006910900695656715
713.0, 0.0012972059706965046
714.0, 0.001667392490687443
715.0, 0.001622423280224293
716.0, 0.002231980996946348
717.0, 0.0035208679418552028
718.0, 0.003974485625066976
719.0, 0.005216761154010339
720.0, 0.006553679446017202
721.0, 0.007586536588934752
722.0, 0.009050362896523608
723.0, 0.010599326043558547
724.0, 0.011831923643933677
725.0, 0.014431703836923517
726.0, 0.01705708867035325
727.0, 0.018610279106240496
728.0, 0.01977091848248956
729.0, 0.022717292822179352
730.0, 0.02704561667008619
731.0, 0.03070991124079175
732.0, 0.03300386829564027
733.0, 0.03528959531246097
734.0, 0.03825022966475808
735.0, 0.04023940199800038
736.0, 0.041938209222947165
737.0, 0.04434562347611548
738.0, 0.0467320362421391
739.0, 0.04760811052811862
740.0, 0.04714593674789173
741.0, 0.04727629399195657
742.0, 0.04766576405615395
743.0, 0.04687346291884874
744.0, 0.04625087352029943
745.0, 0.04550904071918932
746.0, 0.04264778416614413
747.0, 0.04032540828025668
748.0, 0.03561857026014127
749.0, 0.03342398228802794
750.0, 0.03004707842181672
751.0, 0.02672893272639665
752.0, 0.02443824065459159
753.0, 0.02104527205560982
754.0, 0.017361478705624656
755.0, 0.014205051651826117
756.0, 0.011399607669974662
757.0, 0.00933721767524304
758.0, 0.006758654479478135
759.0, 0.004737900814913531
760.0, 0.003621443517065184
761.0, 0.001072586760974972
762.0, 0.0007992640288069816
763.0, 0.0009533923082615842
764.0, 0.002247183158526767
765.0, 0.002834475551269188
766.0, 0.0034604351752830697
767.0, 0.004507507053434133
768.0, 0.004560064414684271
769.0, 0.003989208755461068
770.0, 0.004944296037176269
771.0, 0.004403640390771129
772.0, 0.0021992783625473158
773.0, 0.0009458930632722664
774.0, 0.000149280372991629
775.0, 0.0012727215831994617
776.0, 0.0026013849528439144
777.0, 0.005008394213641881
778.0, 0.007461423907131369
779.0, 0.010295921962391593
780.0, 0.014130831550032787
781.0, 0.01742410834229383
782.0, 0.020748977403578568
783.0, 0.0261950899345154
784.0, 0.032681897689317674
785.0, 0.04011428260217073
786.0, 0.0462075163370554
787.0, 0.054598828835427625
788.0, 0.0649464787720061
789.0, 0.07501476534829168
790.0, 0.08492912626144755
791.0, 0.09639257431374351
792.0, 0.10916213188345268
793.0, 0.12015106863832467
794.0, 0.13057808873662752
795.0, 0.14458462265713598
796.0, 0.15623922620860461
797.0, 0.1653969394155509
798.0, 0.17675145891637228
799.0, 0.18911995539044732
800.0, 0.19948969964381605
801.0, 0.20630340753639384
802.0, 0.21294358151941106
803.0, 0.21964067517880256
804.0, 0.22218789802300365
805.0, 0.22037402244002013
806.0, 0.21778462134733223
807.0, 0.21468890331562934
808.0, 0.20719782410423426
809.0, 0.20014189996377715
810.0, 0.1904265385369717
811.0, 0.18023211000014402
812.0, 0.17133597771658554
813.0, 0.16173918375976012
814.0, 0.1522662584050021
815.0, 0.14608186241680876
816.0, 0.13882695832479172
817.0, 0.1348610266639044
818.0, 0.13140966057794679
819.0, 0.13005815826761902
820.0, 0.12797018906763713
821.0, 0.1249986913267412
822.0, 0.12367344379531736
823.0, 0.12193774412251777
824.0, 0.11783060568474482
825.0, 0.11360798699402298
826.0, 0.1106768477863435
827.0, 0.10821182352628737
828.0, 0.10778466068394027
829.0, 0.10921412584366538
830.0, 0.11271504596264598
831.0, 0.11989114740872071
832.0, 0.12806141076001998
833.0, 0.14094238584460586
834.0, 0.1568931895701772
835.0, 0.17682155548793516
836.0, 0.20008001679820261
837.0, 0.22801394327771088
838.0, 0.2625303078915566
839.0, 0.3040877123496725
840.0, 0.35208274282882757
841.0, 0.4043981424376356
842.0, 0.45886138678680366
843.0, 0.5186604126388014
844.0, 0.5770030237365528
845.0, 0.6358607966855263
846.0, 0.694168707198723
847.0, 0.7466986315404814
848.0, 0.7999360437021452
849.0, 0.8575613637168332
850.0, 0.9041417041200678
851.0, 0.9448493328952957
852.0, 0.9777606003609862
853.0, 0.99624281564467
854.0, 0.9989999975375475
855.0, 0.9865216356004384
856.0, 0.9557693799493009
857.0, 0.9008841819033899
858.0, 0.8260058227744816
859.0, 0.7456325311606933
860.0, 0.6633148095865745
861.0, 0.5795283538554334
862.0, 0.5029645250512816
863.0, 0.4383454688086729
864.0, 0.38239743366353096
865.0, 0.333070338164185
866.0, 0.29327394107860044
867.0, 0.2622531181217877
868.0, 0.23668615970153012
869.0, 0.21492777357231507
870.0, 0.1957265318787756
871.0, 0.17943506077879054
872.0, 0.16645111261159418
873.0, 0.15533668006329668
874.0, 0.14286338566343795
875.0, 0.1317054599423373
876.0, 0.11836633309681338
877.0, 0.10467224601567132
878.0, 0.09175666669876553
879.0, 0.07894420185781173
880.0, 0.06763546568986449
881.0, 0.05913265644776376
882.0, 0.05184123325559024
883.0, 0.04383853064845169
884.0, 0.038829796204373324
885.0, 0.03454918515083567
886.0, 0.029437549769507805
887.0, 0.0260621375050147
888.0, 0.022730780444714088
889.0, 0.01907183897230646
890.0, 0.01677456310531706
891.0, 0.015199285779827636
892.0, 0.012490060515319786
893.0, 0.010957203951176928
894.0, 0.009015814468085507
895.0, 0.00773220667760228
896.0, 0.006457987531051942
897.0, 0.004962748965154696
898.0, 0.0033123774508507595
899.0, 0.002024282117827258
900.0, 0.0016452741993637212
901.0, 0.0010992775236896052
902.0, 0.0007902466216277462
903.0, 0.00041565810712872897
904.0, 0.0005064104798459542
905.0, 0.00022880517875200644
906.0, 0.0007378809342937804
907.0, 0.0010262661372386283
908.0, 0.0009266067950875
909.0, 0.001028346091196331
910.0, 0.001983548626987164
911.0, 0.0022890610891451403
912.0, 0.0015881462761271894
913.0, 0.0015033268986828063
914.0, 0.001706128344734582
915.0, 0.0020468683063710486
916.0, 0.0017939801809819576
917.0, 0.0013297145253808329
918.0, 0.0015262369444098043
919.0, 0.0016478665802360226
920.0, 0.001828328520861259
921.0, 0.001996954384710887
922.0, 0.0014248811593791744
923.0, 0.001656889288120396
924.0, 0.0019136929446560073
925.0, 0.0010749726531195727
926.0, 0.00028941298430875886
927.0, 0.0004598502616332619
928.0, 0.0006239331447327776
929.0, 0.00010740791821214158
930.0, 0.00038545750050800014
931.0, 0.0007532676125731201
932.0, 0.0005254022745604176
933.0, 0.0005014754803416211
934.0, 0.0005001796021007292
935.0, 0.0009323247406771108
936.0, 0.0018058519740239704
937.0, 0.0021669525933578474
938.0, 0.0019687228440481105
939.0, 0.003062731112454218
940.0, 0.0027183489730397046
941.0, 0.003497248953259012
942.0, 0.004197071841631855
943.0, 0.0037561933907700367
944.0, 0.0038518720053533875
945.0, 0.004736604070904363
946.0, 0.005060118373991685
947.0, 0.004954264480874591
948.0, 0.005542131837847059
949.0, 0.005752529357596003
950.0, 0.005967683959864913
951.0, 0.0062901993621832025
952.0, 0.007279442121591906
953.0, 0.007982428113666309
954.0, 0.008180515132909825
955.0, 0.008166290503386053
956.0, 0.00810023441003394
957.0, 0.008072490474442327
958.0, 0.008434051669319579
959.0, 0.009183426935864488
960.0, 0.009324694373383272
961.0, 0.009733989970606515
962.0, 0.010265274130264518
963.0, 0.009890783749137426
964.0, 0.010814609363430336
965.0, 0.010612997021452353
966.0, 0.011014082626241537
967.0, 0.012274026532856641
968.0, 0.011601429352593227
969.0, 0.011481559243513349
970.0, 0.01138364806886972
971.0, 0.011397276124738247
972.0, 0.012160105721087456
973.0, 0.012547752173731903
974.0, 0.011884230205677486
975.0, 0.011460758293438008
976.0, 0.011217623174420138
977.0, 0.011238044913000775
978.0, 0.011554695208321688
979.0, 0.011133006779408268
980.0, 0.010555498955012116
981.0, 0.010131963468456838
982.0, 0.009520535336023653
983.0, 0.008483812750178914
984.0, 0.008946688099254516
985.0, 0.008536295031298753
986.0, 0.007721106478930739
987.0, 0.00744482901269658
988.0, 0.007196313322290819
989.0, 0.007251232838207824
990.0, 0.007591958687776999
991.0, 0.007942513062272972
992.0, 0.0069503691964707005
993.0, 0.0068559682281255354
994.0, 0.005510693043275366
995.0, 0.006267686841077963
996.0, 0.006396722456945006
997.0, 0.006516536366891114
998.0, 0.0065251459187806275
999.0, 0.00581771171466717
1000.0, 0.0052464371014395396
1001.0, 0.005117827203216748
1002.0, 0.005032022407571186
1003.0, 0.004205008281388365
1004.0, 0.004389868950663548
1005.0, 0.004030384020838682
1006.0, 0.00431729011918269
1007.0, 0.005258260289009409
1008.0, 0.004281358355888165
1009.0, 0.00351128819889073
1010.0, 0.004332799332570447
1011.0, 0.004187104592358765
1012.0, 0.003477558294362397
1013.0, 0.00354869998819652
1014.0, 0.0032055264507790575
1015.0, 0.004000167107992358
1016.0, 0.003663318621654396
1017.0, 0.0031394295309247477
1018.0, 0.003049861138536487
1019.0, 0.003631043453068862
1020.0, 0.0033121563357388756
1021.0, 0.0026840548189556545
1022.0, 0.0026743468047230215
1023.0, 0.0021445686308326664
1024.0, 0.002431646049852669
1025.0, 0.002939419682792029
1026.0, 0.0026142268053340433
1027.0, 0.0030116551945285485
1028.0, 0.002713663802455064
1029.0, 0.0020150831308131307
1030.0, 0.0020410588519370458
1031.0, 0.0016696044669758882
1032.0, 0.002043215334900412
1033.0, 0.002142525561520676
1034.0, 0.0011898984601993615
1035.0, 0.0018337756389482695
1036.0, 0.001981247560979853
1037.0, 0.0010424457800980139
1038.0, 0.0022972451558156133
1039.0, 0.0014465271091547859
1040.0, 0.00150489257638264
1041.0, 0.001619297203652836
1042.0, 0.0014012381968241368
1043.0, 0.0016500194290242963
1044.0, 0.0015955678667394228
1045.0, 0.0014886958123323483
1046.0, 0.0016636079726132446
1047.0, 0.001444769507600799
1048.0, 0.0012607826209943985
1049.0, 0.0007710905921334123
1050.0, 0.0008598701516041938
1051.0, 0.0015596015021085963
1052.0, 0.0017243397934713935
1053.0, 0.001072421297466898
1054.0, 0.0010409328877765628
1055.0, 0.0011075901320610187
1056.0, 0.0006645188892953248
1057.0, 0.0007853455644514488
1058.0, 0.0012484677475671987
1059.0, 0.001438549833468792
1060.0, 0.0017251409149970434
1061.0, 0.0011765461687346832
1062.0, 0.0013245093001083208
1063.0, 0.0015327689624074165
1064.0, 0.0014897431304285204
1065.0, 0.003740465687467452
1066.0, 0.0028382829751822628
1067.0, 0.0021012490449831707
1068.0, 0.0020733023356086146
1069.0, 0.0018395661767017235
1070.0, 0.0017894089145769124
1071.0, 0.00174344865984043
1072.0, 0.0018213776925712168
1073.0, 0.0021706190838997985
1074.0, 0.0014421907253898852
1075.0, 0.0014359688597844961
1076.0, 0.001869653539884386
1077.0, 0.003074957565759424
1078.0, 0.0023738523975546906
1079.0, 0.0019359367006609167
1080.0, 0.0016890133324158922
1081.0, 0.0025993457799514657
1082.0, 0.0024744314316433318
1083.0, 0.001541476206097331
1084.0, 0.0014093407290143986
1085.0, 0.0018612884000140694
1086.0, 0.0023169927119696247
1087.0, 0.0022180405326082666
1088.0, 0.0014357985799752291
1089.0, 0.0018867363142933149
1090.0, 0.002043736739291519
1091.0, 0.0024847064899100827
1092.0, 0.0019808902543813176
1093.0, 0.0015350801387827944
1094.0, 0.0013299561921611875
1095.0, 0.001258382555266418
1096.0, 0.0011122518249180328
1097.0, 0.0014322325905524384
1098.0, 0.0017233836360119438
1099.0, 0.001257322001868116
1100.0, 0.0008272836807337099
1101.0, 0.0004883528423092354
1102.0, 0.00013292713846304195
1103.0, 0.001197281384362252
1104.0, 0.0011140797331945784
1105.0, 0.000511294103564655
1106.0, 0.0006545089306018507
1107.0, 0.00016942670390027032
1108.0, 0.0005317367632075048
1109.0, 0.0003499919825993789
1110.0, 0.0004602186107692822
1111.0, 0.00010834613349765181
1112.0, 0.00016673803408287564
1113.0, 3.170123688540011e-05
1114.0, 0.00011657160381937539
1115.0, 0.0001460160872662556
1116.0, 0.0008123604420536721
1117.0, 0.0004789809516575337
1118.0, 0.0001349716931008562
1119.0, 0.0005295634627065551
1120.0, 0.0009467563848633396
1121.0, 0.0005607225827379325
1122.0, 0.00028400222652099613
1123.0, 0.00016001111748741695
1124.0, 0.00024128327397497697
1125.0, 0.0003308334439423461
1126.0, 0.000634722376863137
1127.0, 0.0007362979660115588
1128.0, 0.0003163072931312941
1129.0, 0.00013775814615281295
1130.0, 0.00020331867470205965
1131.0, 7.634191448375053e-05
1132.0, 0.0003061030326788705
1133.0, 0.0005745743771618319
1134.0, 0.0008427734768026927
1135.0, 0.0009844108387370716
1136.0, 0.0005105675353646921
1137.0, 0.0006999244595744067
1138.0, 0.0004805143910910659
1139.0, 0.0005493370571558679
1140.0, 0.0006387954213484892
1141.0, 0.0008319540729751849
1142.0, 0.0010072009979529436
1143.0, 0.0011090069678185081
1144.0, 0.0010670611231840914
1145.0, 0.0006786812411028109
1146.0, 0.00041191784916396834
1147.0, 9.831446393391052e-05
1148.0, 0.0005158621184170634
1149.0, 0.0007939142270919445
1150.0, 0.0011235017485124131
1151.0, 0.000884870948781799
1152.0, 0.0008449413959980472
1153.0, 0.0011242997773670826
1154.0, 0.0008941680800461642
1155.0, 0.0012883368438054341
1156.0, 0.0009430971427219743
1157.0, 0.000535930762527545
1158.0, 0.0008775732759261879
1159.0, 0.0008596708538940855
1160.0, 0.0004902313474662281
1161.0, 0.0006676975166774215
1162.0, 0.0009668231309045367
1163.0, 0.001109535129529733
1164.0, 0.0009252182582446968
1165.0, 0.0007069619622793454
1166.0, 0.00046446912223477836
1167.0, 0.0005912576882073697
1168.0, 0.0007334657610211784
1169.0, 0.0008791262324420377
1170.0, 0.0005550841245906662
1171.0, 0.0005864855969691739
1172.0, 0.0007386822258624972
1173.0, 0.0005283445179926959
1174.0, 0.0007803246329077475
1175.0, 0.0009060888904593357
1176.0, 0.0004055920664848542
1177.0, 0.00019205090580360325
1178.0, 6.13562298564525e-05
1179.0, 0.0001185948440839346
1180.0, 0.00046944649945605913
1181.0, 0.00044609048120969395
1182.0, 0.00022262945119628537
1183.0, 0.00020552521570589541
1184.0, 0.00019393577250180873
1185.0, 0.0008965925678993133
1186.0, 0.0004329221167239732
1187.0, 0.0002560282118537193
1188.0, 0.000600009395335191
1189.0, 0.0003764227976292549
1190.0, 0.00012981182906863337
1191.0, 0.00016569294451708447
1192.0, 0.0004181289968350503
1193.0, 0.0004232884966703773
1194.0, 0.0004643415104425972
1195.0, 0.0006021365411541194
1196.0, 0.0004978258668635987
1197.0, 0.0007891951684396044
1198.0, 0.001106773221285515
1199.0, 0.0008561124963853585
1200.0, 0.0009363703071130535
1201.0, 0.0005065969613810634
1202.0, 0.00042982225316587895
1203.0, 0.0007961183820111184
1204.0, 0.0007902729476832464
1205.0, 0.0006740576645854958
1206.0, 0.0005698782858213593
1207.0, 0.0006735756851788535
1208.0, 0.0005153669119428594
1209.0, 0.0007579516683695486
1210.0, 0.0005119319420337715
1211.0, 0.0007357436930035593
1212.0, 0.0009273605614773198
1213.0, 0.000887697034939048
1214.0, 0.0011075641802275964
1215.0, 0.0013488662336195887
1216.0, 0.001190022802204023
1217.0, 0.001349256378479146
1218.0, 0.0014700629412968593
1219.0, 0.0012901362329990104
1220.0, 0.0015338286378862448
1221.0, 0.0013963088549007428
1222.0, 0.0020683769476486594
1223.0, 0.0008865987243499576
1224.0, 0.0007412383251600482
1225.0, 0.0013622582137779006
1226.0, 0.0014243235731099112
1227.0, 0.0016723041027914619
1228.0, 0.0011005570255770945
1229.0, 0.0011529062033645006
1230.0, 0.0007912150883592562
1231.0, 0.0018626237289241904
1232.0, 0.0020635219794763724
1233.0, 0.0013612798289921783
1234.0, 0.0006967241768163553
1235.0, 0.0007436295618109216
1236.0, 0.0013505025386984974
1237.0, 0.0015157630159338914
1238.0, 0.0016018720639045534
1239.0, 0.0015466544436679103
1240.0, 0.0011354693698371254
1241.0, 0.0008374841845456604
1242.0, 0.0010232944468365921
1243.0, 0.001291822320691292
1244.0, 0.0008587524076474637
1245.0, 0.0014490183255433371
1246.0, 0.0013464784016471323
1247.0, 0.0017220200074988085
1248.0, 0.0010258385312731785
1249.0, 0.00019673841150007616
1250.0, 0.0006585573667365983
1251.0, 0.0011581773220221444
1252.0, 0.0006186719626639201
1253.0, 0.0010523421304878323
1254.0, 0.0011659511099275936
1255.0, 0.0011929276483847355
1256.0, 0.001071762694870716
1257.0, 0.0008075127799012469
1258.0, 0.0007422840437135397
1259.0, 0.0011111449645898632
1260.0, 0.0012486967450819468
1261.0, 0.0008976733400505102
1262.0, 0.0006590404053791835
1263.0, 0.0006116703615196031
1264.0, 0.000912060552323515
1265.0, 0.000740816534706653
1266.0, 0.00020070988140390153
1267.0, 0.0004182294787160733
1268.0, 0.0004943993402791103
1269.0, 0.000560368194537382
1270.0, 0.0005207233783458706
1271.0, 0.0008860498118134304
1272.0, 0.0004534062445149948
1273.0, 0.0003253436637109451
1274.0, 0.0008283091273270823
1275.0, 0.0011415933854818244
1276.0, 1.65376628650063e-05
1277.0, 0.0008253832509829329
1278.0, 0.0017827276044164106
1279.0, 0.0009396406072517009
1280.0, 6.267776862911822e-05
1281.0, 0.00039972054065452197
1282.0, 0.0005090485117688996
1283.0, 0.0001160685242159691
1284.0, 0.0001419168461186178
1285.0, 0.00035384324266294346
1286.0, 4.7033075730086896e-05
1287, 0.0
1288, 0.0
1289, 0.0
1290, 0.0
1291, 0.0
1292, 0.0
1293, 0.0
1294, 0.0
1295, 0.0
1296, 0.0
1297, 0.0
1298, 0.0
1299, 0.0
1300, 0.0
1301, 0.0
1302, 0.0
1303, 0.0
1304, 0.0
1305, 0.0
1306, 0.0
1307, 0.0
1308, 0.0
1309, 0.0
1310, 0.0
1311, 0.0
1312, 0.0
1313, 0.0
1314, 0.0
1315, 0.0
1316, 0.0
1317, 0.0
1318, 0.0
1319, 0.0
1320, 0.0
1321, 0.0
1322, 0.0
1323, 0.0
1324, 0.0
1325, 0.0
1326, 0.0
1327, 0.0
1328, 0.0
1329, 0.0
1330, 0.0
1331, 0.0
1332, 0.0
1333, 0.0
1334, 0.0
1335, 0.0
1336, 0.0
1337, 0.0
1338, 0.0
1339, 0.0
1340, 0.0
1341, 0.0
1342, 0.0
1343, 0.0
1344, 0.0
1345, 0.0
1346, 0.0
1347, 0.0
1348, 0.0
1349, 0.0
1350, 0.0
1351, 0.0
1352, 0.0
1353, 0.0
1354, 0.0
1355, 0.0
1356, 0.0
1357, 0.0
1358, 0.0
1359, 0.0
1360, 0.0
1361, 0.0
1362, 0.0
1363, 0.0
1364, 0.0
1365, 0.0
1366, 0.0
1367, 0.0
1368, 0.0
1369, 0.0
1370, 0.0
1371, 0.0
1372, 0.0
1373, 0.0
1374, 0.0
1375, 0.0
1376, 0.0
1377, 0.0
1378, 0.0
1379, 0.0
1380, 0.0
1381, 0.0
1382, 0.0
1383, 0.0
1384, 0.0
1385, 0.0
1386, 0.0
1387, 0.0
1388, 0.0
1389, 0.0
1390, 0.0
1391, 0.0
1392, 0.0
1393, 0.0
1394, 0.0
1395, 0.0
1396, 0.0
1397, 0.0
1398, 0.0
1399, 0.0
1400, 0.0
1401, 0.0
1402, 0.0
1403, 0.0
1404, 0.0
1405, 0.0
1406, 0.0
1407, 0.0
1408, 0.0
1409, 0.0
1410, 0.0
1411, 0.0
1412, 0.0
1413, 0.0
1414, 0.0
1415, 0.0
1416, 0.0
1417, 0.0
1418, 0.0
1419, 0.0
1420, 0.0
1421, 0.0
1422, 0.0
1423, 0.0
1424, 0.0
1425, 0.0
1426, 0.0
1427, 0.0
1428, 0.0
1429, 0.0
1430, 0.0
1431, 0.0
1432, 0.0
1433, 0.0
1434, 0.0
1435, 0.0
1436, 0.0
1437, 0.0
1438, 0.0
1439, 0.0
1440, 0.0
1441, 0.0
1442, 0.0
1443, 0.0
1444, 0.0
1445, 0.0
1446, 0.0
1447, 0.0
1448, 0.0
1449, 0.0
1450, 0.0
1451, 0.0
1452, 0.0
1453, 0.0
1454, 0.0
1455, 0.0
1456, 0.0
1457, 0.0
1458, 0.0
1459, 0.0
1460, 0.0
1461, 0.0
1462, 0.0
1463, 0.0
1464, 0.0
1465, 0.0
1466, 0.0
1467, 0.0
1468, 0.0
1469, 0.0
1470, 0.0
1471, 0.0
1472, 0.0
1473, 0.0
1474, 0.0
1475, 0.0
1476, 0.0
1477, 0.0
1478, 0.0
1479, 0.0
1480, 0.0
1481, 0.0
1482, 0.0
1483, 0.0
1484, 0.0
1485, 0.0
1486, 0.0
1487, 0.0
1488, 0.0
1489, 0.0
1490, 0.0
1491, 0.0
1492, 0.0
1493, 0.0
1494, 0.0
1495, 0.0
1496, 0.0
1497, 0.0
1498, 0.0
1499, 0.0
1500, 0.0
1501, 0.0
1502, 0.0
1503, 0.0
1504, 0.0
1505, 0.0
1506, 0.0
1507, 0.0
1508, 0.0
1509, 0.0
1510, 0.0
1511, 0.0
1512, 0.0
1513, 0.0
1514, 0.0
1515, 0.0
1516, 0.0
1517, 0.0
1518, 0.0
1519, 0.0
1520, 0.0
1521, 0.0
1522, 0.0
1523, 0.0
1524, 0.0
1525, 0.0
1526, 0.0
1527, 0.0
1528, 0.0
1529, 0.0
1530, 0.0
1531, 0.0
1532, 0.0
1533, 0.0
1534, 0.0
1535, 0.0
1536, 0.0
1537, 0.0
1538, 0.0
1539, 0.0
1540, 0.0
1541, 0.0
1542, 0.0
1543, 0.0
1544, 0.0
1545, 0.0
1546, 0.0
1547, 0.0
1548, 0.0
1549, 0.0
1550, 0.0
1551, 0.0
1552, 0.0
1553, 0.0
1554, 0.0
1555, 0.0
1556, 0.0
1557, 0.0
1558, 0.0
1559, 0.0
1560, 0.0
1561, 0.0
1562, 0.0
1563, 0.0
1564, 0.0
1565, 0.0
1566, 0.0
1567, 0.0
1568, 0.0
1569, 0.0
1570, 0.0
1571, 0.0
1572, 0.0
1573, 0.0
1574, 0.0
1575, 0.0
1576, 0.0
1577, 0.0
1578, 0.0
1579, 0.0
1580, 0.0
1581, 0.0
1582, 0.0
1583, 0.0
1584, 0.0
1585, 0.0
1586, 0.0
1587, 0.0
1588, 0.0
1589, 0.0
1590, 0.0
1591, 0.0
1592, 0.0
1593, 0.0
1594, 0.0
1595, 0.0
1596, 0.0
1597, 0.0
1598, 0.0
1599, 0.0
