30, 0.0
31, 0.0
32, 0.0
33, 0.0
34, 0.0
35, 0.0
36, 0.0
37, 0.0
38, 0.0
39, 0.0
40, 0.0
41, 0.0
42, 0.0
43, 0.0
44, 0.0
45, 0.0
46, 0.0
47, 0.0
48, 0.0
49, 0.0
50, 0.0
51, 0.0
52, 0.0
53, 0.0
54, 0.0
55, 0.0
56, 0.0
57, 0.0
58, 0.0
59, 0.0
60, 0.0
61, 0.0
62, 0.0
63, 0.0
64, 0.0
65, 0.0
66, 0.0
67, 0.0
68, 0.0
69, 0.0
70, 0.0
71, 0.0
72, 0.0
73, 0.0
74, 0.0
75, 0.0
76, 0.0
77, 0.0
78, 0.0
79, 0.0
80, 0.0
81, 0.0
82, 0.0
83, 0.0
84, 0.0
85, 0.0
86, 0.0
87, 0.0
88, 0.0
89, 0.0
90, 0.0
91, 0.0
92, 0.0
93, 0.0
94, 0.0
95, 0.0
96, 0.0
97, 0.0
98, 0.0
99, 0.0
100, 0.0
101, 0.0
102, 0.0
103, 0.0
104, 0.0
105, 0.0
106, 0.0
107, 0.0
108, 0.0
109, 0.0
110, 0.0
111, 0.0
112, 0.0
113, 0.0
114, 0.0
115, 0.0
116, 0.0
117, 0.0
118, 0.0
119, 0.0
120, 0.0
121, 0.0
122, 0.0
123, 0.0
124, 0.0
125, 0.0
126, 0.0
127, 0.0
128, 0.0
129, 0.0
130, 0.0
131, 0.0
132, 0.0
133, 0.0
134, 0.0
135, 0.0
136, 0.0
137, 0.0
138, 0.0
139, 0.0
140, 0.0
141, 0.0
142, 0.0
143, 0.0
144, 0.0
145, 0.0
146, 0.0
147, 0.0
148, 0.0
149, 0.0
150, 0.0
151, 0.0
152, 0.0
153, 0.0
154, 0.0
155, 0.0
156, 0.0
157, 0.0
158, 0.0
159, 0.0
160, 0.0
161, 0.0
162, 0.0
163, 0.0
164, 0.0
165, 0.0
166, 0.0
167, 0.0
168, 0.0
169, 0.0
170, 0.0
171, 0.0
172, 0.0
173, 0.0
174, 0.0
175, 0.0
176, 0.0
177, 0.0
178, 0.0
179, 0.0
180, 0.0
181, 0.0
182, 0.0
183, 0.0
184, 0.0
185, 0.0
186, 0.0
187, 0.0
188, 0.0
189.0, 0.9780933182217781
190.0, 0.9759376868374451
191.0, 0.974039091265403
192.0, 0.9779612054625061
193.0, 0.9885652266170033
194.0, 0.9871878359786918
195.0, 0.9797932506024105
196.0, 0.9774923663957793
197.0, 0.9817273414486635
198.0, 0.9839314419836842
199.0, 0.9884202317234222
200.0, 0.9910642978755573
201.0, 0.9911162763591727
202.0, 0.98999322609412
203.0, 0.9876013860055548
204.0, 0.9912450817980956
205.0, 0.9903812187116982
206.0, 0.9852662749972878
207.0, 0.9984652323176479
208.0, 0.9918279633797328
209.0, 0.9815766567069072
210.0, 0.9773624820155333
211.0, 0.9756702637878051
212.0, 0.9736378549915342
213.0, 0.9789309042075939
214.0, 0.9829096298284051
215.0, 0.9784063778542382
216.0, 0.9733044926326686
217.0, 0.9657263127015809
218.0, 0.9629128694446948
219.0, 0.9664971363263276
220.0, 0.9699990013769791
221.0, 0.9640073724390655
222.0, 0.9599563416267806
223.0, 0.9615108665390998
224.0, 0.9639577661008649
225.0, 0.9522020388776228
226.0, 0.954036488059665
227.0, 0.9601085248211065
228.0, 0.9610869558719312
229.0, 0.9536270487807514
230.0, 0.9478317516854772
231.0, 0.951526155639973
232.0, 0.955276231163872
233.0, 0.9519871379428936
234.0, 0.9569014059468798
235.0, 0.9507656788261216
236.0, 0.948442131073318
237.0, 0.9518140905936112
238.0, 0.9471129696668653
239.0, 0.9432968829503544
240.0, 0.9428806205673126
241.0, 0.9415656090346958
242.0, 0.936232330654701
243.0, 0.9337160355298773
244.0, 0.9315844652361654
245.0, 0.9307693396282655
246.0, 0.9333219576788488
247.0, 0.9391599840797658
248.0, 0.9360500730111099
249.0, 0.9294605450973316
250.0, 0.9269371101651966
251.0, 0.9296659651844827
252.0, 0.9274493871120616
253.0, 0.9219667829772829
254.0, 0.920040473544607
255.0, 0.9216400186173468
256.0, 0.9224361756139473
257.0, 0.9226749360098045
258.0, 0.9214730882736583
259.0, 0.9165473679593321
260.0, 0.9113100368110184
261.0, 0.9164203628361683
262.0, 0.9140528752673303
263.0, 0.9131986882528331
264.0, 0.914467076172249
265.0, 0.9133649574885793
266.0, 0.9170993594713372
267.0, 0.913842946292069
268.0, 0.911991135353928
269.0, 0.9132733893934367
270.0, 0.9080515500735522
271.0, 0.9141178918831396
272.0, 0.9144763680574507
273.0, 0.9102862518160378
274.0, 0.9102497938617479
275.0, 0.9112731398900124
276.0, 0.9093707379757027
277.0, 0.911533416388088
278.0, 0.9156559571781426
279.0, 0.9131122427577006
280.0, 0.9081093684310889
281.0, 0.9063691003329759
282.0, 0.901332963040486
283.0, 0.8925698878295361
284.0, 0.8938694046990756
285.0, 0.8969059334273631
286.0, 0.8944665011820443
287.0, 0.8885665698920162
288.0, 0.8858485287863404
289.0, 0.8892980317825286
290.0, 0.8878839300963648
291.0, 0.8885863615774482
292.0, 0.8917485326529697
293.0, 0.8899876877015425
294.0, 0.8926846931345414
295.0, 0.8880892007632667
296.0, 0.884383171840083
297.0, 0.8894714444578001
298.0, 0.897714548405618
299.0, 0.8979914114982346
300.0, 0.8937176955403364
301.0, 0.8911241242543032
302.0, 0.893025446533883
303.0, 0.8955697172645287
304.0, 0.8932239872233859
305.0, 0.8896638897368372
306.0, 0.8874193797520558
307.0, 0.88637255010825
308.0, 0.8874337196403621
309.0, 0.8889962617408943
310.0, 0.8869422020036437
311.0, 0.8821409013288402
312.0, 0.8811395469353461
313.0, 0.881934834168408
314.0, 0.8836786298591667
315.0, 0.887399115394172
316.0, 0.8898248533131201
317.0, 0.8801834655484497
318.0, 0.8844465735109432
319.0, 0.884905139752671
320.0, 0.8810876870991075
321.0, 0.8826349131506087
322.0, 0.8772517905938056
323.0, 0.8793983372784101
324.0, 0.881289467080295
325.0, 0.8785351441457122
326.0, 0.8757753356070802
327.0, 0.8803725423878098
328.0, 0.878088010798928
329.0, 0.8747765880302065
330.0, 0.8761757514104238
331.0, 0.8791306524954696
332.0, 0.8751306049728532
333.0, 0.8750097093826792
334.0, 0.8780241517105701
335.0, 0.879705128192365
336.0, 0.8794333045508331
337.0, 0.8801026586679839
338.0, 0.8762807182094113
339.0, 0.8742773310392221
340.0, 0.8810264460097446
341.0, 0.8790580828281281
342.0, 0.8761726985704511
343.0, 0.8748776141897183
344.0, 0.8734294294683076
345.0, 0.8708082261199896
346.0, 0.8763060985242876
347.0, 0.873113505952883
348.0, 0.8708042568270723
349.0, 0.8729230253074156
350.0, 0.869552174204475
351.0, 0.8698148849691527
352.0, 0.8685251254920608
353.0, 0.8680437649285363
354.0, 0.869849717808524
355.0, 0.8702228671687819
356.0, 0.8752862522712366
357.0, 0.8730288401431887
358.0, 0.8705868621695642
359.0, 0.8723082340441207
360.0, 0.8646862189816623
361.0, 0.8670196616526393
362.0, 0.8687867854046317
363.0, 0.8671911571570112
364.0, 0.8651517204492669
365.0, 0.8657070373102037
366.0, 0.8654834500657366
367.0, 0.8627435897525025
368.0, 0.8597640558453479
369.0, 0.8587198551386899
370.0, 0.8553740636436477
371.0, 0.8594863523434235
372.0, 0.8616452912792408
373.0, 0.8619210821334693
374.0, 0.8660103157432418
375.0, 0.8589761617179316
376.0, 0.8522583379796054
377.0, 0.847291900489191
378.0, 0.843642724007565
379.0, 0.8419064765924287
380.0, 0.8440840204851919
381.0, 0.839328818433611
382.0, 0.8406837215730967
383.0, 0.8467243736551772
384.0, 0.8423632655540249
385.0, 0.8374252700546774
386.0, 0.837095365517168
387.0, 0.836238362979118
388.0, 0.8334996657405919
389.0, 0.8332547869713088
390.0, 0.8347271524134516
391.0, 0.8352031957479791
392.0, 0.8319251667605447
393.0, 0.8269000003227878
394.0, 0.824655835192431
395.0, 0.8215209078475841
396.0, 0.8250676817493817
397.0, 0.8271529242314509
398.0, 0.824242945982458
399.0, 0.8214807789965309
400.0, 0.8183736748394913
401.0, 0.8094447266381033
402.0, 0.8047269252556969
403.0, 0.8068982649159352
404.0, 0.808003202114232
405.0, 0.8133669623378326
406.0, 0.8144489014264671
407.0, 0.8111570054543142
408.0, 0.8074567289063563
409.0, 0.8045579924862886
410.0, 0.7914281187988179
411.0, 0.799338144313029
412.0, 0.8035606182953159
413.0, 0.7955917498274958
414.0, 0.7992837348316029
415.0, 0.7951882483546882
416.0, 0.7941512678410787
417.0, 0.7911217389873161
418.0, 0.7849595721875503
419.0, 0.7825134260518752
420.0, 0.7829468711280434
421.0, 0.7774092390194759
422.0, 0.7764126440561985
423.0, 0.7784365230911146
424.0, 0.7718943656387515
425.0, 0.7731908760110209
426.0, 0.771808134350737
427.0, 0.7738386261541528
428.0, 0.777110101964293
429.0, 0.7726377783299102
430.0, 0.7755228308847827
431.0, 0.7750774487289763
432.0, 0.767987493175125
433.0, 0.7615674146975479
434.0, 0.7628546499075641
435.0, 0.7558963787520647
436.0, 0.7610885522936676
437.0, 0.7572826608948006
438.0, 0.7526877348446656
439.0, 0.7632087197920142
440.0, 0.7558024010172646
441.0, 0.7551707294383506
442.0, 0.7604791354241112
443.0, 0.7579653590366602
444.0, 0.7445522700935452
445.0, 0.7454604331029494
446.0, 0.7467493312760684
447.0, 0.7491099455171628
448.0, 0.7506741931216012
449.0, 0.7488329445521172
450.0, 0.745025964719815
451.0, 0.7418160070603624
452.0, 0.7393235579313023
453.0, 0.7386654100574536
454.0, 0.7396601704044381
455.0, 0.7394074343628503
456.0, 0.7375418899439552
457.0, 0.7354030683539738
458.0, 0.7347649123388097
459.0, 0.7354069267115273
460.0, 0.7355924269860238
461.0, 0.7377255797041782
462.0, 0.7414440878041576
463.0, 0.7356995270254161
464.0, 0.7282134558591524
465.0, 0.7336023474699066
466.0, 0.7334764050356568
467.0, 0.734924015296036
468.0, 0.7283846077110055
469.0, 0.7198993744984752
470.0, 0.720791198735157
471.0, 0.7190538067275672
472.0, 0.7190476631182577
473.0, 0.7159445903140638
474.0, 0.714674501153062
475.0, 0.7191950629367118
476.0, 0.7196985341939315
477.0, 0.7141379333014215
478.0, 0.7172782121998529
479.0, 0.7174228648090345
480.0, 0.7103097663714005
481.0, 0.7132985819244465
482.0, 0.7148592760259304
483.0, 0.719902660623683
484.0, 0.7168718452687629
485.0, 0.7095986377634298
486.0, 0.7124681796815836
487.0, 0.7056306401073025
488.0, 0.7105121161305719
489.0, 0.7120544366333198
490.0, 0.7073562590575784
491.0, 0.7053599638232526
492.0, 0.7055034410381952
493.0, 0.7116496676587072
494.0, 0.7129606347814792
495.0, 0.7098911852143371
496.0, 0.7073793889661989
497.0, 0.706316502565788
498.0, 0.7058319794799918
499.0, 0.7025264361251233
500.0, 0.7028345206855491
501.0, 0.7046626860667309
502.0, 0.7002396265323861
503.0, 0.7023903935283302
504.0, 0.6992536582628236
505.0, 0.6991941474836598
506.0, 0.7019906925731139
507.0, 0.7013591232672197
508.0, 0.6977308277209997
509.0, 0.70160189121308
510.0, 0.7040019552286195
511.0, 0.7036246270509563
512.0, 0.7015719503833474
513.0, 0.6969539989828065
514.0, 0.6946814606207269
515.0, 0.7013169166220317
516.0, 0.701169819683764
517.0, 0.6940278513644523
518.0, 0.6932290119881098
519.0, 0.6975943993120041
520.0, 0.6948767258785127
521.0, 0.6902896841775502
522.0, 0.6894127652077008
523.0, 0.6920596742892539
524.0, 0.6891530284619443
525.0, 0.6849707712552382
526.0, 0.6861157520097536
527.0, 0.6918860566820385
528.0, 0.6956061972188089
529.0, 0.6913783141531441
530.0, 0.6838137025788528
531.0, 0.6819503228926893
532.0, 0.6845393129924331
533.0, 0.6850029378001653
534.0, 0.6802164590335397
535.0, 0.673692347674238
536.0, 0.6730108899757606
537.0, 0.6731833072029705
538.0, 0.6733193360015007
539.0, 0.6724632556716733
540.0, 0.6695359003885135
541.0, 0.6700814374368423
542.0, 0.6694161752763105
543.0, 0.6678953108207509
544.0, 0.6670893291249945
545.0, 0.6679059537633038
546.0, 0.6703506064158259
547.0, 0.6693505495717744
548.0, 0.6675945702342919
549.0, 0.6668061879252202
550.0, 0.6665736571401245
551.0, 0.6657232121003205
552.0, 0.6666329122370063
553.0, 0.6666265382778849
554.0, 0.6621523221701487
555.0, 0.6584368854092263
556.0, 0.6590849090320866
557.0, 0.656869128705182
558.0, 0.6591372809779585
559.0, 0.6573329523567484
560.0, 0.6538438164541048
561.0, 0.6534234337594796
562.0, 0.6557829587043732
563.0, 0.6521222099992199
564.0, 0.6531946244898597
565.0, 0.6524497523849461
566.0, 0.6504279226451362
567.0, 0.6491206536469096
568.0, 0.6465508891035235
569.0, 0.6442603895222166
570.0, 0.6417515199602007
571.0, 0.6395939246391655
572.0, 0.636578317179459
573.0, 0.6342762133392206
574.0, 0.6396839192550987
575.0, 0.6302869230025986
576.0, 0.6235837275020387
577.0, 0.6251721275458517
578.0, 0.6280604157362517
579.0, 0.622724780327115
580.0, 0.6185666733740944
581.0, 0.6209134323466426
582.0, 0.6201482489170764
583.0, 0.6129595327964359
584.0, 0.6040425628148135
585.0, 0.5989415677380018
586.0, 0.6025333812967683
587.0, 0.5877041808503572
588.0, 0.5796803095632208
589.0, 0.5809303678543518
590.0, 0.5781551565417944
591.0, 0.5785989661344834
592.0, 0.5745129079821583
593.0, 0.5689526141533902
594.0, 0.5653340506902618
595.0, 0.5625898192085153
596.0, 0.5572298753761867
597.0, 0.5507040390608944
598.0, 0.5423888658846369
599.0, 0.5414216962029729
600.0, 0.5363303584186961
601.0, 0.5261707113133153
602.0, 0.526765954296206
603.0, 0.5216955201217446
604.0, 0.5122876484735451
605.0, 0.5125665530188854
606.0, 0.5118506039908776
607.0, 0.49946907367320276
608.0, 0.491491198222968
609.0, 0.49854799184383863
610.0, 0.49892703650435244
611.0, 0.49602825289021507
612.0, 0.49230405865008625
613.0, 0.4863412986514183
614.0, 0.48264459848873664
615.0, 0.48173925347630087
616.0, 0.477883783899122
617.0, 0.4740535437283392
618.0, 0.47469547336671886
619.0, 0.47788235499527665
620.0, 0.4724085808425023
621.0, 0.4717229588650535
622.0, 0.46683696961728677
623.0, 0.46166279005718963
624.0, 0.45929874127867154
625.0, 0.4582002496684412
626.0, 0.4635474493731518
627.0, 0.4572426936359492
628.0, 0.4537628101206375
629.0, 0.45297469535110735
630.0, 0.4514125198317529
631.0, 0.45092275738474147
632.0, 0.4533628341602544
633.0, 0.45573045495569475
634.0, 0.4565606472134187
635.0, 0.4546988247706506
636.0, 0.4532296693176247
637.0, 0.4563575800175824
638.0, 0.4567603658149196
639.0, 0.456945825589015
640.0, 0.4543131320871393
641.0, 0.4523492321647958
642.0, 0.45158269393348066
643.0, 0.4489044383037019
644.0, 0.4540451238547014
645.0, 0.4504308096360179
646.0, 0.45476728667169297
647.0, 0.45666462419537834
648.0, 0.45081573817868525
649.0, 0.4519005365951094
650.0, 0.45270448099170085
651.0, 0.45495581377796757
652.0, 0.4569999295500547
653.0, 0.4603270857314385
654.0, 0.4615766143573047
655.0, 0.4559942999093527
656.0, 0.4561023823941024
657.0, 0.4520942620886821
658.0, 0.4573152843597507
659.0, 0.4623410014089086
660.0, 0.4592924208639502
661.0, 0.455677080505067
662.0, 0.45945501099792846
663.0, 0.45835768660144105
664.0, 0.45626879145750715
665.0, 0.45620324905426773
666.0, 0.4562828078588848
667.0, 0.45406147037046896
668.0, 0.4499271062723548
669.0, 0.4510077797405481
670.0, 0.45455695649112965
671.0, 0.4559183156978235
672.0, 0.4524168113124745
673.0, 0.4469620913836533
674.0, 0.44869098952506686
675.0, 0.45231860860651174
676.0, 0.4544010722137215
677.0, 0.4515062934003768
678.0, 0.44633957691069365
679.0, 0.4439555856769438
680.0, 0.4431510630020115
681.0, 0.4499147400515628
682.0, 0.45215688880053295
683.0, 0.4477794730606333
684.0, 0.4414577974062851
685.0, 0.4383933144593771
686.0, 0.44056859618967803
687.0, 0.43896451082645355
688.0, 0.4373021189240368
689.0, 0.43599079818679837
690.0, 0.43665142358081543
691.0, 0.4385991868417773
692.0, 0.43673104776315474
693.0, 0.4314618159918896
694.0, 0.4304551071093881
695.0, 0.43083126957739676
696.0, 0.4324420563958781
697.0, 0.43178478680686766
698.0, 0.42152591198576056
699.0, 0.4210752367621459
700.0, 0.4218613717254821
701.0, 0.4216274882555564
702.0, 0.41730066044083436
703.0, 0.4143681970288571
704.0, 0.4166107024968364
705.0, 0.40900089044632154
706.0, 0.40936701525378216
707.0, 0.4092827194888785
708.0, 0.4063490148394331
709.0, 0.40340085678681037
710.0, 0.40322081185538794
711.0, 0.4044868199693747
712.0, 0.39700492667511267
713.0, 0.39560798212063625
714.0, 0.39899995838316676
715.0, 0.39767109091195
716.0, 0.39227793260600774
717.0, 0.39313011148123794
718.0, 0.38567361509739373
719.0, 0.38172287504763075
720.0, 0.37808280912527104
721.0, 0.37923075117268995
722.0, 0.3815090497720979
723.0, 0.3782178413823459
724.0, 0.3798973446747002
725.0, 0.3764422372393876
726.0, 0.37222854537821704
727.0, 0.36979371648941256
728.0, 0.36859720093354903
729.0, 0.3662046004871149
730.0, 0.3620143501968186
731.0, 0.36077193220569187
732.0, 0.3593256605382962
733.0, 0.35238363551479274
734.0, 0.3506263394204934
735.0, 0.3540142166895841
736.0, 0.3514093566083166
737.0, 0.3470504155196689
738.0, 0.345774936251653
739.0, 0.3386655919889651
740.0, 0.3350575457999238
741.0, 0.33705609869816533
742.0, 0.3387187198871699
743.0, 0.3350314661147272
744.0, 0.3242646656514386
745.0, 0.32234655806812895
746.0, 0.3204828046733391
747.0, 0.3157009254277323
748.0, 0.3139640654020084
749.0, 0.3172206880133103
750.0, 0.31761614092592994
751.0, 0.31225352541946744
752.0, 0.3065531077887292
753.0, 0.2989399513626464
754.0, 0.29744917124895937
755.0, 0.30240600471604784
756.0, 0.2981836827897722
757.0, 0.29086476140965806
758.0, 0.292644213809455
759.0, 0.2873797080365148
760.0, 0.2836833523030528
761.0, 0.2813949000069931
762.0, 0.2756540405854225
763.0, 0.27815909317292986
764.0, 0.26813670568137066
765.0, 0.26731420121106514
766.0, 0.2679682854886418
767.0, 0.26727209055652207
768.0, 0.2642324207175481
769.0, 0.257587416234571
770.0, 0.25627660582178546
771.0, 0.25330592695341003
772.0, 0.2546479061966467
773.0, 0.24789363479727572
774.0, 0.2409728488904054
775.0, 0.2404452480165507
776.0, 0.2348543922271553
777.0, 0.23555494825027215
778.0, 0.23490789044873603
779.0, 0.22822364165001383
780.0, 0.22288918604980784
781.0, 0.2227177017123664
782.0, 0.22448357571069572
783.0, 0.2243935414318809
784.0, 0.22299187730943973
785.0, 0.21969547584137308
786.0, 0.22068808886861205
787.0, 0.21693700086220116
788.0, 0.20949582869685018
789.0, 0.20743087918726152
790.0, 0.2056480692158812
791.0, 0.20273377768676046
792.0, 0.2014784605453198
793.0, 0.19927773935252371
794.0, 0.19789630966454874
795.0, 0.19833239042702647
796.0, 0.1985112666712854
797.0, 0.19793684494456978
798.0, 0.19511569370654294
799.0, 0.19304674890127355
800.0, 0.19574240821516245
801.0, 0.19859321205673722
802.0, 0.19628249448336238
803.0, 0.19273810164881647
804.0, 0.1972611253047494
805.0, 0.19788457788806632
806.0, 0.20026993247558503
807.0, 0.20058851527858218
808.0, 0.20131778958679936
809.0, 0.20378027301592852
810.0, 0.2052977619709375
811.0, 0.21001723948001141
812.0, 0.2091954660865579
813.0, 0.20917746822052014
814.0, 0.21139366921798836
815.0, 0.213927042073682
816.0, 0.2156962801576328
817.0, 0.21780831676999082
818.0, 0.22274266459313935
819.0, 0.22805804008219735
820.0, 0.22925085957062297
821.0, 0.23326871279854727
822.0, 0.23741471873825346
823.0, 0.23990280804756264
824.0, 0.24396049362569855
825.0, 0.24465000799722603
826.0, 0.2489412728612124
827.0, 0.25163114264252967
828.0, 0.25887186573938586
829.0, 0.2640325510903783
830.0, 0.26607356086128814
831.0, 0.27319197394013905
832.0, 0.280859603492989
833.0, 0.2813758299303395
834.0, 0.291534377172391
835.0, 0.29821274796200614
836.0, 0.307277929389506
837.0, 0.31827208136164453
838.0, 0.3196449497149403
839.0, 0.3187346633875574
840.0, 0.32643658951201876
841.0, 0.3393821325000443
842.0, 0.34682193819604934
843.0, 0.3488185620007883
844.0, 0.35693736254015873
845.0, 0.37236407045746767
846.0, 0.37623554751501914
847.0, 0.3822136936145049
848.0, 0.38913739918097295
849.0, 0.39453721001075015
850.0, 0.40170340225407747
851.0, 0.41072086797576507
852.0, 0.41884855394825515
853.0, 0.42670895465127173
854.0, 0.43813000862967727
855.0, 0.449704834883276
856.0, 0.45690316536318176
857.0, 0.46624073637983127
858.0, 0.4753139819117575
859.0, 0.4809700527263649
860.0, 0.4869128566071427
861.0, 0.4974440017701906
862.0, 0.5076364531855017
863.0, 0.5141573708315293
864.0, 0.523993181696137
865.0, 0.5296774746088714
866.0, 0.5316217699606173
867.0, 0.5388281485615533
868.0, 0.547589671445161
869.0, 0.5512742524079524
870.0, 0.565404644355619
871.0, 0.58017044039668
872.0, 0.5842129979209525
873.0, 0.589553913416524
874.0, 0.602280873987043
875.0, 0.6084409499566217
876.0, 0.6133638759793393
877.0, 0.6199911686974676
878.0, 0.623517934640184
879.0, 0.6322233670411415
880.0, 0.6405698076041006
881.0, 0.6446425542600704
882.0, 0.6492980031244787
883.0, 0.654705994354232
884.0, 0.657156336573147
885.0, 0.6569406560640189
886.0, 0.6719967112043432
887.0, 0.6778669162509976
888.0, 0.6816453991769277
889.0, 0.6922598813051662
890.0, 0.6946484890579456
891.0, 0.6968339561196216
892.0, 0.6969050364036832
893.0, 0.7035763827028242
894.0, 0.7120348726514216
895.0, 0.7163079893315121
896.0, 0.7199924118537523
897.0, 0.7255769234403618
898.0, 0.7273144275164648
899.0, 0.7245095780925663
900.0, 0.7303954122098587
901.0, 0.7361229934407034
902.0, 0.7378640609677698
903.0, 0.7396006231058381
904.0, 0.7474403592164389
905.0, 0.7569327711178397
906.0, 0.7549133362671951
907.0, 0.7581714499809526
908.0, 0.7631671697801604
909.0, 0.7667073736735588
910.0, 0.7710015318939031
911.0, 0.7696058387773026
912.0, 0.7667916440527481
913.0, 0.7704353847087232
914.0, 0.7652192100958758
915.0, 0.7774203080606424
916.0, 0.7858002914254396
917.0, 0.7832915671661266
918.0, 0.7829625009614286
919.0, 0.785457606417214
920.0, 0.7883842917842158
921.0, 0.79464764531335
922.0, 0.793728941754496
923.0, 0.8009830057691218
924.0, 0.7980547810943978
925.0, 0.8001841922168174
926.0, 0.7991664651640502
927.0, 0.8002468971523042
928.0, 0.8069589964843843
929.0, 0.8053847494884483
930.0, 0.8051748603840907
931.0, 0.8032832473051708
932.0, 0.804688079040908
933.0, 0.7985886668245716
934.0, 0.7989206865296752
935.0, 0.8027619104391978
936.0, 0.8005089671457868
937.0, 0.7973460140922473
938.0, 0.7927003425208765
939.0, 0.8032161810013234
940.0, 0.7940757924285072
941.0, 0.7983241727494887
942.0, 0.8043655351952526
943.0, 0.8022938687443166
944.0, 0.7992037240286228
945.0, 0.8003538190586115
946.0, 0.8006406110232318
947.0, 0.8047395870940878
948.0, 0.8145063566698612
949.0, 0.8068574158230111
950.0, 0.7986305475684604
951.0, 0.798236301160942
952.0, 0.7975713437296819
953.0, 0.7974887910352478
954.0, 0.8078732893760169
955.0, 0.797140594989824
956.0, 0.7961693859580197
957.0, 0.7971054380285915
958.0, 0.7914784582762608
959.0, 0.7887087575155173
960.0, 0.7906568357693874
961.0, 0.7885083702368934
962.0, 0.7860070849759522
963.0, 0.7874107832867512
964.0, 0.7838430667181461
965.0, 0.7842241717451652
966.0, 0.7847423144817917
967.0, 0.7806696001578396
968.0, 0.7753516125351966
969.0, 0.7730919971638729
970.0, 0.7724770055330122
971.0, 0.7720248122565229
972.0, 0.7641087129874563
973.0, 0.7667658656760151
974.0, 0.7585556597841303
975.0, 0.7568631970843921
976.0, 0.7552517558514787
977.0, 0.749317557010596
978.0, 0.7498672692937269
979.0, 0.743332175786697
980.0, 0.7504244255986535
981.0, 0.7451135861502224
982.0, 0.735775303004564
983.0, 0.7297647335658538
984.0, 0.7272447551579019
985.0, 0.7238374461406667
986.0, 0.7200636264614716
987.0, 0.7197254466609591
988.0, 0.715437136704761
989.0, 0.711655114337055
990.0, 0.7109842631186006
991.0, 0.7062700788427585
992.0, 0.7009775799352936
993.0, 0.697056274761604
994.0, 0.6932218789100966
995.0, 0.6871369928080783
996.0, 0.6780987083727085
997.0, 0.6776736516955087
998.0, 0.6700824825861295
999.0, 0.6630140304076015
1000.0, 0.6611522020083344
1001.0, 0.6615838256383357
1002.0, 0.6562539441227127
1003.0, 0.6476220722869098
1004.0, 0.644647625368734
1005.0, 0.641215816806495
1006.0, 0.6266488317376088
1007.0, 0.6344180215260559
1008.0, 0.63000396272317
1009.0, 0.6204251179131276
1010.0, 0.615291227958341
1011.0, 0.6117711539282389
1012.0, 0.6066238553336312
1013.0, 0.6027393579988979
1014.0, 0.5970125500200277
1015.0, 0.5833149131999136
1016.0, 0.5831886693697554
1017.0, 0.5767247871875305
1018.0, 0.5742911874286145
1019.0, 0.5715732833627518
1020.0, 0.5681798249060801
1021.0, 0.5656783540268407
1022.0, 0.5562633707738037
1023.0, 0.5495483741620054
1024.0, 0.5457518142240299
1025.0, 0.5373987609388946
1026.0, 0.5326738933198057
1027.0, 0.5225249177723403
1028.0, 0.5134933453975679
1029.0, 0.510627562181838
1030.0, 0.5094781562596978
1031.0, 0.5076030781106736
1032.0, 0.5018333335527266
1033.0, 0.49213899679010886
1034.0, 0.48570076859257705
1035.0, 0.48993004810219676
1036.0, 0.4848088087571791
1037.0, 0.4774368592515465
1038.0, 0.4731379590028566
1039.0, 0.4663876532744384
1040.0, 0.4581311538310124
1041.0, 0.4546287126384898
1042.0, 0.44747222728913855
1043.0, 0.4393074091698844
1044.0, 0.43126743261232914
1045.0, 0.4285672540886805
1046.0, 0.425926985645984
1047.0, 0.41796359282609274
1048.0, 0.4116641168800275
1049.0, 0.4115614338980059
1050.0, 0.4055857421803768
1051.0, 0.39907836742245234
1052.0, 0.3932051802130861
1053.0, 0.39515355628688764
1054.0, 0.38847777581606086
1055.0, 0.37698972390120083
1056.0, 0.3751901526365064
1057.0, 0.3727945710250087
1058.0, 0.3661302017779987
1059.0, 0.3654065641982142
1060.0, 0.34838639259035786
1061.0, 0.35129178310975584
1062.0, 0.3478602401559657
1063.0, 0.3394469972888723
1064.0, 0.33418065923946616
1065.0, 0.327952696711763
1066.0, 0.3199587941262846
1067.0, 0.3144468740840096
1068.0, 0.3108712013350769
1069.0, 0.3066930876169122
1070.0, 0.3043754412425606
1071.0, 0.3014499110006952
1072.0, 0.2935619808387036
1073.0, 0.2860745206651516
1074.0, 0.28677040511291296
1075.0, 0.28416996799560484
1076.0, 0.2755186408969076
1077.0, 0.2702336410115995
1078.0, 0.26942847629465927
1079.0, 0.264304189487074
1080.0, 0.26057330719917104
1081.0, 0.25823593854962196
1082.0, 0.2531833427094242
1083.0, 0.251920582137868
1084.0, 0.2516319899389629
1085.0, 0.24284387115997128
1086.0, 0.23314681914565902
1087.0, 0.22949544298764576
1088.0, 0.2255040928118147
1089.0, 0.22322776542470354
1090.0, 0.21618841679748205
1091.0, 0.21401142069217272
1092.0, 0.21177877799435488
1093.0, 0.20291057545954264
1094.0, 0.20008145033795413
1095.0, 0.19631155951197576
1096.0, 0.19123087677808645
1097.0, 0.1907597274846802
1098.0, 0.18741518101028573
1099.0, 0.18273637765356043
1100.0, 0.17915294312687738
1101.0, 0.17360552023371054
1102.0, 0.17145095495096963
1103.0, 0.16463836047220307
1104.0, 0.1618358582617862
1105.0, 0.15855242306257086
1106.0, 0.15412186468424396
1107.0, 0.15123348650557145
1108.0, 0.14804503614068898
1109.0, 0.14850212246659195
1110.0, 0.14596655107767378
1111.0, 0.14412893854719988
1112.0, 0.13417274887554662
1113.0, 0.13050497275495346
1114.0, 0.13109177531637084
1115.0, 0.12925906572825294
1116.0, 0.12649184025390964
1117.0, 0.12270146332203188
1118.0, 0.11759854759126927
1119.0, 0.11834421072872521
1120.0, 0.12083456884220967
1121.0, 0.11230003317351002
1122.0, 0.10647799672866194
1123.0, 0.10673772829673858
1124.0, 0.09991904027993874
1125.0, 0.09775812801585664
1126.0, 0.09910815099403297
1127.0, 0.0962006599402019
1128.0, 0.09309237850866829
1129.0, 0.09562455631148783
1130.0, 0.0967836391595171
1131.0, 0.08583820735114979
1132.0, 0.08949556191775061
1133.0, 0.08115953342757959
1134.0, 0.07658463558157101
1135.0, 0.07978199298922406
1136.0, 0.08218415293082094
1137.0, 0.07865674367542572
1138.0, 0.07483665248081858
1139.0, 0.07347628988098868
1140.0, 0.0694317730194134
1141.0, 0.06577227769242905
1142.0, 0.06753356517971708
1143.0, 0.07284208291300619
1144.0, 0.06859208056545192
1145.0, 0.06972745826512144
1146.0, 0.0670961886450959
1147.0, 0.0620618780426719
1148.0, 0.060795623824148375
1149.0, 0.06068789595302356
1150.0, 0.05852526351762754
1151.0, 0.057269600976963125
1152.0, 0.05766253546472994
1153.0, 0.05793025304000886
1154.0, 0.057152140757622344
1155.0, 0.050560273450060575
1156.0, 0.0460656559382312
1157.0, 0.0511387674758334
1158.0, 0.049274970720197396
1159.0, 0.04222637788970582
1160.0, 0.03855700547345219
1161.0, 0.03931529054337769
1162.0, 0.04267670246643039
1163.0, 0.044146998750831105
1164.0, 0.046572680932898056
1165.0, 0.0375714761457828
1166.0, 0.04156222062051083
1167.0, 0.04320102216749382
1168.0, 0.04183060978422577
1169.0, 0.038160386149858984
1170.0, 0.03735773601722663
1171.0, 0.03801142136168051
1172.0, 0.03742551512646682
1173.0, 0.03540553755334063
1174.0, 0.032867585666617564
1175.0, 0.03510352180638145
1176.0, 0.03488403861417035
1177.0, 0.031462288598808216
1178.0, 0.02940868328651943
1179.0, 0.02687671674389319
1180.0, 0.02613592210243286
1181.0, 0.026564064931818426
1182.0, 0.02772532710625657
1183.0, 0.029750583526315454
1184.0, 0.02869114248133905
1185.0, 0.028874282451507895
1186.0, 0.028667486385548623
1187.0, 0.0275811210990154
1188.0, 0.016023085641868325
1189.0, 0.019252451809746357
1190.0, 0.020219405070640115
1191.0, 0.02166145541132132
1192.0, 0.022955708116620968
1193.0, 0.023969261985891582
1194.0, 0.0254272793238621
1195.0, 0.022233536472212753
1196.0, 0.016896086339220826
1197.0, 0.01619185153886091
1198.0, 0.018910431354464706
1199.0, 0.019910507680663724
1200.0, 0.01821525432860116
1201.0, 0.0150227469222532
1202.0, 0.016245570522289532
1203.0, 0.013971080813827932
1204.0, 0.013238820084765325
1205.0, 0.012196698392370177
1206.0, 0.012619642826725102
1207.0, 0.014462665054064615
1208.0, 0.015473738785388007
1209.0, 0.015716302888526094
1210.0, 0.01387981090509067
1211.0, 0.015853386456575063
1212.0, 0.013708472859067218
1213.0, 0.010745226787607687
1214.0, 0.009525452499608218
1215.0, 0.008771522466843502
1216.0, 0.00933881254813656
1217.0, 0.009885559374744706
1218.0, 0.010336676770588618
1219.0, 0.01317223896907951
1220.0, 0.011480451775150134
1221.0, 0.010328630655643305
1222.0, 0.016409723150010335
1223.0, 0.013212860475318132
1224.0, 0.01269578141576869
1225.0, 0.014246948305500369
1226.0, 0.013681458358731436
1227.0, 0.014672257748356468
1228.0, 0.008326992879627342
1229.0, 0.00866365079950294
1230.0, 0.011743509128863272
1231.0, 0.006780980117809888
1232.0, 0.005001088590526011
1233.0, 0.01099284387127592
1234.0, 0.012524834652580679
1235.0, 0.009233649289360596
1236.0, 0.008143615483873472
1237.0, 0.008041687316392722
1238.0, 0.007129166240416151
1239.0, 0.005329297211211583
1240.0, 0.005260702254953034
1241.0, 0.005328528063285338
1242.0, 0.008020082281738937
1243.0, 0.004490477013073522
1244.0, 0.004979886277750846
1245.0, 0.007600456940662165
1246.0, 0.007538130538494204
1247.0, 0.007758046737638109
1248.0, 0.0037178331280917944
1249.0, 0.0003528665054906535
1250.0, 0.0036201938792547435
1251.0, 0.012914154584343229
1252.0, 0.00951681964061834
1253.0, 0.007969211406402665
1254.0, 0.006969189944912393
1255.0, 0.006870401019899299
1256.0, 0.004933716133285776
1257.0, 0.005758068397694821
1258.0, 0.006404220392487353
1259.0, 0.0023688214131514277
1260.0, 0.0024027221801770785
1261.0, 0.007579531364739035
1262.0, 0.00744911651958701
1263.0, 0.007597220611122779
1264.0, 0.005748704998444157
1265.0, 0.0045700226035677236
1266.0, 0.006217941179850803
1267.0, 0.008620483267982619
1268.0, 0.009467961524125618
1269.0, 0.006659720606643845
1270.0, 0.004569471995964995
1271.0, 0.0031787614590848678
1272.0, 0.001958968214028134
1273.0, 0.0045830193564921975
1274.0, 0.006744281669918903
1275.0, 0.006037545128147895
1276.0, 0.006240825122327782
1277.0, 0.007457812029339764
1278.0, 0.005794374399173247
1279.0, 0.008121149752577328
1280.0, 0.00692267025080452
1281.0, 0.00023007394533599434
1282.0, 0.0048220846419039535
1283.0, 0.008046476516404414
1284.0, 0.0041848684413714225
1285.0, 0.006202394543320175
1286.0, 0.00978873527937493
1287.0, 0.00852295521846969
1288.0, 0.008693323217995617
1289.0, 0.01004416891264684
1290.0, 0.010684329242887695
1291.0, 0.01715565053035162
1292.0, 0.01827222213553535
1293.0, 0.008704308139203728
1294.0, 0.011967662407910553
1295.0, 0.009316818523816186
1296.0, 0.010087551907307249
1297.0, 0.005753972748563355
1298.0, 0.010124927826610373
1299.0, 0.010174967522619129
1300.0, 0.007196265207426145
1301.0, 0.010616763825816477
1302.0, 0.011261091088242999
1303.0, 0.006575865876836713
1304, 0.0
1305, 0.0
1306, 0.0
1307, 0.0
1308, 0.0
1309, 0.0
1310, 0.0
1311, 0.0
1312, 0.0
1313, 0.0
1314, 0.0
1315, 0.0
1316, 0.0
1317, 0.0
1318, 0.0
1319, 0.0
1320, 0.0
1321, 0.0
1322, 0.0
1323, 0.0
1324, 0.0
1325, 0.0
1326, 0.0
1327, 0.0
1328, 0.0
1329, 0.0
1330, 0.0
1331, 0.0
1332, 0.0
1333, 0.0
1334, 0.0
1335, 0.0
1336, 0.0
1337, 0.0
1338, 0.0
1339, 0.0
1340, 0.0
1341, 0.0
1342, 0.0
1343, 0.0
1344, 0.0
1345, 0.0
1346, 0.0
1347, 0.0
1348, 0.0
1349, 0.0
1350, 0.0
1351, 0.0
1352, 0.0
1353, 0.0
1354, 0.0
1355, 0.0
1356, 0.0
1357, 0.0
1358, 0.0
1359, 0.0
1360, 0.0
1361, 0.0
1362, 0.0
1363, 0.0
1364, 0.0
1365, 0.0
1366, 0.0
1367, 0.0
1368, 0.0
1369, 0.0
1370, 0.0
1371, 0.0
1372, 0.0
1373, 0.0
1374, 0.0
1375, 0.0
1376, 0.0
1377, 0.0
1378, 0.0
1379, 0.0
1380, 0.0
1381, 0.0
1382, 0.0
1383, 0.0
1384, 0.0
1385, 0.0
1386, 0.0
1387, 0.0
1388, 0.0
1389, 0.0
1390, 0.0
1391, 0.0
1392, 0.0
1393, 0.0
1394, 0.0
1395, 0.0
1396, 0.0
1397, 0.0
1398, 0.0
1399, 0.0
1400, 0.0
1401, 0.0
1402, 0.0
1403, 0.0
1404, 0.0
1405, 0.0
1406, 0.0
1407, 0.0
1408, 0.0
1409, 0.0
1410, 0.0
1411, 0.0
1412, 0.0
1413, 0.0
1414, 0.0
1415, 0.0
1416, 0.0
1417, 0.0
1418, 0.0
1419, 0.0
1420, 0.0
1421, 0.0
1422, 0.0
1423, 0.0
1424, 0.0
1425, 0.0
1426, 0.0
1427, 0.0
1428, 0.0
1429, 0.0
1430, 0.0
1431, 0.0
1432, 0.0
1433, 0.0
1434, 0.0
1435, 0.0
1436, 0.0
1437, 0.0
1438, 0.0
1439, 0.0
1440, 0.0
1441, 0.0
1442, 0.0
1443, 0.0
1444, 0.0
1445, 0.0
1446, 0.0
1447, 0.0
1448, 0.0
1449, 0.0
1450, 0.0
1451, 0.0
1452, 0.0
1453, 0.0
1454, 0.0
1455, 0.0
1456, 0.0
1457, 0.0
1458, 0.0
1459, 0.0
1460, 0.0
1461, 0.0
1462, 0.0
1463, 0.0
1464, 0.0
1465, 0.0
1466, 0.0
1467, 0.0
1468, 0.0
1469, 0.0
1470, 0.0
1471, 0.0
1472, 0.0
1473, 0.0
1474, 0.0
1475, 0.0
1476, 0.0
1477, 0.0
1478, 0.0
1479, 0.0
1480, 0.0
1481, 0.0
1482, 0.0
1483, 0.0
1484, 0.0
1485, 0.0
1486, 0.0
1487, 0.0
1488, 0.0
1489, 0.0
1490, 0.0
1491, 0.0
1492, 0.0
1493, 0.0
1494, 0.0
1495, 0.0
1496, 0.0
1497, 0.0
1498, 0.0
1499, 0.0
1500, 0.0
1501, 0.0
1502, 0.0
1503, 0.0
1504, 0.0
1505, 0.0
1506, 0.0
1507, 0.0
1508, 0.0
1509, 0.0
1510, 0.0
1511, 0.0
1512, 0.0
1513, 0.0
1514, 0.0
1515, 0.0
1516, 0.0
1517, 0.0
1518, 0.0
1519, 0.0
1520, 0.0
1521, 0.0
1522, 0.0
1523, 0.0
1524, 0.0
1525, 0.0
1526, 0.0
1527, 0.0
1528, 0.0
1529, 0.0
1530, 0.0
1531, 0.0
1532, 0.0
1533, 0.0
1534, 0.0
1535, 0.0
1536, 0.0
1537, 0.0
1538, 0.0
1539, 0.0
1540, 0.0
1541, 0.0
1542, 0.0
1543, 0.0
1544, 0.0
1545, 0.0
1546, 0.0
1547, 0.0
1548, 0.0
1549, 0.0
1550, 0.0
1551, 0.0
1552, 0.0
1553, 0.0
1554, 0.0
1555, 0.0
1556, 0.0
1557, 0.0
1558, 0.0
1559, 0.0
1560, 0.0
1561, 0.0
1562, 0.0
1563, 0.0
1564, 0.0
1565, 0.0
1566, 0.0
1567, 0.0
1568, 0.0
1569, 0.0
1570, 0.0
1571, 0.0
1572, 0.0
1573, 0.0
1574, 0.0
1575, 0.0
1576, 0.0
1577, 0.0
1578, 0.0
1579, 0.0
1580, 0.0
1581, 0.0
1582, 0.0
1583, 0.0
1584, 0.0
1585, 0.0
1586, 0.0
1587, 0.0
1588, 0.0
1589, 0.0
1590, 0.0
1591, 0.0
1592, 0.0
1593, 0.0
1594, 0.0
1595, 0.0
1596, 0.0
1597, 0.0
1598, 0.0
1599, 0.0
