30, 0.0
31, 0.0
32, 0.0
33, 0.0
34, 0.0
35, 0.0
36, 0.0
37, 0.0
38, 0.0
39, 0.0
40, 0.0
41, 0.0
42, 0.0
43, 0.0
44, 0.0
45, 0.0
46, 0.0
47, 0.0
48, 0.0
49, 0.0
50, 0.0
51, 0.0
52, 0.0
53, 0.0
54, 0.0
55, 0.0
56, 0.0
57, 0.0
58, 0.0
59, 0.0
60, 0.0
61, 0.0
62, 0.0
63, 0.0
64, 0.0
65, 0.0
66, 0.0
67, 0.0
68, 0.0
69, 0.0
70, 0.0
71, 0.0
72, 0.0
73, 0.0
74, 0.0
75, 0.0
76, 0.0
77, 0.0
78, 0.0
79, 0.0
80, 0.0
81, 0.0
82, 0.0
83, 0.0
84, 0.0
85, 0.0
86, 0.0
87, 0.0
88, 0.0
89, 0.0
90, 0.0
91, 0.0
92, 0.0
93, 0.0
94, 0.0
95, 0.0
96, 0.0
97, 0.0
98, 0.0
99, 0.0
100, 0.0
101, 0.0
102, 0.0
103, 0.0
104, 0.0
105, 0.0
106.0, 0.007284214483324284
107.0, 0.0014781794924363847
108.0, 0.0019212382250073997
109.0, 0.01105494101226906
110.0, 0.024383705404695317
111.0, 0.02952035635547649
112.0, 0.027983017136312814
113.0, 0.06576024691155918
114.0, 0.0953617603985825
115.0, 0.09915995607239322
116.0, 0.11573206753846818
117.0, 0.10826799105272256
118.0, 0.10969923355441859
119.0, 0.12097141860696468
120.0, 0.12128008573003835
121.0, 0.1382356850254972
122.0, 0.1356137610409691
123.0, 0.159651846656618
124.0, 0.16545566784605334
125.0, 0.1502091204434365
126.0, 0.14590269683101775
127.0, 0.13178703979224016
128.0, 0.10521852977405877
129.0, 0.10175839814321211
130.0, 0.10348161497110636
131.0, 0.09056421197382614
132.0, 0.07524914867338012
133.0, 0.10782765500679918
134.0, 0.10668225274072902
135.0, 0.08372998645246392
136.0, 0.07062596594313655
137.0, 0.0926916802611058
138.0, 0.08879663250079886
139.0, 0.07218880997367776
140.0, 0.06597061889452169
141.0, 0.08183829826547143
142.0, 0.04678121165443402
143.0, 0.05262005050633581
144.0, 0.06592286753661372
145.0, 0.010067729756944975
146.0, 0.0517888559341075
147.0, 0.04340885549120267
148.0, 0.014073334271513156
149.0, 0.026701943475062426
150.0, 0.028413390887130914
151.0, 0.04784758347147728
152.0, 0.03275665663109293
153.0, 0.012718061679192576
154.0, 0.03970310579487023
155.0, 0.0482330148528349
156.0, 0.03510811536308241
157.0, 0.03220073483319408
158.0, 0.04755354902765803
159.0, 0.03403490395553807
160.0, 0.05727661604668939
161.0, 0.09036905055963797
162.0, 0.07456989102850965
163.0, 0.07476643781511533
164.0, 0.0846658349998334
165.0, 0.09487927470082486
166.0, 0.09804089637941169
167.0, 0.0972763773332716
168.0, 0.07813021955195411
169.0, 0.06668911109224153
170.0, 0.07281450889749473
171.0, 0.07469392601194974
172.0, 0.0960332286303006
173.0, 0.10432572973363487
174.0, 0.0979394778732077
175.0, 0.10289782389963639
176.0, 0.1107546961450983
177.0, 0.11575536336139575
178.0, 0.12385221414170021
179.0, 0.13846676227482188
180.0, 0.1399116261296576
181.0, 0.1307585582367596
182.0, 0.13108458739150344
183.0, 0.14310573947063257
184.0, 0.1346554405860214
185.0, 0.12313407159602384
186.0, 0.13093108477475357
187.0, 0.14642568045880183
188.0, 0.13519233036917067
189.0, 0.12903580114037647
190.0, 0.10510672972074245
191.0, 0.07294446256271725
192.0, 0.061186690377208475
193.0, 0.07728142506960854
194.0, 0.08869705973307328
195.0, 0.08906378999957264
196.0, 0.08062214650036234
197.0, 0.061204763030105934
198.0, 0.07173196113656491
199.0, 0.09171739642456501
200.0, 0.09104898150401541
201.0, 0.058173008643105734
202.0, 0.07358201186136787
203.0, 0.065034327964
204.0, 0.045700679239429005
205.0, 0.06210946693613722
206.0, 0.0306238888541751
207.0, 0.0033646679488394584
208.0, 0.008058437044882993
209.0, 0.03221724121602635
210.0, 0.07235094629038004
211.0, 0.07037216211316248
212.0, 0.06785888222632552
213.0, 0.07615390028739841
214.0, 0.066883384004661
215.0, 0.07141995528350616
216.0, 0.10145113268432869
217.0, 0.12036466632098518
218.0, 0.09611572585971742
219.0, 0.1331851845165237
220.0, 0.16080428657362017
221.0, 0.17329034864907275
222.0, 0.18046240310063288
223.0, 0.18535706041009978
224.0, 0.19056044622338503
225.0, 0.1916509004539918
226.0, 0.19440521265677632
227.0, 0.19887426660406315
228.0, 0.20156011391846146
229.0, 0.20714034367544282
230.0, 0.20950541508639142
231.0, 0.21199490748176575
232.0, 0.21392608342503705
233.0, 0.2214575004572955
234.0, 0.20545992235759294
235.0, 0.16556361242415016
236.0, 0.132007303231176
237.0, 0.10680919212859032
238.0, 0.10113471307472577
239.0, 0.10568795757218266
240.0, 0.10340292426077462
241.0, 0.08431870301216854
242.0, 0.061635943479613195
243.0, 0.05181342988450683
244.0, 0.05492713358192127
245.0, 0.055093207976096445
246.0, 0.03545389851584166
247.0, 0.021409385651268854
248.0, 0.011664050807328234
249.0, 0.002044136890938612
250.0, 0.004136247777057194
251.0, 0.007234901773114799
252.0, 0.0037398883752806896
253.0, 0.012104536966243324
254.0, 0.03760292647616029
255.0, 0.04404494897340205
256.0, 0.03699096750947211
257.0, 0.040522519385699944
258.0, 0.07561573395417273
259.0, 0.09820525473175129
260.0, 0.10787847538398201
261.0, 0.1268657946770426
262.0, 0.1676990694331602
263.0, 0.2189627211495424
264.0, 0.25841047211248563
265.0, 0.3014318881497865
266.0, 0.35296514203785223
267.0, 0.40375997170297584
268.0, 0.43661367505382787
269.0, 0.4875476920482059
270.0, 0.5341946722212493
271.0, 0.5757896454694877
272.0, 0.6497615845322419
273.0, 0.6764141881251817
274.0, 0.7037581856894258
275.0, 0.7471228606932647
276.0, 0.790107123774258
277.0, 0.8027410086658331
278.0, 0.8305091602530048
279.0, 0.8555748542234026
280.0, 0.855492343982717
281.0, 0.8333434805878057
282.0, 0.8396243884837211
283.0, 0.8406544241630209
284.0, 0.820755356279068
285.0, 0.7896782954730797
286.0, 0.794419568712916
287.0, 0.7900924441712246
288.0, 0.7583583027058417
289.0, 0.7487494775216433
290.0, 0.8035046136905168
291.0, 0.7364534435869344
292.0, 0.7762829885586507
293.0, 0.851295629946366
294.0, 0.8568539386061645
295.0, 0.8722679179120418
296.0, 0.9128687174302461
297.0, 0.9478244274602797
298.0, 0.9690688360010737
299.0, 0.9870470299755556
300.0, 0.9994747639769505
301.0, 0.9794004776679794
302.0, 0.9600661884998257
303.0, 0.9641370054955467
304.0, 0.9450616854007595
305.0, 0.9363215445923995
306.0, 0.9348978597793474
307.0, 0.9010504977794971
308.0, 0.8053602780102256
309.0, 0.7319116143096409
310.0, 0.6657539569748944
311.0, 0.6072307268905427
312.0, 0.5460886550467611
313.0, 0.4672988913684478
314.0, 0.38221991965807145
315.0, 0.2933138132297467
316.0, 0.2295989147028577
317.0, 0.1914801983850758
318.0, 0.13997305465716373
319.0, 0.1176152550295934
320.0, 0.110973159691797
321.0, 0.10125785895477174
322.0, 0.08178695579726956
323.0, 0.06308321297355152
324.0, 0.06787272477104135
325.0, 0.08356088910674829
326.0, 0.09465557231789334
327.0, 0.09012213097213559
328.0, 0.10907388593486955
329.0, 0.09793587519734054
330.0, 0.09026845281399155
331.0, 0.10551618857919416
332.0, 0.10231222426175007
333.0, 0.08052287629927067
334.0, 0.06755331835231222
335.0, 0.04971896014837231
336.0, 0.01604883671750329
337.0, 0.011996640293681806
338.0, 0.011186035332089981
339.0, 0.01590872085894362
340.0, 0.004317347295747478
341.0, 0.008032217891779353
342.0, 0.017551678787825167
343.0, 0.024397209656412278
344.0, 0.023340379436771655
345.0, 0.01991864550698507
346.0, 0.024959861752547004
347.0, 0.015760380651063628
348.0, 0.016069168994148987
349.0, 0.01591444187239923
350.0, 0.003124318001675781
351.0, 0.006558599132046044
352.0, 0.008334648941312129
353.0, 0.022732247172050427
354.0, 0.019388372677064784
355.0, 0.0015149150824286606
356.0, 0.008537691242634341
357.0, 0.020781009297393162
358.0, 0.021998592302112888
359.0, 0.0234650143842906
360.0, 0.03029356120950196
361.0, 0.031098211346897144
362.0, 0.026148957306235066
363.0, 0.05607310689813883
364.0, 0.037585635945111384
365.0, 0.04771126584992706
366.0, 0.06246616943513628
367.0, 0.0622363383762593
368.0, 0.07340855851513534
369.0, 0.07225395739848516
370.0, 0.08554574376388877
371.0, 0.07379663708365714
372.0, 0.07140999590074575
373.0, 0.06771162501878429
374.0, 0.06548388466268568
375.0, 0.06149615618628069
376.0, 0.09272851120421509
377.0, 0.08959492301895637
378.0, 0.07580608737664617
379.0, 0.10194324635312409
380.0, 0.10020364544593344
381.0, 0.08460128175631912
382.0, 0.10221202303206331
383.0, 0.12683630969537402
384.0, 0.10730153710883797
385.0, 0.11586574676376703
386.0, 0.12687537964534226
387.0, 0.1301966029663745
388.0, 0.13416640480523648
389.0, 0.14406910829802394
390.0, 0.1336213424993427
391.0, 0.13946896251224628
392.0, 0.14861046627823246
393.0, 0.15752040993223773
394.0, 0.17965567838865107
395.0, 0.16915877914613556
396.0, 0.1723899760499834
397.0, 0.15860472095809688
398.0, 0.12447306419920105
399.0, 0.12264532206316092
400.0, 0.14100351159987484
401.0, 0.14427695201209356
402.0, 0.12273947883546339
403.0, 0.10186783303693037
404.0, 0.13113828779082137
405.0, 0.13971517719246562
406.0, 0.13206921663274235
407.0, 0.11909472307767359
408.0, 0.11353385698063242
409.0, 0.1252073566213289
410.0, 0.11524552124718715
411.0, 0.11885026590653765
412.0, 0.11521391976573073
413.0, 0.09293802262057717
414.0, 0.1001642400943596
415.0, 0.0955959834836568
416.0, 0.08023299389601747
417.0, 0.07340352905348028
418.0, 0.08312954240213481
419.0, 0.09622864777357665
420.0, 0.06808529132140573
421.0, 0.0643418913491426
422.0, 0.0761054029500578
423.0, 0.07268744951681759
424.0, 0.05315134978082462
425.0, 0.053801673254421756
426.0, 0.0638643959086218
427.0, 0.07927712678815951
428.0, 0.09497487898355879
429.0, 0.08932868642890124
430.0, 0.08004834274083428
431.0, 0.08062016589605317
432.0, 0.09496781675578521
433.0, 0.09285186344173342
434.0, 0.093631350673495
435.0, 0.08396862614057829
436.0, 0.07844642375276689
437.0, 0.07270073546835161
438.0, 0.07655036377932828
439.0, 0.07029958959074051
440.0, 0.058200034494898745
441.0, 0.061108486866622846
442.0, 0.07600410877375928
443.0, 0.0784376379553584
444.0, 0.05389398820928669
445.0, 0.054250236759559554
446.0, 0.06194915951539859
447.0, 0.05568522506108426
448.0, 0.036426554498037826
449.0, 0.04205763229499249
450.0, 0.0558406981622672
451.0, 0.06205519259527862
452.0, 0.05477489161258592
453.0, 0.04391858352708151
454.0, 0.04988655055145964
455.0, 0.05018420170308342
456.0, 0.055935185999085424
457.0, 0.06331753436599295
458.0, 0.06639598908948982
459.0, 0.06554740278745169
460.0, 0.04362336216637325
461.0, 0.03409098830851014
462.0, 0.05726616944323164
463.0, 0.08831313084650726
464.0, 0.08058984963885306
465.0, 0.08074663832392019
466.0, 0.09101281306707533
467.0, 0.10108170771424044
468.0, 0.09641260543439852
469.0, 0.07399645548161446
470.0, 0.08776593758386012
471.0, 0.0939203864552815
472.0, 0.07371045430374179
473.0, 0.060562513771886664
474.0, 0.0927551983858717
475.0, 0.08342946102258036
476.0, 0.05635866956002238
477.0, 0.05105939358423961
478.0, 0.05681705657339458
479.0, 0.051911203789642583
480.0, 0.05025325437937114
481.0, 0.06547090230743262
482.0, 0.04872136826483602
483.0, 0.04386043038230941
484.0, 0.03954398268696991
485.0, 0.049590176970580366
486.0, 0.04880158273935882
487.0, 0.0553444657039263
488.0, 0.03689343931588392
489.0, 0.016544652815230015
490.0, 0.013357455686674801
491.0, 0.015656561408554197
492.0, 0.016631679738273758
493.0, 0.013313619275095412
494.0, 0.007055644071862357
495.0, 0.00916975556847549
496.0, 0.04957099215797409
497.0, 0.018079673199941422
498.0, 0.0031633315694773907
499.0, 0.015017971208368603
500.0, 0.0024903251166022333
501.0, 0.014544469437293353
502.0, 0.019228072395014027
503.0, 0.014655522065480361
504.0, 0.008953965114745981
505.0, 0.014196884946600432
506.0, 0.048390511929224625
507.0, 0.019469403970152666
508.0, 0.007915009487571779
509.0, 0.018410698682053032
510.0, 0.0186689767124564
511.0, 0.014730057843852404
512.0, 0.020430472694291473
513.0, 0.012414641785173923
514.0, 0.014990147332065589
515.0, 0.03246055773256458
516.0, 0.03617249645593988
517.0, 0.015937691564735786
518.0, 0.03359563772508167
519.0, 0.035311657875419025
520.0, 0.04767473888023619
521.0, 0.03289384562156183
522.0, 0.029171904509694098
523.0, 0.026054158644652447
524.0, 0.03144621942668712
525.0, 0.030352229022254967
526.0, 0.025690587641221695
527.0, 0.018496283919356094
528.0, 0.02341986817161329
529.0, 0.014586215371623287
530.0, 0.0076286690409303965
531.0, 0.009451727120064164
532.0, 0.006235858937012436
533.0, 0.0073301355893663715
534.0, 0.0026860959113529674
535.0, 0.00408980622024765
536.0, 0.001252872458141218
537.0, 0.004123339152329563
538.0, 0.003958714693045724
539.0, 0.00799817173741346
540.0, 0.004978819981339006
541.0, 0.00799433775009054
542.0, 0.03840636656552007
543.0, 0.005460398859184766
544.0, 0.005874255526621166
545.0, 0.007879120070070932
546.0, 0.004332483738898739
547.0, 0.002902001673602121
548.0, 0.003576404669370339
549.0, 0.03681681450596055
550.0, 0.03742003904685471
551.0, 0.007741933584880245
552.0, 0.001677167054856924
553.0, 0.02103901553683958
554.0, 0.01998608492357948
555.0, 0.013523785969144006
556.0, 0.02101368548713133
557.0, 0.01924865188577453
558.0, 0.008042511251401046
559.0, 0.00858421954123836
560.0, 0.010151892428817403
561.0, 0.002453701285240677
562.0, 0.004136262234022623
563.0, 0.003164223692971401
564.0, 0.004313357173197568
565.0, 0.019641745458984745
566.0, 0.009087625545989257
567.0, 0.024415663973205392
568.0, 0.024448568027276216
569.0, 0.014643161359754603
570.0, 0.032046847080481604
571.0, 0.010999353978919097
572.0, 0.0055585847878442994
573.0, 0.0045352426836921715
574.0, 0.011053535795197592
575.0, 0.0030807895234671073
576.0, 0.010210560241570573
577.0, 0.0019579473524670406
578.0, 0.0021390324141913816
579.0, 0.007483152574786147
580.0, 0.014784048828182444
581.0, 0.021208834285147884
582.0, 0.007965582845195504
583.0, 0.010346701006239602
584.0, 0.00350456511511194
585.0, 0.004078833383235677
586.0, 0.01845296362145392
587.0, 0.017651862669152973
588.0, 0.005591173680062146
589.0, 0.011376706807810374
590.0, 0.004056159078136369
591.0, 0.005767719254537679
592.0, 0.009544024106985413
593.0, 0.002659431136497513
594.0, 0.01644748031987023
595.0, 0.010682418255638475
596.0, 0.030357157518616448
597.0, 0.013119063212675447
598.0, 0.014808374118771232
599.0, 0.021731595275658672
600.0, 0.015815621764841345
601.0, 0.005832576094333275
602.0, 0.003962595041430235
603.0, 0.013523651519362415
604.0, 0.014636073223182673
605.0, 0.015248863408531663
606.0, 0.033185429995803394
607.0, 0.04759772084084282
608.0, 0.04597660633363484
609.0, 0.05194061504078657
610.0, 0.05906271922994922
611.0, 0.04186986088660333
612.0, 0.03788338633198021
613.0, 0.029750006765137595
614.0, 0.04786568648400267
615.0, 0.0399348986639997
616.0, 0.05823822690704515
617.0, 0.05473810875460053
618.0, 0.031091574153916963
619.0, 0.04487414848435556
620.0, 0.056358669560022334
621.0, 0.05023141279550019
622.0, 0.02421841024097241
623.0, 0.02525770126975412
624.0, 0.025686812927462336
625.0, 0.013403586122397625
626.0, 0.028752415408397226
627.0, 0.03503154982671752
628.0, 0.03420441766186807
629.0, 0.04420125870188769
630.0, 0.038633540434089696
631.0, 0.022048156563526655
632.0, 0.01186997269677639
633.0, 0.005302096634562847
634.0, 0.017368913826678888
635.0, 0.02748035277390553
636.0, 0.03897059157953012
637.0, 0.045089512457593996
638.0, 0.052095681901231226
639.0, 0.05216876475454318
640.0, 0.04491577153447664
641.0, 0.04536389154600067
642.0, 0.04054046337160279
643.0, 0.05041342599442635
644.0, 0.04437143207687077
645.0, 0.05647018481111331
646.0, 0.05428368005845355
647.0, 0.03737958081212419
648.0, 0.04293078098185767
649.0, 0.04918510435553891
650.0, 0.04784360925158952
651.0, 0.03216061617253557
652.0, 0.031460972760245724
653.0, 0.020498147196714226
654.0, 0.012511862682934754
655.0, 0.02332549020773422
656.0, 0.050360779507912484
657.0, 0.02127523512888642
658.0, 0.016073497786835922
659.0, 0.014693762185613675
660.0, 0.017802549068972766
661.0, 0.02547618650190189
662.0, 0.023878096158362335
663.0, 0.020454252957271338
664.0, 0.022261847865827578
665.0, 0.011078358405408755
666.0, 0.013979261349612306
667.0, 0.027783790028255415
668.0, 0.012974882447447829
669.0, 0.008573427416297972
670.0, 0.02718493335276579
671.0, 0.018100936505182064
672.0, 0.0012749800501825946
673.0, 0.001267945290643325
674.0, 0.0025378711855957325
675.0, 0.006300269056565492
676.0, 0.009162456246462863
677.0, 0.024059023639158423
678.0, 0.03970322000489885
679.0, 0.018237968408595852
680.0, 0.012022299962210416
681.0, 0.04237520557046306
682.0, 0.04817080363777399
683.0, 0.011789170703736019
684.0, 0.005834083955862424
685.0, 0.0177563662918516
686.0, 0.04149579268033323
687.0, 0.03217978900052652
688.0, 0.02933830129420579
689.0, 0.03515826513160915
690.0, 0.040250338091324146
691.0, 0.03888908176087551
692.0, 0.039418816791670065
693.0, 0.05576135110569007
694.0, 0.02498399042840134
695.0, 0.02217455635935844
696.0, 0.03321518243133759
697.0, 0.029664381048329625
698.0, 0.02588983498903105
699.0, 0.05326925501078284
700.0, 0.036773264342302284
701.0, 0.013677866864525112
702.0, 0.007638379784831794
703.0, 0.012452224209146897
704.0, 0.014865834774883124
705.0, 0.013102275784033869
706.0, 0.01208530920178158
707.0, 0.022374519674179656
708.0, 0.0387409701466572
709.0, 0.04084920633238537
710.0, 0.03429956473632486
711.0, 0.04049923788803826
712.0, 0.0046663520621036065
713.0, 0.0008769740000060279
714.0, 0.011913225046939733
715.0, 0.024387406387929574
716.0, 0.03015917388621055
717.0, 0.023791776507198832
718.0, 0.01698318607752357
719.0, 0.032793225525985535
720.0, 0.025712115508936453
721.0, 0.024486135898503087
722.0, 0.03293142689017461
723.0, 0.03172391749919751
724.0, 0.05926463470806506
725.0, 0.035796362349263026
726.0, 0.04549224159848586
727.0, 0.044170945767096154
728.0, 0.036189162003081254
729.0, 0.03825848047996955
730.0, 0.002631578346263574
731.0, 0.02590239809227727
732.0, 0.04415590443461613
733.0, 0.03721021745823769
734.0, 0.02428466940644878
735.0, 0.021489657953654796
736.0, 0.019773981879101368
737.0, 0.01668972557524477
738.0, 0.018119854890577148
739.0, 0.013078948024082595
740.0, 0.018102732060330595
741.0, 0.01843125027057002
742.0, 0.004132818584778817
743.0, 0.0009437622904267425
744.0, 0.03537615762816115
745.0, 0.03258239336553082
746.0, 0.02455014556010428
747.0, 0.02779250757860908
748.0, 0.03159825755280532
749.0, 0.029031995478532906
750.0, 0.0073581011439334725
751.0, 0.002629500880283197
752.0, 0.0018684645171947651
753.0, 0.012344138311964702
754.0, 0.019681849082005428
755.0, 0.015449416220349543
756.0, 0.014327428456024933
757.0, 0.029269135524337395
758.0, 0.04329059461988804
759.0, 0.042462715029908824
760.0, 0.022839838802634908
761.0, 0.018160380656997217
762.0, 0.05823716865715145
763.0, 0.042541368152130596
764.0, 0.030011498579029048
765.0, 0.028314638245413103
766.0, 0.018116070068914573
767.0, 0.01092216390163365
768.0, 0.02872851948969044
769.0, 0.049945559548604905
770.0, 0.029943192528697798
771.0, 0.025537272965026836
772.0, 0.03252995695100141
773.0, 0.03240441844312238
774.0, 0.02434816073644079
775.0, 0.0247083958444094
776.0, 0.04189985041637757
777.0, 0.021610912862579965
778.0, 0.010100832604771744
779.0, 0.003271842663083696
780.0, 0.009481930612930355
781.0, 0.024676551485929017
782.0, 0.002379195384598179
783.0, 0.02780551161931038
784.0, 0.002125061202480068
785.0, 0.0034251920359969247
786.0, 0.006953367354674842
787.0, 0.006764315972031814
788.0, 0.03649682113442076
789.0, 0.02519424386424502
790.0, 0.029226687735747433
791.0, 0.016496402692003913
792.0, 0.004626863704199732
793.0, 0.008363996581806619
794.0, 0.02180405069665838
795.0, 0.004773070276447621
796.0, 0.022471742768919566
797.0, 0.017473076264984656
798.0, 0.02344646898861273
799.0, 0.0317994757322549
800.0, 0.021459288205680917
801.0, 0.007848384560863252
802.0, 0.022880597326203136
803.0, 0.009835028927509272
804.0, 0.022409632752618893
805.0, 0.03309248038014096
806.0, 0.029771608363376882
807.0, 0.029936737873616736
808.0, 0.036659032627344865
809.0, 0.02451433565591464
810.0, 0.008135092214435674
811.0, 0.004715489241402025
812.0, 0.016571149542076245
813.0, 0.016288990049933127
814.0, 0.006220054582042827
815.0, 0.016418298132314327
816.0, 0.04449241374914231
817.0, 0.0204125070229409
818.0, 0.008544452765520565
819.0, 0.008580171590825358
820.0, 0.005536277689676084
821.0, 0.013788472772470065
822.0, 0.028085194633219304
823.0, 0.005505860233715262
824.0, 0.008706853644696397
825.0, 0.02510802685753784
826.0, 0.015173226009368216
827.0, 0.011438451062876985
828.0, 0.017767913995290312
829.0, 0.014565401678018298
830.0, 0.022465000040089136
831.0, 0.004964877683559378
832.0, 0.004122237911669902
833.0, 0.014652204191839279
834.0, 0.025869919072999462
835.0, 0.01650525613783498
836.0, 0.0017515626006612156
837.0, 0.002012160974068513
838.0, 0.022070336440396715
839.0, 0.02636594335103323
840.0, 0.02011146384212079
841.0, 0.012221198897145154
842.0, 0.022453435913177878
843.0, 0.043882656521469665
844.0, 0.030562058913899192
845.0, 0.05141906698970243
846.0, 0.013973018831797607
847.0, 0.00339597884528416
848.0, 0.01774524599378746
849.0, 0.030167418400453873
850.0, 0.03016414968049553
851.0, 0.012608949175810758
852.0, 0.02907963003433384
853.0, 0.028834134853055738
854.0, 0.02446769459297823
855.0, 0.03373325647354967
856.0, 0.02857090820327166
857.0, 0.009219311963863526
858.0, 0.015103024429332005
859.0, 0.031991241253077576
860.0, 0.018362515060869763
861.0, 0.015234582817753996
862.0, 0.01694546351676448
863.0, 0.014345190284159537
864.0, 0.0051679691385654114
865.0, 0.01582336763947934
866.0, 0.0065256444785942915
867.0, 0.010937093610174772
868.0, 0.010130442628718681
869.0, 0.012343783406924897
870.0, 0.007432010935688746
871.0, 0.005235147767061324
872.0, 0.002396019437552403
873.0, 0.009579534808853303
874.0, 0.005635508856960251
875.0, 0.02625850207289252
876.0, 0.00437758658067745
877.0, 0.009145272424581383
878.0, 0.02612184037555933
879.0, 0.03438880180317933
880.0, 0.041779113066829916
881.0, 0.033702896845452114
882.0, 0.034861428927825275
883.0, 0.03276317961404502
884.0, 0.03916950352573461
885.0, 0.04861543629392148
886.0, 0.04098975328988159
887.0, 0.03978560157858982
888.0, 0.044092782736014864
889.0, 0.040933178172309376
890.0, 0.04573169665946885
891.0, 0.039161303534755124
892.0, 0.047520621842442046
893.0, 0.04412574895503782
894.0, 0.03725680436891271
895.0, 0.03749348435395888
896.0, 0.03267893887455808
897.0, 0.016887236641466616
898.0, 0.0028118174150855856
899.0, 0.022999361299925435
900.0, 0.03139474684579215
901.0, 0.01358313181359145
902.0, 0.02090949878626574
903.0, 0.011499270072135798
904.0, 0.017666018930026076
905.0, 0.017309432086753878
906.0, 0.028551406444887885
907.0, 0.022368345104102905
908.0, 0.015329160287759228
909.0, 0.023640734466021267
910.0, 0.00631605172608673
911.0, 0.009588964204636645
912.0, 0.009518081701513083
913.0, 0.05104423545563877
914.0, 0.03714055801441555
915.0, 0.007330948807159589
916.0, 0.019644129412638163
917.0, 0.048497860682783694
918.0, 0.02274155022951788
919.0, 0.019601154339896454
920.0, 0.035569059813697734
921.0, 0.043834928294707746
922.0, 0.060258628351597704
923.0, 0.057982371454039436
924.0, 0.03731315394584692
925.0, 0.03862141393121031
926.0, 0.04503196216829517
927.0, 0.05093779061862685
928.0, 0.04169994961371576
929.0, 0.046239960204715304
930.0, 0.0607193573934229
931.0, 0.05738822093096832
932.0, 0.0555371741661223
933.0, 0.07997349858909572
934.0, 0.04651315348669387
935.0, 0.053904501000505756
936.0, 0.0610977019701657
937.0, 0.07542395073778466
938.0, 0.07736580748735994
939.0, 0.06851889331267873
940.0, 0.0519101496373864
941.0, 0.03438306527916544
942.0, 0.06414946768917115
943.0, 0.05080314675752522
944.0, 0.03467563378665694
945.0, 0.00506786621624517
946.0, 0.0074072981984171955
947.0, 0.008427133042677446
948.0, 0.019009008264651822
949.0, 0.01032514036940213
950.0, 0.04045722883693139
951.0, 0.015950397791942968
952.0, 0.01602192073865026
953.0, 0.00718233913700224
954.0, 0.012382874036639232
955.0, 0.028735090180629575
956.0, 0.029299049979656676
957.0, 0.035611532933406194
958.0, 0.030725692927356572
959.0, 0.0288844740078349
960.0, 0.0279436618603162
961.0, 0.034983549808998864
962.0, 0.0349509782651403
963.0, 0.040292436775619014
964.0, 0.040024998760825964
965.0, 0.03486640501544068
966.0, 0.04083806434887405
967.0, 0.044632811126430166
968.0, 0.038769318810817695
969.0, 0.036384828803459085
970.0, 0.031996260711588814
971.0, 0.04115260889001878
972.0, 0.04437652092881871
973.0, 0.02941060491706442
974.0, 0.03445446534166458
975.0, 0.04697925618269288
976.0, 0.02605194962028475
977.0, 0.024316784822561527
978.0, 0.030760508192301077
979.0, 0.0363743214807448
980.0, 0.029172734339529747
981.0, 0.026338530052557655
982.0, 0.027639980807047836
983.0, 0.022372452328075353
984.0, 0.018792520159060494
985.0, 0.001504157654206199
986.0, 0.0008591832579410781
987.0, 0.020291175492097788
988.0, 0.03427581194158032
989.0, 0.019441273947396327
990.0, 0.005406175117705854
991.0, 0.005049004213017064
992.0, 0.023291815597387962
993.0, 0.01861934849917323
994.0, 0.02829059052856678
995.0, 0.031512793754014966
996.0, 0.028815366820105288
997.0, 0.028165662104643004
998.0, 0.0329150138969466
999.0, 0.04012948508604902
1000.0, 0.00412383068916585
1001.0, 0.0310558177405005
1002.0, 0.02508845646298827
1003.0, 0.030341470148336394
1004.0, 0.03824437337277984
1005.0, 0.03391098462782418
1006.0, 0.02296030890484592
1007.0, 0.023171501836935067
1008.0, 0.03775102797050175
1009.0, 0.03458428455710487
1010.0, 0.03132223521323741
1011.0, 0.02792822089899037
1012.0, 0.0227515833637553
1013.0, 0.030542060548264884
1014.0, 0.012279686979585036
1015.0, 0.055429015822481234
1016.0, 0.015360653341970955
1017.0, 0.016167252278351574
1018.0, 0.02185702743654295
1019.0, 0.024978855314163325
1020.0, 0.028862898432133088
1021.0, 0.031530668346480537
1022.0, 0.020385180466259728
1023.0, 0.008882552040978754
1024.0, 0.004939650278307196
1025.0, 0.01259727806735233
1026.0, 0.022201491479474072
1027.0, 0.03208369644050953
1028.0, 0.025617772241774306
1029.0, 0.040214886719885996
1030.0, 0.030829152757127103
1031.0, 0.0330567890230713
1032.0, 0.03600185076919111
1033.0, 0.040393671678358084
1034.0, 0.04369123328352994
1035.0, 0.04720272092363698
1036.0, 0.04888110617091821
1037.0, 0.04329648438773677
1038.0, 0.04690613718696487
1039.0, 0.026716113133322252
1040.0, 0.0011345176165490165
1041.0, 0.013092789123096896
1042.0, 0.04690120591594421
1043.0, 0.04199648904562409
1044.0, 0.02616220133256756
1045.0, 0.005437166515207211
1046.0, 0.04397059246140564
1047.0, 0.03580160137106886
1048.0, 0.028485347542810787
1049.0, 0.013871526595067914
1050.0, 0.0005240389862846245
1051.0, 0.010322665336866592
1052.0, 0.013479220926490959
1053.0, 0.028770313132008913
1054.0, 0.016112088834100192
1055.0, 0.01841459194293279
1056.0, 0.019915712188632275
1057.0, 0.015268047802095805
1058.0, 0.007907192606184757
1059.0, 0.012688391648361596
1060.0, 0.020529669164858134
1061.0, 0.006530526595929545
1062.0, 0.003475509505327317
1063.0, 0.03393241852526089
1064.0, 0.03564723210561768
1065.0, 0.017252635005371553
1066.0, 0.013063370643475595
1067.0, 0.002195894551921126
1068.0, 0.0011135087928169612
1069.0, 0.003430354618470046
1070.0, 0.003722408457979717
1071.0, 0.010590855062991893
1072.0, 0.006043566835429897
1073.0, 0.030921551562391524
1074.0, 0.028276330177540106
1075.0, 0.031433533439232934
1076.0, 0.029678785969014333
1077.0, 0.0375675358239784
1078.0, 0.030189249864447598
1079.0, 0.010551477179656063
1080.0, 0.007983822597270405
1081.0, 0.011508892628546243
1082.0, 0.016916736080102142
1083.0, 0.034089730552487985
1084.0, 0.05043337082438995
1085.0, 0.040761163410901795
1086.0, 0.024796651283289756
1087.0, 0.024410115389746717
1088.0, 0.012904981572297003
1089.0, 0.0181233629346769
1090.0, 0.05275902531819182
1091.0, 0.03236051697519653
1092.0, 0.013256329211178102
1093.0, 0.02014383009706615
1094.0, 0.013228834953695602
1095.0, 0.021507356171139407
1096.0, 0.014842880004649886
1097.0, 0.0068008591766274915
1098.0, 0.007477910356281883
1099.0, 0.009351783224367655
1100.0, 0.012742924768907713
1101.0, 0.016315076198951086
1102.0, 0.014409465953931035
1103.0, 0.019221704101596116
1104.0, 0.012693132087435511
1105.0, 0.020747127952437036
1106.0, 0.00864069567798497
1107.0, 0.01995705766500971
1108.0, 0.03482796683487614
1109.0, 0.01756783411482113
1110.0, 0.0035654838774339466
1111.0, 0.00419861223595523
1112.0, 0.019206180211762344
1113.0, 0.005750558836180016
1114.0, 0.034744976622926256
1115.0, 0.03222937205599571
1116.0, 0.02310217490332637
1117.0, 0.011054602719271538
1118.0, 0.003239147609445418
1119.0, 0.020856035166907136
1120.0, 0.025104946078132413
1121.0, 0.03446363684074464
1122.0, 0.0228067366881319
1123.0, 0.01999412966231253
1124.0, 0.016245822995865883
1125.0, 0.030308230692659272
1126.0, 0.027053926466159704
1127.0, 0.039856108200603514
1128.0, 0.0384153154273264
1129.0, 0.023748263931652695
1130.0, 0.03005821192679254
1131.0, 0.02727529517155671
1132.0, 0.01948215501395368
1133.0, 0.023465727112702953
1134.0, 0.029354546451939974
1135.0, 0.010746894877234828
1136.0, 0.0007857245235177763
1137.0, 0.01424007657750772
1138.0, 0.027621705280717248
1139.0, 0.031193491425439316
1140.0, 0.02000291082331155
1141.0, 0.0013064094937459618
1142.0, 0.004140437405734691
1143.0, 0.005700769046101312
1144.0, 0.037084892913451746
1145.0, 0.004847472664618692
1146.0, 0.012642457531051579
1147.0, 0.013192555198117961
1148.0, 0.00778381830607988
1149.0, 0.00804857883993057
1150.0, 0.026266139687903967
1151.0, 0.015535964291572904
1152.0, 0.014576342709705547
1153.0, 0.020918842008954896
1154.0, 0.015456011488130254
1155.0, 0.03157622892034033
1156.0, 0.03569445953470564
1157.0, 0.03991585305730688
1158.0, 0.03380873340039327
1159.0, 0.04506552256861096
1160.0, 0.04138734375167935
1161.0, 0.01995106958979185
1162.0, 0.021797964314070883
1163.0, 0.049880163463986625
1164.0, 0.04968630567300927
1165.0, 0.022215558107157828
1166.0, 0.034778551480210036
1167.0, 0.004749317095584793
1168.0, 0.009635885732709149
1169.0, 0.01746559044811373
1170.0, 0.019438385104416856
1171.0, 0.01889270114899527
1172.0, 0.01695127810839315
1173.0, 0.022233872191384105
1174.0, 0.02550187942145241
1175.0, 0.03274931682957354
1176.0, 0.022292563727928753
1177.0, 0.01939955080299145
1178.0, 0.015739541500629464
1179.0, 0.027179650777476312
1180.0, 0.024032547723759772
1181.0, 0.034410020291826514
1182.0, 0.03275499263433479
1183.0, 0.01984060680580893
1184.0, 0.02839990383112102
1185.0, 0.03494668165491664
1186.0, 0.031130340507601252
1187.0, 0.01761505812571991
1188.0, 0.023186586836635322
1189.0, 0.023440642831412214
1190.0, 0.010716669698918957
1191.0, 0.010451018615977439
1192.0, 0.0019657671252467663
1193.0, 0.020388149927026013
1194.0, 0.010958576661294335
1195.0, 0.009486510579684188
1196.0, 0.024830416972512433
1197.0, 0.05024270368575933
1198.0, 0.03371324369584749
1199.0, 0.05140706047963746
1200.0, 0.030478632056687837
1201.0, 0.03448282412569977
1202.0, 0.024160241193539597
1203.0, 0.022313748372907213
1204.0, 0.04325225763808386
1205.0, 0.04234369950498005
1206.0, 0.025675258920427275
1207.0, 0.021115954062921664
1208.0, 0.029634791976508004
1209.0, 0.03782298322538266
1210.0, 0.04173611515926219
1211.0, 0.042980625708407584
1212.0, 0.041825788826481726
1213.0, 0.01405404626969584
1214.0, 0.03555112016488514
1215.0, 0.04665356965803723
1216.0, 0.04343837372389206
1217.0, 0.009645516849559745
1218.0, 0.003073021795763921
1219.0, 0.006432381146776512
1220.0, 0.009383094120811916
1221.0, 0.00878881162928976
1222.0, 0.005099078805322016
1223.0, 0.004254660446512672
1224.0, 0.01126176959292317
1225.0, 0.021808895225884663
1226.0, 0.04918364420199964
1227.0, 0.02488781690937768
1228.0, 0.02762907158068492
1229.0, 0.02432894392694655
1230.0, 0.012745239329127248
1231.0, 0.007948705783366483
1232.0, 0.019111368538911714
1233.0, 0.03540515541008419
1234.0, 0.04194064652805756
1235.0, 0.04771917959298429
1236.0, 0.05679735895754555
1237.0, 0.05075806560119436
1238.0, 0.05261600959583588
1239.0, 0.04763056128426465
1240.0, 0.049604125051146496
1241.0, 0.045337358341504395
1242.0, 0.04223637821965738
1243.0, 0.06331932124696138
1244.0, 0.04595765614291237
1245.0, 0.04865990013781532
1246.0, 0.05263841910798678
1247.0, 0.05444400636304267
1248.0, 0.05726501866875781
1249.0, 0.05767281353045015
1250.0, 0.06007901645468325
1251.0, 0.05076401030551799
1252.0, 0.06039341931756314
1253.0, 0.06219243257124491
1254.0, 0.04362264220947382
1255.0, 0.05242842342517764
1256.0, 0.04420014450084216
1257.0, 0.038131476035762245
1258.0, 0.03672805741036936
1259.0, 0.03754441046154732
1260.0, 0.043641577943232104
1261.0, 0.03572817317885925
1262.0, 0.022640426645414474
1263.0, 0.03576987863368605
1264.0, 0.030591945754316462
1265.0, 0.005173897940223795
1266.0, 0.013371721820487539
1267.0, 0.03570590800589204
1268.0, 0.012087879650294849
1269.0, 0.0025360524993010176
1270.0, 0.00987847940095978
1271.0, 0.026300193280276177
1272.0, 0.02481240648457525
1273.0, 0.04774800244562135
1274.0, 0.04518167850571407
1275.0, 0.02040494067807729
1276.0, 0.045246465952072275
1277.0, 0.0430051013514417
1278.0, 0.07168533891258198
1279.0, 0.047525670214886975
1280.0, 0.021768931835432093
1281.0, 0.022220049886420963
1282.0, 0.03990366583516925
1283.0, 0.04736004832373884
1284.0, 0.011194884440830485
1285.0, 0.013522453036902478
1286.0, 0.03225210274326097
1287.0, 0.040213166340960414
1288.0, 0.027155204048373384
1289.0, 0.01588175467281168
1290.0, 0.035782962187699004
1291.0, 0.016906504885433455
1292.0, 0.011545639344117004
1293.0, 0.006430761966612766
1294.0, 0.02051879463521319
1295.0, 0.02071697361325257
1296.0, 0.03112138925725487
1297.0, 0.02675105812484098
1298.0, 0.01712426437789816
1299.0, 0.0037543251012903873
1300.0, 0.0038947870620035965
1301, 0.0
1302, 0.0
1303, 0.0
1304, 0.0
1305, 0.0
1306, 0.0
1307, 0.0
1308, 0.0
1309, 0.0
1310, 0.0
1311, 0.0
1312, 0.0
1313, 0.0
1314, 0.0
1315, 0.0
1316, 0.0
1317, 0.0
1318, 0.0
1319, 0.0
1320, 0.0
1321, 0.0
1322, 0.0
1323, 0.0
1324, 0.0
1325, 0.0
1326, 0.0
1327, 0.0
1328, 0.0
1329, 0.0
1330, 0.0
1331, 0.0
1332, 0.0
1333, 0.0
1334, 0.0
1335, 0.0
1336, 0.0
1337, 0.0
1338, 0.0
1339, 0.0
1340, 0.0
1341, 0.0
1342, 0.0
1343, 0.0
1344, 0.0
1345, 0.0
1346, 0.0
1347, 0.0
1348, 0.0
1349, 0.0
1350, 0.0
1351, 0.0
1352, 0.0
1353, 0.0
1354, 0.0
1355, 0.0
1356, 0.0
1357, 0.0
1358, 0.0
1359, 0.0
1360, 0.0
1361, 0.0
1362, 0.0
1363, 0.0
1364, 0.0
1365, 0.0
1366, 0.0
1367, 0.0
1368, 0.0
1369, 0.0
1370, 0.0
1371, 0.0
1372, 0.0
1373, 0.0
1374, 0.0
1375, 0.0
1376, 0.0
1377, 0.0
1378, 0.0
1379, 0.0
1380, 0.0
1381, 0.0
1382, 0.0
1383, 0.0
1384, 0.0
1385, 0.0
1386, 0.0
1387, 0.0
1388, 0.0
1389, 0.0
1390, 0.0
1391, 0.0
1392, 0.0
1393, 0.0
1394, 0.0
1395, 0.0
1396, 0.0
1397, 0.0
1398, 0.0
1399, 0.0
1400, 0.0
1401, 0.0
1402, 0.0
1403, 0.0
1404, 0.0
1405, 0.0
1406, 0.0
1407, 0.0
1408, 0.0
1409, 0.0
1410, 0.0
1411, 0.0
1412, 0.0
1413, 0.0
1414, 0.0
1415, 0.0
1416, 0.0
1417, 0.0
1418, 0.0
1419, 0.0
1420, 0.0
1421, 0.0
1422, 0.0
1423, 0.0
1424, 0.0
1425, 0.0
1426, 0.0
1427, 0.0
1428, 0.0
1429, 0.0
1430, 0.0
1431, 0.0
1432, 0.0
1433, 0.0
1434, 0.0
1435, 0.0
1436, 0.0
1437, 0.0
1438, 0.0
1439, 0.0
1440, 0.0
1441, 0.0
1442, 0.0
1443, 0.0
1444, 0.0
1445, 0.0
1446, 0.0
1447, 0.0
1448, 0.0
1449, 0.0
1450, 0.0
1451, 0.0
1452, 0.0
1453, 0.0
1454, 0.0
1455, 0.0
1456, 0.0
1457, 0.0
1458, 0.0
1459, 0.0
1460, 0.0
1461, 0.0
1462, 0.0
1463, 0.0
1464, 0.0
1465, 0.0
1466, 0.0
1467, 0.0
1468, 0.0
1469, 0.0
1470, 0.0
1471, 0.0
1472, 0.0
1473, 0.0
1474, 0.0
1475, 0.0
1476, 0.0
1477, 0.0
1478, 0.0
1479, 0.0
1480, 0.0
1481, 0.0
1482, 0.0
1483, 0.0
1484, 0.0
1485, 0.0
1486, 0.0
1487, 0.0
1488, 0.0
1489, 0.0
1490, 0.0
1491, 0.0
1492, 0.0
1493, 0.0
1494, 0.0
1495, 0.0
1496, 0.0
1497, 0.0
1498, 0.0
1499, 0.0
1500, 0.0
1501, 0.0
1502, 0.0
1503, 0.0
1504, 0.0
1505, 0.0
1506, 0.0
1507, 0.0
1508, 0.0
1509, 0.0
1510, 0.0
1511, 0.0
1512, 0.0
1513, 0.0
1514, 0.0
1515, 0.0
1516, 0.0
1517, 0.0
1518, 0.0
1519, 0.0
1520, 0.0
1521, 0.0
1522, 0.0
1523, 0.0
1524, 0.0
1525, 0.0
1526, 0.0
1527, 0.0
1528, 0.0
1529, 0.0
1530, 0.0
1531, 0.0
1532, 0.0
1533, 0.0
1534, 0.0
1535, 0.0
1536, 0.0
1537, 0.0
1538, 0.0
1539, 0.0
1540, 0.0
1541, 0.0
1542, 0.0
1543, 0.0
1544, 0.0
1545, 0.0
1546, 0.0
1547, 0.0
1548, 0.0
1549, 0.0
1550, 0.0
1551, 0.0
1552, 0.0
1553, 0.0
1554, 0.0
1555, 0.0
1556, 0.0
1557, 0.0
1558, 0.0
1559, 0.0
1560, 0.0
1561, 0.0
1562, 0.0
1563, 0.0
1564, 0.0
1565, 0.0
1566, 0.0
1567, 0.0
1568, 0.0
1569, 0.0
1570, 0.0
1571, 0.0
1572, 0.0
1573, 0.0
1574, 0.0
1575, 0.0
1576, 0.0
1577, 0.0
1578, 0.0
1579, 0.0
1580, 0.0
1581, 0.0
1582, 0.0
1583, 0.0
1584, 0.0
1585, 0.0
1586, 0.0
1587, 0.0
1588, 0.0
1589, 0.0
1590, 0.0
1591, 0.0
1592, 0.0
1593, 0.0
1594, 0.0
1595, 0.0
1596, 0.0
1597, 0.0
1598, 0.0
1599, 0.0
