30, 0.0
31, 0.0
32, 0.0
33, 0.0
34, 0.0
35, 0.0
36, 0.0
37, 0.0
38, 0.0
39, 0.0
40, 0.0
41, 0.0
42, 0.0
43, 0.0
44, 0.0
45, 0.0
46, 0.0
47, 0.0
48, 0.0
49, 0.0
50, 0.0
51, 0.0
52, 0.0
53, 0.0
54, 0.0
55, 0.0
56, 0.0
57, 0.0
58, 0.0
59, 0.0
60, 0.0
61, 0.0
62, 0.0
63, 0.0
64, 0.0
65, 0.0
66, 0.0
67, 0.0
68, 0.0
69, 0.0
70, 0.0
71, 0.0
72, 0.0
73, 0.0
74, 0.0
75, 0.0
76, 0.0
77, 0.0
78, 0.0
79, 0.0
80, 0.0
81, 0.0
82, 0.0
83, 0.0
84, 0.0
85, 0.0
86, 0.0
87, 0.0
88, 0.0
89, 0.0
90, 0.0
91, 0.0
92, 0.0
93, 0.0
94, 0.0
95, 0.0
96, 0.0
97, 0.0
98, 0.0
99, 0.0
100, 0.0
101, 0.0
102, 0.0
103, 0.0
104, 0.0
105, 0.0
106, 0.0
107, 0.0
108, 0.0
109, 0.0
110, 0.0
111, 0.0
112, 0.0
113, 0.0
114, 0.0
115, 0.0
116, 0.0
117, 0.0
118, 0.0
119, 0.0
120, 0.0
121, 0.0
122, 0.0
123, 0.0
124, 0.0
125, 0.0
126, 0.0
127.0, 0.0003996039966044127
128.0, 0.0007503159839654948
129.0, 2.9927888035363438e-05
130.0, 0.00019945803033371402
131.0, 9.02274556775209e-05
132.0, 0.0002556836178621522
133.0, 0.0006397910738427908
134.0, 0.0010269192992641086
135.0, 0.001968289568884788
136.0, 0.002957170189000536
137.0, 0.004015263943191781
138.0, 0.005315172756209114
139.0, 0.006842817950739741
140.0, 0.007652000908241221
141.0, 0.009043393584081254
142.0, 0.01195729165355148
143.0, 0.01641138510763594
144.0, 0.021090028907754164
145.0, 0.02782096289594819
146.0, 0.035469628103671304
147.0, 0.04067421643211133
148.0, 0.03722400570127826
149.0, 0.028148789164937026
150.0, 0.018547077142228734
151.0, 0.012072149445441905
152.0, 0.008858614467208032
153.0, 0.0068281365438068575
154.0, 0.005541626726842801
155.0, 0.0047053349915337946
156.0, 0.003904803413311486
157.0, 0.0027997940156091372
158.0, 0.002683076473361054
159.0, 0.003168333000853893
160.0, 0.0032733553335546456
161.0, 0.003465698873908817
162.0, 0.00397609304475838
163.0, 0.004493861819561962
164.0, 0.0049671208240213175
165.0, 0.0061624369893877925
166.0, 0.0073665361260247504
167.0, 0.008909400695437717
168.0, 0.010914357045587691
169.0, 0.013079316611108402
170.0, 0.015309935764831258
171.0, 0.017476658832254573
172.0, 0.019725647378299703
173.0, 0.022331689926373497
174.0, 0.025298270301125147
175.0, 0.029254134456304235
176.0, 0.03377220412947045
177.0, 0.0386481487931975
178.0, 0.044427244889449304
179.0, 0.04948570139546749
180.0, 0.054207535370111984
181.0, 0.059966046798753794
182.0, 0.06849351795291055
183.0, 0.08244628930372488
184.0, 0.0989026613870314
185.0, 0.1176228507531082
186.0, 0.13775821456895415
187.0, 0.15241433037813373
188.0, 0.15063256470465197
189.0, 0.1341799556515037
190.0, 0.11309024526902545
191.0, 0.09961875994986508
192.0, 0.09567644241694735
193.0, 0.09852391577129956
194.0, 0.1060342540038407
195.0, 0.11755752367302821
196.0, 0.13335190043750642
197.0, 0.15401900007244196
198.0, 0.18108886978483732
199.0, 0.21475284725718022
200.0, 0.2526683224229895
201.0, 0.2936819112247992
202.0, 0.33016183227032214
203.0, 0.35054661379420254
204.0, 0.3418471297559482
205.0, 0.30273431515955085
206.0, 0.24764100078137277
207.0, 0.19301007544865365
208.0, 0.15033375853124978
209.0, 0.1215639684682217
210.0, 0.10486119918566897
211.0, 0.09802846519868057
212.0, 0.09843346792781849
213.0, 0.10310667383248369
214.0, 0.11160744500817119
215.0, 0.12223289799879301
216.0, 0.13129700042112225
217.0, 0.1344531278657717
218.0, 0.1290309735770006
219.0, 0.11621494113308506
220.0, 0.10046950725790357
221.0, 0.08583181203287503
222.0, 0.07457121480699005
223.0, 0.06639723483032019
224.0, 0.06090669714882871
225.0, 0.058082829597089394
226.0, 0.05790186606406082
227.0, 0.059665728957266385
228.0, 0.06324858089225874
229.0, 0.0684521490966623
230.0, 0.07564517540030877
231.0, 0.08551827308927866
232.0, 0.09671576428498033
233.0, 0.11009147237314129
234.0, 0.12462346487700159
235.0, 0.13882063264650837
236.0, 0.15251904154003554
237.0, 0.16007788795858882
238.0, 0.15997951135199348
239.0, 0.15133187054428296
240.0, 0.13303651572983868
241.0, 0.10813414679264559
242.0, 0.08411994699286333
243.0, 0.06436789109186948
244.0, 0.04987059550881891
245.0, 0.04016255591092471
246.0, 0.03414748071456767
247.0, 0.02987673320257247
248.0, 0.027311693521883937
249.0, 0.027359076977279056
250.0, 0.028209711638927278
251.0, 0.029807963521196332
252.0, 0.031269836899270854
253.0, 0.03163035203050386
254.0, 0.02982500358835734
255.0, 0.026507030678393086
256.0, 0.022475256835650083
257.0, 0.018143621357014413
258.0, 0.0138621084927373
259.0, 0.010083619094381055
260.0, 0.007676446025985546
261.0, 0.005503399297826529
262.0, 0.0032212982539208948
263.0, 0.0017815685419069682
264.0, 0.00035881218528302457
265.0, 0.0006328034812331114
266.0, 0.0013552565037712632
267.0, 0.0020291317877123203
268.0, 0.0023318199184162057
269.0, 0.0024970805924010536
270.0, 0.0023601236869447697
271.0, 0.0020357199334304246
272.0, 0.0018615715701069738
273.0, 0.001866826850792269
274.0, 0.0014539107030770958
275.0, 0.00045345570920129823
276.0, 0.0008102162556689392
277.0, 0.00176505685042804
278.0, 0.0033397945805646503
279.0, 0.004606118697769335
280.0, 0.006052195018911485
281.0, 0.008319896906484674
282.0, 0.009983027446685121
283.0, 0.011756302119717612
284.0, 0.013832266784087272
285.0, 0.015698561376303596
286.0, 0.016701197128480796
287.0, 0.017506066908021853
288.0, 0.016893775983848242
289.0, 0.015522494799444047
290.0, 0.014149055430389478
291.0, 0.012555938947764165
292.0, 0.011219190218302158
293.0, 0.01044652326346005
294.0, 0.00995931510533766
295.0, 0.009584892123701236
296.0, 0.010107602629675238
297.0, 0.010902060495025442
298.0, 0.011997304372838264
299.0, 0.013202312684322714
300.0, 0.014271328828350173
301.0, 0.01601294578822562
302.0, 0.018131397569150925
303.0, 0.020843672660472903
304.0, 0.02432463979493244
305.0, 0.02841411570935906
306.0, 0.0329265791462272
307.0, 0.038283487371006994
308.0, 0.04442646925156418
309.0, 0.050576102613725714
310.0, 0.05533589674661182
311.0, 0.057755483346140994
312.0, 0.05665052902501541
313.0, 0.051557994928409734
314.0, 0.043477978685097
315.0, 0.03521302865161151
316.0, 0.0270695676132885
317.0, 0.020945367877087187
318.0, 0.016746592464706965
319.0, 0.012613902420560555
320.0, 0.009596810896531596
321.0, 0.006984104630403106
322.0, 0.005254001089885907
323.0, 0.004370826605884121
324.0, 0.0032441708329603767
325.0, 0.002345045563347351
326.0, 0.0014003242524186135
327.0, 0.0007182185224322066
328.0, 0.0004368794688361944
329.0, 0.00029621400878878735
330.0, 0.000534447501838294
331.0, 0.0008934139220354424
332.0, 0.001388539862707803
333.0, 0.001688915592041622
334.0, 0.0019018458024268351
335.0, 0.0020745975374660327
336.0, 0.0018314209321711615
337.0, 0.001406168745187783
338.0, 0.0014521069774259077
339.0, 0.0013155703642976579
340.0, 0.0010318262825158365
341.0, 0.0008437222240319348
342.0, 0.0006220023220395244
343.0, 0.00010649611789060722
344.0, 0.0006389310216884938
345.0, 0.0015565551284504645
346.0, 0.0023251005567082876
347.0, 0.002732382643681139
348.0, 0.0034441433010041146
349.0, 0.004519692566456043
350.0, 0.005903858406621758
351.0, 0.007311160906019671
352.0, 0.008518174583986075
353.0, 0.009680011352538969
354.0, 0.01125014796347346
355.0, 0.01314103502965949
356.0, 0.014995737264007958
357.0, 0.016764007270810025
358.0, 0.018955985011035258
359.0, 0.02180663349361664
360.0, 0.02405580089735
361.0, 0.02562354063259933
362.0, 0.026990506642127023
363.0, 0.028040767627935902
364.0, 0.027918222820656556
365.0, 0.027442363123993778
366.0, 0.026658947756708525
367.0, 0.025121542289074945
368.0, 0.02332384249173992
369.0, 0.02111020621753029
370.0, 0.018833811048696487
371.0, 0.01673170896022411
372.0, 0.014827333500781834
373.0, 0.013126058895046054
374.0, 0.012468743126595433
375.0, 0.011761395133917052
376.0, 0.010624248308553635
377.0, 0.009730773851256029
378.0, 0.00895525679423258
379.0, 0.008682390459348857
380.0, 0.008769305734164002
381.0, 0.00883476025720355
382.0, 0.008615305070969744
383.0, 0.008338811057842222
384.0, 0.00839059175225755
385.0, 0.008625273231024633
386.0, 0.00900833184744825
387.0, 0.009584795081028122
388.0, 0.009822379064269726
389.0, 0.010412650900729348
390.0, 0.011551104074787764
391.0, 0.012834664222720293
392.0, 0.013746208631805909
393.0, 0.015233102532999998
394.0, 0.016766018464101553
395.0, 0.01833557754171934
396.0, 0.020331102637586126
397.0, 0.0232057069219549
398.0, 0.025974880638240324
399.0, 0.028941660083641893
400.0, 0.03308877489388117
401.0, 0.038120938217192576
402.0, 0.042414689824402795
403.0, 0.04859549212054551
404.0, 0.05495253494080702
405.0, 0.0619653278533232
406.0, 0.07032858686376858
407.0, 0.0798493252182369
408.0, 0.09042243320998786
409.0, 0.10236636095582496
410.0, 0.11523134321554578
411.0, 0.12952595999012087
412.0, 0.14633613415580998
413.0, 0.164956426901546
414.0, 0.1845973204869135
415.0, 0.20662608444556346
416.0, 0.23121018121804535
417.0, 0.2575012508957079
418.0, 0.2863616208680067
419.0, 0.3153628038794746
420.0, 0.34411942673645046
421.0, 0.3723169876449635
422.0, 0.39757470013763113
423.0, 0.4147203566399001
424.0, 0.42756630122977296
425.0, 0.4308013729220354
426.0, 0.423977498384248
427.0, 0.41103513199369274
428.0, 0.3950795948156563
429.0, 0.37553750236575295
430.0, 0.35479832500902686
431.0, 0.33568654910478585
432.0, 0.32022248692727734
433.0, 0.3075610527683348
434.0, 0.2993211209038574
435.0, 0.29480984305604685
436.0, 0.2927520122799028
437.0, 0.2923733731307513
438.0, 0.29291907304164466
439.0, 0.2917927724072152
440.0, 0.2881936434045023
441.0, 0.281644007918233
442.0, 0.2711336589458718
443.0, 0.25516558458687594
444.0, 0.2354654018796382
445.0, 0.21301900404780208
446.0, 0.18991582630754142
447.0, 0.16737865396713678
448.0, 0.14579789594997644
449.0, 0.1276466679906868
450.0, 0.11147088852328728
451.0, 0.0975127912228059
452.0, 0.08558598459774633
453.0, 0.07415102017134075
454.0, 0.06524710842809059
455.0, 0.05742348888296703
456.0, 0.050653239105561784
457.0, 0.04504133415839358
458.0, 0.0402116372551021
459.0, 0.035756504071849604
460.0, 0.03234421854291863
461.0, 0.02925028001745444
462.0, 0.02625753638141946
463.0, 0.0236352377328643
464.0, 0.020921345019181033
465.0, 0.018357127142252266
466.0, 0.016547076145629218
467.0, 0.014968388973708228
468.0, 0.01319870180625677
469.0, 0.012487167019232729
470.0, 0.011107932628649704
471.0, 0.009352280831609949
472.0, 0.008074811348661561
473.0, 0.007465851965799787
474.0, 0.0066242906871716275
475.0, 0.006015722009689993
476.0, 0.005406515007959007
477.0, 0.004783442669339778
478.0, 0.004224857543202069
479.0, 0.003711443862132509
480.0, 0.003148666040202872
481.0, 0.002460348396082892
482.0, 0.002042983341234254
483.0, 0.0018111229958994808
484.0, 0.0014467849631611637
485.0, 0.0011157051791602561
486.0, 0.0004816739048493368
487.0, 0.00028915233628699325
488.0, 0.00022169757365172042
489.0, 0.00012987511942603137
490.0, 0.00019823635972163114
491.0, 0.00019299143347725593
492.0, 0.0005357536371037598
493.0, 0.0007722833813226405
494.0, 0.0006686788909633496
495.0, 0.0006888425604492118
496.0, 0.0009485975178051976
497.0, 0.000699641384090899
498.0, 0.0005734405076892663
499.0, 0.0007729810937755844
500.0, 0.0009617302080454942
501.0, 0.0012020479133323162
502.0, 0.0009199715748801921
503.0, 0.0009863840501287133
504.0, 0.0011316384877295726
505.0, 0.0009366465323236708
506.0, 0.000856275277466517
507.0, 0.0006289644415615033
508.0, 0.0008788862384594163
509.0, 0.000978937740757953
510.0, 0.0005997427919216137
511.0, 0.0002626213766578439
512.0, 0.00013353582245531636
513.0, 2.8461498367470597e-05
514.0, 3.593224746159924e-05
515.0, 7.54941406946939e-05
516.0, 0.00014487573684637513
517.0, 0.00024174582056880683
518.0, 0.00042078941821927526
519.0, 0.0006430097341954846
520.0, 0.0008070300011616029
521.0, 0.0010385902333686944
522.0, 0.0016436492926605495
523.0, 0.001693502688240347
524.0, 0.002135429013158469
525.0, 0.0025457485011643756
526.0, 0.0027779128774665924
527.0, 0.003325086099792807
528.0, 0.004368163606549998
529.0, 0.004943573943632275
530.0, 0.005464446860794821
531.0, 0.006301811253368909
532.0, 0.007187845597260242
533.0, 0.007628244030673163
534.0, 0.00907565855084664
535.0, 0.010118563762791414
536.0, 0.011535479940972863
537.0, 0.013266256655623738
538.0, 0.014739678347264869
539.0, 0.01674467630007874
540.0, 0.01885185224609467
541.0, 0.0212628111030847
542.0, 0.023808694576244727
543.0, 0.02622553629777056
544.0, 0.028774477784071936
545.0, 0.032434754728493886
546.0, 0.035683718796534244
547.0, 0.03924410717605478
548.0, 0.04315364288397187
549.0, 0.04672871670399443
550.0, 0.0494720899222087
551.0, 0.05087894474990325
552.0, 0.050646616442158135
553.0, 0.048530367399178896
554.0, 0.04473935618543613
555.0, 0.03998623094995086
556.0, 0.03463386746728823
557.0, 0.029233579902764255
558.0, 0.025004457298539083
559.0, 0.02177753466895707
560.0, 0.019103493682038487
561.0, 0.017310622421931987
562.0, 0.01641959949889686
563.0, 0.015808720427289567
564.0, 0.016239208832627798
565.0, 0.017477622605724424
566.0, 0.018522538170406784
567.0, 0.020676504599440385
568.0, 0.023522386004997176
569.0, 0.02742868782317409
570.0, 0.03213977952320253
571.0, 0.03753709759171949
572.0, 0.04392706996759576
573.0, 0.05045257005190808
574.0, 0.05789381408484802
575.0, 0.06660810738548494
576.0, 0.07713785956163202
577.0, 0.09000799041939549
578.0, 0.10532236113501264
579.0, 0.12410687874889581
580.0, 0.14734301326534638
581.0, 0.17402410291280757
582.0, 0.2026465206252247
583.0, 0.2319907669940817
584.0, 0.2581763608978185
585.0, 0.27772634840085025
586.0, 0.2804611877219525
587.0, 0.2626181322793239
588.0, 0.22844476291511315
589.0, 0.18467700228784403
590.0, 0.1460467904516325
591.0, 0.1156993587172435
592.0, 0.09356701092148621
593.0, 0.07855833395137264
594.0, 0.06902811407128837
595.0, 0.06330559456644552
596.0, 0.06072318601482417
597.0, 0.06113777844618761
598.0, 0.0647198664485563
599.0, 0.07060587955694783
600.0, 0.07776575029812603
601.0, 0.0864797842098971
602.0, 0.0957634342158352
603.0, 0.10519561134849209
604.0, 0.11035220559925478
605.0, 0.10785455487090442
606.0, 0.09719071927158518
607.0, 0.08014019324634988
608.0, 0.06266915551984259
609.0, 0.0472702372111765
610.0, 0.03547468790159763
611.0, 0.027161209701085848
612.0, 0.020867564336420494
613.0, 0.017185911432647343
614.0, 0.013921971709195692
615.0, 0.011078438671214904
616.0, 0.008931345153475151
617.0, 0.007539826379740132
618.0, 0.0065139483234903876
619.0, 0.005077449361099935
620.0, 0.004290609746960196
621.0, 0.0037382760571511263
622.0, 0.003133841833974093
623.0, 0.0024824614428313797
624.0, 0.0018098212586194653
625.0, 0.0016416022725970305
626.0, 0.0013767303450789084
627.0, 0.001149259991290589
628.0, 0.0011094796314200103
629.0, 0.0011396366817453753
630.0, 0.0008734911591301916
631.0, 0.0006804702946078885
632.0, 0.0007944475796567757
633.0, 0.0005400397309736607
634.0, 9.338031253525964e-05
635.0, 0.00011763066974425007
636.0, 0.00013568293551724983
637.0, 0.00014746032159895575
638.0, 0.0002801106136910711
639.0, 0.00018906055507925904
640.0, 0.00043973437186616346
641.0, 3.477034298662734e-05
642.0, 8.142830368696926e-05
643.0, 0.0002958868103724563
644.0, 6.9097248770415e-05
645.0, 0.0003408683727166267
646.0, 0.0003065162016911315
647.0, 0.00020958659486791618
648.0, 0.00045719424606400816
649.0, 0.00011891360271075643
650.0, 0.00016824738631450806
651.0, 0.00036310779410833366
652.0, 0.0005814891107251513
653.0, 4.5369832873118534e-05
654.0, 4.659275805798596e-05
655.0, 1.4631411285140733e-05
656.0, 6.202895964030927e-06
657.0, 9.328169554888432e-05
658.0, 9.721276478810137e-05
659.0, 0.00018306476292225733
660.0, 0.0005351076028336038
661.0, 0.00017879284688224477
662.0, 0.0001382655388591226
663.0, 0.0001513742942505097
664.0, 0.00010258432192189609
665.0, 0.00011687265478666013
666.0, 4.958131185371671e-05
667.0, 7.92279086575308e-05
668.0, 3.6417544998702635e-05
669.0, 2.7138206539997816e-05
670.0, 5.4890603701657876e-05
671.0, 0.00029321545281654407
672.0, 0.0004483039671243346
673.0, 0.00014227216848370348
674.0, 6.217909287249835e-05
675.0, 0.0001429566780174412
676.0, 0.0003051935350522935
677.0, 0.0002625410647601637
678.0, 0.000309562182603981
679.0, 0.00019516025367728786
680.0, 0.00015706885123421927
681.0, 0.00027220636438993266
682.0, 0.0004797335347411358
683.0, 0.0003176759105774217
684.0, 0.0001670379641606434
685.0, 0.00017163821249605471
686.0, 0.0006539340372371388
687.0, 0.00047313442365206807
688.0, 0.0002953658234105957
689.0, 0.0003701279854332107
690.0, 0.0003017805312269241
691.0, 0.00045653462477524345
692.0, 0.0006175895474666774
693.0, 0.0004034544723454144
694.0, 0.0003447973913780289
695.0, 0.0005160186282732789
696.0, 0.0006200823545280654
697.0, 0.0004673625654945055
698.0, 0.00038754324706644734
699.0, 0.00034312889098102886
700.0, 0.00033006582949365594
701.0, 0.0005461688177407473
702.0, 0.0006781960002552899
703.0, 0.00030802524167302157
704.0, 0.0005195049946392962
705.0, 0.0007456839776507117
706.0, 0.0004917929265157391
707.0, 0.00033401417736715166
708.0, 0.00047658135586432326
709.0, 0.0005657225391651034
710.0, 0.0003529655361582393
711.0, 0.0003934607440100775
712.0, 0.0005043927365739801
713.0, 0.0004844228201702005
714.0, 0.00041855719187363884
715.0, 0.0005135275879544446
716.0, 0.000727877621687299
717.0, 0.0006096844173299725
718.0, 0.000877027198543302
719.0, 0.0008544795715414951
720.0, 0.0009281689005645977
721.0, 0.001230161481890699
722.0, 0.0011433315338133419
723.0, 0.001470900599505398
724.0, 0.001279883080745368
725.0, 0.0012640319091852769
726.0, 0.0016102379298296207
727.0, 0.0019380457411968634
728.0, 0.001930771503425066
729.0, 0.0019255024743227889
730.0, 0.0015958765160587838
731.0, 0.002011895233629386
732.0, 0.002221010694049166
733.0, 0.0023340428015871323
734.0, 0.0026446337311994933
735.0, 0.0027291170891131904
736.0, 0.0030289579336633876
737.0, 0.0030965348851527737
738.0, 0.0033522461519324936
739.0, 0.00375200570293877
740.0, 0.004026140876202908
741.0, 0.004098385612965792
742.0, 0.0042177364806370975
743.0, 0.004591819309964997
744.0, 0.0048893030260278
745.0, 0.0052865829967340605
746.0, 0.005945497226609933
747.0, 0.006582770145796905
748.0, 0.0068838197187486745
749.0, 0.0073705946395576875
750.0, 0.007638728565243387
751.0, 0.008207675656497234
752.0, 0.008809628095126419
753.0, 0.009473254366071021
754.0, 0.010198182243498038
755.0, 0.010480090145646938
756.0, 0.010931656243277924
757.0, 0.01164953093166603
758.0, 0.01214298087325686
759.0, 0.012652875011104068
760.0, 0.013164807311233803
761.0, 0.013361035265431268
762.0, 0.013620394095901643
763.0, 0.013619610569806219
764.0, 0.013279495578417027
765.0, 0.012889385703592875
766.0, 0.012791370536211983
767.0, 0.012586684605108863
768.0, 0.011513743192897923
769.0, 0.01122197981815301
770.0, 0.011174268533380076
771.0, 0.01034504067948071
772.0, 0.009962324138325696
773.0, 0.009600500761879594
774.0, 0.008643382644854267
775.0, 0.008517799713173485
776.0, 0.007816382581052793
777.0, 0.007337778405876986
778.0, 0.006832893374658286
779.0, 0.006395782651885523
780.0, 0.0061171228577443166
781.0, 0.0057626006682443675
782.0, 0.00511128117828686
783.0, 0.004980368857059438
784.0, 0.00517002951411374
785.0, 0.004926079232917376
786.0, 0.004675394214510646
787.0, 0.004612790291373005
788.0, 0.004270657838009049
789.0, 0.003946609219746202
790.0, 0.004034571323487144
791.0, 0.0034922340918793534
792.0, 0.0034755958144398924
793.0, 0.003985203525972654
794.0, 0.004164015408324988
795.0, 0.003752084301250011
796.0, 0.003654080770332115
797.0, 0.003688286030453434
798.0, 0.0036259843388703103
799.0, 0.0037429249277278038
800.0, 0.0037293876926059377
801.0, 0.0034429070560900304
802.0, 0.0034013820642607062
803.0, 0.0037516211293396073
804.0, 0.0035646323225984313
805.0, 0.0036160560023132805
806.0, 0.0037313186044092956
807.0, 0.003645143556009735
808.0, 0.0035289007729804567
809.0, 0.0036094254345967855
810.0, 0.003392092270481879
811.0, 0.003175185136498972
812.0, 0.0031120348878497478
813.0, 0.00317579103606135
814.0, 0.0031617533834923553
815.0, 0.003015454619301528
816.0, 0.0028566670654055107
817.0, 0.0025980116750120067
818.0, 0.0026405157344252415
819.0, 0.002482051327963777
820.0, 0.002326227320511392
821.0, 0.002219589369385512
822.0, 0.0022313220428106227
823.0, 0.002461833996163223
824.0, 0.002236816167561753
825.0, 0.0017921374049533936
826.0, 0.002027163165944654
827.0, 0.0020479644783121392
828.0, 0.0019839116261637746
829.0, 0.0019253297669955638
830.0, 0.0013826616873248512
831.0, 0.0011025049917877995
832.0, 0.0009134859629592663
833.0, 0.0007495149862449977
834.0, 0.0006680462196776599
835.0, 0.0007565902191320088
836.0, 0.0009199249838012886
837.0, 0.0008802250922937239
838.0, 0.0005523567269286298
839.0, 0.000238506429460922
840.0, 0.00012677075563541685
841.0, 0.00016713895761330446
842.0, 0.0004177478661139359
843.0, 0.00038710190774886554
844.0, 5.8450314411525066e-06
845.0, 0.00041429248740573315
846.0, 0.00040291061014695935
847.0, 0.0006054741577534456
848.0, 0.0005108008382362345
849.0, 0.0006385939326145254
850.0, 0.0007972058854454272
851.0, 0.0006575850108652269
852.0, 0.0004418414792279101
853.0, 0.0005399029381160276
854.0, 0.0009283280537859377
855.0, 0.0005956997569514794
856.0, 0.0005408381876020212
857.0, 0.0007469156112712396
858.0, 0.0008769705936753893
859.0, 0.0009992095045358342
860.0, 0.0006243467470462226
861.0, 0.0006387700484019641
862.0, 0.0011506319942203894
863.0, 0.001136805684327169
864.0, 0.0005951229211080955
865.0, 0.00046403636322996436
866.0, 0.0007995275478108578
867.0, 0.00044446445066464915
868.0, 0.0006238844056046366
869.0, 6.641904532576207e-05
870.0, 0.0003356592640205303
871.0, 0.00018536201455141607
872.0, 2.047890229726933e-05
873.0, 0.00024649220924573295
874.0, 0.0007089282750272467
875.0, 0.001065766952806763
876.0, 0.001475715629598712
877.0, 0.0016338024232746455
878.0, 0.001599364469556652
879.0, 0.0020622037838158684
880.0, 0.0029293768647709697
881.0, 0.0036313347667583217
882.0, 0.004299829560840894
883.0, 0.004324103360223531
884.0, 0.005257176214329518
885.0, 0.00645477512379946
886.0, 0.007470595065528792
887.0, 0.008322370993893491
888.0, 0.009196319341239156
889.0, 0.010399494870175097
890.0, 0.012387732974500132
891.0, 0.01393282110330767
892.0, 0.015706057618101364
893.0, 0.017658423955136792
894.0, 0.019863268804532357
895.0, 0.02275041445638479
896.0, 0.026089868354506
897.0, 0.029124665186234067
898.0, 0.033005452601635114
899.0, 0.03784513893040432
900.0, 0.043501762944289674
901.0, 0.04991195600674161
902.0, 0.05695950121202098
903.0, 0.06529585888542744
904.0, 0.07550992182636211
905.0, 0.08737833441570571
906.0, 0.10145497945384281
907.0, 0.11880754677078459
908.0, 0.13851446348926333
909.0, 0.16154375224723302
910.0, 0.1894895698587259
911.0, 0.22173855231494038
912.0, 0.25762549680057717
913.0, 0.2997178079515298
914.0, 0.3463982416729299
915.0, 0.3997169920684823
916.0, 0.45841884402457267
917.0, 0.5233695645986608
918.0, 0.5964023961427118
919.0, 0.6756886932582895
920.0, 0.7572426080302841
921.0, 0.8381175807433704
922.0, 0.9095392914284671
923.0, 0.9654670167964503
924.0, 0.995997576977378
925.0, 0.9956263546944465
926.0, 0.9646419842966
927.0, 0.9095129690360497
928.0, 0.8391939469313424
929.0, 0.7676780366026775
930.0, 0.6982856830953089
931.0, 0.6355937478594806
932.0, 0.582905750161199
933.0, 0.5417218951165846
934.0, 0.5114071124027993
935.0, 0.488358363412388
936.0, 0.47067403656125323
937.0, 0.46114621519227783
938.0, 0.45827169813119445
939.0, 0.4625894238638759
940.0, 0.46994737193389374
941.0, 0.48104068142840967
942.0, 0.4969051276439175
943.0, 0.5158296578980742
944.0, 0.5374038072800436
945.0, 0.5650647638133517
946.0, 0.5935662004429731
947.0, 0.6271674775243242
948.0, 0.6621328628241842
949.0, 0.6995198893466632
950.0, 0.7412642336414593
951.0, 0.7838867704829481
952.0, 0.8219181008325592
953.0, 0.8534660725921137
954.0, 0.8692131185137552
955.0, 0.8660471212027021
956.0, 0.8379616493456422
957.0, 0.7857557966683845
958.0, 0.7130067963917543
959.0, 0.626074744277946
960.0, 0.5370991537164184
961.0, 0.4538040289015239
962.0, 0.37657502637533447
963.0, 0.313692805395812
964.0, 0.26226090831907695
965.0, 0.21966868068754122
966.0, 0.18528939260837612
967.0, 0.15738215397080368
968.0, 0.13470243818155833
969.0, 0.1169131681157942
970.0, 0.10257770087357664
971.0, 0.09069920954666696
972.0, 0.08177040266990485
973.0, 0.0741871040623136
974.0, 0.06754326215158574
975.0, 0.06072584510739969
976.0, 0.053118480936807225
977.0, 0.045241237765830784
978.0, 0.03706020975280567
979.0, 0.029653563296750188
980.0, 0.023337468503198174
981.0, 0.018438142179326735
982.0, 0.014224114477917871
983.0, 0.011215429379877009
984.0, 0.008887021086924045
985.0, 0.0064324954787862414
986.0, 0.004629688557438895
987.0, 0.0031919904843354784
988.0, 0.001952861190685758
989.0, 0.0010236566251693024
990.0, 0.000211635757973778
991.0, 0.0004884442720037794
992.0, 0.0010583647512422637
993.0, 0.0017927676872543752
994.0, 0.002306054401019376
995.0, 0.0018255219748730797
996.0, 0.002536857250597369
997.0, 0.0025391358927183832
998.0, 0.0022692521536379377
999.0, 0.00203925744096752
1000.0, 0.0013549410863875565
1001.0, 0.0006492038678143914
1002.0, 0.00018998118380350213
1003.0, 0.0012560478283622023
1004.0, 0.00239267287797936
1005.0, 0.0032995807061464363
1006.0, 0.004731031189935995
1007.0, 0.006621296948542852
1008.0, 0.008119985059860979
1009.0, 0.009958916347620214
1010.0, 0.012939595643373492
1011.0, 0.016739774792796085
1012.0, 0.020714199745813962
1013.0, 0.02549892169622175
1014.0, 0.03170884317701444
1015.0, 0.038595994059411255
1016.0, 0.04657124758963799
1017.0, 0.055411893387301736
1018.0, 0.06543462054022063
1019.0, 0.07743537686507926
1020.0, 0.09167177890411722
1021.0, 0.10795572076712169
1022.0, 0.1270906013555995
1023.0, 0.14924016085146408
1024.0, 0.17376881679651615
1025.0, 0.1972855446949276
1026.0, 0.2167707747815149
1027.0, 0.22619505684081692
1028.0, 0.2207000077352791
1029.0, 0.20122311281061514
1030.0, 0.1723817808405375
1031.0, 0.13924136284603528
1032.0, 0.11098729548630347
1033.0, 0.08647720887221774
1034.0, 0.0675449464516163
1035.0, 0.05328509362965429
1036.0, 0.04243209699381822
1037.0, 0.034005524518942315
1038.0, 0.02709301984631201
1039.0, 0.02150076056793931
1040.0, 0.017824123141225327
1041.0, 0.014302655271294982
1042.0, 0.011536799315725339
1043.0, 0.009673167262657595
1044.0, 0.00793927311391303
1045.0, 0.007098844538475786
1046.0, 0.006244607394571674
1047.0, 0.005117101367001568
1048.0, 0.0046313893183835405
1049.0, 0.004136680527937529
1050.0, 0.003843722618052494
1051.0, 0.0033678975477659905
1052.0, 0.002935533400638262
1053.0, 0.0025333178105943267
1054.0, 0.0015878487574781522
1055.0, 0.00040902273324621997
1056.0, 0.0002119202028175711
1057.0, 0.00043630655078341483
1058.0, 0.0007233569913258791
1059.0, 0.0003420216388659936
1060.0, 0.0009470905714093214
1061.0, 0.0008672807508290116
1062.0, 0.0007672981357085848
1063.0, 0.0007142125629858304
1064.0, 0.0005032001335032753
1065.0, 0.0002587584482500566
1066.0, 0.00013356759992614646
1067.0, 0.0004645583725613532
1068.0, 0.0006761192448150446
1069.0, 0.0011751025553002736
1070.0, 0.0021411040040278297
1071.0, 0.0022947148794199047
1072.0, 0.0024762184197277947
1073.0, 0.002817584556435533
1074.0, 0.003095845300790098
1075.0, 0.0035986361208674112
1076.0, 0.004449257950902919
1077.0, 0.005235561494012387
1078.0, 0.006078822764549162
1079.0, 0.007348657067786241
1080.0, 0.0088585150744954
1081.0, 0.010599804428826114
1082.0, 0.012225078527863793
1083.0, 0.014668026115755486
1084.0, 0.018277299091039367
1085.0, 0.02224700441834016
1086.0, 0.026652597643925677
1087.0, 0.03236668385823971
1088.0, 0.03869685517659741
1089.0, 0.04641572980765702
1090.0, 0.054980070591444004
1091.0, 0.06433177407244096
1092.0, 0.07650267970572787
1093.0, 0.0909831840016406
1094.0, 0.10825866409936281
1095.0, 0.12868646629045596
1096.0, 0.15101729618787257
1097.0, 0.17272545456911217
1098.0, 0.1894602534661431
1099.0, 0.1952540514180886
1100.0, 0.1859874069509412
1101.0, 0.16371433984457434
1102.0, 0.1360135342543545
1103.0, 0.10963812446022851
1104.0, 0.08748107304881819
1105.0, 0.069754397868054
1106.0, 0.05600550547841567
1107.0, 0.04562599489215699
1108.0, 0.037636333485512076
1109.0, 0.03142775812129699
1110.0, 0.02723190867573763
1111.0, 0.022979850529331505
1112.0, 0.01959128189531744
1113.0, 0.017030721691452158
1114.0, 0.014961138032794146
1115.0, 0.013484867168107765
1116.0, 0.012061825518131309
1117.0, 0.010237178771331873
1118.0, 0.008908340761750474
1119.0, 0.008382569198597875
1120.0, 0.007877506442364042
1121.0, 0.007189394138879094
1122.0, 0.0066596315759398575
1123.0, 0.0058324032108520605
1124.0, 0.005491469263587861
1125.0, 0.005251476912923353
1126.0, 0.004610292154874369
1127.0, 0.004289212178427474
1128.0, 0.004562346991001237
1129.0, 0.004082903813923741
1130.0, 0.003607473767390555
1131.0, 0.0034868993710544228
1132.0, 0.003193235323418857
1133.0, 0.002789059274748829
1134.0, 0.002619910517299604
1135.0, 0.0023017071593992248
1136.0, 0.002005723031226283
1137.0, 0.001958212255096932
1138.0, 0.0017297603467642268
1139.0, 0.0013286859463023442
1140.0, 0.001495701582691313
1141.0, 0.0009252295721405982
1142.0, 0.0005505571114980999
1143.0, 0.0005810177594742552
1144.0, 0.0007612210444334621
1145.0, 0.0004416019246686061
1146.0, 0.00030816365867758114
1147.0, 0.00016639323198428403
1148.0, 0.0002036482402266412
1149.0, 0.00027333927756618585
1150.0, 8.903301752925027e-05
1151.0, 9.412586236778749e-05
1152.0, 0.0007502266944933327
1153.0, 0.0003176219279010912
1154.0, 0.00022129652048688266
1155.0, 6.693454390171356e-05
1156.0, 0.00015910334527869264
1157.0, 9.202293946691817e-05
1158.0, 0.00018586732858080394
1159.0, 0.0003806956441884451
1160.0, 0.0004119116688694088
1161.0, 0.00037651940660881223
1162.0, 0.0008290851608809019
1163.0, 0.0008068721176075594
1164.0, 0.0010846484381822742
1165.0, 0.0010989934758439941
1166.0, 0.0017225553497672175
1167.0, 0.0019434733038418302
1168.0, 0.0018556652492610073
1169.0, 0.001884388310838968
1170.0, 0.001936983312307415
1171.0, 0.002078773213418785
1172.0, 0.002706527834156981
1173.0, 0.0028790706339359073
1174.0, 0.002898755829346433
1175.0, 0.002914655263331946
1176.0, 0.0032546254108750867
1177.0, 0.0033867423978382496
1178.0, 0.003366002951658537
1179.0, 0.003231334566909924
1180.0, 0.0032724906406715808
1181.0, 0.003257598305715602
1182.0, 0.003005026250033646
1183.0, 0.0028985336929025956
1184.0, 0.0030136986528456816
1185.0, 0.002934452200869584
1186.0, 0.003017397318333395
1187.0, 0.002890470446312352
1188.0, 0.002835300586509262
1189.0, 0.0030296844169634255
1190.0, 0.0026952249560126544
1191.0, 0.0024963354874499633
1192.0, 0.002606357664379141
1193.0, 0.0024079334432332775
1194.0, 0.002399727425465696
1195.0, 0.002587291488711509
1196.0, 0.0018345273751000054
1197.0, 0.0021209062893949022
1198.0, 0.002065126082245406
1199.0, 0.002290415090516001
1200.0, 0.0024561326976056384
1201.0, 0.002369321551925578
1202.0, 0.002356835256652219
1203.0, 0.002323619533682502
1204.0, 0.0020972669012344052
1205.0, 0.0020656442468534324
1206.0, 0.002329175737700636
1207.0, 0.0023278697815466423
1208.0, 0.002088588750407642
1209.0, 0.0025041612738473345
1210.0, 0.0024930086230153126
1211.0, 0.002270361982521321
1212.0, 0.002175349727991764
1213.0, 0.0023103481352763537
1214.0, 0.0022597236829927816
1215.0, 0.0021790935595412887
1216.0, 0.0016899425182237565
1217.0, 0.0013747374870861921
1218.0, 0.00171098464464845
1219.0, 0.0018500923719300811
1220.0, 0.0015313149031497134
1221.0, 0.00168592307387272
1222.0, 0.0018480573620934975
1223.0, 0.0010064573356031992
1224.0, 0.001083033455981341
1225.0, 0.0009142645886095025
1226.0, 0.0007759114347036076
1227.0, 0.0006942272469687611
1228.0, 0.0006316786437202713
1229.0, 0.000630589531512035
1230.0, 0.0006336705585822109
1231.0, 0.00041765084030709316
1232.0, 7.049071772598047e-05
1233.0, 6.226273771846755e-05
1234.0, 0.0005520479403831384
1235.0, 0.00013415852178745133
1236.0, 0.00017768420903533684
1237.0, 3.1894522793469285e-05
1238.0, 0.00022426287555371436
1239.0, 0.00011081392181189418
1240.0, 0.0001649872992947825
1241.0, 0.0001726236359660108
1242.0, 0.00031262964088635644
1243.0, 0.0002279926628577439
1244.0, 5.617233123032327e-05
1245.0, 5.523109940427986e-05
1246.0, 0.0001359870769896668
1247.0, 0.000326296508816625
1248.0, 1.2927589798526844e-05
1249.0, 0.0004892092732114194
1250.0, 0.000173861935644184
1251.0, 7.082224375521708e-05
1252.0, 0.0004682332841529596
1253.0, 0.00014085966619246124
1254.0, 6.42506578002983e-05
1255.0, 0.00039739647391362064
1256.0, 0.00021546696575429531
1257.0, 3.5135335734662654e-05
1258.0, 0.00022109694112681211
1259.0, 0.00035123467219436323
1260.0, 0.0004223462839845922
1261.0, 0.0005353742116947426
1262.0, 0.0005706171603556565
1263.0, 0.0008494465708309277
1264.0, 0.0005950906423146186
1265.0, 0.0006864728651749683
1266.0, 0.0005892715194179081
1267.0, 0.0005744979624751006
1268.0, 0.0006717891388272723
1269.0, 0.000846169080873922
1270.0, 0.0010354296268812492
1271.0, 0.000916668170520275
1272.0, 0.000514920664920518
1273.0, 0.00046716363302881864
1274.0, 0.000721958230140616
1275.0, 0.0005353319704534364
1276.0, 0.00041114047737600987
1277.0, 0.0003651168470777183
1278.0, 0.0008118918639157141
1279.0, 0.0004972466757184127
1280.0, 0.0004360115033463042
1281.0, 0.0004162388287766174
1282.0, 0.0003450495020253755
1283.0, 0.00014508769680845064
1284.0, 0.0003486310640760501
1285.0, 0.0004943498424287782
1286.0, 0.00041173269767598615
1287.0, 0.0003030257450790446
1288.0, 0.00016827419574689726
1289.0, 0.0003446565151234389
1290.0, 0.0004127583002676714
1291.0, 0.0006994357368183733
1292.0, 0.0004608225125532131
1293.0, 2.825637117844991e-05
1294.0, 0.00037269716384967164
1295.0, 0.00011565217536581396
1296.0, 2.784814153212867e-05
1297.0, 0.00037005828668564087
1298.0, 0.00045118445479882364
1299.0, 0.000439931266169662
1300.0, 0.0005638080217454152
1301.0, 0.0003465165611576888
1302.0, 1.1911735598249076e-06
1303.0, 2.0794115385633395e-05
1304, 0.0
1305, 0.0
1306, 0.0
1307, 0.0
1308, 0.0
1309, 0.0
1310, 0.0
1311, 0.0
1312, 0.0
1313, 0.0
1314, 0.0
1315, 0.0
1316, 0.0
1317, 0.0
1318, 0.0
1319, 0.0
1320, 0.0
1321, 0.0
1322, 0.0
1323, 0.0
1324, 0.0
1325, 0.0
1326, 0.0
1327, 0.0
1328, 0.0
1329, 0.0
1330, 0.0
1331, 0.0
1332, 0.0
1333, 0.0
1334, 0.0
1335, 0.0
1336, 0.0
1337, 0.0
1338, 0.0
1339, 0.0
1340, 0.0
1341, 0.0
1342, 0.0
1343, 0.0
1344, 0.0
1345, 0.0
1346, 0.0
1347, 0.0
1348, 0.0
1349, 0.0
1350, 0.0
1351, 0.0
1352, 0.0
1353, 0.0
1354, 0.0
1355, 0.0
1356, 0.0
1357, 0.0
1358, 0.0
1359, 0.0
1360, 0.0
1361, 0.0
1362, 0.0
1363, 0.0
1364, 0.0
1365, 0.0
1366, 0.0
1367, 0.0
1368, 0.0
1369, 0.0
1370, 0.0
1371, 0.0
1372, 0.0
1373, 0.0
1374, 0.0
1375, 0.0
1376, 0.0
1377, 0.0
1378, 0.0
1379, 0.0
1380, 0.0
1381, 0.0
1382, 0.0
1383, 0.0
1384, 0.0
1385, 0.0
1386, 0.0
1387, 0.0
1388, 0.0
1389, 0.0
1390, 0.0
1391, 0.0
1392, 0.0
1393, 0.0
1394, 0.0
1395, 0.0
1396, 0.0
1397, 0.0
1398, 0.0
1399, 0.0
1400, 0.0
1401, 0.0
1402, 0.0
1403, 0.0
1404, 0.0
1405, 0.0
1406, 0.0
1407, 0.0
1408, 0.0
1409, 0.0
1410, 0.0
1411, 0.0
1412, 0.0
1413, 0.0
1414, 0.0
1415, 0.0
1416, 0.0
1417, 0.0
1418, 0.0
1419, 0.0
1420, 0.0
1421, 0.0
1422, 0.0
1423, 0.0
1424, 0.0
1425, 0.0
1426, 0.0
1427, 0.0
1428, 0.0
1429, 0.0
1430, 0.0
1431, 0.0
1432, 0.0
1433, 0.0
1434, 0.0
1435, 0.0
1436, 0.0
1437, 0.0
1438, 0.0
1439, 0.0
1440, 0.0
1441, 0.0
1442, 0.0
1443, 0.0
1444, 0.0
1445, 0.0
1446, 0.0
1447, 0.0
1448, 0.0
1449, 0.0
1450, 0.0
1451, 0.0
1452, 0.0
1453, 0.0
1454, 0.0
1455, 0.0
1456, 0.0
1457, 0.0
1458, 0.0
1459, 0.0
1460, 0.0
1461, 0.0
1462, 0.0
1463, 0.0
1464, 0.0
1465, 0.0
1466, 0.0
1467, 0.0
1468, 0.0
1469, 0.0
1470, 0.0
1471, 0.0
1472, 0.0
1473, 0.0
1474, 0.0
1475, 0.0
1476, 0.0
1477, 0.0
1478, 0.0
1479, 0.0
1480, 0.0
1481, 0.0
1482, 0.0
1483, 0.0
1484, 0.0
1485, 0.0
1486, 0.0
1487, 0.0
1488, 0.0
1489, 0.0
1490, 0.0
1491, 0.0
1492, 0.0
1493, 0.0
1494, 0.0
1495, 0.0
1496, 0.0
1497, 0.0
1498, 0.0
1499, 0.0
1500, 0.0
1501, 0.0
1502, 0.0
1503, 0.0
1504, 0.0
1505, 0.0
1506, 0.0
1507, 0.0
1508, 0.0
1509, 0.0
1510, 0.0
1511, 0.0
1512, 0.0
1513, 0.0
1514, 0.0
1515, 0.0
1516, 0.0
1517, 0.0
1518, 0.0
1519, 0.0
1520, 0.0
1521, 0.0
1522, 0.0
1523, 0.0
1524, 0.0
1525, 0.0
1526, 0.0
1527, 0.0
1528, 0.0
1529, 0.0
1530, 0.0
1531, 0.0
1532, 0.0
1533, 0.0
1534, 0.0
1535, 0.0
1536, 0.0
1537, 0.0
1538, 0.0
1539, 0.0
1540, 0.0
1541, 0.0
1542, 0.0
1543, 0.0
1544, 0.0
1545, 0.0
1546, 0.0
1547, 0.0
1548, 0.0
1549, 0.0
1550, 0.0
1551, 0.0
1552, 0.0
1553, 0.0
1554, 0.0
1555, 0.0
1556, 0.0
1557, 0.0
1558, 0.0
1559, 0.0
1560, 0.0
1561, 0.0
1562, 0.0
1563, 0.0
1564, 0.0
1565, 0.0
1566, 0.0
1567, 0.0
1568, 0.0
1569, 0.0
1570, 0.0
1571, 0.0
1572, 0.0
1573, 0.0
1574, 0.0
1575, 0.0
1576, 0.0
1577, 0.0
1578, 0.0
1579, 0.0
1580, 0.0
1581, 0.0
1582, 0.0
1583, 0.0
1584, 0.0
1585, 0.0
1586, 0.0
1587, 0.0
1588, 0.0
1589, 0.0
1590, 0.0
1591, 0.0
1592, 0.0
1593, 0.0
1594, 0.0
1595, 0.0
1596, 0.0
1597, 0.0
1598, 0.0
1599, 0.0
