30, 0.0
31, 0.0
32, 0.0
33, 0.0
34, 0.0
35, 0.0
36, 0.0
37, 0.0
38, 0.0
39, 0.0
40, 0.0
41, 0.0
42, 0.0
43, 0.0
44, 0.0
45, 0.0
46, 0.0
47, 0.0
48, 0.0
49, 0.0
50, 0.0
51, 0.0
52, 0.0
53, 0.0
54, 0.0
55, 0.0
56, 0.0
57, 0.0
58, 0.0
59, 0.0
60, 0.0
61, 0.0
62, 0.0
63, 0.0
64, 0.0
65, 0.0
66, 0.0
67, 0.0
68, 0.0
69, 0.0
70, 0.0
71, 0.0
72, 0.0
73, 0.0
74, 0.0
75, 0.0
76, 0.0
77, 0.0
78, 0.0
79, 0.0
80, 0.0
81, 0.0
82, 0.0
83, 0.0
84, 0.0
85, 0.0
86, 0.0
87, 0.0
88, 0.0
89, 0.0
90, 0.0
91, 0.0
92, 0.0
93, 0.0
94, 0.0
95, 0.0
96, 0.0
97, 0.0
98, 0.0
99, 0.0
100, 0.0
101, 0.0
102, 0.0
103, 0.0
104, 0.0
105, 0.0
106, 0.0
107, 0.0
108, 0.0
109, 0.0
110, 0.0
111, 0.0
112, 0.0
113, 0.0
114, 0.0
115, 0.0
116, 0.0
117, 0.0
118, 0.0
119, 0.0
120, 0.0
121, 0.0
122, 0.0
123, 0.0
124, 0.0
125, 0.0
126, 0.0
127, 0.0
128, 0.0
129, 0.0
130, 0.0
131, 0.0
132, 0.0
133, 0.0
134, 0.0
135, 0.0
136, 0.0
137, 0.0
138, 0.0
139, 0.0
140, 0.0
141, 0.0
142, 0.0
143, 0.0
144, 0.0
145, 0.0
146, 0.0
147, 0.0
148, 0.0
149, 0.0
150, 0.0
151, 0.0
152, 0.0
153, 0.0
154, 0.0
155, 0.0
156, 0.0
157, 0.0
158, 0.0
159, 0.0
160.0, 0.0038790037501806197
161.0, 0.018788792841451275
162.0, 0.04142769256532125
163.0, 0.06632656366914202
164.0, 0.09014700233494045
165.0, 0.11440094194819271
166.0, 0.13756796741573912
167.0, 0.1269427326874753
168.0, 0.12680878098960835
169.0, 0.13184776801057424
170.0, 0.13781603210244503
171.0, 0.13639585179913258
172.0, 0.1101226530069584
173.0, 0.08734385755632747
174.0, 0.07993396701688957
175.0, 0.07984943572238663
176.0, 0.07545031158203616
177.0, 0.05598262229129885
178.0, 0.05547545913832207
179.0, 0.04063186096784091
180.0, 0.028342838389385595
181.0, 0.01957246835649439
182.0, 0.010795639856256865
183.0, 0.007627384756304312
184.0, 0.017093223019925392
185.0, 0.028642282138238405
186.0, 0.025218917996331462
187.0, 0.006978920449937664
188.0, 0.0024920608699056847
189.0, 0.008025333746943891
190.0, 0.016735203412739354
191.0, 0.01248951564496828
192.0, 0.003927741085841565
193.0, 0.011351596517838344
194.0, 0.015936487809426306
195.0, 0.008569822756607845
196.0, 0.006889492991757301
197.0, 0.00831537160032405
198.0, 0.007836099040185798
199.0, 0.0069958170472934995
200.0, 0.021610800407577464
201.0, 0.015193353583451615
202.0, 0.0157678445844544
203.0, 0.027562280212760002
204.0, 0.031242147943604075
205.0, 0.04001259134624333
206.0, 0.03910607073546465
207.0, 0.03843747000240193
208.0, 0.04365933154161852
209.0, 0.05505909483944778
210.0, 0.061036117280072466
211.0, 0.05754508980474876
212.0, 0.06288158915844823
213.0, 0.06047416555549252
214.0, 0.05134744882228846
215.0, 0.05800623885846825
216.0, 0.0733325322380301
217.0, 0.07327061670344057
218.0, 0.07634406447238683
219.0, 0.08603006594537528
220.0, 0.09771872751765671
221.0, 0.10055678623334877
222.0, 0.10329614844417598
223.0, 0.10860445795506068
224.0, 0.12039509730861805
225.0, 0.13711872242173548
226.0, 0.15084593418713274
227.0, 0.15442579039569332
228.0, 0.15946376670257678
229.0, 0.1649683134798682
230.0, 0.17030721338744603
231.0, 0.17557937337599053
232.0, 0.18293185827663097
233.0, 0.18902113155063818
234.0, 0.19454765029074705
235.0, 0.20027435344539948
236.0, 0.20571541422088435
237.0, 0.20912490618621504
238.0, 0.20994608097606426
239.0, 0.21187712470035816
240.0, 0.20866859230074483
241.0, 0.2054242059948274
242.0, 0.2078385922731994
243.0, 0.21127619403821438
244.0, 0.20395854485093057
245.0, 0.1929046610950033
246.0, 0.1918921895813403
247.0, 0.1999176331846876
248.0, 0.2033125354285982
249.0, 0.20146030942970644
250.0, 0.1804134064425323
251.0, 0.17449558904848558
252.0, 0.17433315662528925
253.0, 0.1672774762918655
254.0, 0.1598350111370652
255.0, 0.16828420778955505
256.0, 0.154255825616502
257.0, 0.14928786917337486
258.0, 0.15391527676923047
259.0, 0.151185186301197
260.0, 0.1532740451027331
261.0, 0.144892857615195
262.0, 0.13770184503831254
263.0, 0.13707629806769225
264.0, 0.14120445183326794
265.0, 0.14014075662204578
266.0, 0.12913958357141372
267.0, 0.12900795391385164
268.0, 0.11717146158928408
269.0, 0.10355144837196538
270.0, 0.10450814634089658
271.0, 0.11306151323095306
272.0, 0.10362765891573246
273.0, 0.09070106450667897
274.0, 0.08380409848288958
275.0, 0.08293789175799776
276.0, 0.08086065434228527
277.0, 0.0770541858472493
278.0, 0.07333708754213852
279.0, 0.07100163359026651
280.0, 0.06859942638259246
281.0, 0.06559166535742335
282.0, 0.06413423778483605
283.0, 0.08207800949153427
284.0, 0.08716950813604621
285.0, 0.08712347481259745
286.0, 0.08506817419422497
287.0, 0.08198361538615115
288.0, 0.07917691962746115
289.0, 0.08492176522408285
290.0, 0.08889092730550242
291.0, 0.09340179196582074
292.0, 0.09737792301372962
293.0, 0.09803514851970765
294.0, 0.10468266008568605
295.0, 0.10728303010685811
296.0, 0.11156742205502558
297.0, 0.11438001048749566
298.0, 0.11315570727400812
299.0, 0.10899421836570623
300.0, 0.11001894056648341
301.0, 0.11002460874229168
302.0, 0.11201530638137062
303.0, 0.1100356958850385
304.0, 0.1026034584382899
305.0, 0.10559744024383698
306.0, 0.10251636578946553
307.0, 0.10046961637344481
308.0, 0.09927741355972647
309.0, 0.09785393518918721
310.0, 0.09524806150771786
311.0, 0.09260825767281972
312.0, 0.09046366103443733
313.0, 0.0815761061670511
314.0, 0.08022971010431966
315.0, 0.0855838755924014
316.0, 0.08357180554954152
317.0, 0.07789984621648596
318.0, 0.08333767046901916
319.0, 0.08434625737286389
320.0, 0.08557969882582922
321.0, 0.08900240728254609
322.0, 0.08859732375196211
323.0, 0.0882135504741482
324.0, 0.09125831952873246
325.0, 0.09569641275221868
326.0, 0.09819214799907587
327.0, 0.09839239020811678
328.0, 0.10194699427624317
329.0, 0.11005391085644627
330.0, 0.11335902555615576
331.0, 0.12457650545516828
332.0, 0.13303545623017557
333.0, 0.1310171645598819
334.0, 0.1454767529765433
335.0, 0.15341233498113882
336.0, 0.15378447354752048
337.0, 0.16051885031836938
338.0, 0.17224830842400635
339.0, 0.18065488103077096
340.0, 0.18770631786987751
341.0, 0.19504247317064063
342.0, 0.20167541091947128
343.0, 0.20518707343038695
344.0, 0.2087173599246025
345.0, 0.21612057494387363
346.0, 0.21393159428042857
347.0, 0.21918691537858226
348.0, 0.22464670537799175
349.0, 0.22516567856271313
350.0, 0.2245020157082345
351.0, 0.23095337356421064
352.0, 0.2305682400226995
353.0, 0.23016400201002532
354.0, 0.23547379912186894
355.0, 0.23713608703432024
356.0, 0.2350728782885474
357.0, 0.23942449089011922
358.0, 0.2360934598759179
359.0, 0.2419932947506596
360.0, 0.24371364879630472
361.0, 0.24778839935566258
362.0, 0.2537927606901845
363.0, 0.24994400758949034
364.0, 0.2492281162643207
365.0, 0.24312083546361685
366.0, 0.24200017483351058
367.0, 0.2401970874983111
368.0, 0.23615408890107728
369.0, 0.23770597564504617
370.0, 0.23126706973587566
371.0, 0.2283750573493449
372.0, 0.22860026723233284
373.0, 0.22666844056544588
374.0, 0.22222821324460187
375.0, 0.22280294981565957
376.0, 0.21889178740729837
377.0, 0.21567469901370323
378.0, 0.20905147626245532
379.0, 0.20438366611443193
380.0, 0.20382879551069194
381.0, 0.20095649357338066
382.0, 0.19185803398396328
383.0, 0.18883293823192537
384.0, 0.18890486126106765
385.0, 0.18633052461789135
386.0, 0.17778446084425137
387.0, 0.16616108484736475
388.0, 0.17472432736583557
389.0, 0.16821017394378
390.0, 0.16531923027937778
391.0, 0.16422985829281306
392.0, 0.16152169845911615
393.0, 0.15938038726086284
394.0, 0.15485938388630519
395.0, 0.14891542580742684
396.0, 0.14902742024881976
397.0, 0.14882635491420862
398.0, 0.14424391145251028
399.0, 0.13949363413529015
400.0, 0.14177649427461492
401.0, 0.14261245735919234
402.0, 0.14057623988800488
403.0, 0.13622265240798914
404.0, 0.13232572832742262
405.0, 0.13232097386236186
406.0, 0.12997391390805652
407.0, 0.12544578913026017
408.0, 0.12376548091440157
409.0, 0.1232691329147397
410.0, 0.12482268751342039
411.0, 0.13138180627129217
412.0, 0.1343632256923176
413.0, 0.13591210303591308
414.0, 0.1372081245406046
415.0, 0.13969792805969528
416.0, 0.142397469180128
417.0, 0.14317529504629603
418.0, 0.14470071304936738
419.0, 0.14646137681464896
420.0, 0.14823734502401234
421.0, 0.14831979802074666
422.0, 0.14577111551603406
423.0, 0.14084128682340658
424.0, 0.13517926886923629
425.0, 0.1237407487348561
426.0, 0.11343317216166343
427.0, 0.10594925663299648
428.0, 0.100745614764515
429.0, 0.09478917262686748
430.0, 0.08201455688028769
431.0, 0.07543263116197337
432.0, 0.06511896698999572
433.0, 0.05353657432271097
434.0, 0.04417750316377968
435.0, 0.037707056407036664
436.0, 0.028997997463509614
437.0, 0.010824633673566897
438.0, 0.016292819650721296
439.0, 0.022483904267407206
440.0, 0.023899106989736216
441.0, 0.01916235384825739
442.0, 0.006515888382546313
443.0, 0.001570435805149384
444.0, 0.007078502319769516
445.0, 0.014380584767189694
446.0, 0.017802013980087614
447.0, 0.016925418442105693
448.0, 0.015568541692193153
449.0, 0.013948572541947922
450.0, 0.016941000513025044
451.0, 0.020194585729627512
452.0, 0.013185701785104054
453.0, 0.006021966871210677
454.0, 0.012499095252175838
455.0, 0.010311895336097205
456.0, 0.016008369656177687
457.0, 0.014312806817496889
458.0, 0.013746528303031087
459.0, 0.013420305995016101
460.0, 0.010847549956219513
461.0, 0.010212730433399845
462.0, 0.0071614166869026245
463.0, 0.00495660649440509
464.0, 0.00318932324615355
465.0, 0.0015478312104060356
466.0, 0.0007300798196009412
467.0, 0.002037890097379999
468.0, 0.00231548490268957
469.0, 0.008245610096739343
470.0, 0.011878163200442715
471.0, 0.013393095055161309
472.0, 0.013803740770057424
473.0, 0.012979854258043773
474.0, 0.008039244118684931
475.0, 0.00902247808524224
476.0, 0.00873624742335433
477.0, 0.008858718822321664
478.0, 0.009789885327978842
479.0, 0.010367885730890685
480.0, 0.008606867597001928
481.0, 0.010943238235344833
482.0, 0.011760141441253317
483.0, 0.011746052097933541
484.0, 0.011115396824153507
485.0, 0.010699440163337402
486.0, 0.01137746860888206
487.0, 0.009292437351455277
488.0, 0.0119417454265268
489.0, 0.00981759820444532
490.0, 0.00774851637516575
491.0, 0.006452275680155925
492.0, 0.004676415378759741
493.0, 0.006937766572449243
494.0, 0.00625672262085034
495.0, 0.0019396334227108642
496.0, 0.000147426502269611
497.0, 0.0012798046383092187
498.0, 0.0038320042530627352
499.0, 0.0065121124808398545
500.0, 0.002880106190168308
501.0, 0.0009222674438004848
502.0, 0.0030404445191898454
503.0, 0.0041065977751667555
504.0, 0.0023477178404577607
505.0, 0.0006231849920469031
506.0, 0.0038961396657846738
507.0, 0.0007958761226295236
508.0, 0.0006206248756037624
509.0, 0.0008488216902479075
510.0, 0.0013384542904753057
511.0, 0.0018522778822650928
512.0, 0.0007264131567427786
513.0, 0.0010186134268018112
514.0, 0.00823352129925713
515.0, 0.006100559548892703
516.0, 0.003948615711558035
517.0, 0.004862269085239674
518.0, 0.004307820182319808
519.0, 0.0019254496294832733
520.0, 0.003009984751903443
521.0, 0.0010322054269354963
522.0, 0.003847698488716974
523.0, 0.0068697287271240175
524.0, 0.005312041208762849
525.0, 0.0022394047592728178
526.0, 0.005178441857604552
527.0, 0.0015881178036649035
528.0, 0.0016919408174417567
529.0, 0.003532481114658662
530.0, 0.006113576789258587
531.0, 0.009366325194575859
532.0, 0.010893092084137995
533.0, 0.017143056895754315
534.0, 0.015665655253254248
535.0, 0.019737019937748197
536.0, 0.022760104984630172
537.0, 0.02384733006727824
538.0, 0.03168943425731189
539.0, 0.03327954979632249
540.0, 0.041949525139749394
541.0, 0.04947202875756337
542.0, 0.05653800786793616
543.0, 0.06553401526763462
544.0, 0.07848097780705154
545.0, 0.09511043243049404
546.0, 0.10725718836376902
547.0, 0.1229097507546657
548.0, 0.13945100926314188
549.0, 0.15276634241693543
550.0, 0.16620713761252898
551.0, 0.18510976030472265
552.0, 0.20251812578626552
553.0, 0.2094047290277166
554.0, 0.2201184432401516
555.0, 0.23067422362873524
556.0, 0.239553027248197
557.0, 0.2441809913026451
558.0, 0.24198471181755335
559.0, 0.240758622433619
560.0, 0.23496897262934469
561.0, 0.2304056595130296
562.0, 0.22667018440733952
563.0, 0.22094712710903897
564.0, 0.21226895706977392
565.0, 0.2037761972688104
566.0, 0.19456838000133767
567.0, 0.1815919064290416
568.0, 0.17012300971507352
569.0, 0.15878022134814623
570.0, 0.15054769627827744
571.0, 0.14783497980990293
572.0, 0.14451576083916207
573.0, 0.14824607503287246
574.0, 0.15185070292613428
575.0, 0.14557954866660655
576.0, 0.13822672445876277
577.0, 0.13271939428566976
578.0, 0.12880388135447268
579.0, 0.14318265767759134
580.0, 0.15149861859582286
581.0, 0.15495783890423798
582.0, 0.14201469004877912
583.0, 0.135458941559353
584.0, 0.14030672331699048
585.0, 0.13695057680012324
586.0, 0.1327894109104798
587.0, 0.14458567643289272
588.0, 0.13189576435620282
589.0, 0.13261981694379388
590.0, 0.13907643263952657
591.0, 0.14054988751071468
592.0, 0.14435680761406788
593.0, 0.13726910449643032
594.0, 0.13749153240425227
595.0, 0.13800639661852487
596.0, 0.1321762008224787
597.0, 0.12792743584533256
598.0, 0.12906701658403297
599.0, 0.12661096868281588
600.0, 0.13143736551827923
601.0, 0.13598931019597119
602.0, 0.1316730654000526
603.0, 0.12947444837455774
604.0, 0.1308766716609106
605.0, 0.1328969843247758
606.0, 0.13536969998828827
607.0, 0.13790179504168446
608.0, 0.14592250576618687
609.0, 0.14767154630778365
610.0, 0.1463058571215668
611.0, 0.14895401017891294
612.0, 0.15563589293978414
613.0, 0.15631680965734285
614.0, 0.16803993236548032
615.0, 0.17172351167740496
616.0, 0.17541521667928792
617.0, 0.18588561743352794
618.0, 0.19392777799404085
619.0, 0.19365963383593027
620.0, 0.1978280910710347
621.0, 0.2031350588328447
622.0, 0.21292160518166303
623.0, 0.21569395698128496
624.0, 0.21647985692076813
625.0, 0.22536879933635776
626.0, 0.24213660654911315
627.0, 0.2511653954757719
628.0, 0.26268736452441793
629.0, 0.2677924073768903
630.0, 0.2767303760734747
631.0, 0.28886327673281365
632.0, 0.30174097430544217
633.0, 0.3144671417964776
634.0, 0.3286841433887506
635.0, 0.3440550179389663
636.0, 0.36088216552524466
637.0, 0.3848787428359283
638.0, 0.4068605613026431
639.0, 0.4324057561892926
640.0, 0.4648606990353375
641.0, 0.4966039430744902
642.0, 0.5333759759404658
643.0, 0.5750179903436756
644.0, 0.6214958339731709
645.0, 0.6874579019717061
646.0, 0.7529887729255745
647.0, 0.8007584848533484
648.0, 0.8394796072031152
649.0, 0.8965234237886617
650.0, 0.9399766528241168
651.0, 0.9813895754386867
652.0, 0.9979736827970118
653.0, 0.9970932374275954
654.0, 0.9893831878732194
655.0, 0.9706803016070088
656.0, 0.9182584601227318
657.0, 0.8734183256395602
658.0, 0.8166680486565615
659.0, 0.7636537973247254
660.0, 0.7119469560365409
661.0, 0.6594735279718592
662.0, 0.609310391321571
663.0, 0.5667447014293844
664.0, 0.5414987042988177
665.0, 0.5167361310187252
666.0, 0.4965970485705608
667.0, 0.493214536445483
668.0, 0.49582882226307484
669.0, 0.4900918321719942
670.0, 0.4806178202562937
671.0, 0.46301871839133824
672.0, 0.46042234566420237
673.0, 0.46710992110347593
674.0, 0.4729618521954784
675.0, 0.4815020903723782
676.0, 0.49340942908215807
677.0, 0.5015079656828638
678.0, 0.5151847288274684
679.0, 0.529497938430979
680.0, 0.5442602639158886
681.0, 0.5602835419340493
682.0, 0.5762468468226158
683.0, 0.5920525987118525
684.0, 0.6072310141529015
685.0, 0.6172699504517123
686.0, 0.6395780832224263
687.0, 0.6571371847805674
688.0, 0.6643288710400594
689.0, 0.6715420417154447
690.0, 0.6824494284055247
691.0, 0.6970434483247374
692.0, 0.7159486001579726
693.0, 0.7151759530058217
694.0, 0.7207834824620862
695.0, 0.7313235256728625
696.0, 0.7365133096228391
697.0, 0.7414632811592508
698.0, 0.7494523088643569
699.0, 0.7562214760334087
700.0, 0.7639131571755673
701.0, 0.7563740658202499
702.0, 0.7720176756557633
703.0, 0.7836688446018653
704.0, 0.7823145950937217
705.0, 0.7785106049081304
706.0, 0.7857662646721968
707.0, 0.800032085898498
708.0, 0.7986412640260026
709.0, 0.8001600195472979
710.0, 0.804449808083336
711.0, 0.809680042707456
712.0, 0.8106410572880185
713.0, 0.808539041945543
714.0, 0.8089096903352938
715.0, 0.8035734873127998
716.0, 0.790346729752859
717.0, 0.7880953352936907
718.0, 0.7739047004629817
719.0, 0.7620814717809651
720.0, 0.7504173069406788
721.0, 0.7305684614425092
722.0, 0.7124982420954783
723.0, 0.7005037838657991
724.0, 0.6775709683450732
725.0, 0.6643758572537067
726.0, 0.6466827653790316
727.0, 0.628958344367165
728.0, 0.6138544903809099
729.0, 0.5980066163175752
730.0, 0.5864877050129818
731.0, 0.5609119950487946
732.0, 0.5484437402692948
733.0, 0.5299650838442885
734.0, 0.5107069024342757
735.0, 0.4961579373351206
736.0, 0.48319436887441125
737.0, 0.4646664147868012
738.0, 0.45162714576552027
739.0, 0.4419443844107008
740.0, 0.4302434894083969
741.0, 0.41941267309249103
742.0, 0.40765671698206213
743.0, 0.39764845192172393
744.0, 0.3912811201994484
745.0, 0.3831990243769369
746.0, 0.377643999042033
747.0, 0.3673498350795705
748.0, 0.36441592020431196
749.0, 0.35237373360043955
750.0, 0.3484146727071745
751.0, 0.3550308019313509
752.0, 0.3563345541623899
753.0, 0.3512540957519633
754.0, 0.32400381860057903
755.0, 0.3252910929829857
756.0, 0.3192739812761313
757.0, 0.310193490906978
758.0, 0.3092632664980036
759.0, 0.3064968885811211
760.0, 0.28873486570187257
761.0, 0.2958562613607075
762.0, 0.29098086790506916
763.0, 0.29127548651674806
764.0, 0.2827722956933145
765.0, 0.2735348807956269
766.0, 0.27156605559148866
767.0, 0.2741153999668189
768.0, 0.27008582764601896
769.0, 0.2574608462375
770.0, 0.25871448741019154
771.0, 0.2374941762957857
772.0, 0.22974993931613788
773.0, 0.2336072987063791
774.0, 0.2323559370041698
775.0, 0.22419152775771187
776.0, 0.22484017638850937
777.0, 0.22066687459753542
778.0, 0.19286328441267245
779.0, 0.20149612522847715
780.0, 0.1913005437728025
781.0, 0.18486489172525072
782.0, 0.18320199512705032
783.0, 0.17651764745052387
784.0, 0.17216458106055896
785.0, 0.17605444394058645
786.0, 0.16042894922361067
787.0, 0.1575300420084364
788.0, 0.15477147460010066
789.0, 0.14851863896664871
790.0, 0.1434225441868017
791.0, 0.1382257901361199
792.0, 0.12611163613949508
793.0, 0.12668467989748464
794.0, 0.11449014303074537
795.0, 0.10680513355439313
796.0, 0.09627820632951634
797.0, 0.09296694010236106
798.0, 0.09050962676388624
799.0, 0.0821662079131983
800.0, 0.0736056517905618
801.0, 0.06410101272047082
802.0, 0.06127266908314588
803.0, 0.054723770588193416
804.0, 0.050005316634029455
805.0, 0.04423949712320917
806.0, 0.03711776111904026
807.0, 0.031777300894727314
808.0, 0.029668879377701997
809.0, 0.023903293399316343
810.0, 0.013960511070640134
811.0, 0.013943015101305049
812.0, 0.006268416419274768
813.0, 0.00130450298861013
814.0, 0.001646849798794773
815.0, 0.0024001178507765328
816.0, 0.0006120534663377859
817.0, 0.0023050756730695603
818.0, 0.005848414064200622
819.0, 0.009024652467435572
820.0, 0.009124751639220819
821.0, 0.011922400605569032
822.0, 0.01359580371532555
823.0, 0.01342704873658616
824.0, 0.014553234292448843
825.0, 0.016621058884083495
826.0, 0.01866901612731322
827.0, 0.0176770566951701
828.0, 0.01995411965868692
829.0, 0.021150066064528662
830.0, 0.0208522983563968
831.0, 0.019788599070373395
832.0, 0.017704878569588495
833.0, 0.014359757644198147
834.0, 0.014252069637991225
835.0, 0.01975403090601755
836.0, 0.014476358469890658
837.0, 0.01437846141645181
838.0, 0.0169546426310042
839.0, 0.016204044098882958
840.0, 0.01345507774376073
841.0, 0.012896746876497509
842.0, 0.008120639671080633
843.0, 0.006605567514929748
844.0, 0.009075955813558436
845.0, 0.005514314812304116
846.0, 0.0018728448752603028
847.0, 0.0009572441523025545
848.0, 0.0022128546943977513
849.0, 0.004066037438792697
850.0, 0.005805164060550462
851.0, 0.007217056215280708
852.0, 0.014950061123197508
853.0, 0.01755410510019723
854.0, 0.020362086558583764
855.0, 0.027130085098933773
856.0, 0.03304424289481081
857.0, 0.03688815423975374
858.0, 0.042741351463429146
859.0, 0.047075751628812085
860.0, 0.053493000935688456
861.0, 0.05827083286492981
862.0, 0.06247407610554919
863.0, 0.07375366615378447
864.0, 0.0796379535215524
865.0, 0.08133153854633506
866.0, 0.08954611951331502
867.0, 0.10353697398333297
868.0, 0.11133279519229344
869.0, 0.12016244672706734
870.0, 0.1300775730332227
871.0, 0.1407024264490041
872.0, 0.15374778124853447
873.0, 0.1641805267542178
874.0, 0.17198894995716849
875.0, 0.18252387067251682
876.0, 0.19457163240413572
877.0, 0.19707979286713262
878.0, 0.20731095066622854
879.0, 0.2239493144561778
880.0, 0.238131034096105
881.0, 0.254332829906961
882.0, 0.26820963954409743
883.0, 0.2765746188452004
884.0, 0.2845247169052674
885.0, 0.2944395879500295
886.0, 0.30278643869941557
887.0, 0.3110178684732549
888.0, 0.3256570819468266
889.0, 0.33896553375455185
890.0, 0.34861955472040956
891.0, 0.3628214716399863
892.0, 0.3781955271299326
893.0, 0.38356366489878535
894.0, 0.40555062262301284
895.0, 0.41057968936406974
896.0, 0.4375941381846665
897.0, 0.444539532016452
898.0, 0.4562780897741679
899.0, 0.47356869243197036
900.0, 0.4898669490007369
901.0, 0.5034813640252631
902.0, 0.5182964146518485
903.0, 0.5408836355663977
904.0, 0.5553146976322257
905.0, 0.580383850678059
906.0, 0.5926474268294801
907.0, 0.6076755185036005
908.0, 0.6238109616173814
909.0, 0.6378459546831063
910.0, 0.6514030744435511
911.0, 0.6660928908072679
912.0, 0.6814113981256307
913.0, 0.690138174905451
914.0, 0.7013745204575315
915.0, 0.7113323243393604
916.0, 0.723269305464617
917.0, 0.7315766440571246
918.0, 0.737307789855731
919.0, 0.7440330749778317
920.0, 0.7480145078354222
921.0, 0.745554515700245
922.0, 0.7413812040734427
923.0, 0.7504285953710997
924.0, 0.7523537929341101
925.0, 0.7474122988153081
926.0, 0.7510539683570191
927.0, 0.7476786883510044
928.0, 0.7320700541128453
929.0, 0.7279576874863121
930.0, 0.7175656445059978
931.0, 0.7230682234825041
932.0, 0.7071622206026792
933.0, 0.6978423436279909
934.0, 0.691845675662508
935.0, 0.6834855622375386
936.0, 0.6724712949515248
937.0, 0.6615289168484807
938.0, 0.6524090567881082
939.0, 0.6448480037962353
940.0, 0.6338662761492897
941.0, 0.6309394343675535
942.0, 0.6182990354045934
943.0, 0.6069516875115282
944.0, 0.6005890329093604
945.0, 0.5962619541671007
946.0, 0.59254152474742
947.0, 0.5870241421914181
948.0, 0.5725628687878974
949.0, 0.5580562493005998
950.0, 0.5423272107148769
951.0, 0.5334000124567948
952.0, 0.5190152617286317
953.0, 0.5013142880185926
954.0, 0.47363424168981805
955.0, 0.4477734522348799
956.0, 0.428420857208064
957.0, 0.398394556338595
958.0, 0.3713917220787048
959.0, 0.3435251075570527
960.0, 0.32095003043802944
961.0, 0.30691008891415117
962.0, 0.28278896322185193
963.0, 0.26145369831657517
964.0, 0.24387968642594898
965.0, 0.22525121469095571
966.0, 0.20741062516305228
967.0, 0.1932093148294926
968.0, 0.17960597898612785
969.0, 0.16877747569453683
970.0, 0.158123447997757
971.0, 0.1482960609442354
972.0, 0.1380340157191824
973.0, 0.12971390484047415
974.0, 0.12282801700927237
975.0, 0.11622426884388834
976.0, 0.11191790426399843
977.0, 0.11056621994550696
978.0, 0.10543613150769364
979.0, 0.10259719824241212
980.0, 0.10228936184525636
981.0, 0.10050314983319301
982.0, 0.10209130442382848
983.0, 0.10221192238056044
984.0, 0.10305860630673315
985.0, 0.10907642508553672
986.0, 0.112975247093856
987.0, 0.11435737743296391
988.0, 0.11325341279147584
989.0, 0.1226835386927007
990.0, 0.12700812859819827
991.0, 0.13166795308148282
992.0, 0.14058569538190863
993.0, 0.14672290014468292
994.0, 0.14890607716092036
995.0, 0.15385584135044725
996.0, 0.16108051947152216
997.0, 0.16702158161067493
998.0, 0.1822007823370753
999.0, 0.19240153895678583
1000.0, 0.20387638665017746
1001.0, 0.21848100524440928
1002.0, 0.23246967110857117
1003.0, 0.2462446839516077
1004.0, 0.2611507840798911
1005.0, 0.2763137960505337
1006.0, 0.2914932551752319
1007.0, 0.30727657204606684
1008.0, 0.33020408782745353
1009.0, 0.35927221769762807
1010.0, 0.3800718362707976
1011.0, 0.4052717502534302
1012.0, 0.4398682285106737
1013.0, 0.46773295834259043
1014.0, 0.4938664152604073
1015.0, 0.5303401739843082
1016.0, 0.5525415957935935
1017.0, 0.5776747611117788
1018.0, 0.6112894839460227
1019.0, 0.639814405610761
1020.0, 0.6713187388405006
1021.0, 0.7022827861889698
1022.0, 0.7333120792659912
1023.0, 0.7615584218026252
1024.0, 0.7868844218281412
1025.0, 0.8108121924158634
1026.0, 0.8312693473311865
1027.0, 0.8523510595855411
1028.0, 0.8676197608502801
1029.0, 0.8679241843899492
1030.0, 0.8734752104950578
1031.0, 0.8670483477118667
1032.0, 0.8542053874797596
1033.0, 0.8367958283586344
1034.0, 0.8175783903079696
1035.0, 0.7979843032011543
1036.0, 0.7711703131055978
1037.0, 0.7334398494362608
1038.0, 0.7045821852464093
1039.0, 0.668273401759591
1040.0, 0.6485808358342112
1041.0, 0.6063900337543593
1042.0, 0.5609191591838749
1043.0, 0.526524927460112
1044.0, 0.5009481578426835
1045.0, 0.47330174932067254
1046.0, 0.43972454462358657
1047.0, 0.409802331840265
1048.0, 0.3818282111413238
1049.0, 0.3657066516343309
1050.0, 0.3472593299814072
1051.0, 0.3287821319592742
1052.0, 0.30744802298699675
1053.0, 0.2885369124720231
1054.0, 0.27514149352430484
1055.0, 0.26439509165169106
1056.0, 0.254565107994224
1057.0, 0.2471780793078575
1058.0, 0.236239320553866
1059.0, 0.22517587025185323
1060.0, 0.21867345186342704
1061.0, 0.21094988674572251
1062.0, 0.20909290559847452
1063.0, 0.20815040842634683
1064.0, 0.20397842548972767
1065.0, 0.19604071789575453
1066.0, 0.1897071289126432
1067.0, 0.1883120410338186
1068.0, 0.1854776777016495
1069.0, 0.18114627467300445
1070.0, 0.17898026120654165
1071.0, 0.17845481142434916
1072.0, 0.18117096933819113
1073.0, 0.185560741475891
1074.0, 0.18305452738380584
1075.0, 0.17836223451106656
1076.0, 0.17281814836125792
1077.0, 0.16952028077220418
1078.0, 0.16942446938700675
1079.0, 0.16061355864203417
1080.0, 0.1630947339503453
1081.0, 0.16275963716466016
1082.0, 0.15656949026793035
1083.0, 0.15401798437280134
1084.0, 0.14850040933532854
1085.0, 0.1435773388353562
1086.0, 0.13872545955938778
1087.0, 0.13823154264773238
1088.0, 0.13959727084098839
1089.0, 0.13439502474749798
1090.0, 0.12827439928284978
1091.0, 0.12071136219425795
1092.0, 0.11886464889940179
1093.0, 0.11933161059306421
1094.0, 0.11273483530274332
1095.0, 0.11022481501095437
1096.0, 0.10388876555761474
1097.0, 0.09804246712648687
1098.0, 0.09670099589628782
1099.0, 0.09461842394758595
1100.0, 0.08674927340719814
1101.0, 0.0784445686527607
1102.0, 0.07454912236677659
1103.0, 0.070864216689367
1104.0, 0.06360538677738237
1105.0, 0.06176742396893359
1106.0, 0.057797114153311464
1107.0, 0.053523530892015524
1108.0, 0.04616273883817154
1109.0, 0.04125524305553464
1110.0, 0.040029693448831755
1111.0, 0.03829889202327765
1112.0, 0.03595499199566291
1113.0, 0.0283552163656684
1114.0, 0.02701826040701908
1115.0, 0.025317932004293445
1116.0, 0.025789770055793273
1117.0, 0.024436119849785012
1118.0, 0.023052335433620074
1119.0, 0.022280963371979018
1120.0, 0.021862453832418072
1121.0, 0.021574283971894117
1122.0, 0.017973040493142453
1123.0, 0.012701166381409898
1124.0, 0.018580523800311742
1125.0, 0.021676496306643974
1126.0, 0.013496688352083726
1127.0, 0.008782224857626227
1128.0, 0.0074692708532347295
1129.0, 0.00932838378867704
1130.0, 0.005201204546300979
1131.0, 0.0029013402450980947
1132.0, 0.006207824492692476
1133.0, 0.006436168758022728
1134.0, 0.0029004802882984047
1135.0, 0.0054048056731319264
1136.0, 0.0039524751599171945
1137.0, 0.004073146756353483
1138.0, 0.0016572172854341072
1139.0, 0.0015599769038488493
1140.0, 0.0004940338886896008
1141.0, 0.0007011008310388649
1142.0, 0.0028999106372284925
1143.0, 0.004119548122316813
1144.0, 0.002991961517357624
1145.0, 0.0025817612416202283
1146.0, 0.0032396201743771433
1147.0, 0.0019582236027522143
1148.0, 0.004379855761112593
1149.0, 0.000584381444299223
1150.0, 0.0016219155197294958
1151.0, 0.0008001885520821637
1152.0, 0.0028831768250510183
1153.0, 0.004903038710873055
1154.0, 0.0031093311542154563
1155.0, 0.006286718861859508
1156.0, 0.006312004762295847
1157.0, 0.0032788747950744
1158.0, 0.004974437869113612
1159.0, 0.004334469785284791
1160.0, 0.0040670551132974
1161.0, 0.007079586000627767
1162.0, 0.007346201999067704
1163.0, 0.006325800542309122
1164.0, 0.00513987918636909
1165.0, 0.004633571496123444
1166.0, 0.0027672270597245553
1167.0, 0.002654765491619637
1168.0, 0.001729541146201692
1169.0, 0.0017274482248109872
1170.0, 0.003131533330288066
1171.0, 0.001568170087114228
1172.0, 0.0022622661923166363
1173.0, 0.0009926908417200444
1174.0, 0.002296191572046131
1175.0, 0.0036594945021835097
1176.0, 0.001081811306218167
1177.0, 0.0032902908739451185
1178.0, 0.004685734270542814
1179.0, 0.0033948527689539915
1180.0, 0.0012616784004962408
1181.0, 0.001854298371461495
1182.0, 0.00409524448324398
1183.0, 0.004402851318440277
1184.0, 0.0036596180448055255
1185.0, 0.0026155595851122884
1186.0, 0.0032478612818325303
1187.0, 0.0005244115131453867
1188.0, 0.00018710744681031533
1189.0, 0.001709570339996327
1190.0, 0.0015039378194114886
1191.0, 0.0009278836741427059
1192.0, 0.0005699666527326647
1193.0, 0.0006796662232748219
1194.0, 0.002404031647637699
1195.0, 0.0032606728434314497
1196.0, 0.001400874921254138
1197.0, 0.002256812576257154
1198.0, 0.003628816340448665
1199.0, 0.0036609531259501177
1200.0, 0.0026139060026656802
1201.0, 0.004599833949323296
1202.0, 0.0030949068612074917
1203.0, 0.0012145024708965825
1204.0, 0.0021927685366243746
1205.0, 0.003585987464117415
1206.0, 0.0028662509963813133
1207.0, 0.003214626263990279
1208.0, 0.005712503253798227
1209.0, 0.006418574682222568
1210.0, 0.006036495553266284
1211.0, 0.007778114421058627
1212.0, 0.006921805506547171
1213.0, 0.004500782695080167
1214.0, 0.004510921649662302
1215.0, 0.007971633627873613
1216.0, 0.0051682478346176996
1217.0, 0.0067000899140845505
1218.0, 0.006559675293591986
1219.0, 0.006923491614050246
1220.0, 0.008808334582099717
1221.0, 0.00820984463696755
1222.0, 0.007348896809762969
1223.0, 0.009534493805858852
1224.0, 0.004869954068270223
1225.0, 0.0035546007891774246
1226.0, 0.005727290157728043
1227.0, 0.0039925475751963705
1228.0, 0.0168877576605028
1229.0, 0.014331743893885775
1230.0, 0.020519638491206527
1231.0, 0.016589535180238462
1232.0, 0.006667571584619403
1233.0, 0.004466679418595537
1234.0, 0.007392045034435817
1235.0, 0.006648693310339259
1236.0, 0.0055933614613719275
1237.0, 0.010219500787664244
1238.0, 0.011985548795495548
1239.0, 0.007626611816828484
1240.0, 0.0033174960864593536
1241.0, 0.009466446093949197
1242.0, 0.009942676737995976
1243.0, 0.007823395650265862
1244.0, 0.01125200217029115
1245.0, 0.00866681128268059
1246.0, 0.006886198014703139
1247.0, 0.010985262230807402
1248.0, 0.01148517647778645
1249.0, 0.00714812371106667
1250.0, 0.00799755010475593
1251.0, 0.009647891078287955
1252.0, 0.008422127357168763
1253.0, 0.009918884341564122
1254.0, 0.007721443213836266
1255.0, 0.015981716730790563
1256.0, 0.009060694565598224
1257.0, 0.01083118903760225
1258.0, 0.01364658873920265
1259.0, 0.006466102978946339
1260.0, 0.005963664479280053
1261.0, 0.009454001424201606
1262.0, 0.014199765138693088
1263.0, 0.023117149869891745
1264.0, 0.025935092159229976
1265.0, 0.018053062905083017
1266.0, 0.017861438800655546
1267.0, 0.01052578167955045
1268.0, 0.00809287561005057
1269.0, 0.009995697126163099
1270.0, 0.01202763834254153
1271.0, 0.010035645142976602
1272.0, 0.01257322252351429
1273.0, 0.013174830369731985
1274.0, 0.011860151978857661
1275.0, 0.010485599475809362
1276.0, 0.011490166660094038
1277.0, 0.011692554443571916
1278.0, 0.011694822177146796
1279.0, 0.013926502345464546
1280.0, 0.010297790088945198
1281.0, 0.010933117008716168
1282.0, 0.011827025608729762
1283.0, 0.013523040563345164
1284.0, 0.008492454009716374
1285.0, 0.01760639722976178
1286.0, 0.01457789427120623
1287.0, 0.010549760041840637
1288.0, 0.012169791532831263
1289.0, 0.012869327443182496
1290.0, 0.010495622069861583
1291.0, 0.007808427364604052
1292.0, 0.008022601240279814
1293.0, 0.013485266274990044
1294.0, 0.018873711693400318
1295.0, 0.015381898042494504
1296.0, 0.015192009644925144
1297.0, 0.020609559753602368
1298.0, 0.012361144233694535
1299.0, 0.012490414278519473
1300.0, 0.014009762566877687
1301.0, 0.012000372634885785
1302.0, 0.015141912068418069
1303.0, 0.01417018049286255
1304.0, 0.014317241959338296
1305.0, 0.01794447488253227
1306.0, 0.015261114316029249
1307.0, 0.014997470018352093
1308.0, 0.016875630685006422
1309.0, 0.012287373119514894
1310.0, 0.011768732305910799
1311.0, 0.009505459275597344
1312.0, 0.014394492328169592
1313.0, 0.011863006555508636
1314.0, 0.004938000709774162
1315.0, 0.01047353195197049
1316.0, 0.008525240971101153
1317.0, 0.005883969969592922
1318.0, 0.01472366978053118
1319.0, 0.00898866950185704
1320.0, 0.005022075782352397
1321.0, 0.006517011655698812
1322.0, 0.005020955848791168
1323.0, 0.006435631222687288
1324.0, 0.010050073370569266
1325.0, 0.0073195628718394565
1326.0, 0.005187493215053303
1327.0, 0.0055299921649065885
1328.0, 0.006672126467657968
1329.0, 0.0042552435137324625
1330.0, 0.00946902441196619
1331.0, 0.003904881957332439
1332.0, 0.01262390698765293
1333.0, 0.019570072728759203
1334.0, 0.010351008358093347
1335.0, 0.009050860780320847
1336.0, 0.0053460164634196354
1337.0, 0.005843714820644792
1338.0, 0.0068509252022354635
1339.0, 0.0037679760994131424
1340.0, 0.0017204839428000929
1341.0, 0.003312737629951506
1342.0, 0.00668882386340002
1343.0, 0.009095829814250531
1344.0, 0.00353141245655258
1345.0, 0.005696049639569721
1346.0, 0.007590471301383584
1347.0, 0.0011913040694648538
1348.0, 0.008916909852191568
1349.0, 0.006263745902557778
1350.0, 0.0010666047671985378
1351.0, 0.005434791031151823
1352.0, 0.007849131168654336
1353.0, 0.006527282676994471
1354.0, 0.004766164106957902
1355.0, 0.00272963932781119
1356.0, 0.0017421800706239185
1357.0, 0.002987360986216104
1358.0, 0.004937887948368812
1359.0, 0.004952866910888465
1360.0, 0.0037942683767902487
1361.0, 0.006161199102914738
1362.0, 0.006643019543055823
1363.0, 0.00666119692047439
1364.0, 0.007755098498756858
1365.0, 0.007913937728526294
1366.0, 0.0031813346467474963
1367.0, 0.0035889350061445746
1368.0, 0.005372845339358547
1369.0, 0.0042009243945388495
1370.0, 0.005888773033972468
1371.0, 0.007190870762618273
1372.0, 0.004670672263769578
1373.0, 0.0047915264609165314
1374.0, 0.008491195446147714
1375.0, 0.00829749657398434
1376.0, 0.0058675132915292335
1377.0, 0.007239830274106917
1378.0, 0.006059259031112004
1379.0, 0.0016964770678427766
1380.0, 0.0038927119107198646
1381.0, 0.005709483983697862
1382.0, 0.004599211422107232
1383.0, 0.007017169639187916
1384.0, 0.008038245613040122
1385.0, 0.008287978935675374
1386.0, 0.008801447950030326
1387.0, 0.007560579737576924
1388.0, 0.007930890531366832
1389.0, 0.00616669462197024
1390.0, 0.005050653108010111
1391.0, 0.005170903659967818
1392.0, 0.007672292898956835
1393.0, 0.00632801290044628
1394.0, 0.0018481434360807687
1395.0, 0.00291091623802245
1396.0, 0.004701998462357654
1397.0, 0.002169202372355506
1398.0, 0.0030937918614109376
1399.0, 0.005085052812294031
1400.0, 0.001655781423012565
1401.0, 0.00633092087213306
1402.0, 0.003985474857768829
1403.0, 0.004453479220876509
1404.0, 0.005920971248466417
1405.0, 0.007693660314203993
1406.0, 0.007595111854955963
1407.0, 0.007859608162351726
1408.0, 0.004759032306487744
1409.0, 0.004662500191228262
1410.0, 0.005874968589176379
1411.0, 0.0036639345452158544
1412.0, 0.0053242357922799015
1413.0, 0.007152126907666046
1414.0, 0.004465507200833436
1415.0, 0.005369765172692131
1416.0, 0.007218502144935411
1417.0, 0.007353072818872891
1418.0, 0.008225699049409283
1419.0, 0.011677398475340724
1420.0, 0.009510294702961325
1421.0, 0.011291089317599581
1422.0, 0.009287580750520826
1423.0, 0.013792165195858182
1424.0, 0.018835074535494073
1425.0, 0.020523481041315864
1426.0, 0.014931063077937925
1427.0, 0.01511938764184522
1428.0, 0.014518166994937841
1429.0, 0.017726457603204297
1430.0, 0.017373177059895
1431.0, 0.01884261687072665
1432.0, 0.021813162502411883
1433.0, 0.023698118845393634
1434.0, 0.02504234431472284
1435.0, 0.02779117147837428
1436.0, 0.028977577449185183
1437.0, 0.0222863125035872
1438.0, 0.023910299234740605
1439.0, 0.02621419746157656
1440.0, 0.02070781242143026
1441.0, 0.0214794448716897
1442.0, 0.03138793856489287
1443.0, 0.03251660657086571
1444.0, 0.03219956825422278
1445.0, 0.034954691740362705
1446.0, 0.034172594295946775
1447.0, 0.03632505550762515
1448.0, 0.03610750057654662
1449.0, 0.03601316138527676
1450.0, 0.03384318421741962
1451.0, 0.03378412208913994
1452.0, 0.031543786691061754
1453.0, 0.027551814782151664
1454.0, 0.025816926485944195
1455.0, 0.026395399788670545
1456.0, 0.026300690386418298
1457.0, 0.025600663121991316
1458.0, 0.027002954222831648
1459.0, 0.026230674892034133
1460.0, 0.02110734145333807
1461.0, 0.022229618170358467
1462.0, 0.020282920097610502
1463.0, 0.02350692121907308
1464.0, 0.025432438201401796
1465.0, 0.02132161743581899
1466.0, 0.023526468448296017
1467.0, 0.0220961664323019
1468.0, 0.021381282208957932
1469.0, 0.022417899404027043
1470.0, 0.0201616336365524
1471.0, 0.018839557674097288
1472.0, 0.01639795488463783
1473.0, 0.01843459365031196
1474.0, 0.01774059436838834
1475.0, 0.016577112128607827
1476.0, 0.0171349519200221
1477.0, 0.01695671070838099
1478.0, 0.016680242488305116
1479.0, 0.017492557128549975
1480.0, 0.016134557795373615
1481.0, 0.014672731516868914
1482.0, 0.01640063565833839
1483.0, 0.013064105449263766
1484.0, 0.01121290523864956
1485.0, 0.013307060353636328
1486.0, 0.013571673215457653
1487.0, 0.012531243748035653
1488.0, 0.013117061092383767
1489.0, 0.015092647808117025
1490.0, 0.012372524511125681
1491.0, 0.010943034946715283
1492.0, 0.012730553925452906
1493.0, 0.013484337554205889
1494.0, 0.013204559021175743
1495.0, 0.011266381974428205
1496.0, 0.012339763738724923
1497.0, 0.011653366581681146
1498.0, 0.013987887077289518
1499.0, 0.01083244049105261
1500.0, 0.009687454036301543
1501.0, 0.010933021547752973
1502.0, 0.009530962990301857
1503.0, 0.007870276806729219
1504.0, 0.010073558300519047
1505.0, 0.01382342126852144
1506.0, 0.014235883551462136
1507.0, 0.013859315321393504
1508.0, 0.01359870251353187
1509.0, 0.010179611906843794
1510.0, 0.01323320513659306
1511.0, 0.00856848803807367
1512.0, 0.004376350406260901
1513.0, 0.0038789958685377665
1514.0, 0.01121586345645863
1515.0, 0.012802007435203825
1516.0, 0.013993991253616259
1517.0, 0.010556752197812807
1518.0, 0.011261998864374935
1519.0, 0.009909234678605647
1520.0, 0.011593253948458383
1521.0, 0.00941510733732055
1522.0, 0.009450408114496395
1523.0, 0.010406301303902462
1524.0, 0.008811439275372675
1525.0, 0.00809284975192928
1526.0, 0.011101600100075756
1527.0, 0.011531200239610557
1528.0, 0.01367308034987301
1529.0, 0.0153769973935861
1530.0, 0.009010859712616719
1531.0, 0.005675067918067255
1532.0, 0.010076693506064821
1533.0, 0.014699283467597355
1534.0, 0.014502377134208124
1535.0, 0.009825519469800004
1536.0, 0.011391894877970186
1537.0, 0.009258044930862413
1538.0, 0.014268478491796745
1539.0, 0.012465039070108163
1540.0, 0.009304889834067596
1541.0, 0.01368815732966905
1542.0, 0.012806282631936958
1543.0, 0.01309182898242813
1544.0, 0.016603464168503397
1545.0, 0.010438215161575833
1546.0, 0.004543136340742273
1547.0, 0.012146757373924916
1548.0, 0.02150708351145007
1549.0, 0.0249099103449789
1550.0, 0.0044386258323476455
1551.0, 0.00964008001632706
1552.0, 0.009030700180822715
1553.0, 0.00543025396246893
1554.0, 0.016024601245245795
1555.0, 0.0062847055874876686
1556.0, 0.01033708153053582
1557.0, 0.0163531495594481
1558.0, 0.021530521813837043
1559.0, 0.01901579077512894
1560.0, 0.013534796110013134
1561.0, 0.018200591672580924
1562.0, 0.025423716446642996
1563.0, 0.022495127175265934
1564.0, 0.019657745867018187
1565.0, 0.015105484674401867
1566.0, 0.004611735982599136
1567.0, 0.009658708946777762
1568.0, 0.00853558951942088
1569.0, 0.005170738938306374
1570.0, 2.851561965562668e-05
1571, 0.0
1572, 0.0
1573, 0.0
1574, 0.0
1575, 0.0
1576, 0.0
1577, 0.0
1578, 0.0
1579, 0.0
1580, 0.0
1581, 0.0
1582, 0.0
1583, 0.0
1584, 0.0
1585, 0.0
1586, 0.0
1587, 0.0
1588, 0.0
1589, 0.0
1590, 0.0
1591, 0.0
1592, 0.0
1593, 0.0
1594, 0.0
1595, 0.0
1596, 0.0
1597, 0.0
1598, 0.0
1599, 0.0
