30, 0.0
31, 0.0
32, 0.0
33, 0.0
34, 0.0
35, 0.0
36, 0.0
37, 0.0
38, 0.0
39, 0.0
40, 0.0
41, 0.0
42, 0.0
43, 0.0
44, 0.0
45, 0.0
46, 0.0
47, 0.0
48, 0.0
49, 0.0
50, 0.0
51, 0.0
52, 0.0
53, 0.0
54, 0.0
55, 0.0
56, 0.0
57, 0.0
58, 0.0
59, 0.0
60, 0.0
61, 0.0
62, 0.0
63, 0.0
64, 0.0
65, 0.0
66, 0.0
67, 0.0
68, 0.0
69, 0.0
70, 0.0
71, 0.0
72, 0.0
73, 0.0
74, 0.0
75, 0.0
76, 0.0
77, 0.0
78, 0.0
79, 0.0
80, 0.0
81, 0.0
82, 0.0
83, 0.0
84, 0.0
85, 0.0
86, 0.0
87, 0.0
88, 0.0
89, 0.0
90, 0.0
91, 0.0
92, 0.0
93, 0.0
94, 0.0
95, 0.0
96, 0.0
97, 0.0
98, 0.0
99, 0.0
100, 0.0
101, 0.0
102, 0.0
103, 0.0
104, 0.0
105, 0.0
106, 0.0
107, 0.0
108, 0.0
109, 0.0
110, 0.0
111, 0.0
112, 0.0
113, 0.0
114, 0.0
115, 0.0
116, 0.0
117, 0.0
118.0, 0.0016562399368535508
119.0, 0.009083324855479373
120.0, 0.0025627990848486443
121.0, 0.01404427339752154
122.0, 0.02151689836694046
123.0, 0.023121640444959
124.0, 0.03468958133659556
125.0, 0.05387051566571713
126.0, 0.0660682658275849
127.0, 0.08378294260216611
128.0, 0.11012586902287466
129.0, 0.1415136080330501
130.0, 0.16079222831369694
131.0, 0.17399799955837242
132.0, 0.18388481074728275
133.0, 0.19512732700063345
134.0, 0.21405733078911954
135.0, 0.25134772594953897
136.0, 0.2936552705022833
137.0, 0.3454795828676545
138.0, 0.4069582043551452
139.0, 0.471345296529349
140.0, 0.5222867139254205
141.0, 0.5451873238201311
142.0, 0.56466783658321
143.0, 0.5718469485896495
144.0, 0.5638687241881909
145.0, 0.5420827942382809
146.0, 0.4805401646243195
147.0, 0.4083746568384765
148.0, 0.3371579745055115
149.0, 0.2731565580701097
150.0, 0.2234715075642907
151.0, 0.21308918083311607
152.0, 0.18532303608433037
153.0, 0.15099374334364682
154.0, 0.11839276168519527
155.0, 0.09031245870284867
156.0, 0.05816102533414884
157.0, 0.04770853892070411
158.0, 0.039355759521469386
159.0, 0.037175236123420975
160.0, 0.04378567243459374
161.0, 0.058555976295359836
162.0, 0.07158343763864067
163.0, 0.08947127016156786
164.0, 0.10129893202339932
165.0, 0.11322215386398374
166.0, 0.13240963886809595
167.0, 0.12529053171611257
168.0, 0.12213661442414576
169.0, 0.12699248197628035
170.0, 0.1298474791204023
171.0, 0.12193666621675549
172.0, 0.10326285711768177
173.0, 0.08078928915474458
174.0, 0.06698420927735066
175.0, 0.05117396590485134
176.0, 0.03396945587641699
177.0, 0.02641941524910934
178.0, 0.014670456615660746
179.0, 0.007356306761965673
180.0, 0.0063528808516718225
181.0, 0.010290342026302288
182.0, 0.016323826805294477
183.0, 0.02187620007039984
184.0, 0.017787378904474557
185.0, 0.012271723986435406
186.0, 0.006692384459621028
187.0, 0.004112949639039077
188.0, 0.01147185031399173
189.0, 0.005262049130643041
190.0, 0.0052094901780980266
191.0, 0.007944221602138101
192.0, 0.014193237134471726
193.0, 0.02648256394853571
194.0, 0.03950752670558311
195.0, 0.057190529586537676
196.0, 0.06457358282352255
197.0, 0.06817297588934336
198.0, 0.0764300689427701
199.0, 0.08890327665925922
200.0, 0.11652020207229144
201.0, 0.14560248956380462
202.0, 0.16669828043545418
203.0, 0.16419581801908978
204.0, 0.12212194138278958
205.0, 0.0802584074328855
206.0, 0.0616429692527704
207.0, 0.05513504780597763
208.0, 0.05834438635581667
209.0, 0.0691921094650249
210.0, 0.07853910332071216
211.0, 0.09277184940650053
212.0, 0.11523718291817361
213.0, 0.1380083449407842
214.0, 0.15681596548172866
215.0, 0.1728481202203951
216.0, 0.18337483829236031
217.0, 0.1903476791335415
218.0, 0.20273686166121083
219.0, 0.21426591778443307
220.0, 0.21778964211389318
221.0, 0.225489496132642
222.0, 0.22994327415735152
223.0, 0.24088293131535235
224.0, 0.25354625874707226
225.0, 0.26104904437077925
226.0, 0.2582458518327455
227.0, 0.2828162387674904
228.0, 0.28342422342899504
229.0, 0.29478596028190696
230.0, 0.3088354543163577
231.0, 0.3105168550043302
232.0, 0.32263809216165024
233.0, 0.32628099136418826
234.0, 0.3291078408240471
235.0, 0.33297394990825924
236.0, 0.3386157462230246
237.0, 0.34543351309669906
238.0, 0.3423841322938158
239.0, 0.34300038003653494
240.0, 0.3388787806758395
241.0, 0.33428002518389444
242.0, 0.3332083186295061
243.0, 0.3253894688723197
244.0, 0.31594420922488453
245.0, 0.31368281519345237
246.0, 0.307770162844477
247.0, 0.2998072089708731
248.0, 0.3001427579766554
249.0, 0.28008414508449686
250.0, 0.2834496221869828
251.0, 0.2865263449953051
252.0, 0.2844415606259053
253.0, 0.27351077697887843
254.0, 0.24196116979959398
255.0, 0.24294455183345176
256.0, 0.23443151521464373
257.0, 0.22246114247638296
258.0, 0.21631230383097455
259.0, 0.21884993379630846
260.0, 0.1909977089703898
261.0, 0.19337607907217258
262.0, 0.19023697012478544
263.0, 0.18555952860947592
264.0, 0.18099054121760244
265.0, 0.1664736941586463
266.0, 0.15586337525753538
267.0, 0.15606562429026283
268.0, 0.15446957539778722
269.0, 0.14550287601933282
270.0, 0.13178625987245873
271.0, 0.13092447551204017
272.0, 0.10409419941323719
273.0, 0.09343678076188051
274.0, 0.0877161938443328
275.0, 0.08150753160908587
276.0, 0.07675884600634153
277.0, 0.06480653350745738
278.0, 0.06252382722465806
279.0, 0.05710420408850848
280.0, 0.04844428794624246
281.0, 0.040614844854728334
282.0, 0.039263694917269935
283.0, 0.03728034654190195
284.0, 0.03686248594650976
285.0, 0.04019129320809102
286.0, 0.043919670252517334
287.0, 0.04517464554733214
288.0, 0.05057638476875459
289.0, 0.049661741620988284
290.0, 0.05600440317709454
291.0, 0.059648144183140836
292.0, 0.060856155367189795
293.0, 0.06711851721637736
294.0, 0.06742877968544425
295.0, 0.07749302888267083
296.0, 0.08724943375404348
297.0, 0.08929492935034453
298.0, 0.0876328234697638
299.0, 0.0988845967517705
300.0, 0.0981363068714861
301.0, 0.10504413467364643
302.0, 0.10686166353441225
303.0, 0.10666290586810635
304.0, 0.11062294256246473
305.0, 0.11838366585314405
306.0, 0.1158366088201675
307.0, 0.12047651593375747
308.0, 0.1249348612344481
309.0, 0.1257760386718241
310.0, 0.12396488282406469
311.0, 0.12594769615556659
312.0, 0.12919141101453535
313.0, 0.12495368297866963
314.0, 0.12238851398851969
315.0, 0.1229510895204401
316.0, 0.12077112476914885
317.0, 0.12068404259232353
318.0, 0.12324940936656369
319.0, 0.12325368949924802
320.0, 0.12180079033321764
321.0, 0.12206041223526587
322.0, 0.1271592092276079
323.0, 0.12656167115350844
324.0, 0.12839949357761693
325.0, 0.1299659937877217
326.0, 0.13037951524630367
327.0, 0.13173934726687522
328.0, 0.1398774656210639
329.0, 0.12883204299589954
330.0, 0.136883181689302
331.0, 0.14370536207161203
332.0, 0.14455907823987446
333.0, 0.14546040749651967
334.0, 0.16030078645328655
335.0, 0.17061950227701925
336.0, 0.17810189634570495
337.0, 0.18804945437561257
338.0, 0.1962927456263221
339.0, 0.19867808039349227
340.0, 0.2115986083949958
341.0, 0.2160649550381057
342.0, 0.22585528045400952
343.0, 0.22926814946397997
344.0, 0.22918238229722473
345.0, 0.23579961562381804
346.0, 0.23287411141655326
347.0, 0.24170300656363913
348.0, 0.24459878877527777
349.0, 0.24471033957587304
350.0, 0.24402212187732017
351.0, 0.24151708960137147
352.0, 0.23987444879022232
353.0, 0.24522946145370106
354.0, 0.24181108700610363
355.0, 0.23902936901618008
356.0, 0.24040269539372805
357.0, 0.23880907613318184
358.0, 0.23310431532536335
359.0, 0.23255745320847476
360.0, 0.23962870041050094
361.0, 0.24316359036076235
362.0, 0.23882211258785707
363.0, 0.2344370499678084
364.0, 0.23558278892817047
365.0, 0.23176885981604675
366.0, 0.22696088834035108
367.0, 0.2244912570770281
368.0, 0.2235317332136156
369.0, 0.21861791162816954
370.0, 0.21386062329244546
371.0, 0.2166798138008636
372.0, 0.21841769824169635
373.0, 0.21590838120927605
374.0, 0.21194924906818874
375.0, 0.21426480603380002
376.0, 0.21165450302041858
377.0, 0.2098761938536022
378.0, 0.21455079798056315
379.0, 0.21597085170584557
380.0, 0.21140013198561203
381.0, 0.21380719567389322
382.0, 0.2193275919368667
383.0, 0.2177588180154439
384.0, 0.21340149882382756
385.0, 0.2108769550286077
386.0, 0.21147702939703963
387.0, 0.2115830061933059
388.0, 0.21049170433996078
389.0, 0.21143584406709556
390.0, 0.2133208882783679
391.0, 0.20802441059240587
392.0, 0.19580212991717294
393.0, 0.1902447108057514
394.0, 0.19249891579197698
395.0, 0.18726301387249175
396.0, 0.1820207108815496
397.0, 0.17914939760773366
398.0, 0.17706750618272687
399.0, 0.17180679125234405
400.0, 0.16985575996031618
401.0, 0.1622489467417467
402.0, 0.15400130232248818
403.0, 0.14959632483792526
404.0, 0.1459047283893856
405.0, 0.13466779542002538
406.0, 0.1375418589325877
407.0, 0.12584643970960366
408.0, 0.12275082937741805
409.0, 0.12013917463736427
410.0, 0.1148431844010965
411.0, 0.11349534544097233
412.0, 0.11189107419239963
413.0, 0.11112194415255182
414.0, 0.10860375957874689
415.0, 0.11066383361442737
416.0, 0.11450885400513718
417.0, 0.1120272017758973
418.0, 0.11334576436220997
419.0, 0.11168640822550131
420.0, 0.11118086359269848
421.0, 0.11085072416489392
422.0, 0.11208739259129982
423.0, 0.11462460183909645
424.0, 0.10519800457604526
425.0, 0.09727460541987469
426.0, 0.09690705394468757
427.0, 0.09035251025406559
428.0, 0.08129618214481693
429.0, 0.07723048860980516
430.0, 0.06701511276782755
431.0, 0.05924549321578833
432.0, 0.05395786165928357
433.0, 0.04828795800995644
434.0, 0.0391966703188891
435.0, 0.028929385464464937
436.0, 0.028026866275227248
437.0, 0.014710243389354716
438.0, 0.008605837280337005
439.0, 0.0044735306755454484
440.0, 0.004316209328494285
441.0, 0.008449681464015943
442.0, 0.011967063239737424
443.0, 0.0124546568147706
444.0, 0.016534418710777297
445.0, 0.018398222857859796
446.0, 0.018963501222338183
447.0, 0.021073045565821385
448.0, 0.02612012833822886
449.0, 0.025729584355779204
450.0, 0.02594455487737742
451.0, 0.026212536484088566
452.0, 0.0249961306928103
453.0, 0.022845493020520337
454.0, 0.021233330998476314
455.0, 0.019472067856547228
456.0, 0.015059277228902131
457.0, 0.013917352028593656
458.0, 0.012895340952383308
459.0, 0.010785637709838746
460.0, 0.00885604915495418
461.0, 0.010208234246446127
462.0, 0.0033673651218314475
463.0, 0.0007998903185115062
464.0, 0.004331027096126839
465.0, 0.008867188592543582
466.0, 0.010977199120273402
467.0, 0.012280613291917987
468.0, 0.014666715659886745
469.0, 0.014276993667312974
470.0, 0.01247256297268542
471.0, 0.01231521235561786
472.0, 0.01367144918589938
473.0, 0.014153971183490871
474.0, 0.013821678232021076
475.0, 0.013922985013141445
476.0, 0.012696930717411226
477.0, 0.012321597897774473
478.0, 0.012615638768107229
479.0, 0.012608185130898734
480.0, 0.012549817564299381
481.0, 0.014166548324235598
482.0, 0.013942537025534133
483.0, 0.014149106481985953
484.0, 0.01512131354391796
485.0, 0.015364334001046318
486.0, 0.012133450424604586
487.0, 0.0031071700351001383
488.0, 0.013407937109832705
489.0, 0.023213493184626198
490.0, 0.028584188604913126
491.0, 0.02130135469960149
492.0, 0.0034643191835020664
493.0, 0.01354706574306467
494.0, 0.009991108560602022
495.0, 0.005931250204353112
496.0, 0.013766117722314692
497.0, 0.014449425572990292
498.0, 0.004899489625185742
499.0, 0.015403357206288035
500.0, 0.01652198483254332
501.0, 0.015028430116411091
502.0, 0.012885206851482069
503.0, 0.013198117376494439
504.0, 0.014802769151958713
505.0, 0.015006958376391533
506.0, 0.017742594458869877
507.0, 0.017258172021974494
508.0, 0.017166497426538592
509.0, 0.016418546759544503
510.0, 0.015988833235443194
511.0, 0.01593654678221474
512.0, 0.014523485200265506
513.0, 0.019919326315648425
514.0, 0.017666190549426704
515.0, 0.018903466349543777
516.0, 0.016398309718965172
517.0, 0.01013004757243039
518.0, 0.007374975008745002
519.0, 0.011417144490258935
520.0, 0.008309515479617247
521.0, 0.006158922709849699
522.0, 0.006073819163029855
523.0, 0.006139240382710322
524.0, 0.005995133065237315
525.0, 0.008333247992753472
526.0, 0.00965740013984974
527.0, 0.009134167657276086
528.0, 0.005643653186881365
529.0, 0.0068992628605494145
530.0, 0.008755254069081555
531.0, 0.005503502282384654
532.0, 0.01041961988129881
533.0, 0.011059736775729282
534.0, 0.01379791238638596
535.0, 0.014259178915671694
536.0, 0.01639361995170483
537.0, 0.02028438498627519
538.0, 0.02169693477822997
539.0, 0.032375716886532055
540.0, 0.03440552982468685
541.0, 0.03910770109227191
542.0, 0.04670877807715597
543.0, 0.0544371191977839
544.0, 0.06006898744927562
545.0, 0.06523367512001436
546.0, 0.08157080996604174
547.0, 0.0886029593959704
548.0, 0.10588780320142821
549.0, 0.12251079099243073
550.0, 0.1360524914771083
551.0, 0.1533373365364753
552.0, 0.17275286752677904
553.0, 0.18647593994757655
554.0, 0.19703295851731134
555.0, 0.2059691298888487
556.0, 0.2150519783892298
557.0, 0.22638515826855657
558.0, 0.2391548149287204
559.0, 0.2368915157245452
560.0, 0.24413782263938158
561.0, 0.24523751740496058
562.0, 0.2389914048377579
563.0, 0.23040243756658207
564.0, 0.2237999056315661
565.0, 0.2178130926174738
566.0, 0.20924814177805706
567.0, 0.19286420683503983
568.0, 0.18314852167806622
569.0, 0.17536699898862815
570.0, 0.16634579542987837
571.0, 0.15661835916052547
572.0, 0.14774597791891103
573.0, 0.14002703864186639
574.0, 0.1346724000744056
575.0, 0.12766455546689365
576.0, 0.12220060551929496
577.0, 0.12068849219907685
578.0, 0.12005853361262878
579.0, 0.10865598050833772
580.0, 0.10817066011576096
581.0, 0.10866687435394494
582.0, 0.10418850330373154
583.0, 0.10336753950844181
584.0, 0.10941795805547518
585.0, 0.11650712047624845
586.0, 0.12718929281392632
587.0, 0.11756501537033293
588.0, 0.11863687077529121
589.0, 0.11993742372732696
590.0, 0.12491384266583491
591.0, 0.13136500318256533
592.0, 0.1277727080831854
593.0, 0.1308383260064527
594.0, 0.13103297741763642
595.0, 0.12728815978234626
596.0, 0.13438928371955236
597.0, 0.13949243816928675
598.0, 0.1288133623394974
599.0, 0.11096652485951072
600.0, 0.11690126233552059
601.0, 0.12079082900665256
602.0, 0.12130209135750218
603.0, 0.12443039185887178
604.0, 0.12458023595810863
605.0, 0.12132914791909384
606.0, 0.12825454856832338
607.0, 0.128790446588862
608.0, 0.12941671296002136
609.0, 0.13299271344449093
610.0, 0.1371984585303442
611.0, 0.14070203124652716
612.0, 0.14371884949985322
613.0, 0.14718317156803284
614.0, 0.1500757495013114
615.0, 0.15443209798774277
616.0, 0.1580789773969061
617.0, 0.16348869194236643
618.0, 0.1706318401097987
619.0, 0.17818831298035617
620.0, 0.18602957259359706
621.0, 0.1966266677904283
622.0, 0.199076398484857
623.0, 0.20804772442337635
624.0, 0.21383616313360543
625.0, 0.2213308465633971
626.0, 0.23547487514766935
627.0, 0.24638881206832397
628.0, 0.25210667696715183
629.0, 0.26450256153494145
630.0, 0.27500983731763157
631.0, 0.2855991944588304
632.0, 0.29575074620404107
633.0, 0.3056316260595927
634.0, 0.31897485444073986
635.0, 0.3380268870684174
636.0, 0.35090165418835567
637.0, 0.36722904374202825
638.0, 0.38593177576515886
639.0, 0.4080573261760996
640.0, 0.4334907967109084
641.0, 0.46119692068767737
642.0, 0.5032034199574537
643.0, 0.5416047672679447
644.0, 0.580371123244897
645.0, 0.6285622283993643
646.0, 0.6793411060714681
647.0, 0.7300473405828775
648.0, 0.7874200066263741
649.0, 0.8441044594500676
650.0, 0.895358611557606
651.0, 0.9397432676270348
652.0, 0.9799214481680023
653.0, 0.9996047154426392
654.0, 0.9975535081202588
655.0, 0.98630644847781
656.0, 0.9561839122278715
657.0, 0.9116002393238947
658.0, 0.8764321614263196
659.0, 0.8100463842679989
660.0, 0.7695378399002782
661.0, 0.7534446301215496
662.0, 0.6994904617464912
663.0, 0.5782937076755156
664.0, 0.5574103789311665
665.0, 0.515688540038722
666.0, 0.4835301653131322
667.0, 0.4647677029034188
668.0, 0.45199247710911933
669.0, 0.4402400908178572
670.0, 0.43451188159306786
671.0, 0.43033375227281107
672.0, 0.4269897119868688
673.0, 0.42515069974785585
674.0, 0.43000198705664655
675.0, 0.4366721075391481
676.0, 0.4424391323796244
677.0, 0.4514643518041288
678.0, 0.4597849874121858
679.0, 0.47211386475309197
680.0, 0.48635184371003465
681.0, 0.4986529830811425
682.0, 0.5104407938620229
683.0, 0.5245963374904448
684.0, 0.5414090113200405
685.0, 0.5558851415299917
686.0, 0.5668455076773372
687.0, 0.5801801418119057
688.0, 0.5905948052796497
689.0, 0.6009250382738346
690.0, 0.6138103140177448
691.0, 0.6279461800988814
692.0, 0.6386965111219219
693.0, 0.6489745271913698
694.0, 0.6595195871787125
695.0, 0.6667361703960072
696.0, 0.6737566615695838
697.0, 0.6766174761649062
698.0, 0.6802387328050951
699.0, 0.6922574571085032
700.0, 0.688908660493688
701.0, 0.6935072570371956
702.0, 0.6991438336403359
703.0, 0.7053346436228283
704.0, 0.7103022097395013
705.0, 0.7143901426607507
706.0, 0.7196544824494392
707.0, 0.7267368477458728
708.0, 0.7268255139616123
709.0, 0.7279772027651352
710.0, 0.7336324923118729
711.0, 0.7332843492124689
712.0, 0.7317813644102517
713.0, 0.7323724773603304
714.0, 0.7292842929521557
715.0, 0.7211298791222668
716.0, 0.7161410236196224
717.0, 0.7126602524979465
718.0, 0.7036167111376502
719.0, 0.6938870028314768
720.0, 0.6834286536372635
721.0, 0.6677763795110906
722.0, 0.6467908462919716
723.0, 0.6368828708214683
724.0, 0.6172341102473704
725.0, 0.6010219840668835
726.0, 0.5873075183563584
727.0, 0.5770162533658599
728.0, 0.56342619662529
729.0, 0.5410799704883561
730.0, 0.5269357115110149
731.0, 0.5016883274071376
732.0, 0.48852790168132554
733.0, 0.47018350517320917
734.0, 0.45148149464068976
735.0, 0.4336610571943613
736.0, 0.41552917829157865
737.0, 0.399548628531341
738.0, 0.3940276554060519
739.0, 0.3794719475383144
740.0, 0.3738861769761044
741.0, 0.36025601580705546
742.0, 0.3484458286867801
743.0, 0.33796114476398736
744.0, 0.32557586340384237
745.0, 0.3224909199319112
746.0, 0.31747242344046694
747.0, 0.3121184402498075
748.0, 0.3031549992619921
749.0, 0.2983160271385537
750.0, 0.29828057840803957
751.0, 0.29483756129411964
752.0, 0.28510685689370496
753.0, 0.286545048336622
754.0, 0.28085112966041464
755.0, 0.2773197912158982
756.0, 0.2737366470945669
757.0, 0.27279935748947776
758.0, 0.26788413831363816
759.0, 0.26047860605674944
760.0, 0.25993455131483945
761.0, 0.25953821199679983
762.0, 0.2512371769495605
763.0, 0.24648590770117576
764.0, 0.2427258618426119
765.0, 0.23656570591543333
766.0, 0.2298679989703864
767.0, 0.2239424880305981
768.0, 0.21653105027782074
769.0, 0.20767050576614887
770.0, 0.19889521269214838
771.0, 0.18666049653567512
772.0, 0.1802444230752473
773.0, 0.17432856676308972
774.0, 0.16860723025214225
775.0, 0.16422492452412635
776.0, 0.15855697882153577
777.0, 0.15066976272283247
778.0, 0.14549267079070285
779.0, 0.14205049800429229
780.0, 0.1345446818246063
781.0, 0.1284085863700656
782.0, 0.12572080974236705
783.0, 0.12383856115684624
784.0, 0.11941480258767917
785.0, 0.11270642353403253
786.0, 0.11453367854711274
787.0, 0.10958772299688206
788.0, 0.10926487071023584
789.0, 0.10823091867285771
790.0, 0.10317095590129087
791.0, 0.09747200151873894
792.0, 0.09504613277646515
793.0, 0.08660912073801044
794.0, 0.08308031162211393
795.0, 0.08137489867142093
796.0, 0.07135976703903411
797.0, 0.07235757517628509
798.0, 0.06979760063709672
799.0, 0.056185551155105304
800.0, 0.05251218310162107
801.0, 0.04683556887429413
802.0, 0.045992543245432935
803.0, 0.04307753680001522
804.0, 0.03540122970953603
805.0, 0.030178151944102675
806.0, 0.02499380870089061
807.0, 0.018007540639615956
808.0, 0.013794229245029217
809.0, 0.01282385376189693
810.0, 0.004858636579261727
811.0, 0.001681764557217019
812.0, 0.0013603228533423581
813.0, 0.0026169146714851575
814.0, 0.002002193061190917
815.0, 0.001993961951438349
816.0, 0.007196627251762353
817.0, 0.011225191529743014
818.0, 0.007022118679709329
819.0, 0.008891171709905452
820.0, 0.008455429261220698
821.0, 0.0080478846951501
822.0, 0.01128145803374791
823.0, 0.0135624832701595
824.0, 0.011329247211844348
825.0, 0.013474280561309959
826.0, 0.017831156204717293
827.0, 0.018605068552992248
828.0, 0.019774712844349424
829.0, 0.01803997762959521
830.0, 0.01686899195529548
831.0, 0.014043335078070478
832.0, 0.010294621656462971
833.0, 0.012860877866995654
834.0, 0.013331135237923961
835.0, 0.013712118758479592
836.0, 0.018677111420010536
837.0, 0.015923080925561536
838.0, 0.016040356105701925
839.0, 0.015973019773653632
840.0, 0.014337051136424589
841.0, 0.01590599469787923
842.0, 0.014577709479007224
843.0, 0.0066251734383278305
844.0, 0.009358125909374944
845.0, 0.006156738529785549
846.0, 0.0061286184438313915
847.0, 0.006403436242274781
848.0, 0.005742972094686124
849.0, 0.0075791079220803885
850.0, 0.012414842541764524
851.0, 0.010514993546542813
852.0, 0.01480525870802592
853.0, 0.019225493258962115
854.0, 0.022536168304017726
855.0, 0.02586463309164029
856.0, 0.03220872516331807
857.0, 0.03766089741323561
858.0, 0.039274788590399186
859.0, 0.051932303882363515
860.0, 0.050865478297246955
861.0, 0.055379773456879354
862.0, 0.06350815085847197
863.0, 0.07332132176772205
864.0, 0.07962437363224191
865.0, 0.08534018162261306
866.0, 0.09452454677640246
867.0, 0.10375452455600531
868.0, 0.11280008531438056
869.0, 0.12303012238687455
870.0, 0.13234284518202366
871.0, 0.14041826248729083
872.0, 0.1471821921919156
873.0, 0.15532487430369935
874.0, 0.16746882471248528
875.0, 0.17981810948604904
876.0, 0.18366391723247405
877.0, 0.1978064214234582
878.0, 0.20510553079717028
879.0, 0.21985414935767464
880.0, 0.2307950872281831
881.0, 0.2443603534488017
882.0, 0.2563301147126304
883.0, 0.26311006739391307
884.0, 0.26968502746600975
885.0, 0.2779390187491112
886.0, 0.29977585165012316
887.0, 0.3081760927796348
888.0, 0.32296357593058544
889.0, 0.3321871449197983
890.0, 0.34027876192512857
891.0, 0.35293450480915384
892.0, 0.3669368102708713
893.0, 0.376064721107893
894.0, 0.38911422673356344
895.0, 0.4147749461518514
896.0, 0.44241822627291133
897.0, 0.46955769338362213
898.0, 0.46925706652935845
899.0, 0.4682385825547115
900.0, 0.47761408078073003
901.0, 0.4980396706786394
902.0, 0.5373517516556566
903.0, 0.5617513973434415
904.0, 0.5565071736901366
905.0, 0.5687126289975277
906.0, 0.5805636489897044
907.0, 0.5928170491489705
908.0, 0.6074568917284403
909.0, 0.6248288537031542
910.0, 0.6425477770167504
911.0, 0.6576721243363384
912.0, 0.6732563725565637
913.0, 0.6915658333406948
914.0, 0.7062898567759277
915.0, 0.7130299112164051
916.0, 0.7259816464805663
917.0, 0.7348987970216078
918.0, 0.7374897498404994
919.0, 0.743230968073861
920.0, 0.7537368984369428
921.0, 0.7544065496664414
922.0, 0.7707119375901247
923.0, 0.765767407574273
924.0, 0.756130556485665
925.0, 0.7612191919971678
926.0, 0.7647563594193839
927.0, 0.7577549222191627
928.0, 0.749549303840755
929.0, 0.7476193167931957
930.0, 0.739259774944591
931.0, 0.7454795619037308
932.0, 0.724999385579451
933.0, 0.7180526203894901
934.0, 0.7095813827295737
935.0, 0.696542139193867
936.0, 0.686363520286221
937.0, 0.6814320332506968
938.0, 0.675158426697432
939.0, 0.6648271663805921
940.0, 0.6531027911435069
941.0, 0.6508616226272815
942.0, 0.6890250893489821
943.0, 0.687357771620758
944.0, 0.6859301553564714
945.0, 0.6812529592256059
946.0, 0.6424146976284338
947.0, 0.5867908217206472
948.0, 0.5797904081126172
949.0, 0.571275933386683
950.0, 0.5596530121828165
951.0, 0.5476721573790029
952.0, 0.5294385212146447
953.0, 0.510774846512239
954.0, 0.4872426340415045
955.0, 0.46343420393180945
956.0, 0.44190900972092173
957.0, 0.41346581329969806
958.0, 0.3837144687315561
959.0, 0.35978964597878405
960.0, 0.34060007211481214
961.0, 0.31108079680303724
962.0, 0.2902999757176839
963.0, 0.2747571919672318
964.0, 0.25448733710172333
965.0, 0.23057375099985455
966.0, 0.2118834903946413
967.0, 0.19822424247817338
968.0, 0.18304424258200205
969.0, 0.17316107654070395
970.0, 0.16084163152131042
971.0, 0.1471192873233242
972.0, 0.13805229029598906
973.0, 0.13185774832223274
974.0, 0.1256779840266134
975.0, 0.11686332104442206
976.0, 0.10722545366871199
977.0, 0.10982840499131669
978.0, 0.10604018651821145
979.0, 0.11130489265423195
980.0, 0.10569847923147047
981.0, 0.09929066145093784
982.0, 0.0932840350176225
983.0, 0.09307790106070726
984.0, 0.09457407922486916
985.0, 0.09542919545339935
986.0, 0.10369005821910895
987.0, 0.09990391950426143
988.0, 0.10802396885380772
989.0, 0.10582920049216189
990.0, 0.10626253459583095
991.0, 0.10928047828260548
992.0, 0.1128759330272368
993.0, 0.11657354791205761
994.0, 0.1212854819294952
995.0, 0.1274708991277145
996.0, 0.13313505555769184
997.0, 0.1340259565265822
998.0, 0.14692109335054332
999.0, 0.15586989273382143
1000.0, 0.15641700189060623
1001.0, 0.16969121791062658
1002.0, 0.18405726284127263
1003.0, 0.19388043135136787
1004.0, 0.21304228961613403
1005.0, 0.2368537015630576
1006.0, 0.23134465263945933
1007.0, 0.25944105154611335
1008.0, 0.26561061097921135
1009.0, 0.27957980121902337
1010.0, 0.29289705508788705
1011.0, 0.30962913546532106
1012.0, 0.32909056891279237
1013.0, 0.351178327632824
1014.0, 0.37397640225378126
1015.0, 0.39667894273787735
1016.0, 0.4231296245886325
1017.0, 0.44502622623723087
1018.0, 0.466229393911244
1019.0, 0.49075743747202
1020.0, 0.5172942514930833
1021.0, 0.5414345489872665
1022.0, 0.5585051331847597
1023.0, 0.573970723001755
1024.0, 0.591764053803056
1025.0, 0.6100078093574096
1026.0, 0.6274949740377196
1027.0, 0.6415111950486977
1028.0, 0.6630010009565985
1029.0, 0.659298905899203
1030.0, 0.6665308742377942
1031.0, 0.665648206710925
1032.0, 0.6601326367838279
1033.0, 0.6472201148565552
1034.0, 0.6334193818346691
1035.0, 0.6201815258989879
1036.0, 0.5942350700345197
1037.0, 0.5680394464189352
1038.0, 0.5454286205053365
1039.0, 0.5176144334123869
1040.0, 0.48866021983813224
1041.0, 0.45931616638525846
1042.0, 0.4340217291047249
1043.0, 0.4092865489143791
1044.0, 0.3868971959945111
1045.0, 0.3657255016945723
1046.0, 0.3417875763078688
1047.0, 0.32279261026390627
1048.0, 0.3048788709147139
1049.0, 0.27756282957506456
1050.0, 0.26884379022218097
1051.0, 0.2566450293262113
1052.0, 0.24334275104676006
1053.0, 0.23524431872715967
1054.0, 0.22676419658400884
1055.0, 0.2159212043166458
1056.0, 0.206532157081683
1057.0, 0.1981214336610723
1058.0, 0.18969021153379426
1059.0, 0.17675857424099467
1060.0, 0.17668631464570494
1061.0, 0.1656032137081555
1062.0, 0.16092478210188033
1063.0, 0.16379830814301408
1064.0, 0.15968324998088582
1065.0, 0.1544241153789574
1066.0, 0.15417674118123534
1067.0, 0.15283892536555427
1068.0, 0.15266310990792675
1069.0, 0.1598093588639112
1070.0, 0.15285318685800317
1071.0, 0.15563633122545278
1072.0, 0.1559345984746678
1073.0, 0.15215675288914143
1074.0, 0.1495913898257852
1075.0, 0.14373714653489816
1076.0, 0.13875718289401467
1077.0, 0.14098580959594437
1078.0, 0.1439287074847636
1079.0, 0.13776442775929118
1080.0, 0.13589869471299226
1081.0, 0.1430269213730931
1082.0, 0.139092568694975
1083.0, 0.1404656806835726
1084.0, 0.14565275734573738
1085.0, 0.1364879881950675
1086.0, 0.13247951696995913
1087.0, 0.13128662767564087
1088.0, 0.12383734468626008
1089.0, 0.11975843681500105
1090.0, 0.11640354963677174
1091.0, 0.10717041268580252
1092.0, 0.10728890248729564
1093.0, 0.10430244048298899
1094.0, 0.10075851325815657
1095.0, 0.09813941366330964
1096.0, 0.09614990374316346
1097.0, 0.09146058074401936
1098.0, 0.08595637375609812
1099.0, 0.08030699330390965
1100.0, 0.07338048963902785
1101.0, 0.06905556253465676
1102.0, 0.06461491972524368
1103.0, 0.07241748273846584
1104.0, 0.05594892407822345
1105.0, 0.0571285963674106
1106.0, 0.057346493088368374
1107.0, 0.05246246151052038
1108.0, 0.0438395150364719
1109.0, 0.03835079382839906
1110.0, 0.03845600947911832
1111.0, 0.03622980057560325
1112.0, 0.028073585823949594
1113.0, 0.03067700689496561
1114.0, 0.026633391410743248
1115.0, 0.02286588235149358
1116.0, 0.019031789853659335
1117.0, 0.019180458532460216
1118.0, 0.020031433295738102
1119.0, 0.02228989684943996
1120.0, 0.023680767405322593
1121.0, 0.023695170193076535
1122.0, 0.023700259009838708
1123.0, 0.02303264741125834
1124.0, 0.020668395815973923
1125.0, 0.019727485899976062
1126.0, 0.016219894112631684
1127.0, 0.009562045375861427
1128.0, 0.003322084547233387
1129.0, 0.003326543634854839
1130.0, 0.004129057433333416
1131.0, 0.004804410664498146
1132.0, 0.005144641849413281
1133.0, 0.0036072261171196393
1134.0, 0.0022998356268143106
1135.0, 0.004814839487647149
1136.0, 0.005577541908312302
1137.0, 0.0058917152116809215
1138.0, 0.002257377435258889
1139.0, 0.0012615598000818287
1140.0, 0.0006947718007453128
1141.0, 0.0011936560332146294
1142.0, 0.0006054186063986396
1143.0, 0.0010774053880618552
1144.0, 0.0016241210781242944
1145.0, 0.004525879318847106
1146.0, 0.008863628772973222
1147.0, 0.006214889893749019
1148.0, 0.004656781906846461
1149.0, 0.0077707909696736865
1150.0, 0.0031778820841225643
1151.0, 0.0024830243066746686
1152.0, 0.0013107675353625893
1153.0, 0.0018241308525475232
1154.0, 0.0017531955850202618
1155.0, 0.002223263565649649
1156.0, 0.002171508115036785
1157.0, 0.002624792546490818
1158.0, 0.0033489524546071554
1159.0, 0.0007398194309152946
1160.0, 0.0006733380079320815
1161.0, 0.0015299122955645334
1162.0, 0.009590027341331363
1163.0, 0.0036899101505612555
1164.0, 0.0036362767480011267
1165.0, 0.0057373131457167555
1166.0, 0.0022827406510471477
1167.0, 0.0015219105952962754
1168.0, 0.0019109552770687464
1169.0, 0.0024056310087464117
1170.0, 0.00486132113789912
1171.0, 0.005715028168619005
1172.0, 0.004078414733125199
1173.0, 0.003845235060365952
1174.0, 0.005729704273174168
1175.0, 0.0009052731872776138
1176.0, 0.0053639243561339756
1177.0, 0.0030621200661607472
1178.0, 0.001161972293525827
1179.0, 0.001208189769094732
1180.0, 0.00195098258688795
1181.0, 0.0022648933654357112
1182.0, 0.0032899663960300205
1183.0, 0.003725533774306912
1184.0, 0.0006122876124295803
1185.0, 0.00256373001641869
1186.0, 0.00529795495206009
1187.0, 0.001741840041044342
1188.0, 0.003616042287312447
1189.0, 0.0012506030272496618
1190.0, 0.0016873579296376759
1191.0, 0.0024976219387087134
1192.0, 0.004067309455118606
1193.0, 0.005487748094093089
1194.0, 0.004741086950489532
1195.0, 0.0031454441952824554
1196.0, 0.0035459483858504845
1197.0, 0.004277537650023181
1198.0, 0.0027171944771421977
1199.0, 0.0011182276605083198
1200.0, 0.0037448592361587025
1201.0, 0.001154358012452354
1202.0, 0.0007545777771980681
1203.0, 0.0008937917062722538
1204.0, 0.0049646095065419855
1205.0, 0.00317538343944678
1206.0, 0.0023154669742273485
1207.0, 0.0035369859178543345
1208.0, 0.003702552355637735
1209.0, 0.004650122086948638
1210.0, 0.003767908907022788
1211.0, 0.0061348188876270615
1212.0, 0.0012561475621325688
1213.0, 0.005686800389540786
1214.0, 0.005540786233458357
1215.0, 0.0055048211995768195
1216.0, 0.0092511816810448
1217.0, 0.007866155344220391
1218.0, 0.005622251929090494
1219.0, 0.0039735975602307304
1220.0, 0.001758433372237492
1221.0, 0.001348892451051851
1222.0, 0.002947174376708481
1223.0, 0.002083497128226389
1224.0, 0.0024521163235455526
1225.0, 0.006329222418567423
1226.0, 0.004525221524724886
1227.0, 0.0019817436802428154
1228.0, 0.004075973710609386
1229.0, 0.006816481416541327
1230.0, 0.004289208747365033
1231.0, 0.005016886043025095
1232.0, 0.004478634867433644
1233.0, 0.0065321149474071825
1234.0, 0.011222880678905728
1235.0, 0.010649590914639384
1236.0, 0.006688881401117
1237.0, 0.007170856008970839
1238.0, 0.0033825219143479753
1239.0, 0.002909933661714259
1240.0, 0.006677375236693633
1241.0, 0.003961350078967575
1242.0, 0.0031883220695408596
1243.0, 0.007553040347942212
1244.0, 0.0066683664245209915
1245.0, 0.00785618227524081
1246.0, 0.011034675433350466
1247.0, 0.012710975914972658
1248.0, 0.012214995552836283
1249.0, 0.013165791986303679
1250.0, 0.013840332985895954
1251.0, 0.006824549359214308
1252.0, 0.006954935064151719
1253.0, 0.009008594537702358
1254.0, 0.006991196879096888
1255.0, 0.008085372238417148
1256.0, 0.005181197853323033
1257.0, 0.008524748992601805
1258.0, 0.007577682720026352
1259.0, 0.005956126355908822
1260.0, 0.010529642525070678
1261.0, 0.011276248041707024
1262.0, 0.00707632467629504
1263.0, 0.009175854698541852
1264.0, 0.014211175207715764
1265.0, 0.011002126952967772
1266.0, 0.011079904859368744
1267.0, 0.006814174208922533
1268.0, 0.013149623844685734
1269.0, 0.007103564688803556
1270.0, 0.00800172588880867
1271.0, 0.013226716872314985
1272.0, 0.013273422954546353
1273.0, 0.012063069840116366
1274.0, 0.013931061843009735
1275.0, 0.012051284046290342
1276.0, 0.008383917676141717
1277.0, 0.008301292589544729
1278.0, 0.009362286649614254
1279.0, 0.00857879040805017
1280.0, 0.0072246321721379245
1281.0, 0.004149514057217797
1282.0, 0.006342030914073522
1283.0, 0.006794024942002373
1284.0, 0.008357949160000822
1285.0, 0.014044938982075518
1286.0, 0.01459305795680059
1287.0, 0.012589385940566631
1288.0, 0.013864114570965138
1289.0, 0.01058514612424289
1290.0, 0.013780237922852863
1291.0, 0.014398618580716588
1292.0, 0.010110233106774445
1293.0, 0.011558470337932345
1294.0, 0.013636082374285298
1295.0, 0.011551190315809286
1296.0, 0.011096079193473038
1297.0, 0.015494264057749011
1298.0, 0.017516463956624092
1299.0, 0.006747599367231791
1300.0, 0.009396706343082433
1301.0, 0.014675185694913911
1302.0, 0.009426419674661306
1303.0, 0.008619681741177436
1304.0, 0.005393814225994871
1305.0, 0.006847113109424017
1306.0, 0.009879932025056696
1307.0, 0.01022998325009724
1308.0, 0.007944817970800738
1309.0, 0.008246923634488342
1310.0, 0.014042031468840947
1311.0, 0.011005899117959989
1312.0, 0.013283271182862738
1313.0, 0.011010073375555316
1314.0, 0.010428988017865919
1315.0, 0.010573910218179716
1316.0, 0.009081770289975042
1317.0, 0.007051545799912725
1318.0, 0.008784846001573067
1319.0, 0.004975863842270831
1320.0, 0.00392694510068251
1321.0, 0.0031963372167228736
1322.0, 0.003237366715300971
1323.0, 0.006351238107107733
1324.0, 0.008569685732007557
1325.0, 0.007352033712996887
1326.0, 0.008500704927357002
1327.0, 0.012601966731278108
1328.0, 0.007076406485766823
1329.0, 0.00910931968833085
1330.0, 0.007437022905832516
1331.0, 0.011224961472228009
1332.0, 0.01375677006013548
1333.0, 0.0063874198518492934
1334.0, 0.006576954320398432
1335.0, 0.005691221223851636
1336.0, 0.0017738002653086898
1337.0, 0.00605437280290712
1338.0, 0.007206252520932747
1339.0, 0.003161631206352369
1340.0, 0.004209137876846981
1341.0, 0.008319066851943441
1342.0, 0.008192488372414953
1343.0, 0.00800905517949497
1344.0, 0.01069762998107117
1345.0, 0.011112280220658124
1346.0, 0.013210265163468758
1347.0, 0.007336384280703479
1348.0, 0.013685072870484047
1349.0, 0.00806367356316759
1350.0, 0.0074970330710361615
1351.0, 0.005984494928710888
1352.0, 0.005527862731994206
1353.0, 0.005938877886827785
1354.0, 0.006849546818751099
1355.0, 0.0072666895086063036
1356.0, 0.007596965252795327
1357.0, 0.007524542562708834
1358.0, 0.006083139142695836
1359.0, 0.0053417516884179585
1360.0, 0.008448239917858442
1361.0, 0.012046969236465793
1362.0, 0.009105691103288684
1363.0, 0.0111292141460915
1364.0, 0.008296594642448616
1365.0, 0.008281773668993422
1366.0, 0.01589751548343544
1367.0, 0.008316051114884596
1368.0, 0.00634827294063782
1369.0, 0.010266335437486632
1370.0, 0.009453665920591823
1371.0, 0.00824703527866398
1372.0, 0.00804511573986179
1373.0, 0.008056189448461608
1374.0, 0.005353830098659403
1375.0, 0.0025835190967273807
1376.0, 0.002902264768778904
1377.0, 0.003014395263601254
1378.0, 0.004164119831424395
1379.0, 0.008123670348264778
1380.0, 0.007499495076858958
1381.0, 0.008409296752101473
1382.0, 0.014374155971177546
1383.0, 0.01323311094825937
1384.0, 0.006247355794230545
1385.0, 0.001956411995772573
1386.0, 0.005616621132224755
1387.0, 0.006674712265952587
1388.0, 0.007220839551058951
1389.0, 0.009028594978966189
1390.0, 0.009292448455648573
1391.0, 0.006445480403924891
1392.0, 0.005774064290694079
1393.0, 0.0070223759552812065
1394.0, 0.008707269158851524
1395.0, 0.009807476880222656
1396.0, 0.006714560936459555
1397.0, 0.004476764536940215
1398.0, 0.004969879303922181
1399.0, 0.004916887652983694
1400.0, 0.006730334049667405
1401.0, 0.006275485534133225
1402.0, 0.004922432084523388
1403.0, 0.009206754826574853
1404.0, 0.009684306990916677
1405.0, 0.008330716637293071
1406.0, 0.00970752329226852
1407.0, 0.005075313919728064
1408.0, 0.009861944340296766
1409.0, 0.008778535607446335
1410.0, 0.009454010020233015
1411.0, 0.011150519175722585
1412.0, 0.010509487893884962
1413.0, 0.009811033213758173
1414.0, 0.009638422006802745
1415.0, 0.010060564622889252
1416.0, 0.009619316237705348
1417.0, 0.007073160790789018
1418.0, 0.004799711414637907
1419.0, 0.008164439679680226
1420.0, 0.006601387838474729
1421.0, 0.00740764764120231
1422.0, 0.009003005557821847
1423.0, 0.011279256737584592
1424.0, 0.006056174230605086
1425.0, 0.012765371736793341
1426.0, 0.023031627515117316
1427.0, 0.027840327726414704
1428.0, 0.008916478103894555
1429.0, 0.009009222284865179
1430.0, 0.011016103888674437
1431.0, 0.007121646052164914
1432.0, 0.014765649203818398
1433.0, 0.012705355430712962
1434.0, 0.00787226730962591
1435.0, 0.01868966469796696
1436.0, 0.022479261748349598
1437.0, 0.026380328837108735
1438.0, 0.018430738311229516
1439.0, 0.010458153427159632
1440.0, 0.013232982145290487
1441.0, 0.014104564611144187
1442.0, 0.016251654936448246
1443.0, 0.012433038199747877
1444.0, 0.018703619823467417
1445.0, 0.011028207741433985
1446.0, 0.015210943925849912
1447.0, 0.014582929055590999
1448.0, 0.020888654310896967
1449.0, 0.015573892317114285
1450.0, 0.017232531989083665
1451.0, 0.018698576358602684
1452.0, 0.01911165681257749
1453.0, 0.017484152973595315
1454.0, 0.010599226949982046
1455.0, 0.007357626208403209
1456.0, 0.008379255004458644
1457.0, 0.008693529031261906
1458.0, 0.010618166413231442
1459.0, 0.008383626623197528
1460.0, 0.009484875489794676
1461.0, 0.013180887926216805
1462.0, 0.014677348955154594
1463.0, 0.007992923784772812
1464.0, 0.002774040977222682
1465.0, 0.010264217737944087
1466.0, 0.009351074333405271
1467.0, 0.004065333053538347
1468.0, 0.01314522649153621
1469.0, 0.016967673584163005
1470.0, 0.015496384756394475
1471.0, 0.01145342950845157
1472.0, 0.01624182572405186
1473.0, 0.010381721592202162
1474.0, 0.007290993025141304
1475.0, 0.009585862482429222
1476.0, 0.011833281217476963
1477.0, 0.011818417515989594
1478.0, 0.010624768554810683
1479.0, 0.010094431575088518
1480.0, 0.011015835694775489
1481.0, 0.012570311896785367
1482.0, 0.01302224150263373
1483.0, 0.014011786783962941
1484.0, 0.015797357571434776
1485.0, 0.01700230498122537
1486.0, 0.016047290015096954
1487.0, 0.010814316012742109
1488.0, 0.009927638917401078
1489.0, 0.010743177280779384
1490.0, 0.012462579100181436
1491.0, 0.01301787576828353
1492.0, 0.01210508957493416
1493.0, 0.013757415267839062
1494.0, 0.013585111841524194
1495.0, 0.010220902323063451
1496.0, 0.006123610513002458
1497.0, 0.004082258024410271
1498.0, 0.007314852064540046
1499.0, 0.00997892200030127
1500.0, 0.008485634204663918
1501.0, 0.009295961471811118
1502.0, 0.011273525042238873
1503.0, 0.009248451621298639
1504.0, 0.011301435916803885
1505.0, 0.014161070525398573
1506.0, 0.008754138200159299
1507.0, 0.009248876327260402
1508.0, 0.013498386561901332
1509.0, 0.0075128273008243235
1510.0, 0.00545949622415025
1511.0, 0.012042014316835336
1512.0, 0.01394623623641075
1513.0, 0.013619669420859369
1514.0, 0.011355102111072487
1515.0, 0.010069214840066022
1516.0, 0.008664767098507244
1517.0, 0.008364619405653622
1518.0, 0.008396860042714279
1519.0, 0.008829690662347931
1520.0, 0.01006089280360818
1521.0, 0.010993799191457102
1522.0, 0.009694909793146576
1523.0, 0.007914607493289484
1524.0, 0.0072791724869450715
1525.0, 0.007172442172003245
1526.0, 0.0076208477930553385
1527.0, 0.007304938165087646
1528.0, 0.010344873660078
1529.0, 0.010974033293807917
1530.0, 0.012729476278902613
1531.0, 0.01598591040391176
1532.0, 0.011851184033323425
1533.0, 0.008360944067167654
1534.0, 0.009512691778949409
1535.0, 0.007981678103581849
1536.0, 0.010044800019622874
1537.0, 0.011439325534232374
1538.0, 0.015053497842186217
1539.0, 0.012952668324252313
1540.0, 0.010053809686378966
1541.0, 0.01709904452526669
1542.0, 0.012911066683665307
1543.0, 0.019822487012915585
1544.0, 0.009897429314012248
1545.0, 0.01001378850502264
1546.0, 0.014635911964441022
1547.0, 0.00449602522263616
1548.0, 0.01420058292048812
1549.0, 0.024702982573568004
1550.0, 0.028515779646797426
1551.0, 0.005781324737523652
1552.0, 0.010197908573734545
1553.0, 0.009715705495586957
1554.0, 0.005315591949178069
1555.0, 0.016419186583200237
1556.0, 0.008564285121193024
1557.0, 0.010627892877562287
1558.0, 0.01644788439984835
1559.0, 0.019979562576169268
1560.0, 0.018020711917231105
1561.0, 0.012424022785437751
1562.0, 0.01206299582631821
1563.0, 0.015123036894967941
1564.0, 0.014872490138539016
1565.0, 0.011646157888127942
1566.0, 0.011154673716773896
1567.0, 0.009827190814402876
1568.0, 0.00631329400802328
1569.0, 0.006901999460328842
1570.0, 0.004985045376229442
1571, 0.0
1572, 0.0
1573, 0.0
1574, 0.0
1575, 0.0
1576, 0.0
1577, 0.0
1578, 0.0
1579, 0.0
1580, 0.0
1581, 0.0
1582, 0.0
1583, 0.0
1584, 0.0
1585, 0.0
1586, 0.0
1587, 0.0
1588, 0.0
1589, 0.0
1590, 0.0
1591, 0.0
1592, 0.0
1593, 0.0
1594, 0.0
1595, 0.0
1596, 0.0
1597, 0.0
1598, 0.0
1599, 0.0
