30, 0.0
31, 0.0
32, 0.0
33, 0.0
34, 0.0
35, 0.0
36, 0.0
37, 0.0
38, 0.0
39, 0.0
40, 0.0
41, 0.0
42, 0.0
43, 0.0
44, 0.0
45, 0.0
46, 0.0
47, 0.0
48, 0.0
49, 0.0
50, 0.0
51, 0.0
52, 0.0
53, 0.0
54, 0.0
55, 0.0
56, 0.0
57, 0.0
58, 0.0
59, 0.0
60, 0.0
61, 0.0
62, 0.0
63, 0.0
64, 0.0
65, 0.0
66, 0.0
67, 0.0
68, 0.0
69, 0.0
70, 0.0
71, 0.0
72.0, 8.170428797266182e-05
73.0, 0.000404646137666977
74.0, 0.001612125849087888
75.0, 0.004323030312222795
76.0, 0.009043954863219347
77.0, 0.02000871005073166
78.0, 0.02829501577222555
79.0, 0.03551680471699271
80.0, 0.04347216705563283
81.0, 0.04432397400663042
82.0, 0.04684577972985181
83.0, 0.05239998121153996
84.0, 0.05917762705212257
85.0, 0.06753060679173821
86.0, 0.07763027906708246
87.0, 0.09021684881806186
88.0, 0.09746468185390214
89.0, 0.10835345083217278
90.0, 0.12300604346212525
91.0, 0.134344676654852
92.0, 0.14240853249361504
93.0, 0.14988046769958363
94.0, 0.15884108329744484
95.0, 0.16236434032878128
96.0, 0.1613578618187462
97.0, 0.1571832619019956
98.0, 0.15547241137425655
99.0, 0.14998876349165813
100.0, 0.14254639113470785
101.0, 0.13384784032663335
102.0, 0.12299439562603777
103.0, 0.11223149606435993
104.0, 0.10162435753080326
105.0, 0.09114384633623218
106.0, 0.08267395837383301
107.0, 0.07525091876441443
108.0, 0.0686088073560257
109.0, 0.06381213678510407
110.0, 0.05738358488429425
111.0, 0.05084991496965636
112.0, 0.047539657581165205
113.0, 0.04544962561953665
114.0, 0.043191053665724344
115.0, 0.04033662969536774
116.0, 0.036181600249968957
117.0, 0.033730164589248206
118.0, 0.03215534729468666
119.0, 0.030588369960162776
120.0, 0.02656997329317478
121.0, 0.024302625100096648
122.0, 0.02402152500523089
123.0, 0.02231536425708556
124.0, 0.021058338828353857
125.0, 0.019817487007342705
126.0, 0.01823657613366238
127.0, 0.015934146112938675
128.0, 0.01605254503735543
129.0, 0.018100441022158013
130.0, 0.019585229480465653
131.0, 0.018815644953382255
132.0, 0.018311400598469557
133.0, 0.019294560815775314
134.0, 0.019189774581157466
135.0, 0.018995046968198568
136.0, 0.018870240367101474
137.0, 0.019182126999695247
138.0, 0.020437831600962554
139.0, 0.02071790277839551
140.0, 0.019651743140153253
141.0, 0.019663960025544176
142.0, 0.021077420784561384
143.0, 0.02241867720621391
144.0, 0.021955164090376716
145.0, 0.021336301603138205
146.0, 0.020050116405037403
147.0, 0.01850876304290384
148.0, 0.019184013477254343
149.0, 0.019107872289335616
150.0, 0.019003617020042402
151.0, 0.019286189472322295
152.0, 0.020113352986726316
153.0, 0.020326152173343385
154.0, 0.02074089235937642
155.0, 0.023474221232802114
156.0, 0.023064099944563047
157.0, 0.022682037122591276
158.0, 0.023039509407879757
159.0, 0.021793794571416655
160.0, 0.02199649144346002
161.0, 0.02260329106410949
162.0, 0.022531890249071578
163.0, 0.022824700718807003
164.0, 0.023081541208459108
165.0, 0.023282136566983115
166.0, 0.023522291947944418
167.0, 0.023392639170319793
168.0, 0.02348030457558488
169.0, 0.024100969080357523
170.0, 0.02467133811014062
171.0, 0.024143348595381465
172.0, 0.02318076179308147
173.0, 0.022977870170314482
174.0, 0.02214356875119807
175.0, 0.021805337321298884
176.0, 0.022110448346985192
177.0, 0.02227296182271092
178.0, 0.02170237995594654
179.0, 0.020784580938240624
180.0, 0.019755253008823564
181.0, 0.018626804186153444
182.0, 0.018541679898128133
183.0, 0.018807412541709038
184.0, 0.017359111007622503
185.0, 0.01693490040296359
186.0, 0.01688398746937725
187.0, 0.016900674521777174
188.0, 0.015083525518188446
189.0, 0.014498771863300033
190.0, 0.01445270730184813
191.0, 0.014317427344083972
192.0, 0.012417492667160515
193.0, 0.011960643453492681
194.0, 0.012554464308636751
195.0, 0.011820916221536037
196.0, 0.011447749275771748
197.0, 0.010584875331865652
198.0, 0.008973731595599704
199.0, 0.009436200075599067
200.0, 0.009690801249175006
201.0, 0.009025944244552227
202.0, 0.00630287914951657
203.0, 0.006155148991947018
204.0, 0.0062631747453402555
205.0, 0.0062888066830431
206.0, 0.005902281890066451
207.0, 0.0056598344109363465
208.0, 0.005406225262441377
209.0, 0.005070982034927714
210.0, 0.004577840057962865
211.0, 0.003926509195088358
212.0, 0.0032899653484687527
213.0, 0.002910140737629376
214.0, 0.0015613836873997857
215.0, 0.0011715013952928422
216.0, 0.0015312538915600458
217.0, 0.0007890939787467184
218.0, 0.0008821195892700434
219.0, 0.0012450260138273524
220.0, 0.0016123650991326079
221.0, 0.0006384160303159964
222.0, 0.00026244858168346716
223.0, 0.0004580263673019091
224.0, 0.0013079857434764339
225.0, 0.0015463723871164076
226.0, 0.0016194349534662418
227.0, 0.0017507921998241014
228.0, 0.0026224462050916907
229.0, 0.00212869542353044
230.0, 0.002279752270372173
231.0, 0.0036746849402696526
232.0, 0.0030093724458825624
233.0, 0.00293108923703774
234.0, 0.0032937028850076747
235.0, 0.004026239470106519
236.0, 0.0034878724047276415
237.0, 0.0036516034941147576
238.0, 0.004117609221637515
239.0, 0.0033385265206898377
240.0, 0.003958075133831512
241.0, 0.004234379997153196
242.0, 0.003834695180557464
243.0, 0.004422018237024976
244.0, 0.0041632481233509116
245.0, 0.0037612699337887336
246.0, 0.0037308441849038146
247.0, 0.003793318329127962
248.0, 0.003829836469387437
249.0, 0.0038880850214021256
250.0, 0.004075608380528474
251.0, 0.0028541332476208154
252.0, 0.0029505583379884877
253.0, 0.004250419453917547
254.0, 0.0033288457385985135
255.0, 0.002659283607131512
256.0, 0.002680597978833111
257.0, 0.0035913540671793295
258.0, 0.002742032463240107
259.0, 0.0018559420558063027
260.0, 0.0012741997621152274
261.0, 0.0014763240778416314
262.0, 0.0005899814353901457
263.0, 0.0001391171706866002
264.0, 0.00019165269262992783
265.0, 0.000616809249532876
266.0, 0.000803430270897266
267.0, 0.0010772255941418278
268.0, 0.0015399760173251118
269.0, 0.002261849070915334
270.0, 0.003013590418402987
271.0, 0.003802013163963005
272.0, 0.004635511750562113
273.0, 0.004291695648664455
274.0, 0.004895340080069567
275.0, 0.005622675621137731
276.0, 0.005154817534000115
277.0, 0.007331398633774365
278.0, 0.008049622293669862
279.0, 0.007588748918736687
280.0, 0.008710798429667009
281.0, 0.0091786806185891
282.0, 0.009662510349982277
283.0, 0.010373483619341905
284.0, 0.011226458995503676
285.0, 0.011994684874626252
286.0, 0.012488807965149798
287.0, 0.012543774871796826
288.0, 0.014111866504295115
289.0, 0.014886173499898436
290.0, 0.01555042281329251
291.0, 0.01723091996839911
292.0, 0.01811337137308447
293.0, 0.019088354015499708
294.0, 0.020020876126704282
295.0, 0.02006498001074803
296.0, 0.020568082908952793
297.0, 0.02163307466007435
298.0, 0.023112358837351618
299.0, 0.023321031981304537
300.0, 0.025363460631540824
301.0, 0.02708921449298276
302.0, 0.02718324595897111
303.0, 0.02873297952589331
304.0, 0.031691952163333086
305.0, 0.034364687793793994
306.0, 0.034507420140206455
307.0, 0.03625025489112194
308.0, 0.038556016386558464
309.0, 0.041044082048655686
310.0, 0.0429739621147085
311.0, 0.04517270834326312
312.0, 0.04830828961347042
313.0, 0.05237761123463513
314.0, 0.05656195708503131
315.0, 0.0604297498753152
316.0, 0.06436025845116126
317.0, 0.06847973348432931
318.0, 0.0721770883586239
319.0, 0.07636497221017512
320.0, 0.08064595979057906
321.0, 0.08470451872955868
322.0, 0.08880526294027864
323.0, 0.09282415166624976
324.0, 0.09677860226697386
325.0, 0.10069116914807263
326.0, 0.10418751144736624
327.0, 0.10612007473316024
328.0, 0.10718055243171792
329.0, 0.10960299107072749
330.0, 0.10927094011423166
331.0, 0.108697402230762
332.0, 0.10820573475658536
333.0, 0.1064059597465057
334.0, 0.10474863201280447
335.0, 0.10375087182331372
336.0, 0.1033768919111843
337.0, 0.0997409074619867
338.0, 0.09635983566187344
339.0, 0.09411661132113022
340.0, 0.09375114910440369
341.0, 0.0929659933380126
342.0, 0.09287594657578604
343.0, 0.09359653521886908
344.0, 0.09535905807313536
345.0, 0.09456598845044986
346.0, 0.09638089813282098
347.0, 0.0999469244015204
348.0, 0.10275743813087523
349.0, 0.1078286320333573
350.0, 0.11115347566770166
351.0, 0.11324809621108503
352.0, 0.11846564512934724
353.0, 0.11893979818124009
354.0, 0.1194935711560387
355.0, 0.12104498839938788
356.0, 0.12021819341751232
357.0, 0.11611277452134976
358.0, 0.11196906057453121
359.0, 0.10899883823324323
360.0, 0.10182118379687098
361.0, 0.0968364308164223
362.0, 0.09215209736067431
363.0, 0.08635890357775575
364.0, 0.08168259875836066
365.0, 0.07780574437874035
366.0, 0.07436363191893876
367.0, 0.07094444505666347
368.0, 0.06786279544405072
369.0, 0.06437948682017544
370.0, 0.06150899050838543
371.0, 0.0612790900788944
372.0, 0.057970936713781646
373.0, 0.05537029890776144
374.0, 0.053895405944525805
375.0, 0.053520201156401506
376.0, 0.05187892820435052
377.0, 0.050592033153182794
378.0, 0.04978394724017971
379.0, 0.048539185763842654
380.0, 0.04872317427533504
381.0, 0.04902752293329608
382.0, 0.04892408141230438
383.0, 0.04761501782808606
384.0, 0.04841643718542626
385.0, 0.04853630337306744
386.0, 0.04691180122541828
387.0, 0.04703666144429935
388.0, 0.04760534463189272
389.0, 0.04749440173375079
390.0, 0.045993360335146755
391.0, 0.04575073672631095
392.0, 0.04501775023480794
393.0, 0.04436334270577033
394.0, 0.04432364729427961
395.0, 0.0419898671898391
396.0, 0.04197941757707877
397.0, 0.042624071815055564
398.0, 0.04170851453149756
399.0, 0.04026694853578587
400.0, 0.03992043681020174
401.0, 0.03994218335667535
402.0, 0.038935532639488166
403.0, 0.04007393289587261
404.0, 0.040183453710306405
405.0, 0.039486788661675994
406.0, 0.03918265225842448
407.0, 0.04006225545574073
408.0, 0.0404842005541612
409.0, 0.04042118104767609
410.0, 0.04054113142787145
411.0, 0.04129353816254486
412.0, 0.04113321077874069
413.0, 0.04044175235342133
414.0, 0.04212028963248337
415.0, 0.040890210592570794
416.0, 0.04047335586384261
417.0, 0.04119855156904517
418.0, 0.039113702740096755
419.0, 0.038461133024692916
420.0, 0.03849982888046247
421.0, 0.03868896759927929
422.0, 0.03694964924048987
423.0, 0.03524931062984773
424.0, 0.03343072482855832
425.0, 0.03149177335599158
426.0, 0.030159523706740455
427.0, 0.02867195279705617
428.0, 0.02755997886251409
429.0, 0.027052242870246428
430.0, 0.02601489590775445
431.0, 0.024440722757068507
432.0, 0.02279568822779978
433.0, 0.021416834973562893
434.0, 0.021062755518867972
435.0, 0.020614217856769052
436.0, 0.020048737769912332
437.0, 0.01934304162476594
438.0, 0.01843578082112809
439.0, 0.018251634802048965
440.0, 0.01806216490570038
441.0, 0.017216408605927568
442.0, 0.016307336541652815
443.0, 0.015883042651152958
444.0, 0.015578725713100268
445.0, 0.015020973790588324
446.0, 0.015467721438361072
447.0, 0.015023486544406257
448.0, 0.014167129473936084
449.0, 0.013467754227528881
450.0, 0.013431610858002945
451.0, 0.012697993952180584
452.0, 0.012046264048551077
453.0, 0.012521143396359437
454.0, 0.012292918504720194
455.0, 0.011778945498525959
456.0, 0.011162215240496529
457.0, 0.01066963074233029
458.0, 0.010763671860007625
459.0, 0.010956936289538815
460.0, 0.010827514322079089
461.0, 0.009768917859212007
462.0, 0.009905997391202133
463.0, 0.009532829675475253
464.0, 0.008959514814842862
465.0, 0.0088210399430077
466.0, 0.00894372862059705
467.0, 0.008760406020812248
468.0, 0.00837125743257796
469.0, 0.007992220911647778
470.0, 0.007652530762249286
471.0, 0.007251519738041537
472.0, 0.006942536631823845
473.0, 0.00699808001363235
474.0, 0.007740707127362905
475.0, 0.007687457256505507
476.0, 0.0073127689403618855
477.0, 0.007583547118880981
478.0, 0.006984524190566223
479.0, 0.006802943571285111
480.0, 0.0068575140659314455
481.0, 0.006695205385189593
482.0, 0.006268949566161527
483.0, 0.005690039641166146
484.0, 0.005455391488590738
485.0, 0.0063788815755192844
486.0, 0.006621630193775812
487.0, 0.006218060601456825
488.0, 0.005696594451448308
489.0, 0.005877679657408629
490.0, 0.005763997434847799
491.0, 0.005523528604571865
492.0, 0.005184413600969868
493.0, 0.0047701461412057306
494.0, 0.004760950541103135
495.0, 0.00535152096237656
496.0, 0.005710100295461277
497.0, 0.004655486503392177
498.0, 0.004707551533117339
499.0, 0.004690244266705739
500.0, 0.004244132846693947
501.0, 0.002963103125314304
502.0, 0.0034483491868455684
503.0, 0.003981541946195232
504.0, 0.004187730744810272
505.0, 0.0036840972540089396
506.0, 0.004068526922770737
507.0, 0.0036857635870630417
508.0, 0.0033156003706628382
509.0, 0.0037974239703498966
510.0, 0.0039378120917280155
511.0, 0.003459946102851548
512.0, 0.003023079096218651
513.0, 0.003232746750852293
514.0, 0.003353580231364131
515.0, 0.0030035511821780163
516.0, 0.002774542592469222
517.0, 0.0031104226725194996
518.0, 0.0029453560150503057
519.0, 0.002138417200554584
520.0, 0.002003130961473712
521.0, 0.003228227518349661
522.0, 0.0019916271606124376
523.0, 0.00195419568627984
524.0, 0.0023298344701724125
525.0, 0.0025925256503714885
526.0, 0.0020622874161158166
527.0, 0.0016868741227120164
528.0, 0.0016090236721991256
529.0, 0.0018424982588477969
530.0, 0.0019150379666110916
531.0, 0.0015712000483171114
532.0, 0.001275714948419651
533.0, 0.0011818907483797732
534.0, 0.0010867722597206154
535.0, 0.0008829992731345296
536.0, 0.0009724496978430016
537.0, 0.0013177641099873063
538.0, 0.001173504708480272
539.0, 0.0010034569094287884
540.0, 0.000714114831407795
541.0, 0.0004552443643163664
542.0, 0.0008115128224433
543.0, 0.0008206382243786276
544.0, 0.0008862376482722354
545.0, 0.0009877544607290079
546.0, 0.000875897086744851
547.0, 0.0007407005557799211
548.0, 0.00047639086783256046
549.0, 0.00019137147357059205
550.0, 0.0001255765144842682
551.0, 0.00045446168137179126
552.0, 0.0007540039103279565
553.0, 0.0008791742157278961
554.0, 0.0006652084663470065
555.0, 0.00046645333375963687
556.0, 0.0005081180221173605
557.0, 0.0005288610713956104
558.0, 0.00022866493624938353
559.0, 0.00034463535068561345
560.0, 0.00066384120057368
561.0, 0.00098650565638501
562.0, 0.0011345238765303031
563.0, 0.0009694301029186742
564.0, 0.0012240229940504023
565.0, 0.0012505023715433342
566.0, 0.0007651828498473779
567.0, 0.0010036735742705533
568.0, 0.0007533209222814816
569.0, 0.0006834315535522044
570.0, 0.001019513371759983
571.0, 0.0013040444643344657
572.0, 0.0007945796240023811
573.0, 0.0006065420585948825
574.0, 0.000791011043216898
575.0, 0.00019717851204845648
576.0, 0.0009134262189499649
577.0, 0.0008408394408875243
578.0, 0.00014986398006375576
579.0, 0.00039128230108734685
580.0, 0.00024764312821423537
581.0, 0.0003607438380542056
582.0, 0.0005568772516812259
583.0, 0.0003961504614087548
584.0, 0.0008454700332404257
585.0, 0.0009583153947950292
586.0, 0.0010383919270943371
587.0, 0.0015055503384098622
588.0, 0.0012131683130272848
589.0, 0.0007370222011013061
590.0, 0.0005688880411424857
591.0, 0.0010312510263928657
592.0, 0.0008306793057331008
593.0, 0.0012820459387692892
594.0, 0.001546128522242749
595.0, 0.001233334212637732
596.0, 0.000841586735591342
597.0, 0.0007469635376278488
598.0, 0.00047228793648887153
599.0, 0.00010472854545474144
600.0, 0.0006700665380459006
601.0, 0.0006643241499382834
602.0, 0.0007528156536585219
603.0, 0.0008132824416901882
604.0, 0.00020121053170994225
605.0, 0.00010763397939063637
606.0, 0.0002205954768496973
607.0, 0.0003870975277820393
608.0, 0.00042502288688939303
609.0, 0.0005352209646516444
610.0, 0.0004792724375342781
611.0, 0.00038056402281667684
612.0, 0.0003700215705084055
613.0, 0.0004923436021477682
614.0, 0.0002822677000940561
615.0, 0.00036223561598753055
616.0, 0.0009091695905775788
617.0, 0.0002620764306851807
618.0, 0.0005129065030185966
619.0, 0.0009315728107325786
620.0, 0.0010730042978717347
621.0, 0.00022776910573775748
622.0, 0.0012116240081290574
623.0, 0.0011190552322040796
624.0, 0.00028532901317923154
625.0, 0.0008302606749813345
626.0, 0.00030403611931271605
627.0, 7.519160234556834e-05
628.0, 0.00026866898832045527
629.0, 0.0008742102584714205
630.0, 0.0010691758080962697
631.0, 0.0016218631762477621
632.0, 0.001528952487304973
633.0, 0.00020216182808570986
634.0, 0.0004409888485536653
635.0, 0.0013176610893129658
636.0, 0.0014665106742807442
637.0, 0.0007264861765005941
638.0, 0.0015350339860632938
639.0, 0.0013297172221892
640.0, 0.0010298427600802906
641.0, 0.0007553600038130723
642.0, 0.0002176240503722305
643.0, 0.0012454468640022546
644.0, 0.0013253935397869838
645.0, 0.001127040227226902
646.0, 0.0020058678116060776
647.0, 0.0017875785841107933
648.0, 0.0018015834423635094
649.0, 0.0017262592419203151
650.0, 0.0013711537782139945
651.0, 0.0018253131925262684
652.0, 0.0013388379631866436
653.0, 0.0014778232278977485
654.0, 0.0025560874113735614
655.0, 0.0027851149126728826
656.0, 0.0018961003050863622
657.0, 0.0019804825934549757
658.0, 0.0027711763508907416
659.0, 0.002593151533370642
660.0, 0.00348839599825837
661.0, 0.0030003088292978927
662.0, 0.00238634056797691
663.0, 0.0033561921985555882
664.0, 0.0038276938414141645
665.0, 0.003520757780771235
666.0, 0.0032830866131606344
667.0, 0.0035238760486011006
668.0, 0.0030919925949028457
669.0, 0.0036792922744981497
670.0, 0.004289096070415888
671.0, 0.004581575762200084
672.0, 0.0045241079134068045
673.0, 0.005347791514756639
674.0, 0.005784708824240739
675.0, 0.005829355685488053
676.0, 0.005754897735543141
677.0, 0.006548084783445877
678.0, 0.006212279503413982
679.0, 0.006201613820034707
680.0, 0.007501323381370512
681.0, 0.007754741231421922
682.0, 0.007708413510318581
683.0, 0.008096920047075656
684.0, 0.008862063348598133
685.0, 0.008699676975365864
686.0, 0.010260153673829884
687.0, 0.01085943039566152
688.0, 0.010653517216452805
689.0, 0.010703750546415028
690.0, 0.012309676290196197
691.0, 0.012588706007188206
692.0, 0.01290983598624864
693.0, 0.014337582655668948
694.0, 0.014562393711971598
695.0, 0.014434872462251828
696.0, 0.015434910941628747
697.0, 0.017358948590401185
698.0, 0.01719891317215541
699.0, 0.0179958805423472
700.0, 0.019225916083266084
701.0, 0.02011073453106728
702.0, 0.01953962448279286
703.0, 0.0211615305804123
704.0, 0.023001607295841556
705.0, 0.023928608412231517
706.0, 0.02361922758094991
707.0, 0.027067369135806884
708.0, 0.028365460817836207
709.0, 0.029603243446796115
710.0, 0.031204356417311018
711.0, 0.03211160241477017
712.0, 0.035399101482868275
713.0, 0.03619340646771076
714.0, 0.036564292845913955
715.0, 0.04014329121929244
716.0, 0.04275809030906328
717.0, 0.044330709525081134
718.0, 0.045636728776419236
719.0, 0.04729927935937617
720.0, 0.0499715687134576
721.0, 0.052413160592635254
722.0, 0.054391724250906846
723.0, 0.05612134835106913
724.0, 0.05823599353537768
725.0, 0.06086230582792567
726.0, 0.0622862120843598
727.0, 0.06332286001137322
728.0, 0.06493877550024212
729.0, 0.06720238031057495
730.0, 0.06723027708349169
731.0, 0.06765925708912512
732.0, 0.06939680389054423
733.0, 0.07141178469787529
734.0, 0.07432579291622242
735.0, 0.07666702030984258
736.0, 0.07841640648783561
737.0, 0.07991298957499761
738.0, 0.08097430999584838
739.0, 0.08304510747707819
740.0, 0.08599461515378475
741.0, 0.0892559297821493
742.0, 0.09011449193150235
743.0, 0.09107689476300737
744.0, 0.09396837152923423
745.0, 0.09819214798160036
746.0, 0.10152709672204334
747.0, 0.10217448300484375
748.0, 0.10637488558932637
749.0, 0.1116954736944254
750.0, 0.11579462759271039
751.0, 0.11975650634447996
752.0, 0.12398961676534154
753.0, 0.12783785955384735
754.0, 0.13201347567147115
755.0, 0.13908614717034856
756.0, 0.14164877722860333
757.0, 0.1481644052792032
758.0, 0.15584803152740032
759.0, 0.16095627064663257
760.0, 0.1666605134733745
761.0, 0.1741139159080781
762.0, 0.18167932584913898
763.0, 0.18927377402554432
764.0, 0.1991046893344974
765.0, 0.2064547224988765
766.0, 0.2127170851257995
767.0, 0.21982022278437227
768.0, 0.22979174643029787
769.0, 0.2393282315456489
770.0, 0.24807597759296435
771.0, 0.25793973268927106
772.0, 0.2687183571100028
773.0, 0.275822411642475
774.0, 0.28884370109762597
775.0, 0.30057950376143094
776.0, 0.31196832133652963
777.0, 0.32575990717397446
778.0, 0.3380565784421446
779.0, 0.3514804947770181
780.0, 0.3631305267242093
781.0, 0.37333223222787987
782.0, 0.3900697303759109
783.0, 0.4041347535621985
784.0, 0.4194385533762558
785.0, 0.4333761039181385
786.0, 0.4417209384372321
787.0, 0.45832299758410855
788.0, 0.4759340684386543
789.0, 0.48651677924226727
790.0, 0.49140049262196167
791.0, 0.5138139993521522
792.0, 0.5240204505614454
793.0, 0.5347121901340577
794.0, 0.5465158532241738
795.0, 0.557431926779467
796.0, 0.5667098033210435
797.0, 0.5787127794867047
798.0, 0.5843055560523669
799.0, 0.5849155510959021
800.0, 0.6030834984850595
801.0, 0.6146969696908993
802.0, 0.6203891985776359
803.0, 0.6290785070564123
804.0, 0.6502179973580784
805.0, 0.6590572015937899
806.0, 0.6654451584705537
807.0, 0.6830774422240516
808.0, 0.7061705240651976
809.0, 0.6978449464552349
810.0, 0.7178468616315429
811.0, 0.7378620937869209
812.0, 0.7576566093777314
813.0, 0.780096709225542
814.0, 0.805817682761892
815.0, 0.820771665825604
816.0, 0.8394001623737444
817.0, 0.8661899418453064
818.0, 0.8991212053412811
819.0, 0.9150741931588819
820.0, 0.9357075245993691
821.0, 0.9499467425003545
822.0, 0.9520190943749188
823.0, 0.9742376266543245
824.0, 0.9849132972936787
825.0, 0.9935076626143269
826.0, 0.9988804506787273
827.0, 0.9947030278381582
828.0, 0.9877926269934635
829.0, 0.9779021518730396
830.0, 0.9623657563276399
831.0, 0.9401646266462247
832.0, 0.9133936817706215
833.0, 0.8936172712240807
834.0, 0.8605258458098143
835.0, 0.8212533261479055
836.0, 0.7897024779859733
837.0, 0.7649146103966611
838.0, 0.7235851325123122
839.0, 0.6854267479234499
840.0, 0.6554493485935783
841.0, 0.6232885487297991
842.0, 0.5947059822255105
843.0, 0.5585085570410809
844.0, 0.5238916328929021
845.0, 0.4990358008520875
846.0, 0.4774741617663649
847.0, 0.4434809610350639
848.0, 0.417105845194961
849.0, 0.3961605616541921
850.0, 0.36741007842243684
851.0, 0.3432516232305643
852.0, 0.3292100048473075
853.0, 0.31117826340202737
854.0, 0.2859656699686655
855.0, 0.2727478862876299
856.0, 0.2570057900741576
857.0, 0.24099228248253893
858.0, 0.22720724702781406
859.0, 0.21728198769767845
860.0, 0.20390530090015074
861.0, 0.19203412276205983
862.0, 0.18205018522263375
863.0, 0.17355660701746348
864.0, 0.1654513028642124
865.0, 0.1567035994867205
866.0, 0.14979548114900687
867.0, 0.14248210349630172
868.0, 0.13464690179696123
869.0, 0.13206471399550082
870.0, 0.12590629422474392
871.0, 0.11907770899005231
872.0, 0.1128153194253099
873.0, 0.10811815096962422
874.0, 0.10632136751233436
875.0, 0.10287111704981312
876.0, 0.0999660432110181
877.0, 0.0974197051936592
878.0, 0.09342563657647204
879.0, 0.08993787775654971
880.0, 0.08623489078201432
881.0, 0.08295852869722137
882.0, 0.080335016841607
883.0, 0.07773152508984546
884.0, 0.07557394074453334
885.0, 0.07343071816295658
886.0, 0.07108584814346203
887.0, 0.06852392118402935
888.0, 0.06700678267780687
889.0, 0.06610268140751013
890.0, 0.06423810929719727
891.0, 0.062090916648946365
892.0, 0.061477622148915695
893.0, 0.06101792964591305
894.0, 0.05808504318651494
895.0, 0.05609696393873143
896.0, 0.0556555953721028
897.0, 0.05356625426960987
898.0, 0.05309084677232885
899.0, 0.05305284200440617
900.0, 0.052258755554304766
901.0, 0.050353184194219164
902.0, 0.05009362187691668
903.0, 0.047377121996683265
904.0, 0.04642810720771976
905.0, 0.04664730469303445
906.0, 0.046118056542319125
907.0, 0.04256033918464168
908.0, 0.044436322374937394
909.0, 0.043884522196021354
910.0, 0.04095288313020015
911.0, 0.0407001412675823
912.0, 0.03933157388794776
913.0, 0.03985042706655218
914.0, 0.0401663011280301
915.0, 0.039221964266081204
916.0, 0.037310033410301785
917.0, 0.03582138242365336
918.0, 0.034944014046016623
919.0, 0.03416512105587503
920.0, 0.03342498068942136
921.0, 0.03462268362517884
922.0, 0.03323629352408506
923.0, 0.03163700116993528
924.0, 0.030538810599628607
925.0, 0.030059034242327847
926.0, 0.027996120738827665
927.0, 0.027594526107436644
928.0, 0.02766093041942039
929.0, 0.0272090257696924
930.0, 0.025328904260191087
931.0, 0.024377909262841394
932.0, 0.024363508860187278
933.0, 0.02336627005796937
934.0, 0.021953785388708732
935.0, 0.023253608642929757
936.0, 0.020240657306839972
937.0, 0.01927824008307235
938.0, 0.019285238220125307
939.0, 0.01904137591688986
940.0, 0.01716961912619887
941.0, 0.017390974393444593
942.0, 0.017331642703717533
943.0, 0.016309234933137733
944.0, 0.014635831640697945
945.0, 0.015600367320179453
946.0, 0.014409139024807133
947.0, 0.013858938060762969
948.0, 0.0133200656631421
949.0, 0.01197222573535117
950.0, 0.012238307229282258
951.0, 0.011384054269157123
952.0, 0.011206155830570929
953.0, 0.011276142076760132
954.0, 0.010530603099897182
955.0, 0.010394034761582887
956.0, 0.009885681125272635
957.0, 0.008905294949382525
958.0, 0.0077427302582642995
959.0, 0.0069730506751704315
960.0, 0.007807020370498883
961.0, 0.006915056690820628
962.0, 0.006750248977788642
963.0, 0.007225967916919901
964.0, 0.005888345035161158
965.0, 0.004848083836864543
966.0, 0.005348588517025615
967.0, 0.0058268002786975494
968.0, 0.005476860838930404
969.0, 0.004506699047089104
970.0, 0.003827829430484418
971.0, 0.003318760869873531
972.0, 0.0029535254540687997
973.0, 0.0027663533157617857
974.0, 0.0029365647844647397
975.0, 0.002713697652891733
976.0, 0.0024821978173918038
977.0, 0.0023395805781935065
978.0, 0.0021266000973360756
979.0, 0.0009681721923720183
980.0, 0.0018500535190884954
981.0, 0.0016670527158135482
982.0, 0.0014394503592840137
983.0, 0.001903690745239975
984.0, 0.000445885037810777
985.0, 0.00020776565926987727
986.0, 0.0001425326338456543
987.0, 0.00017861006164075405
988.0, 0.0003178437906188269
989.0, 3.912380789969193e-05
990.0, 0.0001422848828996907
991.0, 0.00030555686513324007
992.0, 0.0006679299364082958
993.0, 0.0012298793916001715
994.0, 0.0003779608696994152
995.0, 0.00047731510590058964
996.0, 0.00043172370336485644
997.0, 0.0005701579714856373
998.0, 0.001364844355850418
999.0, 0.0009744535131892019
1000.0, 0.0017431859235539934
1001.0, 0.0015776072867153149
1002.0, 0.0007724620157818269
1003.0, 0.0004059476224259733
1004.0, 0.0006033542894906191
1005.0, 0.0010209189381192015
1006.0, 0.0008544341693694563
1007.0, 0.000507068975820114
1008.0, 0.000816694289003113
1009.0, 0.0018263740142420292
1010.0, 0.0014608244488714364
1011.0, 0.001486426994797809
1012.0, 0.0015037298546744617
1013.0, 0.0005082939904320164
1014.0, 0.001552989512804597
1015.0, 0.0011770932837339943
1016.0, 0.0008161174495641636
1017.0, 0.00119996266969958
1018.0, 0.002458892442356445
1019.0, 0.0011323820968796791
1020.0, 0.0006767811404273086
1021.0, 0.0007192942415653827
1022.0, 0.0007107783503193146
1023.0, 0.000181408148245368
1024.0, 0.0009293668313813151
1025.0, 0.000949816671000972
1026.0, 0.0010501805168966164
1027.0, 0.001438112936919715
1028.0, 0.001894918786119555
1029.0, 0.0003931594985742957
1030.0, 0.0003162812468625333
1031.0, 0.0002652839814356132
1032.0, 0.00015614413557943222
1033.0, 0.0003566256872184232
1034.0, 0.0005861291215362004
1035.0, 0.0008418876412264974
1036.0, 0.0010663257505844016
1037.0, 0.0011583928106381207
1038.0, 0.001052362408364948
1039.0, 0.001058400465188218
1040.0, 0.0008054202605654137
1041.0, 0.0006617877704317484
1042.0, 0.00063607937442188
1043.0, 0.0006099040724229403
1044.0, 0.0004000855391047011
1045.0, 0.0003109179437735097
1046.0, 0.00016619173518544298
1047.0, 0.000389122682331683
1048.0, 0.0011743512651332694
1049.0, 0.0008005588320415123
1050.0, 0.00048233110924673743
1051.0, 0.0009266165619539042
1052.0, 0.0012568864835208675
1053.0, 0.0008354582747214078
1054.0, 0.0012825229233919158
1055.0, 0.0010657945831291905
1056.0, 0.0005245418788264725
1057.0, 0.0005772371861770501
1058.0, 0.0014254529475622227
1059.0, 0.0009256360188197903
1060.0, 0.0008177160174912761
1061.0, 0.0009363066945929135
1062.0, 0.0011063724446354116
1063.0, 0.0011780460725928483
1064.0, 0.0010573253446586753
1065.0, 0.0015339958561652533
1066.0, 0.0014351043068040175
1067.0, 0.0013026199710109356
1068.0, 0.0014966490123821167
1069.0, 0.0019136835834345832
1070.0, 0.0013592551952377877
1071.0, 0.001092919074625874
1072.0, 0.0009638771465844815
1073.0, 0.0010204309915661299
1074.0, 0.0015640749440282886
1075.0, 0.002123824533422486
1076.0, 0.0012407024318398228
1077.0, 0.0010635205475954276
1078.0, 0.0016810833121242868
1079.0, 0.0016580381161937726
1080.0, 0.000998805276811097
1081.0, 0.0009870038899750272
1082.0, 0.0013662104367106265
1083.0, 0.0018850339428008278
1084.0, 0.002274457756116546
1085.0, 0.0021688270044734072
1086.0, 0.0022945125079007907
1087.0, 0.002342543650737431
1088.0, 0.002214760276506607
1089.0, 0.001975097983554821
1090.0, 0.0021385868046248186
1091.0, 0.0018114476395882804
1092.0, 0.0010414946427703866
1093.0, 0.000893471210979225
1094.0, 0.0017455855331671769
1095.0, 0.0015277152556467041
1096.0, 0.000896978961648781
1097.0, 0.0017266975716452376
1098.0, 0.002317174672059423
1099.0, 0.0018165106466277487
1100.0, 0.001328202599821795
1101.0, 0.0019098319418534805
1102.0, 0.0015298505620772475
1103.0, 0.0015361532351782698
1104.0, 0.0019581577488404804
1105.0, 0.0015297034649955907
1106.0, 0.0015659706321094415
1107.0, 0.0018554872219705102
1108.0, 0.0015249924044870768
1109.0, 0.001094077447467079
1110.0, 0.001536380533351457
1111.0, 0.0009989685018199663
1112.0, 0.0006763651560712086
1113.0, 0.0012078175289605797
1114.0, 0.001644335546810618
1115.0, 0.0011401981587268852
1116.0, 0.0011417238590086247
1117.0, 0.0015745524873112754
1118.0, 0.001491283372948777
1119.0, 0.001628589209517107
1120.0, 0.0020754385542009193
1121.0, 0.0011595475491087183
1122.0, 0.001722281785970125
1123.0, 0.002438531784358941
1124.0, 0.0030740061208677544
1125.0, 0.0034337755297787066
1126.0, 0.003328146425440388
1127.0, 0.002347536879062694
1128.0, 0.0021006250081758767
1129.0, 0.0021235671189140178
1130.0, 0.00210528933378879
1131.0, 0.0018593659298202214
1132.0, 0.001468760363184718
1133.0, 0.0023495457897089143
1134.0, 0.0024776155656102737
1135.0, 0.002138254203955686
1136.0, 0.002052608157647393
1137.0, 0.002533584242671026
1138.0, 0.0015663146449119677
1139.0, 0.001655575234630768
1140.0, 0.0018434188294780226
1141.0, 0.0018576148294030394
1142.0, 0.0027251228958394802
1143.0, 0.00204534347908304
1144.0, 0.0020414935659092883
1145.0, 0.001950270838351096
1146.0, 0.0017443365469673338
1147.0, 0.001863071187115625
1148.0, 0.0026451815884831614
1149.0, 0.002255175217123613
1150.0, 0.0023954844305243655
1151.0, 0.002744408166513339
1152.0, 0.0027617228416077044
1153.0, 0.0029363414095645917
1154.0, 0.002753867083116024
1155.0, 0.0023497335991483053
1156.0, 0.0020514737274198243
1157.0, 0.001985960220944485
1158.0, 0.0019921650391566716
1159.0, 0.0018983115056334168
1160.0, 0.0019621637511387066
1161.0, 0.0021598549631977326
1162.0, 0.0024152059991335664
1163.0, 0.0026458590816614324
1164.0, 0.002913860201326266
1165.0, 0.0025257880855753495
1166.0, 0.0025237924335812594
1167.0, 0.002708091936145003
1168.0, 0.002609353858324259
1169.0, 0.0017646079934275746
1170.0, 0.0022447962767768283
1171.0, 0.002555583108872291
1172.0, 0.0023525754655162327
1173.0, 0.0020229517873955995
1174.0, 0.0024387257597423937
1175.0, 0.0029477089171289733
1176.0, 0.003097364241059167
1177.0, 0.00287085543276268
1178.0, 0.0028438531402397377
1179.0, 0.003248600612933994
1180.0, 0.002409467014814282
1181.0, 0.0022879528139914543
1182.0, 0.003097134833691599
1183.0, 0.0032150277644319787
1184.0, 0.0025009157879231376
1185.0, 0.002797073984439006
1186.0, 0.0029917119285241783
1187.0, 0.0020580385217276644
1188.0, 0.0024894072943191206
1189.0, 0.003398704026448667
1190.0, 0.0031064522210187554
1191.0, 0.0037622590306838326
1192.0, 0.0026958373007221416
1193.0, 0.0024265193716856773
1194.0, 0.002852667631913924
1195.0, 0.0032919160991733416
1196.0, 0.002858296351166438
1197.0, 0.0024640793504870553
1198.0, 0.0026957953299657014
1199.0, 0.002455585278327957
1200.0, 0.0022989080831355858
1201.0, 0.003138393938745256
1202.0, 0.0030643497579625
1203.0, 0.002829326453358559
1204.0, 0.003283094028782387
1205.0, 0.0037773988442317405
1206.0, 0.003807157370585394
1207.0, 0.0035108558535730115
1208.0, 0.003741384390527206
1209.0, 0.0034677145041986128
1210.0, 0.003371151004062465
1211.0, 0.0034543381109746777
1212.0, 0.0034559514521922286
1213.0, 0.0036952465988605806
1214.0, 0.003579197521875004
1215.0, 0.0036584977427394395
1216.0, 0.003540920405717571
1217.0, 0.003419538642969562
1218.0, 0.004333393492453204
1219.0, 0.002905512171174322
1220.0, 0.0027594462172141733
1221.0, 0.0036843212723388103
1222.0, 0.003955020222468033
1223.0, 0.00260267063801531
1224.0, 0.003994370253541617
1225.0, 0.0038358648782949836
1226.0, 0.003468634517293637
1227.0, 0.0036633730701642934
1228.0, 0.004215345698910431
1229.0, 0.003997418143889661
1230.0, 0.00306893729775206
1231.0, 0.0036776328645452563
1232.0, 0.0036456324418096616
1233.0, 0.0035420300299818905
1234.0, 0.003965224125696595
1235.0, 0.0031735374039783657
1236.0, 0.00306333151554969
1237.0, 0.003615393447283436
1238.0, 0.00391734448916494
1239.0, 0.0036017208722989437
1240.0, 0.0030053892816992566
1241.0, 0.0039652984820053045
1242.0, 0.0038505954872826067
1243.0, 0.00304310534358414
1244.0, 0.0027303659910472722
1245.0, 0.003234119538649486
1246.0, 0.003245874434514443
1247.0, 0.0033749941921470982
1248.0, 0.0035223383832701555
1249.0, 0.003409769892245229
1250.0, 0.003276822896731439
1251.0, 0.0032981405838136794
1252.0, 0.0025555395621975827
1253.0, 0.0021001577907041407
1254.0, 0.001794212067383474
1255.0, 0.001825681786769791
1256.0, 0.00221533773688055
1257.0, 0.00274597401385969
1258.0, 0.0026974156804384993
1259.0, 0.002884547620797069
1260.0, 0.002829274807368154
1261.0, 0.0027353774527582434
1262.0, 0.0027575544041015415
1263.0, 0.0026852730728230863
1264.0, 0.0020257377138407453
1265.0, 0.0016236765413342805
1266.0, 0.0015183818435378852
1267.0, 0.001401896069615443
1268.0, 0.0011394124732362308
1269.0, 0.0016498815376367844
1270.0, 0.0014690648465521359
1271.0, 0.00211963062200904
1272.0, 0.0020879843409468447
1273.0, 0.0014474173221880491
1274.0, 0.0013583634137491613
1275.0, 0.00040676104852319876
1276.0, 0.00022040838628093577
1277.0, 0.00019752615519219726
1278.0, 0.00013696832166193857
1279.0, 0.00016367866200430245
1280.0, 0.0006652888643857676
1281.0, 0.0009400041244335581
1282.0, 0.0013784439257503208
1283.0, 0.001788252670174414
1284.0, 0.0016625252913713873
1285.0, 0.0009958144402784862
1286.0, 0.0009730540813027741
1287.0, 0.0014593600229642434
1288.0, 0.0005820636312176605
1289.0, 0.0009762130595204524
1290.0, 0.0015162138460356747
1291.0, 0.00043312322383125284
1292.0, 0.0005925612694335587
1293.0, 0.0008955992306981566
1294.0, 0.0007414081865537003
1295.0, 0.0007691052479614393
1296.0, 0.0011658798187849742
1297.0, 0.0015824380588651736
1298.0, 0.0011162164802115298
1299.0, 0.0010361937928180477
1300.0, 0.0005937905497738623
1301.0, 0.00020851074294010884
1302.0, 8.788653367458009e-05
1303.0, 4.6729153759314965e-05
1304.0, 0.00020384373366311593
1305.0, 8.855787545369466e-05
1306.0, 3.643352680122977e-05
1307.0, 0.00017688458709000458
1308.0, 0.0005458298342455773
1309.0, 0.0010497709676026783
1310.0, 0.0003746149098731112
1311.0, 0.0006863509012580988
1312.0, 0.0007302908543066068
1313.0, 0.0006155730592093531
1314.0, 0.0005758252427002546
1315.0, 0.0002634990058071305
1316.0, 0.00039515533290727505
1317.0, 0.0004391403815441687
1318.0, 0.0007655537479249752
1319.0, 0.0007955944085871159
1320.0, 0.0002207156694507058
1321.0, 0.00027263616799076207
1322.0, 0.0013481120978611051
1323.0, 0.001048788723594307
1324.0, 0.0009144007216811633
1325.0, 0.0011111405412472146
1326.0, 0.001130687064446555
1327.0, 0.0008301415473302596
1328.0, 0.0010171156712690354
1329.0, 0.0009667536744746838
1330.0, 0.0007811774476201539
1331.0, 0.001059373063745178
1332.0, 0.001854359962286002
1333.0, 0.0004972188067060944
1334.0, 0.00047524420388752377
1335.0, 0.0006467539789845223
1336.0, 0.0009819898593463666
1337.0, 0.0011253323231854655
1338.0, 0.0008140042498918763
1339.0, 0.0011254059287043373
1340.0, 0.0011983928021343632
1341.0, 0.0007360574925924699
1342.0, 0.0004937391057224334
1343.0, 0.0006043260844819555
1344.0, 0.0007508067025485495
1345.0, 0.0010675706958577242
1346.0, 0.0005133629864727818
1347.0, 0.00044663871894944323
1348.0, 0.0010338745764628132
1349.0, 0.0014230970469756557
1350.0, 0.0006676429661229603
1351.0, 0.00032383451291568194
1352.0, 0.0015183209391065346
1353.0, 0.0007440449864824842
1354.0, 0.0009159280440009318
1355.0, 0.0017363207238279704
1356.0, 0.0008997019148375525
1357.0, 0.0005999558897609376
1358.0, 0.0011093158862321938
1359.0, 0.0009786422160530652
1360.0, 0.0007170527819577323
1361.0, 0.0008923189144965618
1362.0, 0.0015473171113059574
1363.0, 0.0011162110277976745
1364.0, 0.0006639200244629861
1365.0, 0.0014250141995637853
1366.0, 0.0016215073689476796
1367.0, 0.0013093233924103588
1368.0, 0.0014436757818650137
1369.0, 0.0006091268017220162
1370.0, 0.00014957195144079327
1371.0, 0.0004338438379766082
1372.0, 0.0008651840215472304
1373.0, 0.0008881099103077972
1374.0, 0.0005338199355979874
1375.0, 0.0013333240060538203
1376.0, 0.0007692367732759773
1377.0, 0.0011398285796795087
1378.0, 0.0011868988585776047
1379.0, 0.0009481967384453277
1380.0, 0.0010406978942944952
1381.0, 0.0013186945817713405
1382.0, 0.0010135597118157542
1383.0, 0.001412093000700317
1384.0, 0.0017654350984550328
1385.0, 0.0015906820664509803
1386.0, 0.00095356900902022
1387.0, 0.0006839049471098277
1388.0, 0.0020415528248370943
1389.0, 0.001433289485451607
1390.0, 0.0014935979780272303
1391.0, 0.0017898911903733532
1392.0, 0.0015022571928396918
1393.0, 0.0013003053641585638
1394.0, 0.0016950157828591998
1395.0, 0.0016355804090961207
1396.0, 0.001585205807664495
1397.0, 0.0016257312102860662
1398.0, 0.0016566901167731863
1399.0, 0.001531918210732805
1400.0, 0.0014877740937063542
1401.0, 0.001446058709927896
1402.0, 0.0012144256138299178
1403.0, 0.0015316853715089988
1404.0, 0.0022410189793834632
1405.0, 0.002278981151085587
1406.0, 0.0018284026274234015
1407.0, 0.0028589240614662124
1408.0, 0.0020383608037816527
1409.0, 0.001690164783705545
1410.0, 0.0021094819856653005
1411.0, 0.001891627541875141
1412.0, 0.0014580875089827965
1413.0, 0.0018964421683775848
1414.0, 0.0021663771301157968
1415.0, 0.0022290566512518264
1416.0, 0.0018438876871364378
1417.0, 0.0011379610603025883
1418.0, 0.0013372700377272937
1419.0, 0.0003693460666876211
1420.0, 0.0011148556122777733
1421.0, 0.001588013798705771
1422.0, 0.0019101065679587523
1423.0, 0.002202568085737985
1424.0, 0.0014382026608187682
1425.0, 0.0005041420657298024
1426.0, 0.000914400815194628
1427.0, 0.001060441547741044
1428.0, 0.0009642572308182093
1429.0, 0.0010064001171303102
1430.0, 0.001337374516468976
1431.0, 0.0010357128769671018
1432.0, 0.0012777482262800225
1433.0, 0.0022900658244143874
1434.0, 0.002435794190645741
1435.0, 0.0016002592090039228
1436.0, 0.0009388639878317891
1437.0, 0.001587824040958155
1438.0, 0.0005119210212717992
1439.0, 0.00048594512709585483
1440.0, 0.0009941154521738282
1441.0, 0.001054296298921187
1442.0, 0.0007629164289803009
1443.0, 0.001915305216869322
1444.0, 0.001284712611141252
1445.0, 0.0008029893332227637
1446.0, 0.0012799722434815581
1447.0, 0.0012576240103966622
1448.0, 0.0009573151512065875
1449.0, 0.002007426783429199
1450.0, 0.001546942595979476
1451.0, 0.0007134390550014038
1452.0, 0.0017448485846422435
1453.0, 0.0017180932913244801
1454.0, 0.0007011275811018758
1455.0, 0.0005257625804801036
1456.0, 0.0017211076815858341
1457.0, 0.0012936774366744484
1458.0, 0.0008580281357483153
1459.0, 0.0014429206250717494
1460.0, 0.0019731896549732776
1461.0, 0.0015583678874166534
1462.0, 0.0007428650149651798
1463.0, 0.0013907814323710058
1464.0, 0.000796956384784336
1465.0, 0.0014077906331249166
1466.0, 0.0024818314829566537
1467.0, 0.002511124528079388
1468.0, 0.0011460039898064202
1469.0, 0.0017510470040922605
1470.0, 0.0020391204225415184
1471.0, 0.0012090193808832427
1472.0, 0.0016890393605651446
1473.0, 0.002185626799709639
1474.0, 0.0015327864838995961
1475.0, 0.001034860061402338
1476.0, 0.002231494899074339
1477.0, 0.0006341184630545062
1478.0, 0.0009928346037573585
1479.0, 0.001769929152698683
1480.0, 0.0014306339806716734
1481.0, 0.00027850414909984
1482.0, 0.0013307811513647177
1483.0, 0.0020337799320122316
1484.0, 0.0013985275980355277
1485.0, 0.001445841283065068
1486.0, 0.0014477371033660472
1487.0, 0.0008810143489468726
1488.0, 0.0009152063680087524
1489.0, 0.001987918639922617
1490.0, 0.0006780875977337549
1491.0, 0.002914816781609422
1492.0, 0.00379458359062049
1493.0, 0.002863143366744678
1494.0, 0.002529872243331306
1495.0, 0.0018885424139744526
1496.0, 0.0018018215905494302
1497.0, 0.0007790589598379177
1498.0, 0.0014428019300396049
1499.0, 0.0022132409219200277
1500.0, 0.0019107448714575522
1501.0, 0.0014036071405186604
1502.0, 0.0017518687905149913
1503.0, 0.0006929759836985514
1504.0, 0.0001842491841841041
1505.0, 0.000968259381841447
1506.0, 0.0014397734010470717
1507.0, 0.0006884947173263422
1508.0, 0.0008449235357643113
1509.0, 0.00012699681008260716
1510.0, 0.0005782516337038058
1511.0, 0.0015621335636880843
1512.0, 0.0019118996531839229
1513.0, 0.0014119974215379108
1514.0, 0.0009768411361944479
1515.0, 0.0021006118870780487
1516.0, 0.0010267954624864689
1517.0, 0.0008661107891917896
1518.0, 0.000769143260133306
1519.0, 0.00040739918413284224
1520.0, 1.2887402001948163e-06
1521, 0.0
1522, 0.0
1523, 0.0
1524, 0.0
1525, 0.0
1526, 0.0
1527, 0.0
1528, 0.0
1529, 0.0
1530, 0.0
1531, 0.0
1532, 0.0
1533, 0.0
1534, 0.0
1535, 0.0
1536, 0.0
1537, 0.0
1538, 0.0
1539, 0.0
1540, 0.0
1541, 0.0
1542, 0.0
1543, 0.0
1544, 0.0
1545, 0.0
1546, 0.0
1547, 0.0
1548, 0.0
1549, 0.0
1550, 0.0
1551, 0.0
1552, 0.0
1553, 0.0
1554, 0.0
1555, 0.0
1556, 0.0
1557, 0.0
1558, 0.0
1559, 0.0
1560, 0.0
1561, 0.0
1562, 0.0
1563, 0.0
1564, 0.0
1565, 0.0
1566, 0.0
1567, 0.0
1568, 0.0
1569, 0.0
1570, 0.0
1571, 0.0
1572, 0.0
1573, 0.0
1574, 0.0
1575, 0.0
1576, 0.0
1577, 0.0
1578, 0.0
1579, 0.0
1580, 0.0
1581, 0.0
1582, 0.0
1583, 0.0
1584, 0.0
1585, 0.0
1586, 0.0
1587, 0.0
1588, 0.0
1589, 0.0
1590, 0.0
1591, 0.0
1592, 0.0
1593, 0.0
1594, 0.0
1595, 0.0
1596, 0.0
1597, 0.0
1598, 0.0
1599, 0.0
