30, 0.0
31, 0.0
32, 0.0
33, 0.0
34, 0.0
35, 0.0
36, 0.0
37, 0.0
38, 0.0
39, 0.0
40, 0.0
41, 0.0
42, 0.0
43, 0.0
44, 0.0
45, 0.0
46, 0.0
47, 0.0
48, 0.0
49, 0.0
50, 0.0
51, 0.0
52, 0.0
53, 0.0
54, 0.0
55, 0.0
56, 0.0
57, 0.0
58, 0.0
59, 0.0
60, 0.0
61, 0.0
62, 0.0
63, 0.0
64, 0.0
65, 0.0
66, 0.0
67, 0.0
68, 0.0
69, 0.0
70, 0.0
71, 0.0
72, 0.0
73, 0.0
74, 0.0
75, 0.0
76, 0.0
77, 0.0
78, 0.0
79, 0.0
80, 0.0
81, 0.0
82, 0.0
83, 0.0
84, 0.0
85, 0.0
86, 0.0
87, 0.0
88, 0.0
89, 0.0
90, 0.0
91, 0.0
92, 0.0
93, 0.0
94, 0.0
95, 0.0
96, 0.0
97, 0.0
98, 0.0
99, 0.0
100, 0.0
101.0, 8.729697182517789e-05
102.0, 0.0006616191548855549
103.0, 0.0005713683772703235
104.0, 0.0011849938713777508
105.0, 0.003399187871406384
106.0, 0.008804420404995439
107.0, 0.01354802242817917
108.0, 0.017560569014787704
109.0, 0.020797807804973943
110.0, 0.023376629283322778
111.0, 0.02718730331126754
112.0, 0.033148619649830145
113.0, 0.04253412434057912
114.0, 0.04809972352357945
115.0, 0.052144341497128745
116.0, 0.05938266574460508
117.0, 0.06365275609085137
118.0, 0.07026339932874402
119.0, 0.08055180395743515
120.0, 0.08763471688280984
121.0, 0.09561391187602197
122.0, 0.10416511872609885
123.0, 0.11298598663765884
124.0, 0.1288676128058198
125.0, 0.14168943998389982
126.0, 0.15010624446513837
127.0, 0.15877441391944253
128.0, 0.16651971734646323
129.0, 0.1710173314029986
130.0, 0.16916655514480244
131.0, 0.16448555607816207
132.0, 0.15338053141727515
133.0, 0.13763076330829108
134.0, 0.12678631922035002
135.0, 0.11288227017667833
136.0, 0.09893328811237329
137.0, 0.08666880732237371
138.0, 0.08024432232553436
139.0, 0.0712148774362335
140.0, 0.061650569285019045
141.0, 0.05773465587450387
142.0, 0.05190089161573307
143.0, 0.0472050667066658
144.0, 0.04475053256955118
145.0, 0.04442218689382361
146.0, 0.042469818997669585
147.0, 0.04036668628734356
148.0, 0.04033450932688111
149.0, 0.0379237448385642
150.0, 0.036169621333995434
151.0, 0.03563789841993075
152.0, 0.03666408385182178
153.0, 0.03770322962035622
154.0, 0.038333060634665184
155.0, 0.03812142150019497
156.0, 0.0358089614045475
157.0, 0.03537894014750046
158.0, 0.03590111611627053
159.0, 0.033405970596858334
160.0, 0.032664860242041426
161.0, 0.032230828321890906
162.0, 0.03151179614117797
163.0, 0.028631934810078107
164.0, 0.028501601055497438
165.0, 0.028333045078949657
166.0, 0.02333430647161731
167.0, 0.02355564442623876
168.0, 0.022795405085453822
169.0, 0.020584735826784384
170.0, 0.022490540744412944
171.0, 0.02296817068713019
172.0, 0.02296784855370708
173.0, 0.02313851052579104
174.0, 0.025777301033774888
175.0, 0.024437950497961245
176.0, 0.02138601105763318
177.0, 0.02440791050575228
178.0, 0.025163236438082645
179.0, 0.02518884026002214
180.0, 0.025044535778159835
181.0, 0.02669066558093433
182.0, 0.026713563579703975
183.0, 0.026754408758080068
184.0, 0.029002592859673736
185.0, 0.028439261071749683
186.0, 0.028781387306828273
187.0, 0.02978981331209446
188.0, 0.02778745151601778
189.0, 0.028209153785936403
190.0, 0.028739518527293447
191.0, 0.028151815648245187
192.0, 0.02599329805057466
193.0, 0.025100999637464476
194.0, 0.02437728965855523
195.0, 0.021667431444352132
196.0, 0.020954486331297643
197.0, 0.018720655240722053
198.0, 0.01470422307555478
199.0, 0.01264709981022814
200.0, 0.01095623709843764
201.0, 0.009307222601050161
202.0, 0.007470417278164208
203.0, 0.004638624971399689
204.0, 0.003161873487163621
205.0, 0.0025213190403039548
206.0, 0.0013805248926668217
207.0, 0.0020175571270101235
208.0, 0.003752584777947234
209.0, 0.005913280106171606
210.0, 0.002801201726281937
211.0, 0.0034305474318656057
212.0, 0.00404761671764194
213.0, 0.0013862602305561506
214.0, 0.0034008244929081767
215.0, 0.003655494009800828
216.0, 0.002350073248633096
217.0, 0.000717719038933163
218.0, 0.0015534222781953167
219.0, 0.0017190661098773334
220.0, 0.0005247998017541808
221.0, 0.0007938298677006379
222.0, 0.001834396220909689
223.0, 0.0024314309559399644
224.0, 0.0014065910973711294
225.0, 0.0011196223989815154
226.0, 0.0015625471199323014
227.0, 0.0021239304533719563
228.0, 0.0011281839545197584
229.0, 0.0006514472543009355
230.0, 0.0009587466730507398
231.0, 0.0019001325321542097
232.0, 0.0008190787512569458
233.0, 0.0006991152489481998
234.0, 0.0007376179925121862
235.0, 0.00030384047461013065
236.0, 0.0017947329248210182
237.0, 0.0014702145739786724
238.0, 0.00041376750184210183
239.0, 0.001446694886483098
240.0, 0.0009613089526370067
241.0, 0.0008757481302658751
242.0, 0.0015182302930873354
243.0, 0.001963957131528258
244.0, 0.0010338457287138387
245.0, 0.0006209647591108551
246.0, 0.0020276817431791605
247.0, 0.0009909785434460382
248.0, 0.0008042240533542391
249.0, 0.0014607948396673444
250.0, 0.003037494865363916
251.0, 0.002301372089102512
252.0, 0.002269160274187474
253.0, 0.0029186460529617765
254.0, 0.0016399085023211953
255.0, 0.002640978495760025
256.0, 0.0028607965172332914
257.0, 0.0010377173266549315
258.0, 0.004098030177766487
259.0, 0.004492932595061125
260.0, 0.004778377081221463
261.0, 0.008083487057143039
262.0, 0.010116895353945797
263.0, 0.011388961138581392
264.0, 0.012753336853394267
265.0, 0.01676021080571728
266.0, 0.018454191779580565
267.0, 0.021394013262974538
268.0, 0.02603701406019155
269.0, 0.026412035277578367
270.0, 0.02699222972604385
271.0, 0.02887492750091276
272.0, 0.03299796340789326
273.0, 0.029459276935500205
274.0, 0.029470546702824275
275.0, 0.03165875042558633
276.0, 0.033653496914459506
277.0, 0.03273606801483692
278.0, 0.03344312820063506
279.0, 0.035261442129903224
280.0, 0.03320583946299781
281.0, 0.03501632394222498
282.0, 0.036592343914541775
283.0, 0.03661334325006357
284.0, 0.03874783269225667
285.0, 0.0424340452893289
286.0, 0.04778672373991347
287.0, 0.05512871769317349
288.0, 0.05862969227759976
289.0, 0.0650885996240829
290.0, 0.07473425661807852
291.0, 0.08806652690706122
292.0, 0.10223980061812744
293.0, 0.12026379046069449
294.0, 0.14168829252953272
295.0, 0.16230207875706879
296.0, 0.19397290593966907
297.0, 0.22965923277531278
298.0, 0.26734697643622596
299.0, 0.31385926786847895
300.0, 0.3617525400711105
301.0, 0.4055767302214789
302.0, 0.44027211477583794
303.0, 0.4616818262348085
304.0, 0.4665290172022957
305.0, 0.4571375121652111
306.0, 0.4358038856656326
307.0, 0.3988753247133875
308.0, 0.36394916709021885
309.0, 0.332507337611655
310.0, 0.301448550797754
311.0, 0.2757047856848391
312.0, 0.25273220503502974
313.0, 0.23228781168046905
314.0, 0.2184624549594204
315.0, 0.20108849847372395
316.0, 0.18745017391102967
317.0, 0.18222514493109498
318.0, 0.16595793423266925
319.0, 0.15603212235185782
320.0, 0.14783246274968426
321.0, 0.1356858638826648
322.0, 0.12421004280014895
323.0, 0.11544501993278376
324.0, 0.10714230539491787
325.0, 0.0935230913020419
326.0, 0.08953124365014647
327.0, 0.08293592256652153
328.0, 0.07374795346177275
329.0, 0.07349605636986954
330.0, 0.06749273336464559
331.0, 0.06141009992147491
332.0, 0.05744555943759118
333.0, 0.0557337538885679
334.0, 0.04820876807004811
335.0, 0.04215057626276399
336.0, 0.04272881781997352
337.0, 0.039067518207707874
338.0, 0.03559552583409071
339.0, 0.03325280654928243
340.0, 0.0333879404882157
341.0, 0.02916369217966823
342.0, 0.028489007337677005
343.0, 0.02894291289806627
344.0, 0.0238418920904082
345.0, 0.02335109331858197
346.0, 0.02288192735159194
347.0, 0.021709614427425302
348.0, 0.02006934282138666
349.0, 0.018093582574277126
350.0, 0.017732338129219014
351.0, 0.019211583529404
352.0, 0.01893669869236625
353.0, 0.01749556821294983
354.0, 0.015323941207805197
355.0, 0.012921192083426274
356.0, 0.017356171862287016
357.0, 0.016560196576317195
358.0, 0.01486127049388818
359.0, 0.01610083777804455
360.0, 0.01369722103999272
361.0, 0.013242069869541316
362.0, 0.014167412817972992
363.0, 0.01560422676193623
364.0, 0.014215149018350384
365.0, 0.01459132041518062
366.0, 0.015858967451049224
367.0, 0.015084037824516054
368.0, 0.014996224553610564
369.0, 0.014247408039672713
370.0, 0.013180178329926401
371.0, 0.013978173810706688
372.0, 0.01404204475862282
373.0, 0.013158371298656662
374.0, 0.01190824376785811
375.0, 0.014527570610835944
376.0, 0.014568295665936419
377.0, 0.01286063393012857
378.0, 0.009946709071592516
379.0, 0.00894648908921749
380.0, 0.009481485394402495
381.0, 0.011017007069946754
382.0, 0.013047960027008774
383.0, 0.007064777588224977
384.0, 0.007075450521527243
385.0, 0.008712441499240196
386.0, 0.007717964718157553
387.0, 0.005728192354889139
388.0, 0.006136642083068172
389.0, 0.006615286149185194
390.0, 0.0036514863620201094
391.0, 0.005928993878784182
392.0, 0.0058143194068529845
393.0, 0.00455426881825287
394.0, 0.005822148815806451
395.0, 0.0059932648763731744
396.0, 0.006062816164970375
397.0, 0.00622134533503476
398.0, 0.006636503409114271
399.0, 0.006635163268648777
400.0, 0.00718637409794933
401.0, 0.00817295968880121
402.0, 0.008286706330317088
403.0, 0.009941677010474643
404.0, 0.011199020273464429
405.0, 0.01156788140519134
406.0, 0.011579073089634712
407.0, 0.012933630710656738
408.0, 0.013789635728873872
409.0, 0.013564460871306257
410.0, 0.013842815545306726
411.0, 0.01452349752685509
412.0, 0.016693909653453617
413.0, 0.021059159854733178
414.0, 0.028511957040415047
415.0, 0.03327483675375277
416.0, 0.04072949460165685
417.0, 0.05454663542926432
418.0, 0.06979262300468443
419.0, 0.09061109519917439
420.0, 0.11794265728254523
421.0, 0.15286336595627628
422.0, 0.19813097875636387
423.0, 0.254751921344202
424.0, 0.30913552923920085
425.0, 0.3460409668791085
426.0, 0.3735930983497053
427.0, 0.37287042597203607
428.0, 0.34626189480061464
429.0, 0.2962996114903481
430.0, 0.24259230904311874
431.0, 0.1922959431063725
432.0, 0.14814437526181262
433.0, 0.1144297125791503
434.0, 0.08755017472164442
435.0, 0.0649670938514355
436.0, 0.048383141861111936
437.0, 0.04198838042855062
438.0, 0.03581719065357401
439.0, 0.03036833628773582
440.0, 0.025068586709597863
441.0, 0.018471849000212558
442.0, 0.01814316230719962
443.0, 0.01705129426017659
444.0, 0.014361165039971934
445.0, 0.01042392789208621
446.0, 0.010212446844563792
447.0, 0.00889678998808493
448.0, 0.006603928465200817
449.0, 0.006195342596727797
450.0, 0.0092582368255436
451.0, 0.00866018198005689
452.0, 0.0054442824513772645
453.0, 0.007995742191723632
454.0, 0.006751589838318158
455.0, 0.006805363127800116
456.0, 0.008098041121264183
457.0, 0.006033757695575672
458.0, 0.004194717199350723
459.0, 0.006903955668744837
460.0, 0.0125800355260156
461.0, 0.010120390765340605
462.0, 0.011941436354854573
463.0, 0.01360399082392444
464.0, 0.014282254538771308
465.0, 0.015651364443571552
466.0, 0.01916443622578657
467.0, 0.020513345193377372
468.0, 0.020210325660635436
469.0, 0.026652779482520685
470.0, 0.030071955831219268
471.0, 0.03398693285090049
472.0, 0.03926369011664374
473.0, 0.044959755052798894
474.0, 0.049458985976985274
475.0, 0.055210323016820786
476.0, 0.06253612213986388
477.0, 0.0692254375444277
478.0, 0.0775214057556401
479.0, 0.08749319059495783
480.0, 0.09751108021675726
481.0, 0.0992518486623605
482.0, 0.1064084079139893
483.0, 0.11070072964722831
484.0, 0.11125026093311519
485.0, 0.11646127033989889
486.0, 0.11401573012863532
487.0, 0.11505400524025773
488.0, 0.12056987931654724
489.0, 0.11933671679504063
490.0, 0.11242910491567958
491.0, 0.11124134824385218
492.0, 0.11564042729756782
493.0, 0.11018949339575664
494.0, 0.10473833469475696
495.0, 0.10185462097640806
496.0, 0.09995383182694155
497.0, 0.08954193895399783
498.0, 0.08800293949261956
499.0, 0.08277322233808189
500.0, 0.07453859565351527
501.0, 0.078020005109238
502.0, 0.06978192435468349
503.0, 0.06075875608723158
504.0, 0.05447904445040681
505.0, 0.05448227347438099
506.0, 0.04790180701751402
507.0, 0.04399335505491317
508.0, 0.04251533653202919
509.0, 0.03705331828648685
510.0, 0.032667496907252486
511.0, 0.030326457782701932
512.0, 0.027941242698171262
513.0, 0.019491384366610964
514.0, 0.019621606103604482
515.0, 0.01864681355176636
516.0, 0.015283660963094529
517.0, 0.009811669261844548
518.0, 0.011527600584148482
519.0, 0.010718482233531692
520.0, 0.008353462728657975
521.0, 0.008601999661363291
522.0, 0.0060931041394844485
523.0, 0.006623654099552386
524.0, 0.007741992066120682
525.0, 0.004504492550270366
526.0, 0.0021135156231728556
527.0, 0.0049826068228837755
528.0, 0.007253140140153437
529.0, 0.00038445219841853114
530.0, 0.000545689004913777
531.0, 0.00180471975376999
532.0, 0.002595552804337827
533.0, 0.0013567723526625108
534.0, 0.0006042679832739468
535.0, 0.00033011577718280083
536.0, 0.0009944537056497432
537.0, 0.0029133244757375575
538.0, 0.001419322357347647
539.0, 0.003039035734203853
540.0, 0.00435412070132281
541.0, 0.003044186205030601
542.0, 0.004116418113773805
543.0, 0.0021422021574465486
544.0, 0.0010010711654199235
545.0, 0.002510632449021762
546.0, 0.0013085041095680762
547.0, 0.000608280204306166
548.0, 0.0002670920405025688
549.0, 0.00046843947968310397
550.0, 0.0028433770116670608
551.0, 0.001912848579096603
552.0, 0.0012556135247143757
553.0, 0.001812515616881331
554.0, 0.002111609786690861
555.0, 0.0015136173613747041
556.0, 0.0010163417803555573
557.0, 0.0008328640432017887
558.0, 0.0008195597870105815
559.0, 0.000490623940589021
560.0, 0.002372339614910903
561.0, 0.004880837038338632
562.0, 0.00315408462952194
563.0, 0.0018387300885297248
564.0, 0.0017451194846645733
565.0, 0.0019419906755220309
566.0, 0.0006748256278034063
567.0, 0.002493740370342715
568.0, 0.0034333257844079597
569.0, 0.0041191672039222835
570.0, 0.005602765403257884
571.0, 0.005106392980306152
572.0, 0.0024474014508168076
573.0, 0.0011289009533590778
574.0, 0.004013416598445202
575.0, 0.004290685254457396
576.0, 0.006885937244486993
577.0, 0.0083642795782831
578.0, 0.006936152317996152
579.0, 0.006540877154561142
580.0, 0.009508409587813443
581.0, 0.008774679306056996
582.0, 0.0039423142323551565
583.0, 0.009926549845648894
584.0, 0.010592835582967785
585.0, 0.010457771194157832
586.0, 0.010525644518591087
587.0, 0.009777087417012229
588.0, 0.012975996775104663
589.0, 0.01451957035713252
590.0, 0.014541198405004802
591.0, 0.015519315118560282
592.0, 0.018136008576965953
593.0, 0.01813740621648308
594.0, 0.018208951595456196
595.0, 0.02277377951859515
596.0, 0.02604243993695384
597.0, 0.027634265999057737
598.0, 0.029444437364005906
599.0, 0.03321402995716251
600.0, 0.03670538661007954
601.0, 0.039292446718822066
602.0, 0.04183222280675728
603.0, 0.044489249406370696
604.0, 0.044026322178636126
605.0, 0.04764547165744321
606.0, 0.04922659302931441
607.0, 0.04757949201968175
608.0, 0.04805687550961956
609.0, 0.049589118821863426
610.0, 0.04998454558277577
611.0, 0.05040366205035805
612.0, 0.05515371061130787
613.0, 0.0537477696052504
614.0, 0.0554392658983225
615.0, 0.0601826843001998
616.0, 0.06619473577406383
617.0, 0.06510839728253427
618.0, 0.07016889454873847
619.0, 0.07628495066564543
620.0, 0.07867138449094775
621.0, 0.09148268221546604
622.0, 0.10088524092438529
623.0, 0.11160219749900001
624.0, 0.12568261651003682
625.0, 0.13778151610083678
626.0, 0.15328295240090722
627.0, 0.17122666458236743
628.0, 0.1910065690622237
629.0, 0.2116003962059515
630.0, 0.23485725727673804
631.0, 0.2617652732050215
632.0, 0.285530033860339
633.0, 0.29229578546142854
634.0, 0.3090438745246593
635.0, 0.3166447160269624
636.0, 0.32190643552517995
637.0, 0.3341605329552451
638.0, 0.3568228379444305
639.0, 0.38523526526635565
640.0, 0.43276814080632564
641.0, 0.5072632604304932
642.0, 0.6019223938265414
643.0, 0.7057358742135531
644.0, 0.8238440488768409
645.0, 0.9397175786453968
646.0, 0.9848709992829531
647.0, 0.9969250289843136
648.0, 0.9542270494541363
649.0, 0.8608742664509034
650.0, 0.7329189392037956
651.0, 0.6200904093553788
652.0, 0.5015465341422748
653.0, 0.39886490496373106
654.0, 0.33423389397831704
655.0, 0.2676452443438016
656.0, 0.2224175795538604
657.0, 0.18891554804045937
658.0, 0.16096682668571527
659.0, 0.13634742917262707
660.0, 0.11729106932977422
661.0, 0.10312043035115129
662.0, 0.09106658419645731
663.0, 0.07378613802957755
664.0, 0.07363043232941949
665.0, 0.06624566088393742
666.0, 0.05663659154429253
667.0, 0.05631468794997293
668.0, 0.05021731990989329
669.0, 0.04336595803230168
670.0, 0.03913198454278209
671.0, 0.03889405021256235
672.0, 0.03121592568562383
673.0, 0.030071133318243976
674.0, 0.027607277641340366
675.0, 0.022817771782004035
676.0, 0.023250740424537106
677.0, 0.024570133215941224
678.0, 0.023253932553346915
679.0, 0.020707356591769806
680.0, 0.02037699744969475
681.0, 0.019553388538884064
682.0, 0.016844880542501012
683.0, 0.015520918695551457
684.0, 0.01777325517299356
685.0, 0.014911138008905723
686.0, 0.012206691470158555
687.0, 0.011129398228045914
688.0, 0.010902567939237596
689.0, 0.005995421161020386
690.0, 0.011660367100590699
691.0, 0.013101935593440374
692.0, 0.01053679995498275
693.0, 0.009135363165880763
694.0, 0.011322880507797147
695.0, 0.00907790052192146
696.0, 0.007933703781959355
697.0, 0.011559697272314772
698.0, 0.004562704613111054
699.0, 0.007273184134814878
700.0, 0.009111855263027453
701.0, 0.0069960100736764785
702.0, 0.005142739223990721
703.0, 0.005277702193633486
704.0, 0.0057558179654064595
705.0, 0.005590255317284066
706.0, 0.003689615668441814
707.0, 0.007098453868237699
708.0, 0.003976548395550207
709.0, 0.0008991341889207896
710.0, 0.002133427796190163
711.0, 0.0016909691187201236
712.0, 0.00472414742256141
713.0, 0.007994000645252993
714.0, 0.008639243616236605
715.0, 0.0017270361791346298
716.0, 0.005677318721553493
717.0, 0.006532780945133549
718.0, 0.004587417787759927
719.0, 0.0022156706798699757
720.0, 0.006678545511330303
721.0, 0.00523828354401552
722.0, 0.004798812395354494
723.0, 0.006903749024924454
724.0, 0.0009303171868654918
725.0, 0.004958962339596868
726.0, 0.0061493207523197375
727.0, 0.003595388518836754
728.0, 0.0006384286307713693
729.0, 0.005348959687890864
730.0, 0.004087056410223279
731.0, 0.002249089930811521
732.0, 0.004211493968711384
733.0, 0.006391339819436521
734.0, 0.0029685901876242977
735.0, 0.003433016427237851
736.0, 0.006826499503238865
737.0, 0.002109742296146464
738.0, 0.0026749308477405243
739.0, 0.005149040049925166
740.0, 0.00601002686392443
741.0, 0.0022314439292069306
742.0, 0.0021042343719952774
743.0, 0.0013963294229101407
744.0, 0.002788461978792529
745.0, 0.006534480846133084
746.0, 0.008961178942047269
747.0, 0.004610247813133355
748.0, 0.003760343302726652
749.0, 0.0041525387353439835
750.0, 0.0005201322011837294
751.0, 0.0037126372427869216
752.0, 0.0030234733943732455
753.0, 0.0016156268281772958
754.0, 0.0016264565386353246
755.0, 0.004050261423120777
756.0, 0.0038489991346496106
757.0, 0.0021880985218602584
758.0, 0.0016557809283929787
759.0, 0.006125497888705556
760.0, 0.004434351107566381
761.0, 0.003507874609940964
762.0, 0.003116836821575803
763.0, 0.0030972487444762093
764.0, 0.003977709901745495
765.0, 0.004428991453507674
766.0, 0.0040744837658467535
767.0, 0.003414282526361831
768.0, 0.003587748276547156
769.0, 0.00344837917787956
770.0, 0.003123809190199506
771.0, 0.0046589196293664835
772.0, 0.007893726887699862
773.0, 0.001330909414918158
774.0, 0.003021880295644751
775.0, 0.004526326680964549
776.0, 0.0036891581779771644
777.0, 0.0008305360499262931
778.0, 0.006925937992385918
779.0, 0.004488323216316722
780.0, 0.0015722799453073808
781.0, 0.0038991805837639746
782.0, 0.0034849686949782925
783.0, 0.00339959136306825
784.0, 0.005591224255376086
785.0, 0.007521046811445413
786.0, 0.003246256357485417
787.0, 0.00546808488541108
788.0, 0.005577224791230876
789.0, 0.004435447812793772
790.0, 0.003634662005636428
791.0, 0.007584385850064802
792.0, 0.006158829333292752
793.0, 0.007093243831123664
794.0, 0.010162263683256073
795.0, 0.01154049960915893
796.0, 0.008093155037398896
797.0, 0.010197011350504069
798.0, 0.01227796027400342
799.0, 0.011187970132359639
800.0, 0.010762617988461847
801.0, 0.010557517788643276
802.0, 0.013201965592801878
803.0, 0.016944488885734025
804.0, 0.018320021162291523
805.0, 0.019696131185628532
806.0, 0.021259981362970408
807.0, 0.021388891827799465
808.0, 0.019801472367972445
809.0, 0.018856870412663804
810.0, 0.02019753139753561
811.0, 0.022298700704752376
812.0, 0.022434890053046518
813.0, 0.018221584072153827
814.0, 0.02114270920013557
815.0, 0.022088022768852522
816.0, 0.020549491788392004
817.0, 0.018138227259702218
818.0, 0.020027907631629756
819.0, 0.01856760305297624
820.0, 0.02102435622844722
821.0, 0.02041875398393947
822.0, 0.012225877691301647
823.0, 0.019533909910921063
824.0, 0.017838576671453648
825.0, 0.014870867152890158
826.0, 0.013680470180379146
827.0, 0.015568684571459893
828.0, 0.013166464293023601
829.0, 0.010661599702423249
830.0, 0.009682720313256555
831.0, 0.00978992061942819
832.0, 0.003923062535173492
833.0, 0.009261903185044626
834.0, 0.0083887368948723
835.0, 0.00451271699990708
836.0, 0.00612341176574744
837.0, 0.00723468113476459
838.0, 0.0030380765378309168
839.0, 0.00104663738358282
840.0, 0.0024809613444780774
841.0, 0.0012034836985321197
842.0, 0.004381076198849042
843.0, 0.004605861286766572
844.0, 0.0036248255389809358
845.0, 0.0038687460606426803
846.0, 0.007547313466734058
847.0, 0.0030490678870949616
848.0, 0.0002784011250371815
849.0, 0.0023370938904406246
850.0, 0.009734128679958726
851.0, 0.00572842413008169
852.0, 0.0023661773343003354
853.0, 0.0014255375269381426
854.0, 0.0029461153076874454
855.0, 0.003994939065052966
856.0, 0.006330826381956412
857.0, 0.005562980622623015
858.0, 0.00358856423371638
859.0, 0.0027239618247760096
860.0, 0.0022589356024760414
861.0, 0.0032964645196415076
862.0, 0.006178667235924875
863.0, 0.007554690520115986
864.0, 0.0016756365255718685
865.0, 0.0034870391282087617
866.0, 0.005922881015333931
867.0, 0.0057082252312452035
868.0, 0.0027205930579135137
869.0, 0.0024189045630116416
870.0, 0.0017446779600953483
871.0, 0.0017032699649510677
872.0, 0.002699565872140425
873.0, 0.004649739613010866
874.0, 0.005131797766206652
875.0, 0.008389367938154027
876.0, 0.005791759395063726
877.0, 0.0005198084063327258
878.0, 0.0009587867903919985
879.0, 0.004927331966167153
880.0, 0.005900674363203549
881.0, 0.006175345564788091
882.0, 0.00554136767909515
883.0, 0.00040667774884633025
884.0, 0.0006592759102749826
885.0, 0.002618639968391994
886.0, 0.0030441214219503235
887.0, 0.0010923723983700387
888.0, 0.004413187921679788
889.0, 0.0042249759041794
890.0, 0.0020804952078751007
891.0, 0.001516682159834893
892.0, 0.005541174601498243
893.0, 0.0027456122864944347
894.0, 0.004292876939532479
895.0, 0.005693026277674904
896.0, 0.005237502396220112
897.0, 0.00266687339131975
898.0, 0.005815369842616081
899.0, 0.0034881240276984854
900.0, 0.0014094772191026459
901.0, 0.002854102021233224
902.0, 0.007869909479586169
903.0, 0.004821726158390619
904.0, 0.005368862346099546
905.0, 0.008031283190123877
906.0, 0.009564998096801352
907.0, 0.00385062217328389
908.0, 0.007905326259919293
909.0, 0.005477068536471517
910.0, 0.00272494139362498
911.0, 0.009090231903382595
912.0, 0.007593500707694611
913.0, 0.003129188586718277
914.0, 0.0049129230376867465
915.0, 0.009196752072235033
916.0, 0.004932254873280471
917.0, 0.008133077905611276
918.0, 0.006233936610416236
919.0, 0.0033911117814027364
920.0, 0.003045634862456258
921.0, 0.008635684469066192
922.0, 0.0033915378630195777
923.0, 0.0031796252240175495
924.0, 0.004770622558960312
925.0, 0.004983153013677323
926.0, 0.0021116785750693607
927.0, 0.004299546035800906
928.0, 0.005462241171838493
929.0, 0.00534999893614969
930.0, 0.005482432701081707
931.0, 0.012357993606742133
932.0, 0.007010977127277076
933.0, 0.00492754235693289
934.0, 0.007198435523591501
935.0, 0.010645178105932586
936.0, 0.007601840219908485
937.0, 0.009038631772953326
938.0, 0.008262481689722632
939.0, 0.006329869182062187
940.0, 0.00775604716684682
941.0, 0.01019290770015472
942.0, 0.012221291575925797
943.0, 0.013593007480494785
944.0, 0.012714480038963985
945.0, 0.00676484435186828
946.0, 0.006305290836375183
947.0, 0.010893654440485784
948.0, 0.012621559349056864
949.0, 0.011429737578516556
950.0, 0.01780525931309919
951.0, 0.01838615361837255
952.0, 0.013758802970245926
953.0, 0.013312273579594707
954.0, 0.018402137786484
955.0, 0.013239737465041361
956.0, 0.01538320625797189
957.0, 0.01739146596061541
958.0, 0.018620131498261448
959.0, 0.01915096420798724
960.0, 0.019238834800944616
961.0, 0.01932715346564647
962.0, 0.019415938757245566
963.0, 0.022133896433682142
964.0, 0.026865417773352017
965.0, 0.016705419060201076
966.0, 0.02831819929355549
967.0, 0.029042100910216966
968.0, 0.024013734695906785
969.0, 0.02532507101067801
970.0, 0.03487905260327228
971.0, 0.026150855665765325
972.0, 0.02911991348545968
973.0, 0.038010251821736556
974.0, 0.038259610649598014
975.0, 0.03730359325437621
976.0, 0.03983270762968905
977.0, 0.04173008040084959
978.0, 0.04421290034263747
979.0, 0.05005096524649946
980.0, 0.055151202136641285
981.0, 0.05363378153768763
982.0, 0.06435731241337106
983.0, 0.08221683423567276
984.0, 0.09064256640048858
985.0, 0.08705545395589427
986.0, 0.09732699998343894
987.0, 0.09966366586364733
988.0, 0.10258674662035226
989.0, 0.1295701340726804
990.0, 0.1367339530208769
991.0, 0.16199458114931103
992.0, 0.17935156662732848
993.0, 0.1868902715875285
994.0, 0.19866894611706035
995.0, 0.2304423362255016
996.0, 0.259603103993252
997.0, 0.2867323791528594
998.0, 0.31944662828696585
999.0, 0.36935755627425504
1000.0, 0.3955797100439219
1001.0, 0.4350713190346176
1002.0, 0.4914589707518544
1003.0, 0.5507597056725628
1004.0, 0.5868561897378545
1005.0, 0.6611205569127907
1006.0, 0.6992488980414691
1007.0, 0.7359792561346193
1008.0, 0.7854011980456721
1009.0, 0.844308343441223
1010.0, 0.8359706793249824
1011.0, 0.8515367541695749
1012.0, 0.8541805720194794
1013.0, 0.8285339790960289
1014.0, 0.7770771682790334
1015.0, 0.7636644146079639
1016.0, 0.7053396489831691
1017.0, 0.6486364874998363
1018.0, 0.6033392048868117
1019.0, 0.5538821411974001
1020.0, 0.49608445871751244
1021.0, 0.4625644558247629
1022.0, 0.4234675506876145
1023.0, 0.37946437890605983
1024.0, 0.34996450977728627
1025.0, 0.33850407440077396
1026.0, 0.3101614379072227
1027.0, 0.29433397817628115
1028.0, 0.2891372223138961
1029.0, 0.2769686461216077
1030.0, 0.27154386652826684
1031.0, 0.28095632341651217
1032.0, 0.2881512481640931
1033.0, 0.29481701617061845
1034.0, 0.3106343297051035
1035.0, 0.33727528379131066
1036.0, 0.3404689024224514
1037.0, 0.3561956624498997
1038.0, 0.3794436520884706
1039.0, 0.39292214328701774
1040.0, 0.40712368412070904
1041.0, 0.4363720769409885
1042.0, 0.4509435279324031
1043.0, 0.4576249260863827
1044.0, 0.47093216084461725
1045.0, 0.48541718947362816
1046.0, 0.47566255425873716
1047.0, 0.4790303659341082
1048.0, 0.48337472231221684
1049.0, 0.47544375548746487
1050.0, 0.48144116930896347
1051.0, 0.48125702873043363
1052.0, 0.4739338759698776
1053.0, 0.47302585686916165
1054.0, 0.4841047927150557
1055.0, 0.4848000078763515
1056.0, 0.4830547230653673
1057.0, 0.5100061979288784
1058.0, 0.5393806199705775
1059.0, 0.5545372354204062
1060.0, 0.5679899956415737
1061.0, 0.6145860925458174
1062.0, 0.6290687398264473
1063.0, 0.6361280150403426
1064.0, 0.6394736211134447
1065.0, 0.6098544767782704
1066.0, 0.5635890582235069
1067.0, 0.5276116496061158
1068.0, 0.467900622764568
1069.0, 0.3945621797437909
1070.0, 0.35361020654840064
1071.0, 0.30959557573982965
1072.0, 0.2649209347904472
1073.0, 0.2331956202320961
1074.0, 0.20948734746545214
1075.0, 0.1805079157839459
1076.0, 0.15671084518837952
1077.0, 0.15382639213878613
1078.0, 0.13824294248662874
1079.0, 0.11809675631991204
1080.0, 0.11053639290157714
1081.0, 0.10485998857399105
1082.0, 0.08956104206889048
1083.0, 0.08476225209648772
1084.0, 0.0827803361224051
1085.0, 0.07571214118694164
1086.0, 0.07103286088221346
1087.0, 0.06716389162374996
1088.0, 0.059667348928254635
1089.0, 0.057310202077470514
1090.0, 0.05993123542874424
1091.0, 0.051053075878028875
1092.0, 0.045147066738900385
1093.0, 0.047569214311720925
1094.0, 0.04809934690535449
1095.0, 0.04351863973944534
1096.0, 0.03783196764072324
1097.0, 0.039099108451167285
1098.0, 0.032679237595236964
1099.0, 0.0333913283157506
1100.0, 0.03689197288685446
1101.0, 0.03190905283951906
1102.0, 0.028503164874521952
1103.0, 0.0341560696628739
1104.0, 0.028985936302700837
1105.0, 0.025177876105024092
1106.0, 0.03396140882011321
1107.0, 0.03550248077489295
1108.0, 0.035324358481146116
1109.0, 0.036461131167818774
1110.0, 0.03768435141588955
1111.0, 0.0364864298032949
1112.0, 0.029170604780163655
1113.0, 0.037161688652621705
1114.0, 0.037963911627103865
1115.0, 0.03657656503633173
1116.0, 0.037197653189913304
1117.0, 0.04179931038078819
1118.0, 0.038529712085622725
1119.0, 0.04493769010631711
1120.0, 0.046548944329868676
1121.0, 0.04489230996366516
1122.0, 0.04689749230270093
1123.0, 0.05408851601176363
1124.0, 0.047194966190531575
1125.0, 0.048280277109653554
1126.0, 0.04878490342435962
1127.0, 0.04191898337281174
1128.0, 0.03570034082689897
1129.0, 0.04682399024036161
1130.0, 0.04125316945868472
1131.0, 0.03776937280242086
1132.0, 0.04093910653340063
1133.0, 0.039574793822685014
1134.0, 0.03282261909870636
1135.0, 0.03599202609568666
1136.0, 0.0346540811001678
1137.0, 0.028525773747086716
1138.0, 0.024756273185255057
1139.0, 0.036541607328138506
1140.0, 0.026704203957868076
1141.0, 0.02591549007658655
1142.0, 0.02723020470374682
1143.0, 0.02219659073278794
1144.0, 0.011408959819214807
1145.0, 0.021863817583930273
1146.0, 0.016715192081334925
1147.0, 0.011659625791176794
1148.0, 0.013121125201982255
1149.0, 0.017001891646619374
1150.0, 0.0037891728826573382
1151.0, 0.008380741738286825
1152.0, 0.011586257895894422
1153.0, 0.009583948166725123
1154.0, 0.005943618241644686
1155.0, 0.011928268744477315
1156.0, 0.005587410672877071
1157.0, 0.007550116478899261
1158.0, 0.0112706702926014
1159.0, 0.009783864234139301
1160.0, 8.934919399326293e-05
1161.0, 0.0032851807142465425
1162.0, 0.012739363387055915
1163.0, 0.011198900923804385
1164.0, 0.007433031206491864
1165.0, 0.014694932823521406
1166.0, 0.0032848837538294318
1167.0, 0.00495054215008537
1168.0, 0.014326717848143886
1169.0, 0.01413118322038114
1170.0, 0.0026691877051772243
1171.0, 0.006947356342662697
1172.0, 0.012692315188642306
1173.0, 0.006149351329714199
1174.0, 0.006942993274315666
1175.0, 0.01116315113777129
1176.0, 0.00451369893248714
1177.0, 0.005561453582116067
1178.0, 0.010177736299680664
1179.0, 0.0069932383679313405
1180.0, 0.005331075714669335
1181.0, 0.010562458000599191
1182.0, 0.012169305110828112
1183.0, 0.003389922527591239
1184.0, 0.009061755050924445
1185.0, 0.009959101986357428
1186.0, 0.00547220593858519
1187.0, 0.006728988197585866
1188.0, 0.009953425139062083
1189.0, 0.009713620801730235
1190.0, 0.009965392616250249
1191.0, 0.011736376094455984
1192.0, 0.013882562360451937
1193.0, 0.0125008770995135
1194.0, 0.015659035540405
1195.0, 0.01540136207070665
1196.0, 0.011832675468928541
1197.0, 0.010190760149739802
1198.0, 0.015021934197012888
1199.0, 0.008263021939875034
1200.0, 0.011780480069398724
1201.0, 0.01229810264995934
1202.0, 0.007657918018885769
1203.0, 0.004659442994009243
1204.0, 0.019827837966416212
1205.0, 0.00994993549506825
1206.0, 0.0029228255678919995
1207.0, 0.007448564905803949
1208.0, 0.011715162245102743
1209.0, 0.00256079078681593
1210.0, 0.008219933726867091
1211.0, 0.011404441789702877
1212.0, 0.005636796433865516
1213.0, 0.00463604607829376
1214.0, 0.009771464163815994
1215.0, 0.005524357677771615
1216.0, 0.004145340158839122
1217.0, 0.009454356941860182
1218.0, 0.00807360049492758
1219.0, 0.004515322389957665
1220.0, 0.005930638696619849
1221.0, 0.007794935189608632
1222.0, 0.004828465430743374
1223.0, 0.008378875024441514
1224.0, 0.008647338377446682
1225.0, 0.005140310820470458
1226.0, 0.005224404680341903
1227.0, 0.00926073295677277
1228.0, 0.004796838816299763
1229.0, 0.004793996681757653
1230.0, 0.007626119487137405
1231.0, 0.008665863461859786
1232.0, 0.004330276391330783
1233.0, 0.013665961754539425
1234.0, 0.012071686225431656
1235.0, 0.005338212076058822
1236.0, 0.0045047269606551445
1237.0, 0.013178166566967048
1238.0, 0.0027120242532539312
1239.0, 0.009043730913036351
1240.0, 0.009464629698698518
1241.0, 0.005025141206436398
1242.0, 0.0033416482961573565
1243.0, 0.011796610756977537
1244.0, 0.006314408459820363
1245.0, 0.002056396239287558
1246.0, 0.007448532447047409
1247.0, 0.009203092612575747
1248.0, 0.003316665439588765
1249.0, 0.007192812133746846
1250.0, 0.011236251718195183
1251.0, 0.00691578832733889
1252.0, 0.006630101454957197
1253.0, 0.008932902220337885
1254.0, 0.00823164847986115
1255.0, 0.004380879443924419
1256.0, 0.01230970260456892
1257.0, 0.008244347135275273
1258.0, 0.006935696592915168
1259.0, 0.010640741930925202
1260.0, 0.011516288004673908
1261.0, 0.004951357086079416
1262.0, 0.012951513671913792
1263.0, 0.01448004339418773
1264.0, 0.010095569893955297
1265.0, 0.007181934514307521
1266.0, 0.014005705593287607
1267.0, 0.008770803612598046
1268.0, 0.003457365743699055
1269.0, 0.008416946784015758
1270.0, 0.010420921827571868
1271.0, 0.005245876412363652
1272.0, 0.013102032586778927
1273.0, 0.013590719941097526
1274.0, 0.007233956848808381
1275.0, 0.008140167132185213
1276.0, 0.01061515029475579
1277.0, 0.00742060631849197
1278.0, 0.00847104170312521
1279.0, 0.010570606041203343
1280.0, 0.00501292731149649
1281.0, 0.007592093224262531
1282.0, 0.012286748308713687
1283.0, 0.0065275319126742015
1284.0, 0.00425220997508526
1285.0, 0.009226322181189756
1286.0, 0.007416992111209355
1287.0, 0.005163528525110345
1288.0, 0.006786153661044655
1289.0, 0.010973680226416122
1290.0, 0.003492956207263376
1291.0, 0.0037423631995327027
1292.0, 0.010714718264461342
1293.0, 0.010054468597397503
1294.0, 0.004095110560486835
1295.0, 0.009659910747092833
1296.0, 0.0049212927316380824
1297.0, 0.0021723243108239397
1298.0, 0.011407126042287606
1299.0, 0.011903830798235482
1300.0, 0.000766047750855451
1301.0, 0.003048235265877379
1302.0, 0.010361034020278376
1303.0, 0.004778006593139829
1304.0, 0.007716422331914748
1305.0, 0.010634763701814801
1306.0, 0.006292854660550977
1307.0, 0.0021134358541392275
1308.0, 0.01216897942648653
1309.0, 0.007244835994261634
1310.0, 0.005914157690813315
1311.0, 0.01325066310598694
1312.0, 0.019600708701422366
1313.0, 0.0010637071445933138
1314.0, 0.0028809906784647682
1315.0, 0.012139491199830396
1316.0, 0.008078695336808333
1317.0, 0.0054450374636060735
1318.0, 0.014411004348897374
1319.0, 0.011450899411690366
1320.0, 0.0022687412796594127
1321.0, 0.012713712746808187
1322.0, 0.010774739263974372
1323.0, 0.004307563071092478
1324.0, 0.00819366827778596
1325.0, 0.01672943305638725
1326.0, 0.005620609210333433
1327.0, 0.009128598978664552
1328.0, 0.012144816602568949
1329.0, 0.009197675466754441
1330.0, 0.004794836615770837
1331.0, 0.013693799190686093
1332.0, 0.006683786603539579
1333.0, 0.0018899412398818926
1334.0, 0.008137196874999541
1335.0, 0.012442750208958237
1336.0, 0.0063460878869159975
1337.0, 0.009306199742953847
1338.0, 0.011366923213304061
1339.0, 0.004506425154896528
1340.0, 0.01002667475708156
1341.0, 0.013953897184293783
1342.0, 0.004522663971337905
1343.0, 0.00265382449113615
1344.0, 0.013527084279591036
1345.0, 0.009969145718016218
1346.0, 0.007309899953762415
1347.0, 0.011581635758394502
1348.0, 0.01607425501150851
1349.0, 0.0014542823651872523
1350.0, 0.014365024195248391
1351.0, 0.015041609401882155
1352.0, 0.009026922863553222
1353.0, 0.007964012324464625
1354.0, 0.013762066835944341
1355.0, 0.011543756758051174
1356.0, 0.012487787025531561
1357.0, 0.012718936078238527
1358.0, 0.01084746975330205
1359.0, 0.008050997388919243
1360.0, 0.008295991651160392
1361.0, 0.015275958401734312
1362.0, 0.0022446598258306317
1363.0, 0.01283299129401929
1364.0, 0.01355219444686857
1365.0, 0.006532471202862034
1366.0, 0.004261365903093626
1367.0, 0.015531416616200198
1368.0, 0.008772297006296453
1369.0, 0.009925206810851605
1370.0, 0.014110244971362516
1371.0, 0.01111219849851029
1372.0, 0.005241443825924094
1373.0, 0.009342677440152857
1374.0, 0.009067285318808023
1375.0, 0.004275431777018149
1376.0, 0.012495333831377138
1377.0, 0.011882324209251999
1378.0, 0.005068299811437822
1379.0, 0.008772880376048564
1380.0, 0.01645273742226112
1381.0, 0.009388398000611368
1382.0, 0.008986290990947497
1383.0, 0.013197288510390865
1384.0, 0.013501023717520572
1385.0, 0.007727501753090721
1386.0, 0.013733722504548768
1387.0, 0.01864087674494753
1388.0, 0.008656644366930841
1389.0, 0.014953992934080285
1390.0, 0.020317411768720345
1391.0, 0.01121032513869449
1392.0, 0.010360043453481255
1393.0, 0.021635313572905268
1394.0, 0.011214256000757827
1395.0, 0.012652463961606103
1396.0, 0.01878434542154617
1397.0, 0.01783402251124982
1398.0, 0.009321699879953762
1399.0, 0.019207169923472968
1400.0, 0.016387791487988097
1401.0, 0.00936648303267313
1402.0, 0.014760138477801133
1403.0, 0.019877617634248047
1404.0, 0.004571165870816079
1405.0, 0.006655332620769211
1406.0, 0.014435680732860778
1407.0, 0.010415572733370938
1408.0, 0.008388567269999196
1409.0, 0.014961142137793253
1410.0, 0.02138984753557207
1411.0, 0.0015241742683035214
1412.0, 0.016657209952461352
1413.0, 0.014040728784147895
1414.0, 0.005723806119318546
1415.0, 0.009366704513592759
1416.0, 0.018720377531377078
1417.0, 0.0044313843868245125
1418.0, 0.007785863590687745
1419.0, 0.018987316501424715
1420.0, 0.011263740357685407
1421.0, 0.007489934180532199
1422.0, 0.013867999259446848
1423.0, 0.017067420634221758
1424.0, 0.007542203925859121
1425.0, 0.00995933428776606
1426.0, 0.013701561266043053
1427.0, 0.00879097508525735
1428.0, 0.010958751514595681
1429.0, 0.021692909009247557
1430.0, 0.00046720865806205297
1431.0, 0.00904268370100236
1432.0, 0.016536623206770497
1433.0, 0.01030610925055439
1434.0, 0.007536057912521239
1435.0, 0.014729663768831048
1436.0, 0.01843571840889791
1437.0, 0.004010215003738668
1438.0, 0.019155974527900157
1439.0, 0.013725801082259816
1440.0, 0.008194666012399116
1441.0, 0.013781965503890175
1442.0, 0.02313698463926738
1443.0, 0.012427586826295526
1444.0, 0.010535576646745436
1445.0, 0.019861460317969596
1446.0, 0.016634852630649254
1447.0, 0.014352464028009661
1448.0, 0.019601686728510245
1449.0, 0.01889826854938635
1450.0, 0.009964890349929685
1451.0, 0.018345221822734924
1452.0, 0.01977357146015328
1453.0, 0.013178318642323932
1454.0, 0.012644286820304586
1455.0, 0.022997887134955142
1456.0, 0.012861638664521365
1457.0, 0.012577960274805107
1458.0, 0.023541393407101534
1459.0, 0.019616079080107037
1460.0, 0.015149829697063777
1461.0, 0.020772501677640928
1462.0, 0.02586012730403089
1463.0, 0.0068481146245533645
1464.0, 0.022919667988690075
1465.0, 0.021284256563662462
1466.0, 0.011424209596702374
1467.0, 0.010254106854580676
1468.0, 0.019187655552102986
1469.0, 0.011232596788559488
1470.0, 0.014281719822305023
1471.0, 0.02113484477901233
1472.0, 0.01771156365533434
1473.0, 0.016213322986838107
1474.0, 0.02062945077099422
1475.0, 0.021205000261207634
1476.0, 0.009594726572582028
1477.0, 0.020939400962585345
1478.0, 0.016216467845208003
1479.0, 0.009957955183377267
1480.0, 0.013690851063807265
1481.0, 0.02064623006086418
1482.0, 0.008243190179568862
1483.0, 0.007629704198415444
1484.0, 0.021033124290914255
1485.0, 0.01673679778204373
1486.0, 0.01137654730708623
1487.0, 0.01638921364693151
1488.0, 0.02386443844880472
1489.0, 0.005477987563243414
1490.0, 0.013597995965657637
1491.0, 0.015034358402729158
1492.0, 0.006574058844803325
1493.0, 0.009529529334192974
1494.0, 0.018134481331808144
1495.0, 0.007089876838806556
1496.0, 0.001787285156948315
1497.0, 0.02005265757515088
1498.0, 0.011502823293250156
1499.0, 0.0071986678652766764
1500.0, 0.015378014519466295
1501.0, 0.020693104313101507
1502.0, 0.003231283588406266
1503.0, 0.013777792125669144
1504.0, 0.01758007262350799
1505.0, 0.0075029118047396075
1506.0, 0.009349729801759217
1507.0, 0.01701386648481184
1508.0, 0.01316341272448293
1509.0, 0.0017406507374140654
1510.0, 0.025481069111548696
1511.0, 0.016930850354893966
1512.0, 0.005195546465486115
1513, 0.0
1514, 0.0
1515, 0.0
1516, 0.0
1517, 0.0
1518, 0.0
1519, 0.0
1520, 0.0
1521, 0.0
1522, 0.0
1523, 0.0
1524, 0.0
1525, 0.0
1526, 0.0
1527, 0.0
1528, 0.0
1529, 0.0
1530, 0.0
1531, 0.0
1532, 0.0
1533, 0.0
1534, 0.0
1535, 0.0
1536, 0.0
1537, 0.0
1538, 0.0
1539, 0.0
1540, 0.0
1541, 0.0
1542, 0.0
1543, 0.0
1544, 0.0
1545, 0.0
1546, 0.0
1547, 0.0
1548, 0.0
1549, 0.0
1550, 0.0
1551, 0.0
1552, 0.0
1553, 0.0
1554, 0.0
1555, 0.0
1556, 0.0
1557, 0.0
1558, 0.0
1559, 0.0
1560, 0.0
1561, 0.0
1562, 0.0
1563, 0.0
1564, 0.0
1565, 0.0
1566, 0.0
1567, 0.0
1568, 0.0
1569, 0.0
1570, 0.0
1571, 0.0
1572, 0.0
1573, 0.0
1574, 0.0
1575, 0.0
1576, 0.0
1577, 0.0
1578, 0.0
1579, 0.0
1580, 0.0
1581, 0.0
1582, 0.0
1583, 0.0
1584, 0.0
1585, 0.0
1586, 0.0
1587, 0.0
1588, 0.0
1589, 0.0
1590, 0.0
1591, 0.0
1592, 0.0
1593, 0.0
1594, 0.0
1595, 0.0
1596, 0.0
1597, 0.0
1598, 0.0
1599, 0.0
