30, 0.0
31, 0.0
32, 0.0
33, 0.0
34, 0.0
35, 0.0
36, 0.0
37, 0.0
38, 0.0
39, 0.0
40, 0.0
41, 0.0
42, 0.0
43, 0.0
44, 0.0
45, 0.0
46, 0.0
47, 0.0
48, 0.0
49, 0.0
50, 0.0
51, 0.0
52, 0.0
53, 0.0
54, 0.0
55, 0.0
56, 0.0
57, 0.0
58, 0.0
59, 0.0
60, 0.0
61, 0.0
62, 0.0
63, 0.0
64, 0.0
65, 0.0
66, 0.0
67, 0.0
68, 0.0
69, 0.0
70, 0.0
71, 0.0
72, 0.0
73, 0.0
74, 0.0
75, 0.0
76, 0.0
77, 0.0
78, 0.0
79, 0.0
80, 0.0
81, 0.0
82, 0.0
83, 0.0
84, 0.0
85, 0.0
86, 0.0
87, 0.0
88, 0.0
89, 0.0
90, 0.0
91, 0.0
92, 0.0
93, 0.0
94, 0.0
95, 0.0
96, 0.0
97, 0.0
98, 0.0
99, 0.0
100, 0.0
101, 0.0
102, 0.0
103, 0.0
104, 0.0
105, 0.0
106, 0.0
107, 0.0
108, 0.0
109, 0.0
110, 0.0
111, 0.0
112, 0.0
113, 0.0
114, 0.0
115, 0.0
116, 0.0
117, 0.0
118, 0.0
119, 0.0
120, 0.0
121, 0.0
122, 0.0
123, 0.0
124, 0.0
125, 0.0
126, 0.0
127, 0.0
128, 0.0
129, 0.0
130, 0.0
131, 0.0
132, 0.0
133, 0.0
134, 0.0
135, 0.0
136, 0.0
137, 0.0
138, 0.0
139, 0.0
140, 0.0
141, 0.0
142, 0.0
143, 0.0
144, 0.0
145, 0.0
146, 0.0
147, 0.0
148, 0.0
149, 0.0
150, 0.0
151, 0.0
152, 0.0
153, 0.0
154, 0.0
155, 0.0
156, 0.0
157, 0.0
158, 0.0
159, 0.0
160, 0.0
161, 0.0
162, 0.0
163, 0.0
164, 0.0
165, 0.0
166, 0.0
167, 0.0
168, 0.0
169, 0.0
170, 0.0
171, 0.0
172, 0.0
173, 0.0
174, 0.0
175, 0.0
176, 0.0
177, 0.0
178, 0.0
179, 0.0
180, 0.0
181.0, 0.0015700352716496483
182.0, 0.0023686907574169526
183.0, 0.0004092798650517089
184.0, 0.001111813834063963
185.0, 0.005163737950049881
186.0, 0.009145380857516082
187.0, 0.010832960355814792
188.0, 0.018399585922232602
189.0, 0.025489142008734724
190.0, 0.02538244161669884
191.0, 0.032312873932341155
192.0, 0.03501518492909911
193.0, 0.030243418476128367
194.0, 0.023540825078839738
195.0, 0.02779698025014172
196.0, 0.031784057999666396
197.0, 0.03516322823942563
198.0, 0.04005766152258285
199.0, 0.04612651474581773
200.0, 0.039925571646042796
201.0, 0.04124715213078157
202.0, 0.04348531448286584
203.0, 0.0370115551032956
204.0, 0.04150628969536988
205.0, 0.05197855250410078
206.0, 0.05267845796722311
207.0, 0.0431236448130386
208.0, 0.04143711261925785
209.0, 0.039107090589300786
210.0, 0.03267228824386855
211.0, 0.0298470629612225
212.0, 0.03773724530385762
213.0, 0.04114643742913217
214.0, 0.03819310185603351
215.0, 0.033939708720425885
216.0, 0.032050038761037854
217.0, 0.0283656554711794
218.0, 0.03118670015333002
219.0, 0.027814835252661065
220.0, 0.021545536236721275
221.0, 0.028195786679441837
222.0, 0.01950007447543029
223.0, 0.019175275159104905
224.0, 0.02336487854832788
225.0, 0.02111538395010545
226.0, 0.016980280085463442
227.0, 0.01602513148463468
228.0, 0.019728660829817873
229.0, 0.022882724968668573
230.0, 0.018220062959810664
231.0, 0.020932733098021506
232.0, 0.02157516220084017
233.0, 0.018437901796915228
234.0, 0.015291496650255167
235.0, 0.013472935992120284
236.0, 0.009001759929287279
237.0, 0.008398724777841931
238.0, 0.013595423025524942
239.0, 0.0173874295034206
240.0, 0.003930475765863672
241.0, 0.0031401992253516425
242.0, 0.015343979160543177
243.0, 0.01985882976051955
244.0, 0.010153457068113351
245.0, 0.012561442597180228
246.0, 0.015971044171438888
247.0, 0.014532993812204329
248.0, 0.024395798743480752
249.0, 0.02636817802780904
250.0, 0.023221329286983484
251.0, 0.014179124661173017
252.0, 5.237239797798164e-05
253.0, 0.007541189390042131
254.0, 0.008206898194376852
255.0, 0.006019390034218896
256.0, 0.009704556730373445
257.0, 0.017855265165544566
258.0, 0.014269177798842647
259.0, 0.01214606692095769
260.0, 0.012766208235716803
261.0, 0.00971895974983851
262.0, 0.002400818941059626
263.0, 0.006607203841993049
264.0, 0.01336406682713149
265.0, 0.014339195559335159
266.0, 0.009473493769491538
267.0, 0.010576773847523903
268.0, 0.01716354157948153
269.0, 0.020714400740576306
270.0, 0.01747548688891579
271.0, 0.02463502482519157
272.0, 0.02173106438809514
273.0, 0.014497396650512006
274.0, 0.009361548461872048
275.0, 0.005590546294276897
276.0, 0.017816124423911936
277.0, 0.024435140941388118
278.0, 0.019373207727383185
279.0, 0.009263667808613244
280.0, 0.012310982473626438
281.0, 0.01643805222862153
282.0, 0.013572604992990936
283.0, 0.009141464636622774
284.0, 0.013461940130299893
285.0, 0.012527666804999215
286.0, 0.008489476431030773
287.0, 0.0060894359986739185
288.0, 0.006628342094265524
289.0, 0.006679797572117845
290.0, 0.011104995230856741
291.0, 0.010601005401234187
292.0, 0.00441636284773889
293.0, 0.0015358142917239435
294.0, 0.003857404299378792
295.0, 0.0027091240844440206
296.0, 0.0008816826494571506
297.0, 0.0017301936281339662
298.0, 0.0022850157422351887
299.0, 0.00531889716402184
300.0, 0.003624286426021853
301.0, 0.0017280702293883017
302.0, 0.003262724714357171
303.0, 0.003996263550943296
304.0, 0.002921886244606349
305.0, 0.006093500495120922
306.0, 0.004896482909594087
307.0, 0.006609103122218762
308.0, 0.009759723642160848
309.0, 0.012727562470705243
310.0, 0.014030923282209217
311.0, 0.013184075727768115
312.0, 0.011778438321517709
313.0, 0.023482436028478992
314.0, 0.026692893813730027
315.0, 0.022234042792128067
316.0, 0.020750024897024984
317.0, 0.030262030165623618
318.0, 0.027218554271382672
319.0, 0.026090179069547005
320.0, 0.030935487320618023
321.0, 0.03599353240489341
322.0, 0.03951173785823473
323.0, 0.04080827425597572
324.0, 0.04427571645423821
325.0, 0.050595541660725066
326.0, 0.05464969595371544
327.0, 0.05505860078316273
328.0, 0.05119534080360292
329.0, 0.04795029249344949
330.0, 0.04820902197728681
331.0, 0.0465800600108293
332.0, 0.05053512510809088
333.0, 0.050244020845376554
334.0, 0.05387052619583233
335.0, 0.07017375755657854
336.0, 0.06566697576626394
337.0, 0.06874538753224216
338.0, 0.06919142071856177
339.0, 0.0631092409682079
340.0, 0.061696052477928455
341.0, 0.07396122933117248
342.0, 0.07906485121442815
343.0, 0.07349999383503908
344.0, 0.06607476644606763
345.0, 0.0721693766486794
346.0, 0.06837733125045173
347.0, 0.07288834256560475
348.0, 0.07861357921008946
349.0, 0.07791427162941492
350.0, 0.08965422688153535
351.0, 0.08350611662848748
352.0, 0.07650319686942282
353.0, 0.08093210498047822
354.0, 0.08988325320467204
355.0, 0.08377126664983528
356.0, 0.07807645771903529
357.0, 0.08040220204691448
358.0, 0.0848013160753639
359.0, 0.08054737927871038
360.0, 0.07462276066757015
361.0, 0.07120974068377915
362.0, 0.0716507611162057
363.0, 0.07346965691013821
364.0, 0.07265649284445912
365.0, 0.06553156740129526
366.0, 0.06179946002343514
367.0, 0.06358090812786586
368.0, 0.06634646078056115
369.0, 0.06052944767973237
370.0, 0.06362752279718709
371.0, 0.05682744813398853
372.0, 0.04592272172288185
373.0, 0.04198111616854564
374.0, 0.04791280348379018
375.0, 0.04765849175468474
376.0, 0.047745874076740843
377.0, 0.04328668673101315
378.0, 0.030619473257313266
379.0, 0.029500451121938498
380.0, 0.02800386717504812
381.0, 0.029644894574758062
382.0, 0.033376914081753264
383.0, 0.034314424265328665
384.0, 0.034533178088802484
385.0, 0.026918243613970754
386.0, 0.016543809334283167
387.0, 0.012294636404771263
388.0, 0.01799470447531204
389.0, 0.01815851519182944
390.0, 0.018201639112107752
391.0, 0.014470495296515116
392.0, 0.007749048481971689
393.0, 0.0033669365045929274
394.0, 0.004957435760689095
395.0, 0.00730333082492358
396.0, 0.010098904922464484
397.0, 0.0005582128407313202
398.0, 0.002258829053867471
399.0, 0.005746223068567255
400.0, 0.009048418342113881
401.0, 0.004860527859742626
402.0, 0.0054971796139585485
403.0, 0.0038145607605362206
404.0, 0.0030301806129681107
405.0, 0.0026651679604461475
406.0, 0.004894268603022937
407.0, 0.008082183866889038
408.0, 0.005653270311655568
409.0, 0.001551964779144844
410.0, 0.002482838840521335
411.0, 0.004280621159694892
412.0, 0.0044542279227266935
413.0, 0.00810498712885823
414.0, 0.015442955735601815
415.0, 0.01661202831511739
416.0, 0.025045625461045596
417.0, 0.040481812486226
418.0, 0.03904187372634922
419.0, 0.04464474877617025
420.0, 0.05569444903303736
421.0, 0.0639057524508992
422.0, 0.07196368317090354
423.0, 0.09377153479801398
424.0, 0.11263367920965339
425.0, 0.13006136357127462
426.0, 0.14468146117045938
427.0, 0.15914694853050154
428.0, 0.18211239083263914
429.0, 0.18879730654040533
430.0, 0.19859641219141216
431.0, 0.2118463264962744
432.0, 0.22022858133354473
433.0, 0.2210341213001237
434.0, 0.227044886956801
435.0, 0.22720529094220981
436.0, 0.22919359960674843
437.0, 0.23326509502166473
438.0, 0.22099769130932193
439.0, 0.2025445862174373
440.0, 0.194802129882662
441.0, 0.18907214530373442
442.0, 0.1823640059847886
443.0, 0.18525059961389415
444.0, 0.18785144347203087
445.0, 0.1953277578997647
446.0, 0.19488864004543593
447.0, 0.18682310833878377
448.0, 0.18780711029965116
449.0, 0.1926605077108666
450.0, 0.1822490003509915
451.0, 0.17012178350338683
452.0, 0.1607207778954973
453.0, 0.14724753529165413
454.0, 0.14251710100344694
455.0, 0.13085285159761562
456.0, 0.12045678861008406
457.0, 0.11291685189553613
458.0, 0.10086070580157706
459.0, 0.09011978752145691
460.0, 0.07435331900753066
461.0, 0.06593043284399037
462.0, 0.05966538048613162
463.0, 0.046789980343447696
464.0, 0.04542133542128777
465.0, 0.05016303882164797
466.0, 0.040871154504605
467.0, 0.030177134450352285
468.0, 0.034117608400074995
469.0, 0.02761485565483295
470.0, 0.02765344932986093
471.0, 0.029398486921549265
472.0, 0.026198144317197535
473.0, 0.021153912725606717
474.0, 0.02712832707350696
475.0, 0.023592067105246448
476.0, 0.015463828063235175
477.0, 0.012774528667597564
478.0, 0.018302671406055036
479.0, 0.024211705291245375
480.0, 0.022935938395233734
481.0, 0.022954952600508168
482.0, 0.025707529322452263
483.0, 0.026423802300277122
484.0, 0.02188649288088401
485.0, 0.026098440560365997
486.0, 0.02197401324396437
487.0, 0.01925359640660466
488.0, 0.02019075533513755
489.0, 0.017626589999529155
490.0, 0.013748182219239713
491.0, 0.021376787485001332
492.0, 0.023309926258635018
493.0, 0.021319521040184652
494.0, 0.023298160908466863
495.0, 0.018623204600104158
496.0, 0.014283628955471297
497.0, 0.018231814156888973
498.0, 0.0229293513445968
499.0, 0.026248573253929517
500.0, 0.037330257159447607
501.0, 0.030927170851232123
502.0, 0.03163871768722366
503.0, 0.03284573084014309
504.0, 0.03165290270846952
505.0, 0.036552910712936565
506.0, 0.04327887674168263
507.0, 0.03817259338641131
508.0, 0.03840933374913687
509.0, 0.061630624900260514
510.0, 0.10199107331069515
511.0, 0.10625229449861542
512.0, 0.08210496204930026
513.0, 0.06679338099788969
514.0, 0.06873596013405348
515.0, 0.07389664996278139
516.0, 0.07010848826838778
517.0, 0.0735307630883371
518.0, 0.0760041714733799
519.0, 0.07649028405725726
520.0, 0.07567310432257622
521.0, 0.0725323467736705
522.0, 0.08057181422713879
523.0, 0.08389654684811068
524.0, 0.07776114764752665
525.0, 0.07201217484719014
526.0, 0.07255668827956724
527.0, 0.0597556337638721
528.0, 0.05665890333298047
529.0, 0.0526392879721138
530.0, 0.051469659344338475
531.0, 0.05336433078007256
532.0, 0.041746390208743316
533.0, 0.03436658135045566
534.0, 0.030225335947492687
535.0, 0.025208288785992686
536.0, 0.021155210484787548
537.0, 0.02271031580118844
538.0, 0.022007997298758502
539.0, 0.01230640472386584
540.0, 0.010327662159659533
541.0, 0.01005887239413534
542.0, 0.004859436951886149
543.0, 0.012208008561363736
544.0, 0.011541042423042727
545.0, 0.00893968475700595
546.0, 0.0027739838793017875
547.0, 0.003854263023466496
548.0, 0.0009614845328452999
549.0, 0.0024307283287334433
550.0, 0.003375073536893123
551.0, 0.005717698802152338
552.0, 0.005525652751568513
553.0, 0.0007459727493445028
554.0, 0.00020486325650736898
555.0, 0.002444290632110117
556.0, 0.0061090019043218684
557.0, 0.0033738654150702978
558.0, 0.002593384930552371
559.0, 0.0006598610384110841
560.0, 0.00716774891546075
561.0, 0.005372850482284003
562.0, 0.009043331676752163
563.0, 0.002406604976274487
564.0, 0.006055705495280914
565.0, 0.005336201095797936
566.0, 0.00447246946957875
567.0, 0.006799128840061921
568.0, 0.0010913455875278333
569.0, 0.005119468240266601
570.0, 0.0032329242995751475
571.0, 0.007341027522491009
572.0, 0.002616735347208828
573.0, 0.011739628653073923
574.0, 0.01036693332538493
575.0, 0.00406240005413443
576.0, 0.00818274771733549
577.0, 0.008969352744183265
578.0, 0.012030099922774323
579.0, 0.007826724083932373
580.0, 0.0033749386627331436
581.0, 0.005342759475554285
582.0, 0.01113185956983275
583.0, 0.009385922692425412
584.0, 0.009135738811560722
585.0, 0.010401226541215731
586.0, 0.011653882443773937
587.0, 0.012468148199579242
588.0, 0.015883277004291953
589.0, 0.026402356587416676
590.0, 0.029660218301684704
591.0, 0.029710894129522738
592.0, 0.03688604729711938
593.0, 0.0418614090310473
594.0, 0.05140857812312816
595.0, 0.061450085105252475
596.0, 0.06596329993673447
597.0, 0.06793196589597436
598.0, 0.07570293478424783
599.0, 0.09330821046451938
600.0, 0.0935569474328826
601.0, 0.09582203606971407
602.0, 0.09862943617371529
603.0, 0.09834409740854522
604.0, 0.10489372336959839
605.0, 0.11307591828649033
606.0, 0.11740635703513766
607.0, 0.11650271288304702
608.0, 0.11130893009613847
609.0, 0.10740243324554243
610.0, 0.11182706437896621
611.0, 0.10339278970107434
612.0, 0.0945008114940335
613.0, 0.09182215047242613
614.0, 0.09165812129168424
615.0, 0.08891336709805951
616.0, 0.08957009878589707
617.0, 0.08197700012643246
618.0, 0.07883782319659498
619.0, 0.07465626397308349
620.0, 0.06460362444739376
621.0, 0.05439096812302098
622.0, 0.03885080495750958
623.0, 0.03010903894414345
624.0, 0.032554668734673976
625.0, 0.02684318442228856
626.0, 0.0105781952423364
627.0, 0.006956259373823812
628.0, 0.0005753263248175428
629.0, 0.0061179852805473755
630.0, 0.011834083909565599
631.0, 0.011595293106116535
632.0, 0.008822704145868412
633.0, 0.007180712188006312
634.0, 0.0052195944672110365
635.0, 0.0010070033638235497
636.0, 0.0015595059246518352
637.0, 0.0016846911701683
638.0, 0.005838186586075638
639.0, 0.00024882378429840553
640.0, 0.0024859961383893784
641.0, 0.0008500120316450743
642.0, 0.0032518652035886286
643.0, 0.00474279769076474
644.0, 0.006479555387484972
645.0, 0.0015028506994227509
646.0, 0.00822496087664433
647.0, 0.01205414435133443
648.0, 0.005562588530041613
649.0, 0.0008469359159766017
650.0, 0.005424177706465579
651.0, 0.01373771416864577
652.0, 0.005792566065528961
653.0, 0.005076131349762904
654.0, 0.010394836020236048
655.0, 0.010006503163523738
656.0, 0.0029938609413259058
657.0, 0.012076995493451221
658.0, 0.008431407376499602
659.0, 0.004530793481599124
660.0, 0.005616885752414358
661.0, 0.008803591417566464
662.0, 0.00855144898815209
663.0, 0.003221146446022064
664.0, 0.008080144406883262
665.0, 0.009866608663614216
666.0, 0.003902736777665904
667.0, 0.0004210779224194149
668.0, 0.00754296161088808
669.0, 0.007181595827450764
670.0, 0.0020648723066796883
671.0, 0.007716970434239063
672.0, 0.008702478825702936
673.0, 0.0031782885891959716
674.0, 0.006435126839280659
675.0, 0.010032188885824403
676.0, 0.00973327320429714
677.0, 0.010874035750826481
678.0, 0.0060519081566037585
679.0, 0.00506465789960808
680.0, 0.01877548858857604
681.0, 0.013644239234814563
682.0, 0.02073626496904706
683.0, 0.01684605118573868
684.0, 0.011961305744986292
685.0, 0.015887282260176678
686.0, 0.021340128664317958
687.0, 0.014609281926987693
688.0, 0.00852388011419792
689.0, 0.006272485814273544
690.0, 0.01380837224561695
691.0, 0.0177252916098237
692.0, 0.011314173728463136
693.0, 0.01877643643252595
694.0, 0.018872818645581563
695.0, 0.018514230557527496
696.0, 0.019442485142795528
697.0, 0.017965281026236655
698.0, 0.013521906188856809
699.0, 0.01310791537733713
700.0, 0.01565765049234021
701.0, 0.01625135335069216
702.0, 0.018292948534843766
703.0, 0.020182469716425542
704.0, 0.019170165525086096
705.0, 0.01734279274503244
706.0, 0.019387273050572675
707.0, 0.012092934796205983
708.0, 0.011964725646553492
709.0, 0.014756154093309796
710.0, 0.017609461355576374
711.0, 0.022786007486049694
712.0, 0.01643061881134452
713.0, 0.01949116736251124
714.0, 0.025523164302177832
715.0, 0.0225366610017563
716.0, 0.021358438382068717
717.0, 0.03070554868194043
718.0, 0.024193637547129842
719.0, 0.02571605412148543
720.0, 0.03173998373973912
721.0, 0.02497386357850878
722.0, 0.01790690770092391
723.0, 0.02145775737222193
724.0, 0.01632428432136487
725.0, 0.013873182255817745
726.0, 0.009640727581128421
727.0, 0.009599201973594977
728.0, 0.013928325509995723
729.0, 0.01681544891837442
730.0, 0.01726387363574727
731.0, 0.023433818098772836
732.0, 0.017178935096925602
733.0, 0.004514878299163177
734.0, 0.0053004151113890605
735.0, 0.010728130306102946
736.0, 0.0026106161363273856
737.0, 0.0009846846383528133
738.0, 0.0004199110388454967
739.0, 0.0016498772196901804
740.0, 0.0034876900747620424
741.0, 0.008572742258135237
742.0, 0.002676127181806883
743.0, 0.0026810053938510635
744.0, 0.010673202689655877
745.0, 0.012740459763939777
746.0, 0.007011535953760027
747.0, 0.0015314417975190906
748.0, 0.002236790373969337
749.0, 0.009346712556232312
750.0, 0.010193162597548553
751.0, 0.008167689326855332
752.0, 0.00665718339351197
753.0, 0.007766930974615919
754.0, 0.0006013769070993393
755.0, 0.0037694331752101684
756.0, 0.012727984541203576
757.0, 0.010577166432246893
758.0, 0.006830925870736402
759.0, 0.0050984227591726805
760.0, 0.0059520356315170804
761.0, 0.0024330901164776445
762.0, 0.008012473932106965
763.0, 0.0018665003438072584
764.0, 0.00020493333815464935
765.0, 0.0007786099529087621
766.0, 0.0010798160052239545
767.0, 0.002087763992933921
768.0, 0.008677397510426699
769.0, 0.012785135832634211
770.0, 0.00573283316805283
771.0, 0.004095143851044061
772.0, 0.0018311810705584075
773.0, 0.007606853442366294
774.0, 0.011159804647774375
775.0, 0.005297097816569413
776.0, 0.003924422828047584
777.0, 0.003940374834345768
778.0, 0.0070278968592569985
779.0, 0.011608002405043113
780.0, 0.00949810183436279
781.0, 0.005120226940700806
782.0, 0.009731280097069243
783.0, 0.011363628546370201
784.0, 0.005418536036890265
785.0, 0.005974021356731031
786.0, 0.010903929932110312
787.0, 0.013429107877167275
788.0, 0.016391272498668223
789.0, 0.026336732172178436
790.0, 0.0212464295838223
791.0, 0.005923103775377549
792.0, 0.004626727869621476
793.0, 0.007930759347016234
794.0, 0.011936395606753213
795.0, 0.012496379383127436
796.0, 0.002024895109498193
797.0, 0.01536133787276135
798.0, 0.014151204734979116
799.0, 0.011967781639831275
800.0, 0.015060784728993692
801.0, 0.018562606442790373
802.0, 0.02280028462899487
803.0, 0.028409549433376976
804.0, 0.02975389321564416
805.0, 0.026147712494826406
806.0, 0.031297234380720976
807.0, 0.033661819765568445
808.0, 0.0280956127696329
809.0, 0.03027027815787948
810.0, 0.039897829856714376
811.0, 0.04576508474420619
812.0, 0.049608690194820025
813.0, 0.05698700375005633
814.0, 0.0616171229761379
815.0, 0.06161779483777868
816.0, 0.0649149368476974
817.0, 0.07027099781511839
818.0, 0.07559872514057428
819.0, 0.08354137879324233
820.0, 0.08399084481949781
821.0, 0.09021415479444263
822.0, 0.10789238636241393
823.0, 0.11603432874292427
824.0, 0.1104150424817109
825.0, 0.11726833833241226
826.0, 0.13023451345894266
827.0, 0.13917617006041982
828.0, 0.1387566570455665
829.0, 0.13398620332025943
830.0, 0.13502679059744863
831.0, 0.1308547794956552
832.0, 0.13217690772631513
833.0, 0.12476787365394573
834.0, 0.12702788236376059
835.0, 0.1314743948068688
836.0, 0.12773066158642774
837.0, 0.12871706670797675
838.0, 0.13260462311425417
839.0, 0.13460764910646394
840.0, 0.12695918510094487
841.0, 0.13159113099936745
842.0, 0.13302858703738402
843.0, 0.12887641230419583
844.0, 0.14072491370465537
845.0, 0.1345341373322869
846.0, 0.12931680226189277
847.0, 0.13039523842885095
848.0, 0.1386422287792621
849.0, 0.1423540162773198
850.0, 0.13519913071151285
851.0, 0.12499055577803306
852.0, 0.12099096607837759
853.0, 0.12992286298372568
854.0, 0.12724623405708788
855.0, 0.11628354440197927
856.0, 0.11204772330862665
857.0, 0.11296144219261876
858.0, 0.1083968122194724
859.0, 0.1040118460102454
860.0, 0.10571484297268673
861.0, 0.09896179285306769
862.0, 0.09896013111642599
863.0, 0.10186561960433192
864.0, 0.10327774433295986
865.0, 0.10115761776696872
866.0, 0.09065912406347022
867.0, 0.0777095638201705
868.0, 0.07727291847439269
869.0, 0.08143699818299674
870.0, 0.07151931411470792
871.0, 0.06534162581708859
872.0, 0.07167610615338788
873.0, 0.06868527484660897
874.0, 0.05963222189882014
875.0, 0.06162435777972996
876.0, 0.060224475601489975
877.0, 0.05533084993557684
878.0, 0.058761266080031814
879.0, 0.06055582807439705
880.0, 0.04951062348685624
881.0, 0.047514294048093805
882.0, 0.05453371554193979
883.0, 0.05079462253355669
884.0, 0.04806332930144769
885.0, 0.04213265134557478
886.0, 0.03700003205843552
887.0, 0.03952849649475118
888.0, 0.04108985464510558
889.0, 0.03121549136445294
890.0, 0.027049819190439847
891.0, 0.030921462877168994
892.0, 0.03159634454070692
893.0, 0.026322224283305586
894.0, 0.025329682417970505
895.0, 0.02806598493784115
896.0, 0.012675796952436449
897.0, 0.014346866909294273
898.0, 0.01414115105738898
899.0, 0.019385746622619524
900.0, 0.01940514529625497
901.0, 0.01637837634913422
902.0, 0.01640403952929608
903.0, 0.01264443128853466
904.0, 0.011612328578602305
905.0, 0.02726826485210674
906.0, 0.016785880768824635
907.0, 0.014941196003186129
908.0, 0.015478211657641277
909.0, 0.011635280616947997
910.0, 0.011811889079318598
911.0, 0.0057587703115433595
912.0, 0.0038223980330332045
913.0, 0.0012981369475286856
914.0, 0.0028985752149820825
915.0, 0.0014918940723603095
916.0, 0.0016100910922355776
917.0, 0.0035428035761549625
918.0, 0.0028179735853061188
919.0, 0.005312167556106855
920.0, 0.0018506238525266055
921.0, 0.00167568058102485
922.0, 0.0007523774242556456
923.0, 0.0034583288688276623
924.0, 0.00366777705959082
925.0, 0.0009666278800156083
926.0, 0.0027072415915558676
927.0, 0.0014944888731819928
928.0, 0.0020624077938294866
929.0, 0.011943648786032478
930.0, 0.009972035493472841
931.0, 0.0070585351588249795
932.0, 0.011186638179403297
933.0, 0.013238815737521165
934.0, 0.015832372602651367
935.0, 0.013692621136528712
936.0, 0.016596152109497483
937.0, 0.022597099456832068
938.0, 0.02433336563254718
939.0, 0.03013612824262668
940.0, 0.04091729371238365
941.0, 0.047150338923425364
942.0, 0.052109801675301555
943.0, 0.06971551488413201
944.0, 0.06495988207218445
945.0, 0.07153013259262012
946.0, 0.09171609499558865
947.0, 0.10556859939646604
948.0, 0.12085977102958789
949.0, 0.14503656358072725
950.0, 0.1644402409192112
951.0, 0.19850976267452428
952.0, 0.23322960473739468
953.0, 0.2789287528588462
954.0, 0.31625681579207693
955.0, 0.3692458586738676
956.0, 0.4337985560949855
957.0, 0.493317953550854
958.0, 0.5624942716655665
959.0, 0.6292465295296875
960.0, 0.6886238698668392
961.0, 0.7789755306794058
962.0, 0.8439256627108083
963.0, 0.8954253071824358
964.0, 0.9416007180314202
965.0, 0.9691493588214009
966.0, 0.9821142933181944
967.0, 0.9988386677977795
968.0, 0.9778232195555864
969.0, 0.9459188324152378
970.0, 0.8979909944345595
971.0, 0.8471662829853821
972.0, 0.7937928690856814
973.0, 0.7281639178421894
974.0, 0.6571553469559787
975.0, 0.6008102963087694
976.0, 0.5575915441444068
977.0, 0.498394563345393
978.0, 0.4263710241802925
979.0, 0.3654767122048489
980.0, 0.3082851737010896
981.0, 0.24870874909106705
982.0, 0.19422872186222864
983.0, 0.14890158803311562
984.0, 0.1291201900274096
985.0, 0.09912391384311953
986.0, 0.07851806980891088
987.0, 0.06500131202710707
988.0, 0.050238446409918196
989.0, 0.03606029751281015
990.0, 0.028361424199543125
991.0, 0.025029504729860024
992.0, 0.012914472734449919
993.0, 0.011395936003214433
994.0, 0.0039549437463148335
995.0, 0.002422875555098956
996.0, 0.003711275751612218
997.0, 0.004265331203445668
998.0, 0.0033201834426933472
999.0, 0.0040581719201042196
1000.0, 0.0010477885659335362
1001.0, 0.0009760012567451588
1002.0, 0.00026402108203991054
1003.0, 0.0019380891413026558
1004.0, 0.0027108770252425585
1005.0, 0.006419706998041961
1006.0, 0.0067394923800617795
1007.0, 0.0017480733322620772
1008.0, 0.009404436108355353
1009.0, 0.006132505661564996
1010.0, 0.0005815009217185817
1011.0, 0.0037169530730985475
1012.0, 0.002073571999554898
1013.0, 0.004247726378344224
1014.0, 0.013022833787314225
1015.0, 0.007848648087375237
1016.0, 0.001829483515896767
1017.0, 0.002579653104830603
1018.0, 0.004645482765909354
1019.0, 0.006996851301914339
1020.0, 0.0032339955949825614
1021.0, 0.005227608944383465
1022.0, 0.006285019127346967
1023.0, 0.0055906274918356945
1024.0, 0.010537673346928723
1025.0, 0.017539120278459386
1026.0, 0.013078684793060773
1027.0, 0.005633825073390317
1028.0, 0.016796586125539904
1029.0, 0.019223875736817945
1030.0, 0.017338612979738252
1031.0, 0.02111377054831215
1032.0, 0.023220641143300327
1033.0, 0.02108307213292509
1034.0, 0.01723110076965618
1035.0, 0.011501634248985636
1036.0, 0.017129460585288563
1037.0, 0.010780861579935037
1038.0, 0.01746220222763483
1039.0, 0.008532968294606083
1040.0, 0.012046269175030336
1041.0, 0.019174534172281325
1042.0, 0.017479245848512653
1043.0, 0.019013509512466508
1044.0, 0.02166855197425977
1045.0, 0.009376702102699462
1046.0, 0.02168802019178492
1047.0, 0.033083617204308045
1048.0, 0.037002727293976696
1049.0, 0.038580039905032754
1050.0, 0.03803795842415542
1051.0, 0.044728076535716234
1052.0, 0.056455785216701804
1053.0, 0.05003062381919668
1054.0, 0.039001068964186446
1055.0, 0.04609720295719639
1056.0, 0.04191843480102009
1057.0, 0.03377956058365029
1058.0, 0.022258048962770238
1059.0, 0.01998815370407519
1060.0, 0.02298345462197226
1061.0, 0.020387927854239363
1062.0, 0.018655962949343644
1063.0, 0.02625774909064725
1064.0, 0.020461413778288265
1065.0, 0.014781187946897291
1066.0, 0.018956023411218777
1067.0, 0.02570830118719891
1068.0, 0.023465245799364775
1069.0, 0.01736988745073031
1070.0, 0.01685286830821003
1071.0, 0.02088510776731269
1072.0, 0.02466915613020261
1073.0, 0.0315155753052566
1074.0, 0.016969465895662023
1075.0, 0.028142544467791207
1076.0, 0.02937895172692707
1077.0, 0.036011620038481046
1078.0, 0.04066715992770629
1079.0, 0.03685699814353658
1080.0, 0.033378171226093406
1081.0, 0.0343758100029332
1082.0, 0.040964293555631116
1083.0, 0.047045463034898254
1084.0, 0.04564435211484477
1085.0, 0.052251837627317624
1086.0, 0.042822761483955925
1087.0, 0.027640115784132786
1088.0, 0.019579671418359697
1089.0, 0.023748793075276435
1090.0, 0.029977706029938544
1091.0, 0.026247660846513546
1092.0, 0.026444701577427305
1093.0, 0.02324593467965024
1094.0, 0.029005209156806513
1095.0, 0.025692065723740012
1096.0, 0.027580244940637842
1097.0, 0.028440646205339884
1098.0, 0.02554599342240495
1099.0, 0.03147331304971013
1100.0, 0.03954681407643653
1101.0, 0.03046341306560751
1102.0, 0.03276305713263657
1103.0, 0.027597890368882973
1104.0, 0.023828167419878386
1105.0, 0.027108076082904654
1106.0, 0.022356812450770577
1107.0, 0.018859626299890443
1108.0, 0.014279563320947822
1109.0, 0.009815583657506457
1110.0, 0.011810199884184736
1111.0, 0.014369864917884716
1112.0, 0.019143792892483334
1113.0, 0.03269949478242084
1114.0, 0.023156055398973283
1115.0, 0.021039845554362415
1116.0, 0.017766871178595572
1117.0, 0.023800392729215872
1118.0, 0.022154277673702136
1119.0, 0.019279792806263164
1120.0, 0.026582338013364702
1121.0, 0.021900355158146256
1122.0, 0.013827063863261253
1123.0, 0.019481269907790127
1124.0, 0.02312924330631548
1125.0, 0.006755105434442521
1126.0, 0.01011338998067389
1127.0, 0.013006669823441723
1128.0, 0.01568885291247916
1129.0, 0.024977076712401788
1130.0, 0.023360711556248505
1131.0, 0.011687514553305151
1132.0, 0.023015361217974803
1133.0, 0.024782614959837152
1134.0, 0.021262863469479597
1135.0, 0.02474271344444727
1136.0, 0.022499607568496737
1137.0, 0.017994331924731086
1138.0, 0.01313062723185515
1139.0, 0.008965162185154398
1140.0, 0.015421778924296555
1141.0, 0.023148071671117914
1142.0, 0.013201029017814114
1143.0, 0.015432183161823675
1144.0, 0.018610814077837674
1145.0, 0.017376085456728363
1146.0, 0.01934211809245383
1147.0, 0.011912694697721526
1148.0, 0.007014390103466195
1149.0, 0.00786635411024507
1150.0, 0.01066598376497063
1151.0, 0.012303160934553688
1152.0, 0.010403509858427746
1153.0, 0.008994201521902313
1154.0, 0.017385186624701097
1155.0, 0.014112420010562827
1156.0, 0.013693747695775211
1157.0, 0.00866352211000931
1158.0, 0.0024054476444908546
1159.0, 0.005175543544159597
1160.0, 0.012628374159288509
1161.0, 0.010475336313836492
1162.0, 0.0032864634846372616
1163.0, 0.003118379302967545
1164.0, 0.006633049715612375
1165.0, 0.008497218000466752
1166.0, 0.0036885311416181253
1167.0, 0.001147879012675311
1168.0, 0.00247202494977285
1169.0, 0.0017784827574597543
1170.0, 0.007018685716521541
1171.0, 0.0028614193832262893
1172.0, 0.0012323468079446175
1173.0, 0.0012307085624043948
1174.0, 0.002039739876902702
1175.0, 0.005363037835741904
1176.0, 0.0016257140077749032
1177.0, 0.002908270580630345
1178.0, 0.006497903613313521
1179.0, 0.0011405883482313306
1180.0, 0.007131617290346306
1181.0, 0.007755233426864933
1182.0, 0.007779633181313228
1183.0, 0.0048707251621730365
1184.0, 0.010463004027719994
1185.0, 0.013111258454880988
1186.0, 0.002686213223798347
1187.0, 0.015572992682923146
1188.0, 0.01826208419971435
1189.0, 0.012798371167379847
1190.0, 0.009683503232939804
1191.0, 0.006505135869099225
1192.0, 0.00711327516396661
1193.0, 0.008748821693623612
1194.0, 0.016538241816289274
1195.0, 0.019833995120899228
1196.0, 0.01264998922827587
1197.0, 0.007506624356368935
1198.0, 0.010213645915536376
1199.0, 0.011152929593882912
1200.0, 0.007346322938815832
1201.0, 0.0105400940543446
1202.0, 0.013610621154331728
1203.0, 0.014100811388097111
1204.0, 0.021542149085592963
1205.0, 0.018433515844451076
1206.0, 0.015993819830502416
1207.0, 0.014317624527679729
1208.0, 0.011259657238503015
1209.0, 0.0095694338378964
1210.0, 0.00845300419832112
1211.0, 0.013117902880275834
1212.0, 0.011251138967719733
1213.0, 0.00987167773828692
1214.0, 0.0076922734966418565
1215.0, 0.007573128400869866
1216.0, 0.015900021216284477
1217.0, 0.021118013148845715
1218.0, 0.01802515003061221
1219.0, 0.01417569724176551
1220.0, 0.021749962294213554
1221.0, 0.03153626819618384
1222.0, 0.027648985730690287
1223.0, 0.02768823315816482
1224.0, 0.031235268987732247
1225.0, 0.032336289082108866
1226.0, 0.016503650609703168
1227.0, 0.010393013783018443
1228.0, 0.021641601413735567
1229.0, 0.01889420592608454
1230.0, 0.0021387658416832365
1231.0, 0.003894534448047503
1232.0, 0.00819589589653167
1233.0, 0.008101769709946577
1234.0, 0.011426447834701418
1235.0, 0.010631846004592964
1236.0, 0.014466029569304442
1237.0, 0.010097426307365289
1238.0, 0.020880048647723283
1239.0, 0.012523847241157798
1240.0, 0.0035727375479614907
1241.0, 0.004209096451600142
1242.0, 0.004099837404368509
1243.0, 0.006890098556286231
1244.0, 0.009406932620673226
1245.0, 0.013607538219541946
1246.0, 0.013344867565018532
1247.0, 0.01246198445976799
1248.0, 0.014058593161741169
1249.0, 0.011818408014886858
1250.0, 0.006594059838888439
1251.0, 0.016430636858929547
1252.0, 0.009870727345026293
1253.0, 0.007231224221514939
1254.0, 0.0023181149827023965
1255.0, 0.0018621198528230782
1256.0, 0.0060178755412974875
1257.0, 0.011433667761508694
1258.0, 0.011928791360935213
1259.0, 0.007039142722762619
1260.0, 0.00784686641946229
1261.0, 0.016388774536578735
1262.0, 0.019490249867149572
1263.0, 0.014346148348386104
1264.0, 0.01663672356311186
1265.0, 0.011805032551733432
1266.0, 0.021861264759584536
1267.0, 0.0249008789959116
1268.0, 0.027443949242230366
1269.0, 0.017180065753768285
1270.0, 0.0031738296224038424
1271.0, 0.004888428241956804
1272.0, 0.009784024642731164
1273.0, 0.01453128466351272
1274.0, 0.021347018996592897
1275.0, 0.018163767778449264
1276.0, 0.008889133999342236
1277.0, 0.008125760173266638
1278.0, 0.0061536477073934216
1279.0, 0.0037594808035745124
1280.0, 0.013005700880763067
1281.0, 0.012182699936631208
1282.0, 0.012662157364904303
1283.0, 0.013041085695638518
1284.0, 0.012999809136409204
1285.0, 0.0057177465712564945
1286.0, 0.0001393189251098638
1287.0, 0.0009757691316253092
1288.0, 0.0013426970834361047
1289.0, 0.011128372988032773
1290.0, 0.013558499571079137
1291.0, 0.013007164194658801
1292.0, 0.013651786639705827
1293.0, 0.010572611114492599
1294.0, 0.00817617609966741
1295.0, 0.01401814928617956
1296.0, 0.013915897055417906
1297.0, 0.002292351789910649
1298, 0.0
1299, 0.0
1300, 0.0
1301, 0.0
1302, 0.0
1303, 0.0
1304, 0.0
1305, 0.0
1306, 0.0
1307, 0.0
1308, 0.0
1309, 0.0
1310, 0.0
1311, 0.0
1312, 0.0
1313, 0.0
1314, 0.0
1315, 0.0
1316, 0.0
1317, 0.0
1318, 0.0
1319, 0.0
1320, 0.0
1321, 0.0
1322, 0.0
1323, 0.0
1324, 0.0
1325, 0.0
1326, 0.0
1327, 0.0
1328, 0.0
1329, 0.0
1330, 0.0
1331, 0.0
1332, 0.0
1333, 0.0
1334, 0.0
1335, 0.0
1336, 0.0
1337, 0.0
1338, 0.0
1339, 0.0
1340, 0.0
1341, 0.0
1342, 0.0
1343, 0.0
1344, 0.0
1345, 0.0
1346, 0.0
1347, 0.0
1348, 0.0
1349, 0.0
1350, 0.0
1351, 0.0
1352, 0.0
1353, 0.0
1354, 0.0
1355, 0.0
1356, 0.0
1357, 0.0
1358, 0.0
1359, 0.0
1360, 0.0
1361, 0.0
1362, 0.0
1363, 0.0
1364, 0.0
1365, 0.0
1366, 0.0
1367, 0.0
1368, 0.0
1369, 0.0
1370, 0.0
1371, 0.0
1372, 0.0
1373, 0.0
1374, 0.0
1375, 0.0
1376, 0.0
1377, 0.0
1378, 0.0
1379, 0.0
1380, 0.0
1381, 0.0
1382, 0.0
1383, 0.0
1384, 0.0
1385, 0.0
1386, 0.0
1387, 0.0
1388, 0.0
1389, 0.0
1390, 0.0
1391, 0.0
1392, 0.0
1393, 0.0
1394, 0.0
1395, 0.0
1396, 0.0
1397, 0.0
1398, 0.0
1399, 0.0
1400, 0.0
1401, 0.0
1402, 0.0
1403, 0.0
1404, 0.0
1405, 0.0
1406, 0.0
1407, 0.0
1408, 0.0
1409, 0.0
1410, 0.0
1411, 0.0
1412, 0.0
1413, 0.0
1414, 0.0
1415, 0.0
1416, 0.0
1417, 0.0
1418, 0.0
1419, 0.0
1420, 0.0
1421, 0.0
1422, 0.0
1423, 0.0
1424, 0.0
1425, 0.0
1426, 0.0
1427, 0.0
1428, 0.0
1429, 0.0
1430, 0.0
1431, 0.0
1432, 0.0
1433, 0.0
1434, 0.0
1435, 0.0
1436, 0.0
1437, 0.0
1438, 0.0
1439, 0.0
1440, 0.0
1441, 0.0
1442, 0.0
1443, 0.0
1444, 0.0
1445, 0.0
1446, 0.0
1447, 0.0
1448, 0.0
1449, 0.0
1450, 0.0
1451, 0.0
1452, 0.0
1453, 0.0
1454, 0.0
1455, 0.0
1456, 0.0
1457, 0.0
1458, 0.0
1459, 0.0
1460, 0.0
1461, 0.0
1462, 0.0
1463, 0.0
1464, 0.0
1465, 0.0
1466, 0.0
1467, 0.0
1468, 0.0
1469, 0.0
1470, 0.0
1471, 0.0
1472, 0.0
1473, 0.0
1474, 0.0
1475, 0.0
1476, 0.0
1477, 0.0
1478, 0.0
1479, 0.0
1480, 0.0
1481, 0.0
1482, 0.0
1483, 0.0
1484, 0.0
1485, 0.0
1486, 0.0
1487, 0.0
1488, 0.0
1489, 0.0
1490, 0.0
1491, 0.0
1492, 0.0
1493, 0.0
1494, 0.0
1495, 0.0
1496, 0.0
1497, 0.0
1498, 0.0
1499, 0.0
1500, 0.0
1501, 0.0
1502, 0.0
1503, 0.0
1504, 0.0
1505, 0.0
1506, 0.0
1507, 0.0
1508, 0.0
1509, 0.0
1510, 0.0
1511, 0.0
1512, 0.0
1513, 0.0
1514, 0.0
1515, 0.0
1516, 0.0
1517, 0.0
1518, 0.0
1519, 0.0
1520, 0.0
1521, 0.0
1522, 0.0
1523, 0.0
1524, 0.0
1525, 0.0
1526, 0.0
1527, 0.0
1528, 0.0
1529, 0.0
1530, 0.0
1531, 0.0
1532, 0.0
1533, 0.0
1534, 0.0
1535, 0.0
1536, 0.0
1537, 0.0
1538, 0.0
1539, 0.0
1540, 0.0
1541, 0.0
1542, 0.0
1543, 0.0
1544, 0.0
1545, 0.0
1546, 0.0
1547, 0.0
1548, 0.0
1549, 0.0
1550, 0.0
1551, 0.0
1552, 0.0
1553, 0.0
1554, 0.0
1555, 0.0
1556, 0.0
1557, 0.0
1558, 0.0
1559, 0.0
1560, 0.0
1561, 0.0
1562, 0.0
1563, 0.0
1564, 0.0
1565, 0.0
1566, 0.0
1567, 0.0
1568, 0.0
1569, 0.0
1570, 0.0
1571, 0.0
1572, 0.0
1573, 0.0
1574, 0.0
1575, 0.0
1576, 0.0
1577, 0.0
1578, 0.0
1579, 0.0
1580, 0.0
1581, 0.0
1582, 0.0
1583, 0.0
1584, 0.0
1585, 0.0
1586, 0.0
1587, 0.0
1588, 0.0
1589, 0.0
1590, 0.0
1591, 0.0
1592, 0.0
1593, 0.0
1594, 0.0
1595, 0.0
1596, 0.0
1597, 0.0
1598, 0.0
1599, 0.0
