30, 0.0
31, 0.0
32, 0.0
33, 0.0
34, 0.0
35, 0.0
36, 0.0
37, 0.0
38, 0.0
39, 0.0
40, 0.0
41, 0.0
42, 0.0
43, 0.0
44, 0.0
45, 0.0
46, 0.0
47, 0.0
48, 0.0
49, 0.0
50, 0.0
51, 0.0
52, 0.0
53, 0.0
54, 0.0
55, 0.0
56, 0.0
57, 0.0
58, 0.0
59, 0.0
60, 0.0
61, 0.0
62, 0.0
63, 0.0
64, 0.0
65, 0.0
66, 0.0
67, 0.0
68, 0.0
69, 0.0
70, 0.0
71, 0.0
72, 0.0
73, 0.0
74.0, 0.0001522386147397904
75.0, 0.0011157741510675703
76.0, 0.0006212487687895531
77.0, 3.677226816045931e-05
78.0, 9.245952695330676e-05
79.0, 0.00021582072699416173
80.0, 0.0010674779283611536
81.0, 0.002343478107436985
82.0, 0.0030765291642538078
83.0, 0.004920966196736767
84.0, 0.006682442667000651
85.0, 0.007819127571718388
86.0, 0.010273262989809425
87.0, 0.01282441096725903
88.0, 0.015683224244338007
89.0, 0.01952972225431226
90.0, 0.023874618332267613
91.0, 0.027883201376390873
92.0, 0.031248200610930733
93.0, 0.03481115489923682
94.0, 0.037311928252711304
95.0, 0.03882063256623565
96.0, 0.0391549573629009
97.0, 0.038846225446179446
98.0, 0.03730639892084275
99.0, 0.03443053723590033
100.0, 0.032267447162592514
101.0, 0.030294407852957176
102.0, 0.028631465307669992
103.0, 0.02754809147975659
104.0, 0.027535503306967787
105.0, 0.028572303327714522
106.0, 0.030576439439259626
107.0, 0.03268085599813799
108.0, 0.03448962209999828
109.0, 0.0370384787470674
110.0, 0.041525708655613024
111.0, 0.04363701395793011
112.0, 0.045851164413845936
113.0, 0.0483943266982936
114.0, 0.05123113912983231
115.0, 0.053367869910298696
116.0, 0.05461727227730437
117.0, 0.054692708210774446
118.0, 0.05433758013479455
119.0, 0.051853399718221053
120.0, 0.04847868604760686
121.0, 0.04799742845597956
122.0, 0.04517931718262866
123.0, 0.04111784773212439
124.0, 0.036134800971124044
125.0, 0.03212629708786476
126.0, 0.029003491856941146
127.0, 0.026041573167602503
128.0, 0.021961267205087526
129.0, 0.020164287881910853
130.0, 0.019027290700342953
131.0, 0.01806279210508761
132.0, 0.015485149214167323
133.0, 0.014556761140931514
134.0, 0.014207896816516432
135.0, 0.01349732603860315
136.0, 0.013755612421305888
137.0, 0.013619303113753874
138.0, 0.013090572649613276
139.0, 0.012773212278891097
140.0, 0.012347402591349923
141.0, 0.011239209272642783
142.0, 0.009028395111965083
143.0, 0.009709805698536121
144.0, 0.00919044202909451
145.0, 0.008350894279769564
146.0, 0.009414763391219891
147.0, 0.008525184785616617
148.0, 0.008109241316645885
149.0, 0.008817578882107565
150.0, 0.009827186541701845
151.0, 0.010760090462731912
152.0, 0.011731225854418253
153.0, 0.012888108391347998
154.0, 0.014976999823147217
155.0, 0.01678838098445628
156.0, 0.01838329824991821
157.0, 0.020803800443951883
158.0, 0.022208448293143463
159.0, 0.023522570892687895
160.0, 0.02524993358203808
161.0, 0.026160984922640202
162.0, 0.0264328881394745
163.0, 0.026220849970621546
164.0, 0.02575520867308189
165.0, 0.023308561459651746
166.0, 0.021263306165827344
167.0, 0.020127964649581043
168.0, 0.018711738811326182
169.0, 0.01791891384636496
170.0, 0.01744468115543712
171.0, 0.017061557821926383
172.0, 0.016720613520205617
173.0, 0.016670076212840633
174.0, 0.01707760752886772
175.0, 0.018588262536121117
176.0, 0.01916833405101428
177.0, 0.020375894869429277
178.0, 0.02277463733102626
179.0, 0.021601238550317894
180.0, 0.02166817774169998
181.0, 0.021986088497636634
182.0, 0.02112099466559015
183.0, 0.021016974625097874
184.0, 0.020598697930457408
185.0, 0.019701620039033925
186.0, 0.018273164843233745
187.0, 0.017009226164883866
188.0, 0.01584909547458639
189.0, 0.014771846025648109
190.0, 0.014778896793409046
191.0, 0.01438514622193236
192.0, 0.013695548144873127
193.0, 0.012884550897162035
194.0, 0.014221251066747344
195.0, 0.014232677618637845
196.0, 0.012821295971063544
197.0, 0.014941484827524103
198.0, 0.015637031831294137
199.0, 0.016710081167943654
200.0, 0.019502843691035998
201.0, 0.021831635573946385
202.0, 0.024518876889498095
203.0, 0.027383979323480297
204.0, 0.029978045052521815
205.0, 0.03359167895442155
206.0, 0.03671868230695317
207.0, 0.03876234507146497
208.0, 0.037744763727201716
209.0, 0.037885071583739376
210.0, 0.0376193686402558
211.0, 0.035669603766699566
212.0, 0.03356598720451485
213.0, 0.031025877723014038
214.0, 0.02827835759112323
215.0, 0.02586489852325362
216.0, 0.02429786026604427
217.0, 0.02269361317844947
218.0, 0.02088607083610165
219.0, 0.01929126394437841
220.0, 0.017905830140183647
221.0, 0.01651713916334931
222.0, 0.014967623755308045
223.0, 0.013650853744884468
224.0, 0.012413640031023822
225.0, 0.01118677231324811
226.0, 0.009829189734611356
227.0, 0.008618125807375943
228.0, 0.007460550251251059
229.0, 0.0063095299803418
230.0, 0.004962258025275293
231.0, 0.004061325304057892
232.0, 0.0031757176404696836
233.0, 0.0020407504379414336
234.0, 0.000818526242342391
235.0, 0.000365514772601276
236.0, 0.0005459503980401662
237.0, 0.0012240129719088056
238.0, 0.0021238060158282886
239.0, 0.0025255926628054
240.0, 0.0024337556012718883
241.0, 0.002425636405403558
242.0, 0.0027189470031012243
243.0, 0.0029355163923895024
244.0, 0.0028965185495488507
245.0, 0.002741526351944943
246.0, 0.0033942285579968996
247.0, 0.003997366231801423
248.0, 0.0034659832341222834
249.0, 0.0023241899937187205
250.0, 0.002252810306690366
251.0, 0.0027227784108017506
252.0, 0.0015523749676697668
253.0, 0.001490529224053958
254.0, 0.0013123354970412757
255.0, 0.000735481422271169
256.0, 0.000818317559823807
257.0, 0.0006181690748655403
258.0, 0.0005551402845430026
259.0, 0.0009750819371399544
260.0, 0.0009530410892538096
261.0, 0.001091009367126142
262.0, 0.001459802443351752
263.0, 0.002207956476935141
264.0, 0.0029445948336062934
265.0, 0.0035663530081362802
266.0, 0.004080033371595392
267.0, 0.004603325842496859
268.0, 0.005351987636006591
269.0, 0.006238521431905826
270.0, 0.007221516349978691
271.0, 0.008023648435487599
272.0, 0.008646687174322595
273.0, 0.009263025966598453
274.0, 0.010050493953238723
275.0, 0.01067679551556855
276.0, 0.011293254585996887
277.0, 0.011819102074472636
278.0, 0.012024355378176066
279.0, 0.012519663284704908
280.0, 0.013288334557409204
281.0, 0.014076903479774134
282.0, 0.013387915579677938
283.0, 0.013698429774951336
284.0, 0.013991099397058117
285.0, 0.013757499860952706
286.0, 0.012673618977067235
287.0, 0.012669675006199964
288.0, 0.01293974613783948
289.0, 0.012651787395859591
290.0, 0.01148669464206215
291.0, 0.010874302362423826
292.0, 0.010573112689828166
293.0, 0.009860249000400738
294.0, 0.009338032648934262
295.0, 0.008465388959521541
296.0, 0.0073052606871432035
297.0, 0.006756428244726315
298.0, 0.005716731947311628
299.0, 0.005047241069702035
300.0, 0.0051253813498802255
301.0, 0.005594921136491134
302.0, 0.00606517948387889
303.0, 0.006193451307024603
304.0, 0.005632986265144429
305.0, 0.006891340698992111
306.0, 0.008826179818797072
307.0, 0.010768763362345942
308.0, 0.011552446916829643
309.0, 0.013941064716347266
310.0, 0.015999225230847777
311.0, 0.018080987741125997
312.0, 0.022482402287382804
313.0, 0.02646389182020017
314.0, 0.03125141110256937
315.0, 0.03715761547137796
316.0, 0.04342025078761279
317.0, 0.050482348250911434
318.0, 0.05890043487290497
319.0, 0.06903308451155343
320.0, 0.07762023711582591
321.0, 0.08571051852458289
322.0, 0.0928944226581367
323.0, 0.09859989260638649
324.0, 0.10297599624972864
325.0, 0.10262497326783913
326.0, 0.09936001752958437
327.0, 0.09705445421437461
328.0, 0.09315228634248893
329.0, 0.08820272762036642
330.0, 0.08290298796574858
331.0, 0.07965140650741542
332.0, 0.07678363930757305
333.0, 0.07354284821569039
334.0, 0.06983343137670725
335.0, 0.06693639864502385
336.0, 0.06390784286241266
337.0, 0.060943114711580745
338.0, 0.05814253508191012
339.0, 0.055099170521157516
340.0, 0.050751555696604174
341.0, 0.04668299666006554
342.0, 0.044497626263583286
343.0, 0.04066211624961346
344.0, 0.03818616070718913
345.0, 0.036733673215848556
346.0, 0.03567565010263152
347.0, 0.03304422027795306
348.0, 0.03083477759171395
349.0, 0.029336447012591155
350.0, 0.028798147794739014
351.0, 0.0300186705772758
352.0, 0.031035548034410113
353.0, 0.03133526889317979
354.0, 0.03051554404276391
355.0, 0.031347825940054565
356.0, 0.03151774039848863
357.0, 0.03033036731341926
358.0, 0.029808450457865548
359.0, 0.028655348501998055
360.0, 0.027255473172755083
361.0, 0.025836181843340526
362.0, 0.02466258840465859
363.0, 0.023276941346245285
364.0, 0.022073430892820527
365.0, 0.02144846698217984
366.0, 0.020272547458349274
367.0, 0.019111814188825047
368.0, 0.018305026576814636
369.0, 0.01837925088379797
370.0, 0.018054370483005306
371.0, 0.017981111314863962
372.0, 0.017980444333077824
373.0, 0.017520361501436838
374.0, 0.017282442878775357
375.0, 0.01652547171818315
376.0, 0.015470343852406298
377.0, 0.015293420167114238
378.0, 0.014622648230355738
379.0, 0.013736543589125343
380.0, 0.012796822158018355
381.0, 0.012308609524552691
382.0, 0.011598382316306197
383.0, 0.011165552646732966
384.0, 0.011149715232679486
385.0, 0.01094453672623112
386.0, 0.010639987648311026
387.0, 0.010224503693752447
388.0, 0.009732062890993796
389.0, 0.01003364161550489
390.0, 0.009552533377067017
391.0, 0.009038107463051897
392.0, 0.009068524315802533
393.0, 0.008656001428344263
394.0, 0.007770618472019
395.0, 0.0066850298937219735
396.0, 0.0056914380416332525
397.0, 0.00628677131429737
398.0, 0.006402177479228974
399.0, 0.0061885009130593005
400.0, 0.005950759274333072
401.0, 0.004743652057995414
402.0, 0.004346984301678097
403.0, 0.004404601008979767
404.0, 0.003956461170135815
405.0, 0.00425504612207139
406.0, 0.004623064330417926
407.0, 0.004940043502582556
408.0, 0.005108808518815865
409.0, 0.005319923451204288
410.0, 0.00576435770354782
411.0, 0.006342267805404084
412.0, 0.006579962489157213
413.0, 0.007531665042525875
414.0, 0.008645811149769233
415.0, 0.009807084061911886
416.0, 0.011111600530544103
417.0, 0.012789640596683192
418.0, 0.014618259015642234
419.0, 0.016539827795311518
420.0, 0.018621156725164196
421.0, 0.020649806121770326
422.0, 0.022667053501029096
423.0, 0.024698702864617013
424.0, 0.026824209767788276
425.0, 0.028856782485002657
426.0, 0.030833965461199653
427.0, 0.03280101126526373
428.0, 0.03509286387767402
429.0, 0.03626199710039751
430.0, 0.037196169885449895
431.0, 0.03843634209767823
432.0, 0.04026697158953584
433.0, 0.04062270828461517
434.0, 0.040910832896266645
435.0, 0.042050852719972706
436.0, 0.04163184922059362
437.0, 0.040608417564794975
438.0, 0.03912267843439845
439.0, 0.03729290789959945
440.0, 0.036181436281832714
441.0, 0.03427102056711779
442.0, 0.03227973657050389
443.0, 0.030895021147110673
444.0, 0.03054664153115391
445.0, 0.02951775478996457
446.0, 0.02858667367425009
447.0, 0.028618482435491543
448.0, 0.02942851866733094
449.0, 0.029663327660736035
450.0, 0.030077305508133614
451.0, 0.03162811485459362
452.0, 0.030821082245383335
453.0, 0.031003294070429007
454.0, 0.031330179640655036
455.0, 0.030536496001787324
456.0, 0.03075853573697367
457.0, 0.031032156152419204
458.0, 0.03153697625119352
459.0, 0.03260390974130333
460.0, 0.03288309101650129
461.0, 0.033774348510495454
462.0, 0.03548725422821363
463.0, 0.03826762594953665
464.0, 0.04057545592963577
465.0, 0.04358920186659295
466.0, 0.04659726569884851
467.0, 0.04834170985216668
468.0, 0.05180777792626587
469.0, 0.05331528118708911
470.0, 0.054133079629937415
471.0, 0.05674085967058468
472.0, 0.05839140040866522
473.0, 0.059758567000479934
474.0, 0.06021950834293817
475.0, 0.05860932655223917
476.0, 0.06022315329187892
477.0, 0.060909669443424054
478.0, 0.06088805338506644
479.0, 0.06101078538271033
480.0, 0.06093236618132058
481.0, 0.06100498384867635
482.0, 0.06091206951074539
483.0, 0.0600820148198026
484.0, 0.05841931971219797
485.0, 0.05612564590810852
486.0, 0.05346510036798005
487.0, 0.050824554545546796
488.0, 0.0478193155619979
489.0, 0.043865886467680894
490.0, 0.03963645140438244
491.0, 0.03621350717244329
492.0, 0.03430905633989779
493.0, 0.031371660241901446
494.0, 0.02826235885544576
495.0, 0.026431255325293092
496.0, 0.02340059822622007
497.0, 0.02192794673255976
498.0, 0.020890784192402433
499.0, 0.01861466854069832
500.0, 0.01665081704264655
501.0, 0.015436840277586529
502.0, 0.014501769587906273
503.0, 0.013252027090288108
504.0, 0.012346928352962137
505.0, 0.011805779921284164
506.0, 0.011383616540374362
507.0, 0.01080909809304459
508.0, 0.011327172160743911
509.0, 0.01128794638889997
510.0, 0.011381142862225151
511.0, 0.012285317790493666
512.0, 0.012143078983442274
513.0, 0.01213531470776341
514.0, 0.012297085565864525
515.0, 0.012665508061484483
516.0, 0.01347448311483799
517.0, 0.012971012372698704
518.0, 0.012841145698756645
519.0, 0.01421350241617422
520.0, 0.014107244744674554
521.0, 0.014422122861480716
522.0, 0.015617263136455131
523.0, 0.01772797087760358
524.0, 0.017177987220180182
525.0, 0.018666250322764328
526.0, 0.02082840493803786
527.0, 0.0226519372808201
528.0, 0.021598564219624757
529.0, 0.02326559970902515
530.0, 0.02456935432003882
531.0, 0.02428265161195535
532.0, 0.023499534983509995
533.0, 0.022034209537077822
534.0, 0.020423218913610708
535.0, 0.018789449542952343
536.0, 0.016778547346271773
537.0, 0.015069811130893975
538.0, 0.01351442233279658
539.0, 0.011959053608139033
540.0, 0.009976147869443588
541.0, 0.007994293768212474
542.0, 0.006543927732162105
543.0, 0.005499757269390307
544.0, 0.004151746869010715
545.0, 0.00411028694246672
546.0, 0.004071447037025812
547.0, 0.0038022538872196743
548.0, 0.00324230737102184
549.0, 0.0023085309237286904
550.0, 0.0022157152524164172
551.0, 0.0024190798470785395
552.0, 0.0017667618202024022
553.0, 0.001703684185541346
554.0, 0.0017587933646963183
555.0, 0.0016110823516565882
556.0, 0.000881969227025598
557.0, 0.00037605584207524724
558.0, 0.0015047572613802736
559.0, 0.0023299909403024545
560.0, 0.0010166791622678569
561.0, 0.0014866267638988465
562.0, 0.0010392580408615302
563.0, 0.0007074463166937526
564.0, 0.001136962191804368
565.0, 0.0007253683555642528
566.0, 0.0011046683003759232
567.0, 0.0011480895949770426
568.0, 0.0004913969361219558
569.0, 0.0009241422067572604
570.0, 0.0005618382682048437
571.0, 0.0003167739477294947
572.0, 0.00046162192050873776
573.0, 0.0006581432275712192
574.0, 0.0007788411607231708
575.0, 0.0007670209067802146
576.0, 0.0005891974695505226
577.0, 0.0001863913858526636
578.0, 0.00028648510368572836
579.0, 0.00040522605499619023
580.0, 0.00043937655163612117
581.0, 0.00033626091463318935
582.0, 0.00010247318894328374
583.0, 6.893789744081727e-05
584.0, 0.00035591396117471693
585.0, 0.0010917903053833857
586.0, 0.0007291980271656913
587.0, 0.0011434250524843337
588.0, 0.0014406383297807645
589.0, 0.0007329371671576239
590.0, 0.0005785195729334041
591.0, 0.0004076095937585858
592.0, 0.0004017030980519282
593.0, 0.0006453255775351778
594.0, 0.000763270635325572
595.0, 0.00034381380902408557
596.0, 0.0002569611000567569
597.0, 0.000801152894671357
598.0, 0.0015335243685697811
599.0, 0.0008743050075375465
600.0, 0.0004947972867932035
601.0, 0.0006062844771050974
602.0, 0.0004390087016428908
603.0, 0.0005684018620813636
604.0, 0.0008423347435837585
605.0, 0.0009710283573964564
606.0, 0.0004397955604437265
607.0, 0.00029335894941657874
608.0, 0.0005413656153671081
609.0, 0.0008264312097555202
610.0, 0.0007177871009377553
611.0, 0.0015137684507165517
612.0, 0.0012367880065468828
613.0, 0.0006367942367653356
614.0, 0.00032879105046103367
615.0, 0.0005093463851560991
616.0, 0.0004893873847913643
617.0, 0.0004029088484726579
618.0, 0.00032261577460586865
619.0, 0.00029500160393422194
620.0, 0.00038776477831504037
621.0, 0.0007802767308933559
622.0, 0.0011220834794035898
623.0, 0.0002020822694358428
624.0, 0.0004124011448116479
625.0, 0.00046294722693208923
626.0, 0.0003196265019109132
627.0, 0.00024403911676179732
628.0, 0.0005178990875212236
629.0, 0.0009214669853361549
630.0, 0.0010529244668293853
631.0, 0.0005680947388512092
632.0, 0.0011313958410947406
633.0, 0.0006898636625385117
634.0, 0.00019245493176778527
635.0, 0.00017601444903891992
636.0, 0.00020935530418204413
637.0, 0.00022853902393762954
638.0, 0.0005242774068796857
639.0, 0.000903760807869883
640.0, 0.0003135475776329736
641.0, 0.0008447489151321198
642.0, 0.0007213494630106243
643.0, 0.0001441005761584149
644.0, 9.918420881369317e-05
645.0, 0.0007916315777003831
646.0, 0.0007319630916608799
647.0, 0.0006059089973080091
648.0, 0.0011999787582889251
649.0, 0.000943251102230785
650.0, 0.0004483430540565232
651.0, 0.00018668964246123466
652.0, 0.0003380334905548539
653.0, 0.0001398324300125104
654.0, 0.0006223971869421948
655.0, 0.0005986214231460654
656.0, 4.7126333430040816e-05
657.0, 0.00012274558200516087
658.0, 0.0002941016646271695
659.0, 0.00023520919656387746
660.0, 0.00010044480009467632
661.0, 0.00022086129436893042
662.0, 7.770454492303495e-05
663.0, 0.00040726976218425774
664.0, 0.0008119941812550958
665.0, 0.0009690238881077562
666.0, 0.001689539079686812
667.0, 0.0008509037104901982
668.0, 0.0005544282957681951
669.0, 0.0013459992822781707
670.0, 0.0011423392801874408
671.0, 0.0012379418198401795
672.0, 0.0013627531997217229
673.0, 0.0014773210490466797
674.0, 0.0016267905337573334
675.0, 0.0014148773997595034
676.0, 0.0008852826024564792
677.0, 0.0008484044615544365
678.0, 0.0021061215023076714
679.0, 0.0024081721728432537
680.0, 0.0015414099682749811
681.0, 0.0011304900726294932
682.0, 0.0018143153178717501
683.0, 0.0018381489198963238
684.0, 0.0014674308067493531
685.0, 0.001497538781794361
686.0, 0.0018920966452596628
687.0, 0.00202294287134201
688.0, 0.002267231423665273
689.0, 0.0024153537581386593
690.0, 0.0024395642132884064
691.0, 0.0023468492712432334
692.0, 0.002646124721490273
693.0, 0.0014292442894843227
694.0, 0.0011626463840997488
695.0, 0.0026393114162280443
696.0, 0.0016254105010370856
697.0, 0.002430572861119
698.0, 0.003202589769352144
699.0, 0.003387049321354206
700.0, 0.002865886547527965
701.0, 0.0029752571172637333
702.0, 0.002987641717177614
703.0, 0.002995703160248528
704.0, 0.003166915824187624
705.0, 0.0032780615734799667
706.0, 0.0032618810011049767
707.0, 0.0032360840351437644
708.0, 0.003223929290217399
709.0, 0.0030095385302350438
710.0, 0.0035900974351235947
711.0, 0.003752848630065152
712.0, 0.003811038202294789
713.0, 0.00497295960781676
714.0, 0.00416534961200415
715.0, 0.004362159995763376
716.0, 0.0049136628647872774
717.0, 0.005138122185732997
718.0, 0.006376308224798128
719.0, 0.006828116941230392
720.0, 0.0066699839528984745
721.0, 0.0062007401819073075
722.0, 0.006214106091445892
723.0, 0.0062831235595428685
724.0, 0.006317284671529259
725.0, 0.006288269373721819
726.0, 0.006178237023325149
727.0, 0.006970268283295391
728.0, 0.00763647449754765
729.0, 0.008256670577333163
730.0, 0.008806403375196602
731.0, 0.008725897947958921
732.0, 0.008911008179244326
733.0, 0.009851791178392848
734.0, 0.010945699300294294
735.0, 0.010498993807534576
736.0, 0.011170744759254834
737.0, 0.011464151127383186
738.0, 0.012065097928494117
739.0, 0.013613958601379081
740.0, 0.014367423168547309
741.0, 0.015002664998214829
742.0, 0.015577141831074096
743.0, 0.016145606711157504
744.0, 0.016809399718461123
745.0, 0.018722906026813882
746.0, 0.020212833796767138
747.0, 0.021623232539569194
748.0, 0.02367983745224409
749.0, 0.025170194135862807
750.0, 0.02713040201823412
751.0, 0.029301821116443482
752.0, 0.03146876453551668
753.0, 0.03333762062767705
754.0, 0.03505203326515459
755.0, 0.036618403211266
756.0, 0.037768518047062986
757.0, 0.038075881680359865
758.0, 0.03902268267911695
759.0, 0.04002489402804345
760.0, 0.040530314703486385
761.0, 0.040500361925221086
762.0, 0.042062863504761655
763.0, 0.043482283668934855
764.0, 0.0445999454568772
765.0, 0.045879157643420224
766.0, 0.04832402392141006
767.0, 0.05007910205596642
768.0, 0.05162118976848841
769.0, 0.05397346241021051
770.0, 0.05782945902173231
771.0, 0.06239183090086625
772.0, 0.06389745502021556
773.0, 0.06802879869360155
774.0, 0.07410716438673119
775.0, 0.07670514188101568
776.0, 0.08196075865569609
777.0, 0.08672919044411749
778.0, 0.09063937651035671
779.0, 0.09379534946588504
780.0, 0.09837850277885189
781.0, 0.10273213712649347
782.0, 0.10591749906428757
783.0, 0.10849809705913266
784.0, 0.11250297749667004
785.0, 0.1160976258174799
786.0, 0.1198951604084377
787.0, 0.12155865190493986
788.0, 0.12006580968342283
789.0, 0.12457736029472147
790.0, 0.12680461385330968
791.0, 0.12894030277105908
792.0, 0.13183748142969504
793.0, 0.13582543492872443
794.0, 0.14123857489006772
795.0, 0.14744545849382826
796.0, 0.15418449658442002
797.0, 0.16106616145283573
798.0, 0.16672839362444047
799.0, 0.17443270064513564
800.0, 0.18287008167865954
801.0, 0.1918711450726305
802.0, 0.20183865403068232
803.0, 0.2103196158708964
804.0, 0.22353583300422786
805.0, 0.23557634033548833
806.0, 0.24365688668430105
807.0, 0.25964337906500523
808.0, 0.2724324786110704
809.0, 0.28428712915447774
810.0, 0.2955667256687512
811.0, 0.30598500718995214
812.0, 0.3255086522630291
813.0, 0.34191198864952377
814.0, 0.3600276610744477
815.0, 0.3823712276257244
816.0, 0.4060697619937599
817.0, 0.4247628911919264
818.0, 0.44244438249905305
819.0, 0.4582039949788836
820.0, 0.4697184293769421
821.0, 0.47025500632244455
822.0, 0.47730356378073574
823.0, 0.4948037592762563
824.0, 0.5262618931401307
825.0, 0.5774860470116534
826.0, 0.6554072023240538
827.0, 0.7556721604034875
828.0, 0.8592880763716706
829.0, 0.9445999560566062
830.0, 0.9904609195859069
831.0, 0.9734637638781345
832.0, 0.9085354014768816
833.0, 0.8073784783793466
834.0, 0.6851231564730051
835.0, 0.5708280587831971
836.0, 0.4702456546843562
837.0, 0.3854120387497733
838.0, 0.31696357631827843
839.0, 0.26470497645048896
840.0, 0.2265906959758793
841.0, 0.1979083124858257
842.0, 0.17484678178210686
843.0, 0.15294791112733575
844.0, 0.13727236721825783
845.0, 0.12517891981262075
846.0, 0.11385957226121386
847.0, 0.10263117637259186
848.0, 0.09418023964024101
849.0, 0.0864323992617363
850.0, 0.0803882869697243
851.0, 0.07539426191192115
852.0, 0.07060211059722706
853.0, 0.06573817075142148
854.0, 0.0627625052245056
855.0, 0.059881314533491256
856.0, 0.05713187490303578
857.0, 0.0556025191723666
858.0, 0.05177661327826066
859.0, 0.04881519450088646
860.0, 0.04655362307621485
861.0, 0.04497095322864362
862.0, 0.04463871252309992
863.0, 0.04213293808828182
864.0, 0.040816763526538964
865.0, 0.04034641027667454
866.0, 0.0397606065356545
867.0, 0.039145232614222134
868.0, 0.03654412664751741
869.0, 0.034936095095499026
870.0, 0.03421517449846842
871.0, 0.0321021666777778
872.0, 0.03207538984444627
873.0, 0.030494930634196026
874.0, 0.028551817358714333
875.0, 0.027074010707287887
876.0, 0.02601832672117603
877.0, 0.02569389192060292
878.0, 0.026007118321672372
879.0, 0.026567033736162655
880.0, 0.027046528000140797
881.0, 0.028516977438643464
882.0, 0.029910155527852592
883.0, 0.030963450665577173
884.0, 0.031861608524846353
885.0, 0.03309490845536205
886.0, 0.03329123741335532
887.0, 0.03264068117593149
888.0, 0.03247941086979641
889.0, 0.032432109127933
890.0, 0.028692957245680585
891.0, 0.026545706600520472
892.0, 0.024890964671401443
893.0, 0.02310812063271084
894.0, 0.02084530754625802
895.0, 0.01890650208962779
896.0, 0.017592002081606665
897.0, 0.01600620471812501
898.0, 0.014723805905319238
899.0, 0.014691953298159168
900.0, 0.011931006171637653
901.0, 0.011527135301194699
902.0, 0.011898818384119339
903.0, 0.012031514767705493
904.0, 0.011169238916293437
905.0, 0.011197005746882769
906.0, 0.010477653427774687
907.0, 0.010060622120342987
908.0, 0.010340825837955182
909.0, 0.009907479627450415
910.0, 0.010000664273912102
911.0, 0.010254050272906158
912.0, 0.01065303758330269
913.0, 0.011079467054744292
914.0, 0.01039429466388144
915.0, 0.010977879922447848
916.0, 0.011598419500494644
917.0, 0.011704453095945793
918.0, 0.011069200605108642
919.0, 0.0120814964643656
920.0, 0.012003565601649108
921.0, 0.011517145510368901
922.0, 0.01082563147245131
923.0, 0.009761710920287492
924.0, 0.009878680646590048
925.0, 0.00997587262415099
926.0, 0.009655082908127659
927.0, 0.008836703721596381
928.0, 0.007980505525113049
929.0, 0.0071247174101025
930.0, 0.0065305712548260455
931.0, 0.006178837612145436
932.0, 0.005962976691339825
933.0, 0.005568530063956442
934.0, 0.00572708509461964
935.0, 0.005746751521389381
936.0, 0.005122642095484106
937.0, 0.003706679619687443
938.0, 0.004060578629810215
939.0, 0.003606856831895922
940.0, 0.0029756974467346343
941.0, 0.0027175726829975003
942.0, 0.003327153399873807
943.0, 0.0035077424000207642
944.0, 0.0032948973655219324
945.0, 0.0031477861032401834
946.0, 0.003031624501753234
947.0, 0.0024941233206856343
948.0, 0.002480285609931643
949.0, 0.0023683837800978266
950.0, 0.002285720780301678
951.0, 0.0021289144844700895
952.0, 0.0014044093091127347
953.0, 0.0007860397883878187
954.0, 0.0009417222088293468
955.0, 0.001322918275443411
956.0, 0.0014072689652325269
957.0, 0.0008273796927382399
958.0, 0.0006330655377564382
959.0, 0.0006682943726136417
960.0, 0.000743102048227517
961.0, 0.0007997320286388907
962.0, 0.001366068145878218
963.0, 0.0007004225100114577
964.0, 0.0004287492360148975
965.0, 0.0003605035018325842
966.0, 0.00015738520954977555
967.0, 0.0011278569853967761
968.0, 0.0010246611178318654
969.0, 0.000878517253497165
970.0, 0.0006743123892733545
971.0, 0.00020899818614981643
972.0, 0.000792426887669753
973.0, 0.0008089684835129949
974.0, 0.0006861282844359926
975.0, 0.0007383035479226693
976.0, 0.0011646141800355718
977.0, 0.00048775156014054937
978.0, 0.0005204903789709327
979.0, 0.0009137363181771
980.0, 0.0011614880638289974
981.0, 0.00063803425082945
982.0, 0.00014203672793913901
983.0, 0.00046663024309120347
984.0, 0.0009721051232047807
985.0, 0.0012476545525726315
986.0, 0.00104737613535194
987.0, 0.0008487293462796157
988.0, 0.0008572755118689329
989.0, 0.0006209468311283313
990.0, 0.0003698171285422087
991.0, 0.0011237312747984208
992.0, 0.0013077783565674562
993.0, 0.0007157061477474123
994.0, 0.00021373354887331268
995.0, 0.00025965462615776345
996.0, 0.000776052260825011
997.0, 0.0007785233373957935
998.0, 0.0012059389415265338
999.0, 0.0009673475795913769
1000.0, 0.00029984576394518085
1001.0, 0.00172069558389008
1002.0, 0.0006348334279054821
1003.0, 0.0006626470093862773
1004.0, 0.0010158063933029522
1005.0, 0.0011131161861785263
1006.0, 0.0011152948592706964
1007.0, 0.0013449692950748696
1008.0, 0.0011428438587450787
1009.0, 0.0007438694961689256
1010.0, 0.0004417761664568744
1011.0, 0.0005593582322712002
1012.0, 0.0022550237608538015
1013.0, 0.0018783408267160986
1014.0, 0.0010350908135319063
1015.0, 0.0011012063067042347
1016.0, 0.0023227500161005087
1017.0, 0.001497468404774953
1018.0, 0.0013918987629064174
1019.0, 0.0010184453605544708
1020.0, 0.00046596635275345866
1021.0, 0.002676685931908056
1022.0, 0.003142920762514626
1023.0, 0.0029783272111841004
1024.0, 0.002743446376496812
1025.0, 0.002479502119510685
1026.0, 0.0012388186442601748
1027.0, 0.0023398331030356294
1028.0, 0.002328458120743558
1029.0, 0.002766726363823706
1030.0, 0.003966996932122143
1031.0, 0.0032608853990654498
1032.0, 0.0026181699116605396
1033.0, 0.0021958780748113104
1034.0, 0.002596845430145609
1035.0, 0.003691024276713458
1036.0, 0.004084146663995654
1037.0, 0.0038870083804578106
1038.0, 0.0038620291536486163
1039.0, 0.003735391375804862
1040.0, 0.0039270085148846905
1041.0, 0.005992678188641479
1042.0, 0.00458028189783863
1043.0, 0.0051982828128180475
1044.0, 0.0062862929602609955
1045.0, 0.006539940674446721
1046.0, 0.005242184764297337
1047.0, 0.004836962091155777
1048.0, 0.006560713525666264
1049.0, 0.007358607232836523
1050.0, 0.006596084632030519
1051.0, 0.006190480731002336
1052.0, 0.006681666259649201
1053.0, 0.007881387767184764
1054.0, 0.008353404694290767
1055.0, 0.007973690424872398
1056.0, 0.007693076305276945
1057.0, 0.007621951867462045
1058.0, 0.007341273269937775
1059.0, 0.006797595782829583
1060.0, 0.005901956965365264
1061.0, 0.00463840083144521
1062.0, 0.004321077214139316
1063.0, 0.003833270168380603
1064.0, 0.0035338849038906114
1065.0, 0.003348270563696577
1066.0, 0.0030439230716729463
1067.0, 0.002828399245965858
1068.0, 0.002506810667087965
1069.0, 0.0023904530137638684
1070.0, 0.00220422521067173
1071.0, 0.0016584564161135121
1072.0, 0.0014868609906416666
1073.0, 0.0010040170428061552
1074.0, 0.0008596014181201014
1075.0, 0.0008994079272117775
1076.0, 0.0008499616077869027
1077.0, 0.0006833026686490727
1078.0, 0.0005994393474434621
1079.0, 0.0013387324378098845
1080.0, 0.0016719181455348835
1081.0, 0.001173421897489946
1082.0, 0.001985108466566676
1083.0, 0.0010785433118917446
1084.0, 0.0010149743775310239
1085.0, 0.0008722265962413698
1086.0, 0.00027442832115086746
1087.0, 7.020381049839688e-05
1088.0, 0.00041782401679695897
1089.0, 0.0008127084939730727
1090.0, 0.0007574498674823026
1091.0, 0.0003676221846907794
1092.0, 0.0003324374218083894
1093.0, 0.0007584054336560007
1094.0, 0.000480715781027579
1095.0, 0.00024315128312205487
1096.0, 0.00021516988459990792
1097.0, 0.00021678270807063942
1098.0, 4.3109978180279584e-05
1099.0, 3.0223850441968067e-05
1100.0, 0.00019443679522364004
1101.0, 0.00032288909744187594
1102.0, 0.00022116014862133402
1103.0, 0.00019443962294023886
1104.0, 0.0010342551736269622
1105.0, 0.0007232557048507093
1106.0, 0.00035242782788679633
1107.0, 0.0007102306533430094
1108.0, 0.00021673423932364402
1109.0, 0.0007469112363703276
1110.0, 0.0005234543198249632
1111.0, 0.00029844051070102695
1112.0, 0.0004811190040417869
1113.0, 0.0006780989122944856
1114.0, 0.00016634527292421655
1115.0, 0.0003583241347265954
1116.0, 0.0007217298993965747
1117.0, 0.0008873383686840463
1118.0, 0.0007009161745662588
1119.0, 0.0007294176703896821
1120.0, 0.0006513621097534953
1121.0, 0.0010828178848448487
1122.0, 0.0015252348045948238
1123.0, 0.0012830338048419588
1124.0, 0.0011385254553625494
1125.0, 0.0012915323455883138
1126.0, 0.0007580716874538557
1127.0, 0.00020110575575874896
1128.0, 0.0001886736833140522
1129.0, 0.00021971754199199856
1130.0, 0.00028923019770775134
1131.0, 0.00021150763653842282
1132.0, 0.00034240949157906327
1133.0, 0.0007450218562338747
1134.0, 0.0010701064261429759
1135.0, 0.0004373302061438514
1136.0, 0.0005513008076202307
1137.0, 0.0009553893672006163
1138.0, 0.001065665059572249
1139.0, 0.0004291191740196509
1140.0, 8.055420845837441e-05
1141.0, 3.671820772130261e-05
1142.0, 0.000466892653526846
1143.0, 0.0006832699532542101
1144.0, 0.00028427737859106897
1145.0, 0.0004905785749146536
1146.0, 0.0002981466984566743
1147.0, 0.00019391336507357582
1148.0, 0.00010507030863805848
1149.0, 0.00023398922888757733
1150.0, 0.0011835910300193428
1151.0, 0.001327802934631938
1152.0, 0.0006525616404235305
1153.0, 0.00014729119729586963
1154.0, 0.0003334194549454871
1155.0, 0.0011532380302995758
1156.0, 0.0005930401550176491
1157.0, 0.00029080061501127543
1158.0, 0.0009587159234067084
1159.0, 0.0015729272399825185
1160.0, 0.0014531085138018785
1161.0, 0.0020659783550457493
1162.0, 0.001221039810371262
1163.0, 0.0004888019496756839
1164.0, 0.0003073169540647322
1165.0, 0.000454439767402584
1166.0, 0.00014139087224321388
1167.0, 0.0002736370907847484
1168.0, 0.000549003765336131
1169.0, 0.0015023837782186797
1170.0, 0.002010241455550487
1171.0, 0.001097585858065488
1172.0, 0.0021756530863925186
1173.0, 0.0008379452289721202
1174.0, 0.0009109597826664574
1175.0, 0.0018639422471267528
1176.0, 0.0025232839039872387
1177.0, 0.0019030177548496282
1178.0, 0.0006536228242326149
1179.0, 0.00120682170420708
1180.0, 0.0010556900005713793
1181.0, 0.0003744305359592655
1182.0, 0.0008489425704488684
1183.0, 0.0009078189483971541
1184.0, 0.0005211301297334334
1185.0, 0.0007904860878256112
1186.0, 0.0014153269018563164
1187.0, 0.0017961890284089726
1188.0, 0.0014770842992065593
1189.0, 0.002110066408665823
1190.0, 0.002081253059148076
1191.0, 0.002341820974905018
1192.0, 0.002534039443868682
1193.0, 0.00140422111041367
1194.0, 0.00108387296320796
1195.0, 0.0009610647770170359
1196.0, 0.0013234292601405036
1197.0, 0.0015730747755002062
1198.0, 0.0012791961243061834
1199.0, 0.0011721837795584888
1200.0, 0.0024869855647313903
1201.0, 0.0023491632878035336
1202.0, 0.0024813456071546163
1203.0, 0.0028562732886162137
1204.0, 0.0018876895220552837
1205.0, 0.001989909289400149
1206.0, 0.0014986696622880872
1207.0, 0.0015256559272358232
1208.0, 0.0017945137658920186
1209.0, 0.0018662094381446035
1210.0, 0.002037552992479179
1211.0, 0.0021726840040183857
1212.0, 0.002367758829531644
1213.0, 0.0024478625243195234
1214.0, 0.0020667986689813433
1215.0, 0.0010417992968107356
1216.0, 0.0019959842106739884
1217.0, 0.002094474322282267
1218.0, 0.001847569913356815
1219.0, 0.0018795604335490224
1220.0, 0.002455121630293402
1221.0, 0.0029640827224229733
1222.0, 0.003072934670928549
1223.0, 0.001805796667409332
1224.0, 0.001299094926202218
1225.0, 0.0016634875955240016
1226.0, 0.0017976209813115108
1227.0, 0.003352600920797145
1228.0, 0.002656170594390447
1229.0, 0.0021272425927282112
1230.0, 0.002463981714752446
1231.0, 0.00309181836400998
1232.0, 0.002024425700768632
1233.0, 0.002059845868402498
1234.0, 0.00302492973392978
1235.0, 0.002960129074256103
1236.0, 0.0021087263913444035
1237.0, 0.0017941171127444221
1238.0, 0.0028600178906761963
1239.0, 0.0020317273484290643
1240.0, 0.002716742084647371
1241.0, 0.0032783443778969406
1242.0, 0.00311438950718027
1243.0, 0.0033112382544160414
1244.0, 0.0024316339310554744
1245.0, 0.0021696966842043143
1246.0, 0.0020282209057224123
1247.0, 0.0021218261186844167
1248.0, 0.002314535719477357
1249.0, 0.001464152040479531
1250.0, 0.0021261492813162836
1251.0, 0.002672500532120613
1252.0, 0.0019846958840401474
1253.0, 0.0014481452989459193
1254.0, 0.0030220132952127796
1255.0, 0.003011059809860176
1256.0, 0.0021372828700499382
1257.0, 0.0019527127098381205
1258.0, 0.003088585374093612
1259.0, 0.0041858588150634445
1260.0, 0.0021654691594253234
1261.0, 0.0014870498409597852
1262.0, 0.0028059390442433008
1263.0, 0.0024713695048779625
1264.0, 0.0018119802368610992
1265.0, 0.002419250812942947
1266.0, 0.002505132117844482
1267.0, 0.002039103937107083
1268.0, 0.0021451072212232635
1269.0, 0.0019437242901393034
1270.0, 0.0016172254796372662
1271.0, 0.0019019694106294435
1272.0, 0.0028634620245003026
1273.0, 0.003001672376187597
1274.0, 0.002188638595081058
1275.0, 0.0011807226521229506
1276.0, 0.0011846047061402326
1277.0, 0.0030274605041348737
1278.0, 0.0013510029905110478
1279.0, 0.002386171654634646
1280.0, 0.0019060504262891616
1281.0, 0.0012562912360559427
1282.0, 0.0016150091507250424
1283.0, 0.0015989528172368687
1284.0, 0.0009360239021687527
1285.0, 0.0016743332750278302
1286.0, 0.0019122442366098838
1287.0, 0.0012780823264420113
1288.0, 0.0005493889189277061
1289.0, 0.0016388990444020316
1290.0, 0.0010329391567297952
1291.0, 0.001930730357616873
1292.0, 0.0024134436722191527
1293.0, 0.0016333289311433487
1294.0, 0.00015316351693903265
1295.0, 0.0006604562372108651
1296.0, 0.0005218981273751906
1297.0, 0.00030864463472370617
1298.0, 0.000513017155177101
1299.0, 0.0008549480223973912
1300.0, 0.0005816053622785105
1301.0, 0.0004525584533605114
1302.0, 0.0016503635867172496
1303.0, 0.0015982344650778536
1304.0, 0.0013315661760405554
1305.0, 0.001250082341910423
1306.0, 0.00040048626083029955
1307.0, 0.0015716524803089868
1308.0, 0.002272426683697079
1309.0, 0.0015624921483929017
1310.0, 0.0013016156130696897
1311.0, 0.0019455342989958195
1312.0, 0.0006802538426476438
1313.0, 0.0022407278073161285
1314.0, 0.0012635444273365198
1315.0, 0.0007608461670740354
1316.0, 0.0009453032294628997
1317.0, 0.0012961324209388313
1318.0, 0.00203281746466863
1319.0, 0.0018600476780912395
1320.0, 0.0010853242366827475
1321.0, 0.0007098163900087104
1322.0, 0.000573061902703232
1323.0, 0.00041259539790165393
1324.0, 0.001199517419030301
1325.0, 0.0006817891624776251
1326.0, 0.00025910310842653663
1327.0, 0.0009730905600339689
1328.0, 0.0014012434690204034
1329.0, 0.00028300639382879795
1330.0, 0.001191172279404208
1331.0, 0.0003786289158261977
1332.0, 0.001271180523537881
1333.0, 0.0013354984814310902
1334.0, 0.0006295951516651035
1335.0, 0.0007036130903283379
1336.0, 0.001383553781168071
1337.0, 0.001514929577855264
1338.0, 0.0014136344291537622
1339.0, 0.0009255718366562719
1340.0, 0.0003996256967380096
1341.0, 0.000346340546772204
1342.0, 0.00042775168759696963
1343.0, 0.0007387068727753913
1344.0, 0.000844822445431715
1345.0, 0.0012216079907420314
1346.0, 0.0016532347155652006
1347.0, 0.0014547874211130389
1348.0, 0.0004158049762811358
1349.0, 0.002021665840225665
1350.0, 0.0017202637401187548
1351.0, 0.0016382821202216998
1352.0, 0.0017473853888024561
1353.0, 0.0008194518873961355
1354.0, 0.0022009009167655563
1355.0, 0.0023224467801243945
1356.0, 0.0014210562174894368
1357.0, 0.0011580940824456282
1358.0, 0.0016000477331617375
1359.0, 0.001750649140541745
1360.0, 0.0020389858837122046
1361.0, 0.0019740440019732136
1362.0, 0.0021071864477426533
1363.0, 0.002236550983723305
1364.0, 0.0023127841758595344
1365.0, 0.00237802340017071
1366.0, 0.0021617200799848193
1367.0, 0.002081949290575466
1368.0, 0.0017912121779709129
1369.0, 0.0018059366107742699
1370.0, 0.0015078107127056255
1371.0, 0.0004997054664218519
1372.0, 0.0019403630859973695
1373.0, 0.0019801025657955316
1374.0, 0.0010509664023725925
1375.0, 0.0017466935619911556
1376.0, 0.002479533686806128
1377.0, 0.0010851848876644308
1378.0, 0.001420411975757216
1379.0, 0.002013846093403977
1380.0, 0.0020660777102885254
1381.0, 0.001984177506693156
1382.0, 0.0017867416298716664
1383.0, 0.0015102954411972238
1384.0, 0.0017729782650470704
1385.0, 0.0017824938560080704
1386.0, 0.002656339113686431
1387.0, 0.0018729524509251531
1388.0, 0.0015688822538560683
1389.0, 0.0029575866639798784
1390.0, 0.0017820718154347877
1391.0, 0.002226895132858345
1392.0, 0.0021730498590481697
1393.0, 0.0019010793966043622
1394.0, 0.0015836192869891766
1395.0, 0.0015571767839312517
1396.0, 0.002286289451989644
1397.0, 0.0021150019867214463
1398.0, 0.0015203404609500054
1399.0, 0.0021890947728653784
1400.0, 0.0025189045953081047
1401.0, 0.0017156067601474564
1402.0, 0.001088377121395108
1403.0, 0.0027567405959705105
1404.0, 0.0024261505689088607
1405.0, 0.0011959260095147006
1406.0, 0.0012406049982920748
1407.0, 0.0023465438719523775
1408.0, 0.0023737938482711112
1409.0, 0.0011532709343461053
1410.0, 0.0019894801822128235
1411.0, 0.0018987477790718408
1412.0, 0.0009900244916258138
1413.0, 0.00043355682807734447
1414.0, 0.0009579106513907765
1415.0, 0.0006262013190934316
1416.0, 0.001961531597665882
1417.0, 0.0018904577835043527
1418.0, 0.0015701229919129664
1419.0, 0.001977239710146461
1420.0, 0.002881474731912849
1421.0, 0.0023261885230279585
1422.0, 0.0025689071904947576
1423.0, 0.002463550246657904
1424.0, 0.0021324054909199796
1425.0, 0.0017865694468149678
1426.0, 0.0014523234232785573
1427.0, 0.0009914141332512314
1428.0, 0.0011751792210781076
1429.0, 0.0010173494699130617
1430.0, 0.0011054539779754495
1431.0, 0.0014379111670137633
1432.0, 0.0013646600107108668
1433.0, 0.000637672186139038
1434.0, 0.0023215324912489862
1435.0, 0.0016106676303649212
1436.0, 0.0021702119725060783
1437.0, 0.002682338497269272
1438.0, 0.0026159133831675113
1439.0, 0.0021572780623561987
1440.0, 0.0016244309933312656
1441.0, 0.0012904977605562667
1442.0, 0.001672886850687896
1443.0, 0.0021895070040618774
1444.0, 0.0023127046921052447
1445.0, 0.0021246245761508474
1446.0, 0.0023276305290353353
1447.0, 0.002510017138761669
1448.0, 0.0022085744352815817
1449.0, 0.0025665442367797057
1450.0, 0.0022003632606665195
1451.0, 0.001982071368674105
1452.0, 0.003559486365507698
1453.0, 0.003982198423817103
1454.0, 0.0024250438847663036
1455.0, 0.002095630157752545
1456.0, 0.0027443021442038764
1457.0, 0.0027099146777221947
1458.0, 0.0017962149432503148
1459.0, 0.002865843682092842
1460.0, 0.0014569685962242996
1461.0, 0.0019984264460672133
1462.0, 0.0024231932335432634
1463.0, 0.0032718383872360917
1464.0, 0.0036586985733764706
1465.0, 0.0018458290624278396
1466.0, 0.001058450366970744
1467.0, 0.0035255966485589576
1468.0, 0.0019215117154625853
1469.0, 0.0018766105306850607
1470.0, 0.0033534967868920126
1471.0, 0.0037714149480850847
1472.0, 0.003224702547875518
1473.0, 0.003490053849562751
1474.0, 0.003117694485571124
1475.0, 0.002653554763563283
1476.0, 0.0018826444763671481
1477.0, 0.001264179272635738
1478.0, 0.001663824522607407
1479.0, 0.0016335699266930741
1480.0, 0.0012662366798417255
1481.0, 0.001359483338047719
1482.0, 0.0014030815927462857
1483.0, 0.0011624332372221393
1484.0, 0.0011435457358472474
1485.0, 0.002550413524580784
1486.0, 0.0017919677874174318
1487.0, 0.0023527158097829924
1488.0, 0.0031250977621546587
1489.0, 0.0024475429093124964
1490.0, 0.001026832452705615
1491.0, 0.0010122418870009387
1492.0, 0.0006490133135802558
1493.0, 0.00221993735130439
1494.0, 0.0019190190938164465
1495.0, 0.001648797551687953
1496.0, 0.0016332638482313446
1497.0, 0.0012600676700490815
1498.0, 0.0004419835923629671
1499.0, 0.001891235279632875
1500.0, 0.0012638146558288225
1501.0, 0.0011850109142942046
1502.0, 0.0007291167191111692
1503.0, 0.0002127636860528824
1504.0, 0.0005431207246428307
1505.0, 0.00023446379438495045
1506.0, 0.0004561089112020318
1507.0, 0.0002758673987102096
1508.0, 0.00020780089392238743
1509.0, 0.001029524919096908
1510.0, 0.0017898065859041027
1511.0, 0.00043579657701569696
1512.0, 0.00015692963331526353
1513.0, 0.0026385685943505263
1514.0, 0.001973825147245563
1515.0, 0.0013524974860225241
1516.0, 0.001843898690584861
1517.0, 0.002089789692796116
1518, 0.0
1519, 0.0
1520, 0.0
1521, 0.0
1522, 0.0
1523, 0.0
1524, 0.0
1525, 0.0
1526, 0.0
1527, 0.0
1528, 0.0
1529, 0.0
1530, 0.0
1531, 0.0
1532, 0.0
1533, 0.0
1534, 0.0
1535, 0.0
1536, 0.0
1537, 0.0
1538, 0.0
1539, 0.0
1540, 0.0
1541, 0.0
1542, 0.0
1543, 0.0
1544, 0.0
1545, 0.0
1546, 0.0
1547, 0.0
1548, 0.0
1549, 0.0
1550, 0.0
1551, 0.0
1552, 0.0
1553, 0.0
1554, 0.0
1555, 0.0
1556, 0.0
1557, 0.0
1558, 0.0
1559, 0.0
1560, 0.0
1561, 0.0
1562, 0.0
1563, 0.0
1564, 0.0
1565, 0.0
1566, 0.0
1567, 0.0
1568, 0.0
1569, 0.0
1570, 0.0
1571, 0.0
1572, 0.0
1573, 0.0
1574, 0.0
1575, 0.0
1576, 0.0
1577, 0.0
1578, 0.0
1579, 0.0
1580, 0.0
1581, 0.0
1582, 0.0
1583, 0.0
1584, 0.0
1585, 0.0
1586, 0.0
1587, 0.0
1588, 0.0
1589, 0.0
1590, 0.0
1591, 0.0
1592, 0.0
1593, 0.0
1594, 0.0
1595, 0.0
1596, 0.0
1597, 0.0
1598, 0.0
1599, 0.0
