30, 0.0
31, 0.0
32, 0.0
33, 0.0
34, 0.0
35, 0.0
36, 0.0
37, 0.0
38, 0.0
39, 0.0
40, 0.0
41, 0.0
42, 0.0
43, 0.0
44, 0.0
45, 0.0
46, 0.0
47, 0.0
48, 0.0
49, 0.0
50, 0.0
51, 0.0
52, 0.0
53, 0.0
54, 0.0
55, 0.0
56, 0.0
57, 0.0
58, 0.0
59, 0.0
60, 0.0
61, 0.0
62, 0.0
63, 0.0
64, 0.0
65, 0.0
66, 0.0
67, 0.0
68, 0.0
69, 0.0
70, 0.0
71, 0.0
72, 0.0
73, 0.0
74, 0.0
75, 0.0
76, 0.0
77, 0.0
78, 0.0
79, 0.0
80, 0.0
81, 0.0
82, 0.0
83, 0.0
84, 0.0
85, 0.0
86, 0.0
87, 0.0
88, 0.0
89, 0.0
90, 0.0
91, 0.0
92, 0.0
93, 0.0
94, 0.0
95, 0.0
96, 0.0
97, 0.0
98, 0.0
99, 0.0
100, 0.0
101, 0.0
102, 0.0
103, 0.0
104, 0.0
105, 0.0
106, 0.0
107, 0.0
108, 0.0
109, 0.0
110, 0.0
111, 0.0
112, 0.0
113, 0.0
114, 0.0
115, 0.0
116, 0.0
117, 0.0
118, 0.0
119, 0.0
120, 0.0
121, 0.0
122, 0.0
123, 0.0
124, 0.0
125, 0.0
126, 0.0
127, 0.0
128, 0.0
129, 0.0
130, 0.0
131, 0.0
132, 0.0
133, 0.0
134, 0.0
135, 0.0
136, 0.0
137, 0.0
138, 0.0
139, 0.0
140, 0.0
141, 0.0
142, 0.0
143, 0.0
144, 0.0
145, 0.0
146, 0.0
147, 0.0
148, 0.0
149, 0.0
150, 0.0
151, 0.0
152.0, 0.0007950227537735582
153.0, 0.0004133042900329238
154.0, 0.003627964823976963
155.0, 0.01181802505392469
156.0, 0.008980581413609771
157.0, 0.0022409641131622667
158.0, 0.005121572106939463
159.0, 0.00822614330292047
160.0, 0.00728176514356786
161.0, 0.008563849205597813
162.0, 0.014099101397191064
163.0, 0.009653898535668675
164.0, 0.015980148894224912
165.0, 0.018441076459019785
166.0, 0.012155492613997591
167.0, 0.009411186146384289
168.0, 0.007213599428076314
169.0, 0.005051661908917793
170.0, 0.005941227302113083
171.0, 0.010785525797776595
172.0, 0.0041421269635145575
173.0, 0.0005177070580523462
174.0, 0.0026116206610435825
175.0, 0.005850702100377219
176.0, 0.005690923974811618
177.0, 0.013907842401538062
178.0, 0.014730809387370768
179.0, 0.0061114936853673175
180.0, 0.011151188767162383
181.0, 0.008341811849467971
182.0, 0.009087299041594794
183.0, 0.013920703445896881
184.0, 0.012376297881073122
185.0, 0.014034523343060754
186.0, 0.01793832181453469
187.0, 0.01573232803428968
188.0, 0.005586870387449486
189.0, 0.011756924996872994
190.0, 0.015515287512586481
191.0, 0.01911856269192678
192.0, 0.025458420839758196
193.0, 0.027728342542162117
194.0, 0.02057358087623741
195.0, 0.020452675733187507
196.0, 0.028128554171768065
197.0, 0.024829169055578817
198.0, 0.022763783679434445
199.0, 0.024902341446469866
200.0, 0.026886348672321477
201.0, 0.026045981975647524
202.0, 0.027010128417515197
203.0, 0.03351996759585557
204.0, 0.03714092930132257
205.0, 0.0348121025146138
206.0, 0.034672429689488686
207.0, 0.0365776367481726
208.0, 0.03417087108273294
209.0, 0.03273318421040328
210.0, 0.040068004880952676
211.0, 0.041763992197237955
212.0, 0.04100484497203418
213.0, 0.04060780591989457
214.0, 0.042333884018162966
215.0, 0.047497813092015125
216.0, 0.05086051754712103
217.0, 0.05509080713916284
218.0, 0.05989646421369747
219.0, 0.062114227764395645
220.0, 0.06068993266665641
221.0, 0.061828517881773286
222.0, 0.0636731196797709
223.0, 0.061900054975226194
224.0, 0.0551826768444301
225.0, 0.04609704937090685
226.0, 0.040898273021657446
227.0, 0.03894518606513609
228.0, 0.03319422006229648
229.0, 0.028818874555154923
230.0, 0.022484720809169655
231.0, 0.015915997551090865
232.0, 0.012152574473118448
233.0, 0.009166079991928243
234.0, 0.00470371138845084
235.0, 0.001071730095415614
236.0, 0.00014441820169690885
237.0, 3.0435478955802654e-05
238.0, 0.00022786319485277906
239.0, 0.006142242628144546
240.0, 0.010186614573621279
241.0, 0.0018319895792099387
242.0, 0.0013053402925328
243.0, 0.0018855241517924583
244.0, 0.0012083583542749278
245.0, 0.001557632687402049
246.0, 0.007893504344545967
247.0, 0.00992892732670022
248.0, 0.008806863408118494
249.0, 0.00494641375607104
250.0, 0.00042358074835275916
251.0, 0.0024845074951155618
252.0, 0.006675577966951838
253.0, 0.0064265133396978515
254.0, 0.0020351044407034744
255.0, 0.00040383618732762984
256.0, 0.0008254801815978472
257.0, 0.0069169364210189665
258.0, 0.011055669779182818
259.0, 0.0043509971854963185
260.0, 0.0038659060705555715
261.0, 0.00725548232013979
262.0, 0.011338265493758637
263.0, 0.01484564991060634
264.0, 0.018522385139571232
265.0, 0.01889403182666924
266.0, 0.019415040767938943
267.0, 0.018756480210845927
268.0, 0.016741221359596423
269.0, 0.025729652521728954
270.0, 0.027341042712562158
271.0, 0.02745234096317686
272.0, 0.032650414862658184
273.0, 0.04096757812733622
274.0, 0.03912789571538571
275.0, 0.04397374911725941
276.0, 0.05580541488051642
277.0, 0.06345400652164071
278.0, 0.06438570680872796
279.0, 0.0740857876214088
280.0, 0.08245893408974604
281.0, 0.0864149325657472
282.0, 0.09251772625161585
283.0, 0.09874859012781492
284.0, 0.10125688962263693
285.0, 0.09926313490956082
286.0, 0.09569840784417619
287.0, 0.09803049321489982
288.0, 0.09760031374150221
289.0, 0.10367640476351442
290.0, 0.10955334400436564
291.0, 0.1044293808546954
292.0, 0.10806634477017935
293.0, 0.11079202995829171
294.0, 0.11435818147304487
295.0, 0.12187631074430713
296.0, 0.1310672731973821
297.0, 0.13293752769216594
298.0, 0.1435622227925193
299.0, 0.15676585488900174
300.0, 0.16366877729311347
301.0, 0.17878802012126288
302.0, 0.18419270828316187
303.0, 0.18843710045543816
304.0, 0.200433526702279
305.0, 0.2185447547570005
306.0, 0.22609054538131979
307.0, 0.22947558679506946
308.0, 0.2325714257564449
309.0, 0.23137861891446684
310.0, 0.21612323590761412
311.0, 0.19931387952967036
312.0, 0.18003588759790917
313.0, 0.15538608477440213
314.0, 0.1268181463904983
315.0, 0.10427510803857434
316.0, 0.08420288357315739
317.0, 0.07227507914914567
318.0, 0.06069622610788855
319.0, 0.040140034408359324
320.0, 0.03810487301702353
321.0, 0.03511119184817278
322.0, 0.028824871250833654
323.0, 0.02209772984059448
324.0, 0.01534167404097492
325.0, 0.013031314934185393
326.0, 0.014155652590966765
327.0, 0.011663443170059212
328.0, 0.00222345541585529
329.0, 0.003856371385558541
330.0, 0.001453327574469598
331.0, 0.0045593077346775404
332.0, 0.0034528901659895946
333.0, 0.01304016640221238
334.0, 0.0042418165761281025
335.0, 0.004519475216624768
336.0, 0.006417502038488784
337.0, 0.004849175128648137
338.0, 0.0072893603788418216
339.0, 0.009924339498125849
340.0, 0.0026153783935923248
341.0, 0.003661176541226248
342.0, 0.0013321079852272868
343.0, 0.009293752750701422
344.0, 0.008566752574693375
345.0, 0.012764565786651201
346.0, 0.01788131487737341
347.0, 0.01663578495749219
348.0, 0.02431537304466537
349.0, 0.02375513362347679
350.0, 0.02812023776129668
351.0, 0.03776299377144505
352.0, 0.04222522198119849
353.0, 0.04303497240057348
354.0, 0.04049348197658717
355.0, 0.04377124287064909
356.0, 0.048685537409529404
357.0, 0.042471554361891914
358.0, 0.04025083025708344
359.0, 0.04156466167969678
360.0, 0.04778674633137227
361.0, 0.05235739102038855
362.0, 0.04361504194477325
363.0, 0.051442813493786106
364.0, 0.048024094545460125
365.0, 0.043052272924615484
366.0, 0.04841314521511841
367.0, 0.05260946126890385
368.0, 0.05410704647975319
369.0, 0.057122801697041065
370.0, 0.058089468423723714
371.0, 0.05362880964228526
372.0, 0.05129248403028315
373.0, 0.053072616388334
374.0, 0.058099960760973825
375.0, 0.061829485062936805
376.0, 0.061016071139793175
377.0, 0.061656397625978215
378.0, 0.06888104133752007
379.0, 0.07354192443503627
380.0, 0.07807243634271235
381.0, 0.08989348526691845
382.0, 0.09192402700713721
383.0, 0.10450728955934813
384.0, 0.1164420780330151
385.0, 0.12697948258304786
386.0, 0.14744210513629033
387.0, 0.15539457357268735
388.0, 0.17596347322911957
389.0, 0.20683883206637305
390.0, 0.23385118260003743
391.0, 0.25133635847778063
392.0, 0.302213720374856
393.0, 0.3476855276834369
394.0, 0.38639776826357036
395.0, 0.43252499079397155
396.0, 0.4970062682720568
397.0, 0.5633400174464905
398.0, 0.6282737260613256
399.0, 0.7035647567194372
400.0, 0.7889939945427075
401.0, 0.860860766508138
402.0, 0.9112905187791934
403.0, 0.9602107343136961
404.0, 0.9945462823883046
405.0, 0.9930666216326838
406.0, 0.9440927748410003
407.0, 0.8767620186209876
408.0, 0.785258915358086
409.0, 0.6840879196173948
410.0, 0.5933453351589115
411.0, 0.5200869610117108
412.0, 0.44467250828712096
413.0, 0.38006156698307225
414.0, 0.32753726512348963
415.0, 0.28246280493504533
416.0, 0.24667540222034673
417.0, 0.23109464144248795
418.0, 0.20588625057774979
419.0, 0.1758960106301379
420.0, 0.1542845307708832
421.0, 0.13798194026514501
422.0, 0.13834670439320532
423.0, 0.13014414480397246
424.0, 0.112836340048094
425.0, 0.09796153143704091
426.0, 0.09389422914325822
427.0, 0.07892285551763888
428.0, 0.06808925372697189
429.0, 0.06665781608573448
430.0, 0.0669987719301747
431.0, 0.056132489517515066
432.0, 0.04921908730517503
433.0, 0.04318093148909342
434.0, 0.041555207823584364
435.0, 0.04438378691576916
436.0, 0.0410323353211045
437.0, 0.03920870255111942
438.0, 0.029094199998011435
439.0, 0.021832430185152445
440.0, 0.02497494410813819
441.0, 0.025832063962821623
442.0, 0.022170115617593217
443.0, 0.023563732454157226
444.0, 0.022783788335869724
445.0, 0.01857364933126368
446.0, 0.024642484157961744
447.0, 0.014229689193541346
448.0, 0.01744792587710576
449.0, 0.018118806066007305
450.0, 0.011198817876309714
451.0, 0.018960660943837426
452.0, 0.015688620675608098
453.0, 0.01221264362021946
454.0, 0.014426365073274201
455.0, 0.0157215299558631
456.0, 0.009064555872475295
457.0, 0.018484182331332834
458.0, 0.024771435968592236
459.0, 0.02473008449808842
460.0, 0.023554804466976095
461.0, 0.0254211659384923
462.0, 0.021547200451099813
463.0, 0.023387310719410453
464.0, 0.0237238735526758
465.0, 0.024859962971916692
466.0, 0.03349679533297378
467.0, 0.03734810829053857
468.0, 0.03277767118264778
469.0, 0.035361188926277154
470.0, 0.04446837932284923
471.0, 0.05019464809409436
472.0, 0.04938579092394011
473.0, 0.04566623919893266
474.0, 0.046671161427377574
475.0, 0.04902770480184103
476.0, 0.04827873852017962
477.0, 0.047215519141264574
478.0, 0.040194405251398314
479.0, 0.041720018852590766
480.0, 0.04445425520948669
481.0, 0.04052442656095971
482.0, 0.037007466582291614
483.0, 0.03943700517362549
484.0, 0.04651719674631559
485.0, 0.04237135624192961
486.0, 0.030658944170815383
487.0, 0.03317482517484543
488.0, 0.03717566951541639
489.0, 0.03373597855115046
490.0, 0.02631042082935862
491.0, 0.01704506699080688
492.0, 0.009007123545953425
493.0, 0.012909628319035598
494.0, 0.006828994459019814
495.0, 0.003441201207197567
496.0, 0.0010615495195296551
497.0, 0.007714258896417495
498.0, 0.010299089751494581
499.0, 0.009505019198122192
500.0, 0.011985318342904281
501.0, 0.013076527056824785
502.0, 0.010146040961849205
503.0, 0.008654117025470115
504.0, 0.008319631547930062
505.0, 0.004880147084741198
506.0, 0.002548932740865618
507.0, 0.0028516347367920298
508.0, 0.002596895057500755
509.0, 0.0028356744283603054
510.0, 0.0007029861845016025
511.0, 0.003935400807717435
512.0, 0.002743017982026222
513.0, 0.002342552922257825
514.0, 0.007872462274830455
515.0, 0.004234544376429214
516.0, 0.0035472518687853258
517.0, 0.004009704823996157
518.0, 0.003415826360172984
519.0, 0.007249147424536397
520.0, 0.0032797628353778254
521.0, 0.0020060617511988635
522.0, 0.0012174509018450272
523.0, 0.0005763235390537
524.0, 0.0003859444447281025
525.0, 0.0053673436913523696
526.0, 0.008371227106446662
527.0, 0.008358904382176022
528.0, 0.003959894125854936
529.0, 0.0015131372522483486
530.0, 0.006927945566823842
531.0, 0.014203061774920905
532.0, 0.02250195117429527
533.0, 0.024991604339896084
534.0, 0.02284268543820087
535.0, 0.02860877133338708
536.0, 0.02538365246919103
537.0, 0.031183043873036574
538.0, 0.03883838800709856
539.0, 0.04267605962505505
540.0, 0.04582961112198372
541.0, 0.054910422806838874
542.0, 0.058496924029642725
543.0, 0.06349332809222356
544.0, 0.0741012121816079
545.0, 0.0849226589607739
546.0, 0.08739236354956666
547.0, 0.0946789274686912
548.0, 0.0954945711587772
549.0, 0.10162117816431925
550.0, 0.1084491456394373
551.0, 0.10180746704710113
552.0, 0.10199441087252427
553.0, 0.09925349000159638
554.0, 0.10625773354626385
555.0, 0.11125602347542636
556.0, 0.10529430038133009
557.0, 0.10320273889920151
558.0, 0.10268388922609481
559.0, 0.09717717836593445
560.0, 0.08986620709003672
561.0, 0.08538893332086428
562.0, 0.08509082859140474
563.0, 0.08750032294799096
564.0, 0.0785597329460973
565.0, 0.07525931208374728
566.0, 0.07649570731810726
567.0, 0.07510119904079182
568.0, 0.07283793322500627
569.0, 0.0692975624116128
570.0, 0.0712815612138541
571.0, 0.06620709604624432
572.0, 0.05792673332912363
573.0, 0.058971963889187004
574.0, 0.060342413808080725
575.0, 0.060387729330483246
576.0, 0.05193792827436173
577.0, 0.046548368771491856
578.0, 0.045950722355789106
579.0, 0.034691217830144186
580.0, 0.03144552971989544
581.0, 0.04273017872487739
582.0, 0.043280092919979744
583.0, 0.035368117691137485
584.0, 0.03542457453879793
585.0, 0.03870219365108309
586.0, 0.04209994954114488
587.0, 0.04226508323641871
588.0, 0.04094765658243978
589.0, 0.042485089194343455
590.0, 0.04715584871382575
591.0, 0.042405935261772075
592.0, 0.045012265059973744
593.0, 0.048431277653825676
594.0, 0.04986557898709978
595.0, 0.05266786520545525
596.0, 0.05946274463495052
597.0, 0.05978514775250507
598.0, 0.056657650164876026
599.0, 0.058157135498240774
600.0, 0.06118056769246594
601.0, 0.05958184570619025
602.0, 0.05843821888070702
603.0, 0.05912255874398495
604.0, 0.05595298090694047
605.0, 0.05263510567149061
606.0, 0.052186143180375136
607.0, 0.05184908635350606
608.0, 0.0465194975012711
609.0, 0.044179827211621406
610.0, 0.04446183413785743
611.0, 0.04457722244338252
612.0, 0.04582697113166164
613.0, 0.050600086748278046
614.0, 0.04166032936071291
615.0, 0.04167309355239666
616.0, 0.049167141676271994
617.0, 0.054617778499816624
618.0, 0.05610317273643567
619.0, 0.061070698060785425
620.0, 0.06455164934722889
621.0, 0.06830969458887652
622.0, 0.072103858604081
623.0, 0.0735065360731204
624.0, 0.08041431250189073
625.0, 0.08122461597374954
626.0, 0.08186946223618789
627.0, 0.080662427886642
628.0, 0.0810976985587333
629.0, 0.07765121349597377
630.0, 0.07098123750615551
631.0, 0.07454423851687546
632.0, 0.07620345987588094
633.0, 0.07427459773610083
634.0, 0.0763244540860384
635.0, 0.08488756245402897
636.0, 0.09354675171589359
637.0, 0.09696863786584523
638.0, 0.09450876785184976
639.0, 0.10126303104460636
640.0, 0.1101552413383991
641.0, 0.11510378068922714
642.0, 0.1228577113506926
643.0, 0.12725478578311822
644.0, 0.13667271282832333
645.0, 0.15021719397533279
646.0, 0.1656064306806675
647.0, 0.17732794353290923
648.0, 0.1782551892831927
649.0, 0.19744558825198427
650.0, 0.22145277151765402
651.0, 0.24176787041970482
652.0, 0.2553042321590653
653.0, 0.27027942457998033
654.0, 0.29994741372852207
655.0, 0.33422588578207535
656.0, 0.34386459947067377
657.0, 0.3607383047885411
658.0, 0.3898164171990284
659.0, 0.4111320166139527
660.0, 0.41262020173835323
661.0, 0.42095570774356045
662.0, 0.4215908282529933
663.0, 0.4029760136359026
664.0, 0.3786381722857519
665.0, 0.3560246258102323
666.0, 0.32174676826360155
667.0, 0.3010574911119166
668.0, 0.2721879635835503
669.0, 0.24517398954323766
670.0, 0.21428158007093973
671.0, 0.17955656554167754
672.0, 0.15944116386263163
673.0, 0.1340061634032262
674.0, 0.10899235332569887
675.0, 0.09042974795515606
676.0, 0.07153214274506442
677.0, 0.05253567647682558
678.0, 0.04592684116222055
679.0, 0.03170566886282516
680.0, 0.016257144821456068
681.0, 0.006886145748891624
682.0, 0.0021649688657135726
683.0, 0.003518821352882726
684.0, 0.010160179484891918
685.0, 0.009427201952483361
686.0, 0.012422581462823143
687.0, 0.012195957859981357
688.0, 0.01780709999256935
689.0, 0.0251387398241675
690.0, 0.015877034288194085
691.0, 0.010703591591145954
692.0, 0.01735997690405941
693.0, 0.011858231244647677
694.0, 0.0022115755999442014
695.0, 0.0006148860560748179
696.0, 0.002047873787935052
697.0, 0.00812328738154501
698.0, 0.020448887953676748
699.0, 0.02255564975200472
700.0, 0.02861353951041869
701.0, 0.03980963993248378
702.0, 0.045455736956837675
703.0, 0.054111138141293584
704.0, 0.05534127646924046
705.0, 0.06258911529001376
706.0, 0.0654385799676581
707.0, 0.06427920375152038
708.0, 0.06675833248524943
709.0, 0.07079981108051595
710.0, 0.0770086493707531
711.0, 0.067097929698373
712.0, 0.0691577710238358
713.0, 0.07196951865460617
714.0, 0.066175584899592
715.0, 0.07437059703708081
716.0, 0.07188946032158251
717.0, 0.06758698606069109
718.0, 0.06676842102254735
719.0, 0.05891373831829208
720.0, 0.04427944891675508
721.0, 0.039134839666542846
722.0, 0.04492183544311095
723.0, 0.03734414024002035
724.0, 0.03445206497648849
725.0, 0.03516864602622334
726.0, 0.03169018815127307
727.0, 0.02629802602827136
728.0, 0.030727568813620855
729.0, 0.025601498016904936
730.0, 0.02081129512427282
731.0, 0.021339278934575878
732.0, 0.02201315087722023
733.0, 0.021095176782469586
734.0, 0.028116739673253177
735.0, 0.04281526874823395
736.0, 0.04185717337910092
737.0, 0.047476231243226814
738.0, 0.058615550231070554
739.0, 0.06475396351126755
740.0, 0.06715311263288674
741.0, 0.07063189604486379
742.0, 0.08577474930386231
743.0, 0.08799400880843306
744.0, 0.10191479216606177
745.0, 0.12313235773871334
746.0, 0.13493825230739342
747.0, 0.15119911924908822
748.0, 0.1694265463471478
749.0, 0.17491707441410764
750.0, 0.18818723191088774
751.0, 0.1995896413704445
752.0, 0.21447044329864973
753.0, 0.23175553122177997
754.0, 0.24631515445817073
755.0, 0.2905291399201161
756.0, 0.3149843293912423
757.0, 0.33684015547587015
758.0, 0.3539793083696183
759.0, 0.3586893222225586
760.0, 0.3587229380047869
761.0, 0.36225777799068215
762.0, 0.3510216559006771
763.0, 0.3385267888223291
764.0, 0.33176996015797233
765.0, 0.322637967186184
766.0, 0.30522630208245144
767.0, 0.2891621059392809
768.0, 0.27137303609361346
769.0, 0.2468827756684408
770.0, 0.231915130107864
771.0, 0.227246556911911
772.0, 0.21886549610606404
773.0, 0.1985061534358912
774.0, 0.18852324597063594
775.0, 0.18802308623184935
776.0, 0.18478519502978463
777.0, 0.18738126789045062
778.0, 0.1903206748590262
779.0, 0.181186499369209
780.0, 0.1717608029519859
781.0, 0.16684678948474116
782.0, 0.1717179975358378
783.0, 0.1678277849038822
784.0, 0.15968341231664065
785.0, 0.15539006787396736
786.0, 0.15577893600664922
787.0, 0.1634481845339793
788.0, 0.1522369604793977
789.0, 0.15700831005583826
790.0, 0.1512964451275265
791.0, 0.14004811609841317
792.0, 0.14101936373406646
793.0, 0.14212911540300638
794.0, 0.1384111781665948
795.0, 0.13650188189533913
796.0, 0.1289417230250638
797.0, 0.12313072048460881
798.0, 0.12149529829498915
799.0, 0.12174396789481194
800.0, 0.1191303570900808
801.0, 0.11735943320878882
802.0, 0.11913213572952888
803.0, 0.12008693647265634
804.0, 0.1215369282384586
805.0, 0.12555091653847827
806.0, 0.12844287900754842
807.0, 0.13037520983356157
808.0, 0.14184543510615266
809.0, 0.14736627698718002
810.0, 0.14869194241803
811.0, 0.15094950685014205
812.0, 0.15404545827569505
813.0, 0.1537278925124091
814.0, 0.1435665615038683
815.0, 0.12200933537592236
816.0, 0.10640547516912596
817.0, 0.08781812929688418
818.0, 0.07073407658676874
819.0, 0.060829106444115086
820.0, 0.05373747120671942
821.0, 0.047934572755910246
822.0, 0.04240123741320084
823.0, 0.03651272523439161
824.0, 0.037335947828843516
825.0, 0.036888263073400804
826.0, 0.03154704230815667
827.0, 0.02779666735283296
828.0, 0.026314070295961632
829.0, 0.03812822300910137
830.0, 0.0288466127266307
831.0, 0.022104362928815836
832.0, 0.021847727747019513
833.0, 0.019822212557224703
834.0, 0.017363992200835128
835.0, 0.012196164562346085
836.0, 0.015251628683447175
837.0, 0.019254800028688693
838.0, 0.011930988810738083
839.0, 0.010185282018707841
840.0, 0.014589080839859905
841.0, 0.008877897271241091
842.0, 0.006333314533085082
843.0, 0.009492371788326468
844.0, 0.015470637951481542
845.0, 0.007802927418717538
846.0, 0.0008799344757477959
847.0, 0.001074483567779848
848.0, 0.0013555364236901202
849.0, 0.002689810685996045
850.0, 0.003056524172258763
851.0, 0.0014542184012450044
852.0, 0.006263537954293669
853.0, 0.004228280929487849
854.0, 0.00460538342853542
855.0, 0.003593506240817826
856.0, 0.0074775497636653
857.0, 0.002263695275058243
858.0, 0.006388744838733767
859.0, 0.0038347389074372224
860.0, 0.0058276177100293125
861.0, 0.007575266240318417
862.0, 0.0006690683536329388
863.0, 0.006617938950307573
864.0, 0.00340571841547084
865.0, 0.0012252396330419697
866.0, 0.0010644633765154782
867.0, 0.00034221686454723567
868.0, 0.0004980624026795191
869.0, 0.0006044793202646649
870.0, 0.002439394803027365
871.0, 0.007265995486541616
872.0, 0.0044905571567517835
873.0, 0.0007437583290254836
874.0, 0.0009494168091792629
875.0, 0.0024207801738218866
876.0, 0.0037648868199929185
877.0, 0.00016341474275654606
878.0, 0.0007347326311691672
879.0, 0.007473984035106307
880.0, 0.0075470601594270405
881.0, 0.008774986478165376
882.0, 0.006793064276774745
883.0, 0.004731167562748801
884.0, 0.007511369300358209
885.0, 0.008563742923498312
886.0, 0.005833596690451723
887.0, 0.0061860416791624205
888.0, 0.011946347134676438
889.0, 0.012319175080554301
890.0, 0.00934219545757363
891.0, 0.011490068698077647
892.0, 0.0179498797491958
893.0, 0.01452112394954342
894.0, 0.01301236744451914
895.0, 0.01258359572901919
896.0, 0.012205985403426479
897.0, 0.015862214807699723
898.0, 0.01721762057950214
899.0, 0.011988056604233
900.0, 0.010311988796850451
901.0, 0.0147272394862145
902.0, 0.0038836803987237515
903.0, 0.005296684001312219
904.0, 0.0054849195793369105
905.0, 0.004019013135429303
906.0, 0.008145048056686387
907.0, 0.014580517934166764
908.0, 0.012658892008158895
909.0, 0.014989758764005585
910.0, 0.015654464011205627
911.0, 0.016179719201444957
912.0, 0.014997469085513514
913.0, 0.01421922261082991
914.0, 0.015307578726455696
915.0, 0.01491125276922086
916.0, 0.011007438107478043
917.0, 0.01716974771427401
918.0, 0.019019025185566578
919.0, 0.008772798437378309
920.0, 0.00892093353013855
921.0, 0.01814973388381387
922.0, 0.019216889448853008
923.0, 0.015053054110751043
924.0, 0.022734159595073713
925.0, 0.017592334640369144
926.0, 0.022627513553404144
927.0, 0.023664479648787526
928.0, 0.014669274155070883
929.0, 0.016238321442025604
930.0, 0.028360670499815728
931.0, 0.019965457273433122
932.0, 0.014453188505733915
933.0, 0.017607325818124343
934.0, 0.015517987256805624
935.0, 0.01401454452189971
936.0, 0.00923181319283576
937.0, 0.008750414270941802
938.0, 0.01890442092409751
939.0, 0.023379039795912247
940.0, 0.01654984692413974
941.0, 0.019077351699721495
942.0, 0.015034669089180339
943.0, 0.015028609630162618
944.0, 0.01510871881661239
945.0, 0.013203680690345455
946.0, 0.014105123009147185
947.0, 0.01606359756166513
948.0, 0.022432688009288226
949.0, 0.012715878667590481
950.0, 0.016508254684023244
951.0, 0.021987394221301804
952.0, 0.0260976685525425
953.0, 0.02411481039918352
954.0, 0.016855120980205262
955.0, 0.02164767863593841
956.0, 0.020999752959529504
957.0, 0.030218650481804152
958.0, 0.03331007130363876
959.0, 0.02957423518047074
960.0, 0.029231831984768246
961.0, 0.031096896700449187
962.0, 0.027407176439338893
963.0, 0.02405346842681696
964.0, 0.030528162277818387
965.0, 0.03633062897813784
966.0, 0.03925691337940943
967.0, 0.03663421804919266
968.0, 0.03565949097264302
969.0, 0.03163812626050643
970.0, 0.027007859100859077
971.0, 0.030581669878230876
972.0, 0.017857452979525297
973.0, 0.02070192347800416
974.0, 0.028494024717264643
975.0, 0.029938271989701417
976.0, 0.027337184383914817
977.0, 0.022726501321957866
978.0, 0.021713472634242812
979.0, 0.028880280787613295
980.0, 0.034691472170344705
981.0, 0.029779749522239447
982.0, 0.031173705530700972
983.0, 0.025502316361842647
984.0, 0.03359152532271521
985.0, 0.03544001077331147
986.0, 0.029762494150721353
987.0, 0.031692192274222465
988.0, 0.029482606820344388
989.0, 0.03125581980573383
990.0, 0.036504352958574474
991.0, 0.027514624964991026
992.0, 0.02260946562295495
993.0, 0.025521225608036806
994.0, 0.029547918231875008
995.0, 0.02823461076476825
996.0, 0.023704263852993936
997.0, 0.02523529825161227
998.0, 0.019994686734746026
999.0, 0.023008879668780464
1000.0, 0.019113061117111217
1001.0, 0.016741911740061878
1002.0, 0.016106162720293873
1003.0, 0.01436467411355523
1004.0, 0.008965713442334888
1005.0, 0.00149776515418308
1006.0, 0.0021950599239811044
1007.0, 0.0005896336239205958
1008.0, 0.004793956861170539
1009.0, 0.002708220703497609
1010.0, 0.004653294027058667
1011.0, 0.0030179399576966037
1012.0, 0.00017284211659565618
1013.0, 0.008474108604889518
1014.0, 0.007938096228521891
1015.0, 0.0003403582294215306
1016.0, 0.0024542232291297236
1017.0, 0.0019372162300330391
1018.0, 0.002518754215727809
1019.0, 0.0018797593533664248
1020.0, 0.0008969024871149006
1021.0, 0.002139147838646295
1022.0, 0.0035478704877946795
1023.0, 0.0031988960990916326
1024.0, 0.004365922018673229
1025.0, 0.007271917617142635
1026.0, 0.005788048102467433
1027.0, 0.004592953232797211
1028.0, 0.006522599244167808
1029.0, 0.00753206988104436
1030.0, 0.005273326231024036
1031.0, 0.006648685913606871
1032.0, 0.012930806467020705
1033.0, 0.006529160854428197
1034.0, 0.013942750009371951
1035.0, 0.01589965411627504
1036.0, 0.011360229678737772
1037.0, 0.014193344829412308
1038.0, 0.02024517633514936
1039.0, 0.022692120139204346
1040.0, 0.023612444591336018
1041.0, 0.016640365369382678
1042.0, 0.0204670618391939
1043.0, 0.02617070916282123
1044.0, 0.018751772065226394
1045.0, 0.019035919016040122
1046.0, 0.023082672576609203
1047.0, 0.023779545597648957
1048.0, 0.022491644300400064
1049.0, 0.022093683164764313
1050.0, 0.02687533717350698
1051.0, 0.032622043337992124
1052.0, 0.025592089586046564
1053.0, 0.03390692451112523
1054.0, 0.03851173504459983
1055.0, 0.04658794449907388
1056.0, 0.04659873840113088
1057.0, 0.04085405723263504
1058.0, 0.04569277814995745
1059.0, 0.04990852795046748
1060.0, 0.05592525283363376
1061.0, 0.05157852075931069
1062.0, 0.046604408428443524
1063.0, 0.050505428510786536
1064.0, 0.04576083597397243
1065.0, 0.050656572057805174
1066.0, 0.05810635769541555
1067.0, 0.059784845157480775
1068.0, 0.07337447780311118
1069.0, 0.06709061061260092
1070.0, 0.05699002652677296
1071.0, 0.06213031411019475
1072.0, 0.06498092129723819
1073.0, 0.06316246128407486
1074.0, 0.06437273128686931
1075.0, 0.06590606531219291
1076.0, 0.0668132402346749
1077.0, 0.0752465782083941
1078.0, 0.08785716930104336
1079.0, 0.08526527757872215
1080.0, 0.08842041244006786
1081.0, 0.10582812456537813
1082.0, 0.11238476941868966
1083.0, 0.1250642731266774
1084.0, 0.14275594135895114
1085.0, 0.1611219979228097
1086.0, 0.18318116072992496
1087.0, 0.19669563504578574
1088.0, 0.18590713206740458
1089.0, 0.17093517362103872
1090.0, 0.15213114764830102
1091.0, 0.12833676408935063
1092.0, 0.125459472033111
1093.0, 0.11621486382422236
1094.0, 0.11197330591974036
1095.0, 0.11071261221213866
1096.0, 0.10343075811748213
1097.0, 0.10739123556094744
1098.0, 0.1083130973836857
1099.0, 0.11498176494010837
1100.0, 0.10779015253087378
1101.0, 0.1013099174906237
1102.0, 0.10575275973679406
1103.0, 0.10018622591343662
1104.0, 0.09654566510326136
1105.0, 0.10484704424487731
1106.0, 0.10987583417557524
1107.0, 0.10368395506784685
1108.0, 0.10061233140266809
1109.0, 0.09917315981373365
1110.0, 0.10103564098912138
1111.0, 0.0873586771479101
1112.0, 0.0849382536943483
1113.0, 0.08341208199295881
1114.0, 0.08196352511261963
1115.0, 0.0819286720898572
1116.0, 0.077452984442587
1117.0, 0.07587314066738435
1118.0, 0.08122008640749519
1119.0, 0.06528196323149772
1120.0, 0.05545339620555566
1121.0, 0.06032582440520419
1122.0, 0.06537853727198668
1123.0, 0.05834142109852371
1124.0, 0.051155469366202
1125.0, 0.058299717858013134
1126.0, 0.06619456498324126
1127.0, 0.05769858868082742
1128.0, 0.05044079042552705
1129.0, 0.049824816570137404
1130.0, 0.05044612990806119
1131.0, 0.046993870875599385
1132.0, 0.04312421610114696
1133.0, 0.04198204322166591
1134.0, 0.03794561953534918
1135.0, 0.03884027205960636
1136.0, 0.03851645596695351
1137.0, 0.026514160476667332
1138.0, 0.018158759335984754
1139.0, 0.02287552565509221
1140.0, 0.02629596169838511
1141.0, 0.024011729913349718
1142.0, 0.026195878182734944
1143.0, 0.019118739782764266
1144.0, 0.014705155019088033
1145.0, 0.023284499288397608
1146.0, 0.023803580132971573
1147.0, 0.016489663948491256
1148.0, 0.018630707279953466
1149.0, 0.013945176539129144
1150.0, 0.012661232732308157
1151.0, 0.019382668617662656
1152.0, 0.01903755047524423
1153.0, 0.018984863629442093
1154.0, 0.009245169575130888
1155.0, 0.0074601123500271605
1156.0, 0.015747867770974845
1157.0, 0.014556549876059944
1158.0, 0.009684738874575051
1159.0, 0.015277645772961727
1160.0, 0.016871438268641813
1161.0, 0.013745229090150832
1162.0, 0.018557495017712457
1163.0, 0.0021523433369388927
1164.0, 0.0010930905383530036
1165.0, 0.008384215068178059
1166.0, 0.00624264544530012
1167.0, 0.002351563547029314
1168.0, 0.001793538288118464
1169.0, 0.0005354918062096762
1170.0, 0.00022030987406918275
1171.0, 0.002608617987258765
1172.0, 0.005691212799709118
1173.0, 0.010009529315667816
1174.0, 0.00859917069555937
1175.0, 0.00979701450804038
1176.0, 0.007421926985476076
1177.0, 0.014165747343928238
1178.0, 0.01786117821632173
1179.0, 0.017916393837348107
1180.0, 0.018166606221385845
1181.0, 0.014827404754594601
1182.0, 0.011146849331719251
1183.0, 0.008512240417418418
1184.0, 0.013583158584295374
1185.0, 0.01152328707909847
1186.0, 0.0008327405909084619
1187.0, 0.007485857201555911
1188.0, 0.009537743425913325
1189.0, 0.007008889871840897
1190.0, 0.006710756852992804
1191.0, 0.007398539173932711
1192.0, 0.004817030006466751
1193.0, 0.000998508627449946
1194.0, 0.0006014219342977997
1195.0, 0.001237540558039388
1196.0, 0.001707680913107114
1197.0, 0.00042961643250681136
1198.0, 0.003455866387730927
1199.0, 0.00575281303606137
1200.0, 0.0018995807891692223
1201.0, 0.0013570526215330506
1202.0, 0.002992220968046551
1203.0, 0.005559732982978403
1204.0, 0.0027138699533251452
1205.0, 0.008819196831390487
1206.0, 0.00479089701087469
1207.0, 0.005732021866131334
1208.0, 0.003291863610723255
1209.0, 0.0007088514941031367
1210.0, 0.0005800130701172653
1211.0, 0.005325263187006813
1212.0, 0.0008305485261444184
1213.0, 0.0029540475184698396
1214.0, 0.008155444257180757
1215.0, 0.005526508740241863
1216.0, 0.0004345825760190477
1217.0, 0.0010552084319465748
1218.0, 0.00429600007284466
1219.0, 0.006097716811308001
1220.0, 0.011026573300644
1221.0, 0.003698927465045349
1222.0, 0.009242414985066044
1223.0, 0.002887783095297922
1224.0, 0.0005844933351466938
1225.0, 0.001877728544120005
1226.0, 0.009619102549468904
1227.0, 0.008836252693550312
1228.0, 0.006378926435705179
1229.0, 0.013035724144281466
1230.0, 0.01074888322983637
1231.0, 0.007258074196658971
1232.0, 0.0068006307804310195
1233.0, 0.0067145307376405
1234.0, 0.021342067056376965
1235.0, 0.016543884868501533
1236.0, 0.020379779444729216
1237.0, 0.01894937399483759
1238.0, 0.021912079629347877
1239.0, 0.02129610781967551
1240.0, 0.016984694968699563
1241.0, 0.01261957561934129
1242.0, 0.008742333364462096
1243.0, 0.015026423639228386
1244.0, 0.024854651749102438
1245.0, 0.03207923686134283
1246.0, 0.03234706674372498
1247.0, 0.033063046491155504
1248.0, 0.022671032270612037
1249.0, 0.017054829841354122
1250.0, 0.023276240056461922
1251.0, 0.023001028850770534
1252.0, 0.022741933075812095
1253.0, 0.01763858327920037
1254.0, 0.017863957807202527
1255.0, 0.025943369508428817
1256.0, 0.01997240841525152
1257.0, 0.012212251259125595
1258.0, 0.011344105462501983
1259.0, 0.006963555184657755
1260.0, 0.009794439976051537
1261.0, 0.009145092449075827
1262.0, 0.010786209740536195
1263.0, 0.008967387597802554
1264.0, 0.00214442957812984
1265.0, 0.00392578856758204
1266.0, 0.006400502579230999
1267.0, 0.0012551234342408277
1268.0, 0.0047952970963900145
1269.0, 0.016924771830147747
1270.0, 0.02155351380558201
1271.0, 0.02390402213954924
1272.0, 0.02271251808978388
1273.0, 0.010378615534115593
1274.0, 0.006800219860513672
1275.0, 0.016377371292507846
1276.0, 0.01592346542620318
1277.0, 0.008412367679275504
1278.0, 0.01076093874163732
1279.0, 0.010870459085185748
1280.0, 0.004138608772870677
1281.0, 0.004347082663228122
1282.0, 0.010687546245213436
1283.0, 0.00810555498303297
1284.0, 0.009310238213807888
1285.0, 0.01073277815150749
1286.0, 0.0060652843067616185
1287.0, 0.007773879418437329
1288.0, 0.004401519169158372
1289.0, 0.000426262689115516
1290.0, 0.005880281010629903
1291.0, 0.0011395222656662724
1292.0, 0.005468913142706289
1293.0, 0.0007522880321683559
1294, 0.0
1295, 0.0
1296, 0.0
1297, 0.0
1298, 0.0
1299, 0.0
1300, 0.0
1301, 0.0
1302, 0.0
1303, 0.0
1304, 0.0
1305, 0.0
1306, 0.0
1307, 0.0
1308, 0.0
1309, 0.0
1310, 0.0
1311, 0.0
1312, 0.0
1313, 0.0
1314, 0.0
1315, 0.0
1316, 0.0
1317, 0.0
1318, 0.0
1319, 0.0
1320, 0.0
1321, 0.0
1322, 0.0
1323, 0.0
1324, 0.0
1325, 0.0
1326, 0.0
1327, 0.0
1328, 0.0
1329, 0.0
1330, 0.0
1331, 0.0
1332, 0.0
1333, 0.0
1334, 0.0
1335, 0.0
1336, 0.0
1337, 0.0
1338, 0.0
1339, 0.0
1340, 0.0
1341, 0.0
1342, 0.0
1343, 0.0
1344, 0.0
1345, 0.0
1346, 0.0
1347, 0.0
1348, 0.0
1349, 0.0
1350, 0.0
1351, 0.0
1352, 0.0
1353, 0.0
1354, 0.0
1355, 0.0
1356, 0.0
1357, 0.0
1358, 0.0
1359, 0.0
1360, 0.0
1361, 0.0
1362, 0.0
1363, 0.0
1364, 0.0
1365, 0.0
1366, 0.0
1367, 0.0
1368, 0.0
1369, 0.0
1370, 0.0
1371, 0.0
1372, 0.0
1373, 0.0
1374, 0.0
1375, 0.0
1376, 0.0
1377, 0.0
1378, 0.0
1379, 0.0
1380, 0.0
1381, 0.0
1382, 0.0
1383, 0.0
1384, 0.0
1385, 0.0
1386, 0.0
1387, 0.0
1388, 0.0
1389, 0.0
1390, 0.0
1391, 0.0
1392, 0.0
1393, 0.0
1394, 0.0
1395, 0.0
1396, 0.0
1397, 0.0
1398, 0.0
1399, 0.0
1400, 0.0
1401, 0.0
1402, 0.0
1403, 0.0
1404, 0.0
1405, 0.0
1406, 0.0
1407, 0.0
1408, 0.0
1409, 0.0
1410, 0.0
1411, 0.0
1412, 0.0
1413, 0.0
1414, 0.0
1415, 0.0
1416, 0.0
1417, 0.0
1418, 0.0
1419, 0.0
1420, 0.0
1421, 0.0
1422, 0.0
1423, 0.0
1424, 0.0
1425, 0.0
1426, 0.0
1427, 0.0
1428, 0.0
1429, 0.0
1430, 0.0
1431, 0.0
1432, 0.0
1433, 0.0
1434, 0.0
1435, 0.0
1436, 0.0
1437, 0.0
1438, 0.0
1439, 0.0
1440, 0.0
1441, 0.0
1442, 0.0
1443, 0.0
1444, 0.0
1445, 0.0
1446, 0.0
1447, 0.0
1448, 0.0
1449, 0.0
1450, 0.0
1451, 0.0
1452, 0.0
1453, 0.0
1454, 0.0
1455, 0.0
1456, 0.0
1457, 0.0
1458, 0.0
1459, 0.0
1460, 0.0
1461, 0.0
1462, 0.0
1463, 0.0
1464, 0.0
1465, 0.0
1466, 0.0
1467, 0.0
1468, 0.0
1469, 0.0
1470, 0.0
1471, 0.0
1472, 0.0
1473, 0.0
1474, 0.0
1475, 0.0
1476, 0.0
1477, 0.0
1478, 0.0
1479, 0.0
1480, 0.0
1481, 0.0
1482, 0.0
1483, 0.0
1484, 0.0
1485, 0.0
1486, 0.0
1487, 0.0
1488, 0.0
1489, 0.0
1490, 0.0
1491, 0.0
1492, 0.0
1493, 0.0
1494, 0.0
1495, 0.0
1496, 0.0
1497, 0.0
1498, 0.0
1499, 0.0
1500, 0.0
1501, 0.0
1502, 0.0
1503, 0.0
1504, 0.0
1505, 0.0
1506, 0.0
1507, 0.0
1508, 0.0
1509, 0.0
1510, 0.0
1511, 0.0
1512, 0.0
1513, 0.0
1514, 0.0
1515, 0.0
1516, 0.0
1517, 0.0
1518, 0.0
1519, 0.0
1520, 0.0
1521, 0.0
1522, 0.0
1523, 0.0
1524, 0.0
1525, 0.0
1526, 0.0
1527, 0.0
1528, 0.0
1529, 0.0
1530, 0.0
1531, 0.0
1532, 0.0
1533, 0.0
1534, 0.0
1535, 0.0
1536, 0.0
1537, 0.0
1538, 0.0
1539, 0.0
1540, 0.0
1541, 0.0
1542, 0.0
1543, 0.0
1544, 0.0
1545, 0.0
1546, 0.0
1547, 0.0
1548, 0.0
1549, 0.0
1550, 0.0
1551, 0.0
1552, 0.0
1553, 0.0
1554, 0.0
1555, 0.0
1556, 0.0
1557, 0.0
1558, 0.0
1559, 0.0
1560, 0.0
1561, 0.0
1562, 0.0
1563, 0.0
1564, 0.0
1565, 0.0
1566, 0.0
1567, 0.0
1568, 0.0
1569, 0.0
1570, 0.0
1571, 0.0
1572, 0.0
1573, 0.0
1574, 0.0
1575, 0.0
1576, 0.0
1577, 0.0
1578, 0.0
1579, 0.0
1580, 0.0
1581, 0.0
1582, 0.0
1583, 0.0
1584, 0.0
1585, 0.0
1586, 0.0
1587, 0.0
1588, 0.0
1589, 0.0
1590, 0.0
1591, 0.0
1592, 0.0
1593, 0.0
1594, 0.0
1595, 0.0
1596, 0.0
1597, 0.0
1598, 0.0
1599, 0.0
