30, 0.0
31, 0.0
32, 0.0
33, 0.0
34, 0.0
35, 0.0
36, 0.0
37, 0.0
38, 0.0
39, 0.0
40, 0.0
41, 0.0
42, 0.0
43, 0.0
44, 0.0
45, 0.0
46, 0.0
47, 0.0
48, 0.0
49, 0.0
50, 0.0
51, 0.0
52, 0.0
53.0, 0.00013127596467748354
54.0, 0.0011109473428676563
55.0, 0.0032974015051283044
56.0, 0.005955476553312793
57.0, 0.008681917170619662
58.0, 0.010221477598960605
59.0, 0.012711068983400584
60.0, 0.01583468235934666
61.0, 0.017321620842598442
62.0, 0.015597370769947994
63.0, 0.012566655782511729
64.0, 0.009211388887613189
65.0, 0.00426287294739199
66.0, 0.0012034468846803975
67.0, 3.0495554829151466e-05
68.0, 8.058612534710667e-05
69.0, 0.0008608578480828433
70.0, 0.0011673573911607721
71.0, 0.0001288128957551677
72.0, 0.0020909990729944252
73.0, 0.004695108191690181
74.0, 0.00788957451017551
75.0, 0.012133730853032485
76.0, 0.017000501869179122
77.0, 0.02152235266511088
78.0, 0.025103953110900083
79.0, 0.03099530802475364
80.0, 0.03833492778611337
81.0, 0.04522334539993896
82.0, 0.0452516397590109
83.0, 0.05071914598290502
84.0, 0.0557633481573537
85.0, 0.05772227019695699
86.0, 0.05855969547598724
87.0, 0.06036647476581485
88.0, 0.06258005391706181
89.0, 0.06377763269891396
90.0, 0.06625121946883483
91.0, 0.06840225098339567
92.0, 0.06962019816762592
93.0, 0.06872649755022521
94.0, 0.06786522965580476
95.0, 0.06669897485492851
96.0, 0.06445869012772747
97.0, 0.06302586042690074
98.0, 0.06284463685324669
99.0, 0.06393916288004993
100.0, 0.0634886736942644
101.0, 0.06336689191203465
102.0, 0.06336583152122459
103.0, 0.06323199308894982
104.0, 0.06334497805408755
105.0, 0.06437714912491202
106.0, 0.0663668940549322
107.0, 0.06850333597626831
108.0, 0.0681685795124881
109.0, 0.06671861933101682
110.0, 0.06514316394375468
111.0, 0.06297410261600035
112.0, 0.06138862990298193
113.0, 0.060789148404112904
114.0, 0.0628236635929208
115.0, 0.06363702278500585
116.0, 0.06487791586034021
117.0, 0.06764435850207406
118.0, 0.07059255173443928
119.0, 0.07076834747260108
120.0, 0.06920594355554212
121.0, 0.06897956323839907
122.0, 0.06414154217225665
123.0, 0.060567421385273726
124.0, 0.06052833750178808
125.0, 0.06032446117207148
126.0, 0.059965911458378145
127.0, 0.05998592475116166
128.0, 0.06147499793652623
129.0, 0.06245017895520462
130.0, 0.06312090218699065
131.0, 0.06362861800237761
132.0, 0.06514347139550374
133.0, 0.06549074853667464
134.0, 0.06537311404984378
135.0, 0.06538644384211759
136.0, 0.06578570678566238
137.0, 0.06702636371675731
138.0, 0.06955489834777982
139.0, 0.07551570665063265
140.0, 0.07950267450088316
141.0, 0.08413105880789735
142.0, 0.09093043514348821
143.0, 0.09744346276094835
144.0, 0.10539716235900119
145.0, 0.11467002504677312
146.0, 0.12524195334461005
147.0, 0.1369968360365178
148.0, 0.14516089260277315
149.0, 0.14835801991496342
150.0, 0.14923129555528003
151.0, 0.14666632622168463
152.0, 0.1408843400675149
153.0, 0.13129781935499363
154.0, 0.1197963431013453
155.0, 0.10785331780780806
156.0, 0.09566065389407136
157.0, 0.08328046026898707
158.0, 0.07467067166953473
159.0, 0.06675927560682003
160.0, 0.05793117773679168
161.0, 0.05477535857225628
162.0, 0.050255096142208286
163.0, 0.045252117340128725
164.0, 0.041873529821737296
165.0, 0.03851959355955292
166.0, 0.03600181381517529
167.0, 0.03450709263598098
168.0, 0.033402566075691344
169.0, 0.03217993726199012
170.0, 0.03121017493444497
171.0, 0.030917077577265573
172.0, 0.031059545164441028
173.0, 0.03039961898783212
174.0, 0.029459429510823077
175.0, 0.030557378184522484
176.0, 0.030945681236032717
177.0, 0.03127564662926835
178.0, 0.03182277598736803
179.0, 0.03317588295398478
180.0, 0.03320197904679045
181.0, 0.03282454909931035
182.0, 0.03334022464800993
183.0, 0.03297382288668485
184.0, 0.03218651688608004
185.0, 0.031100488083702468
186.0, 0.030015805106985854
187.0, 0.028897143025547536
188.0, 0.027241972873829966
189.0, 0.024692677411633474
190.0, 0.023089738239437902
191.0, 0.02104498711114835
192.0, 0.018808412256494333
193.0, 0.016871065648713574
194.0, 0.01635175779750496
195.0, 0.016144617864027145
196.0, 0.01604809590490007
197.0, 0.01620485921250758
198.0, 0.01605683763331478
199.0, 0.015858790792174744
200.0, 0.015783617470181897
201.0, 0.017196185060231815
202.0, 0.019526412740777793
203.0, 0.02181480582861889
204.0, 0.021820992800517528
205.0, 0.024327548473444982
206.0, 0.026816648830942116
207.0, 0.028802085040427222
208.0, 0.031326869532397335
209.0, 0.03556414345140743
210.0, 0.040441857569817975
211.0, 0.04523773075392515
212.0, 0.0495669532772055
213.0, 0.05571880258585914
214.0, 0.06275629236533443
215.0, 0.06836845478253244
216.0, 0.07586655213498315
217.0, 0.08323207619395183
218.0, 0.08961226249667774
219.0, 0.09182726193169877
220.0, 0.09287577934347184
221.0, 0.09213694963718368
222.0, 0.0888814259894182
223.0, 0.08506403394271432
224.0, 0.079016892934458
225.0, 0.07214750343679456
226.0, 0.06750468269107333
227.0, 0.061934925175693795
228.0, 0.056788444386101394
229.0, 0.05223880881329346
230.0, 0.047457425757049025
231.0, 0.04253375267623209
232.0, 0.038690497973298585
233.0, 0.03680674477065163
234.0, 0.03150159128716269
235.0, 0.02847682475151797
236.0, 0.026666397886603802
237.0, 0.024327315997300085
238.0, 0.021715104688827324
239.0, 0.020042008745062477
240.0, 0.018964936300012513
241.0, 0.01578879019260314
242.0, 0.014723915639564869
243.0, 0.013949139027781202
244.0, 0.012637290015916403
245.0, 0.010719010323859147
246.0, 0.010407253611442822
247.0, 0.010000993111654338
248.0, 0.00734808816880024
249.0, 0.007008732422171565
250.0, 0.005428496359134534
251.0, 0.003377077578435592
252.0, 0.0044165586104012835
253.0, 0.003971958719905509
254.0, 0.002931111531700702
255.0, 0.0017283905001083447
256.0, 0.0023793543071357
257.0, 0.00228250557677674
258.0, 0.001542260191605512
259.0, 0.00015184632012651402
260.0, 0.0002775850768362855
261.0, 0.00044956119666594526
262.0, 0.00080971868074602
263.0, 0.0017412953455757936
264.0, 0.0013372847502400066
265.0, 0.0013014278349613268
266.0, 0.0018492362059896726
267.0, 0.002652741925690764
268.0, 0.0023076535073179526
269.0, 0.0019403625521690966
270.0, 0.002002263677394678
271.0, 0.0017171649356449027
272.0, 0.0016024059060891478
273.0, 0.0016022758283150153
274.0, 0.0016769917951065816
275.0, 0.0010187576269492277
276.0, 0.00043954516562608187
277.0, 0.0004276182041885368
278.0, 0.0021358797181178072
279.0, 0.0026208492679754853
280.0, 0.004974659552471371
281.0, 0.009074457677297374
282.0, 0.01028310249339359
283.0, 0.013860850141877741
284.0, 0.016130840936391264
285.0, 0.01537370231622375
286.0, 0.015985776997263952
287.0, 0.017628049469683403
288.0, 0.018685705875091364
289.0, 0.017327977672787036
290.0, 0.01838429381035121
291.0, 0.018520699152911484
292.0, 0.017926824846443305
293.0, 0.017407380564971882
294.0, 0.017781570490146996
295.0, 0.017696520233082057
296.0, 0.01731123774059794
297.0, 0.018874574196098066
298.0, 0.019924351834367172
299.0, 0.020839006632860868
300.0, 0.021840112850430842
301.0, 0.024032483394436147
302.0, 0.02566006302811776
303.0, 0.027256608278039884
304.0, 0.0292965013888616
305.0, 0.031546582756276836
306.0, 0.03353502819508362
307.0, 0.03500990983351927
308.0, 0.03546127638348736
309.0, 0.0382875086710635
310.0, 0.03885093250551632
311.0, 0.03755291296245418
312.0, 0.038081445111228726
313.0, 0.0368140695017933
314.0, 0.03506402281855482
315.0, 0.03327255295249015
316.0, 0.031901700869388656
317.0, 0.030095656156005332
318.0, 0.028020314810489468
319.0, 0.025784215728008868
320.0, 0.024728082754112535
321.0, 0.0235017556028725
322.0, 0.022734087852810725
323.0, 0.023196171753866873
324.0, 0.0211783594195267
325.0, 0.02009643944177789
326.0, 0.019520418447928657
327.0, 0.018192557970056464
328.0, 0.017631696182274333
329.0, 0.01770620154334778
330.0, 0.018194924845092032
331.0, 0.0183273858837479
332.0, 0.018742970620858487
333.0, 0.01937640802746803
334.0, 0.02002106731636961
335.0, 0.019092679771077432
336.0, 0.018152916523349348
337.0, 0.018428296180867512
338.0, 0.020573687531605774
339.0, 0.021170019656314855
340.0, 0.020637155604198404
341.0, 0.020239710527905852
342.0, 0.021250140159541193
343.0, 0.02215327257677589
344.0, 0.022594315767062927
345.0, 0.022586731201755555
346.0, 0.022121869108463418
347.0, 0.023242629510875766
348.0, 0.02387477950884162
349.0, 0.02376258016273307
350.0, 0.022775442856081015
351.0, 0.020804122341242345
352.0, 0.02047289284894363
353.0, 0.02148616719235714
354.0, 0.019417334536144013
355.0, 0.01935835045263593
356.0, 0.018854163899599475
357.0, 0.017109749365638218
358.0, 0.015598358403022388
359.0, 0.01518284968294743
360.0, 0.014633574750235388
361.0, 0.013262057567475288
362.0, 0.013139683397582697
363.0, 0.012573409084992255
364.0, 0.011623845594522722
365.0, 0.010318954753867952
366.0, 0.010951226075944176
367.0, 0.009211648483542615
368.0, 0.006768273380118726
369.0, 0.0062384471230170595
370.0, 0.0051305971242879235
371.0, 0.0046559260496757335
372.0, 0.00440403477865072
373.0, 0.003216456383992494
374.0, 0.0011619113705443555
375.0, 0.000839325879142399
376.0, 0.001763381560191521
377.0, 0.0008404914925890211
378.0, 0.0010848229987603412
379.0, 0.0016967607882837738
380.0, 0.0023674444461363334
381.0, 0.002513294116934939
382.0, 0.002907048899006364
383.0, 0.003281006767529991
384.0, 0.0035273273674727885
385.0, 0.0036254406545380164
386.0, 0.004268415059188293
387.0, 0.00467221906607721
388.0, 0.0044241318381982855
389.0, 0.0042674362303402645
390.0, 0.004592002916799015
391.0, 0.0046754040218360965
392.0, 0.0039591880715451515
393.0, 0.00511202916366253
394.0, 0.004312641015172786
395.0, 0.0032970737707826146
396.0, 0.003988656641275186
397.0, 0.005966790691903448
398.0, 0.005474058199551215
399.0, 0.004151671532092744
400.0, 0.004605722366753708
401.0, 0.0034792642512963042
402.0, 0.003837138849175697
403.0, 0.005392638813252025
404.0, 0.0071913026210149176
405.0, 0.006488588238332121
406.0, 0.006222314823093876
407.0, 0.006537017566666556
408.0, 0.006864432699850177
409.0, 0.008410941939252682
410.0, 0.009695581835665767
411.0, 0.010805238720675963
412.0, 0.013004433816480181
413.0, 0.013988701224061787
414.0, 0.015323619645774092
415.0, 0.017287795954274356
416.0, 0.019362320816462573
417.0, 0.020260102948042705
418.0, 0.021027473135620874
419.0, 0.021825511676163492
420.0, 0.021588807588412973
421.0, 0.02214601151001922
422.0, 0.022805948529998565
423.0, 0.023276756552915525
424.0, 0.023430882845330583
425.0, 0.02311123246567137
426.0, 0.02229159342760076
427.0, 0.020975161342765523
428.0, 0.019573708632485413
429.0, 0.017474785232497347
430.0, 0.015487701469996954
431.0, 0.01406821957375798
432.0, 0.012568257307529647
433.0, 0.012654841279295009
434.0, 0.012108891593355224
435.0, 0.009484700790140925
436.0, 0.00959602598924844
437.0, 0.00815821540358425
438.0, 0.007059447819916299
439.0, 0.007828357658953011
440.0, 0.006187448804907751
441.0, 0.004035686522171448
442.0, 0.0030814610400050233
443.0, 0.004994926262428821
444.0, 0.004019343902938639
445.0, 0.002248879592459355
446.0, 0.0009023669333173924
447.0, 0.0013250838410069354
448.0, 0.0014424804489906306
449.0, 0.0012860201809691356
450.0, 0.0009084142873328253
451.0, 0.00036489822697963154
452.0, 0.0009608382942522657
453.0, 0.0013845048344139636
454.0, 0.001452539499879105
455.0, 0.0009608956012530107
456.0, 0.0009135475604945317
457.0, 0.0008765629445610531
458.0, 0.0007241730411778973
459.0, 0.0002980555959193887
460.0, 0.0009994755650097162
461.0, 0.0009621169518078937
462.0, 0.0005846623556494662
463.0, 0.0006174812771712243
464.0, 0.00023590189258657757
465.0, 0.0008148751413317624
466.0, 0.0013616105470459828
467.0, 0.0001470527948310462
468.0, 0.00015286445869502747
469.0, 0.00025319250435227507
470.0, 0.0007713471975984834
471.0, 0.0023922830522702856
472.0, 0.0019337303518737216
473.0, 0.0014125840873503838
474.0, 0.001076556275177624
475.0, 0.0011005845840133567
476.0, 0.0005250895508989561
477.0, 0.00042190287473309297
478.0, 0.0009468104895486566
479.0, 0.0022551181711685598
480.0, 0.0013060771139499785
481.0, 0.001760880267488971
482.0, 0.002924563997023167
483.0, 0.0032355213256062072
484.0, 0.0047944318239951
485.0, 0.005727677791562412
486.0, 0.006293000778888056
487.0, 0.007102167821927877
488.0, 0.006989684839053777
489.0, 0.00796647280405281
490.0, 0.00910868662290881
491.0, 0.008801800721600386
492.0, 0.009768085720623598
493.0, 0.010240811074337249
494.0, 0.010706950722795143
495.0, 0.012015592965421925
496.0, 0.013726380314874269
497.0, 0.013832282667848306
498.0, 0.013317276572934633
499.0, 0.013617895006350246
500.0, 0.015524953441060385
501.0, 0.014987795882718875
502.0, 0.013527554152487962
503.0, 0.013171774889436789
504.0, 0.0135466294467762
505.0, 0.013069170375817453
506.0, 0.012530246708553369
507.0, 0.012840829678935404
508.0, 0.010422357134886099
509.0, 0.008108490211914223
510.0, 0.007266691179435567
511.0, 0.009169705635396905
512.0, 0.007930792936472942
513.0, 0.007453861372284607
514.0, 0.006990606503629562
515.0, 0.00591249431516544
516.0, 0.005250198548327725
517.0, 0.004940532629313549
518.0, 0.005028105558269697
519.0, 0.005411225772372689
520.0, 0.0033438513322754304
521.0, 0.0028319285670853596
522.0, 0.0030434243988941806
523.0, 0.0035104029828191803
524.0, 0.004985913161377087
525.0, 0.003638994840656954
526.0, 0.002257505443362771
527.0, 0.002153268373282762
528.0, 0.0014511301924839378
529.0, 0.0018019145336038139
530.0, 0.0024472326587317837
531.0, 0.0029743747190161406
532.0, 0.0028752623330306182
533.0, 0.0027966793434639195
534.0, 0.003153813602047194
535.0, 0.004072560154917962
536.0, 0.005405381434609143
537.0, 0.004941639451768315
538.0, 0.0050902755433640924
539.0, 0.005979395626931534
540.0, 0.005432533008431944
541.0, 0.006943830194277619
542.0, 0.008496713489412938
543.0, 0.009420467403971657
544.0, 0.009025336985884262
545.0, 0.010086686344772668
546.0, 0.011100534068869341
547.0, 0.011710461792442586
548.0, 0.01164643889113342
549.0, 0.0142140536546229
550.0, 0.015423263314546546
551.0, 0.016175696766827063
552.0, 0.018740813546661225
553.0, 0.018680415100195583
554.0, 0.019086015847314727
555.0, 0.01981491840554938
556.0, 0.020442026875937658
557.0, 0.021433404918704834
558.0, 0.021526949640737866
559.0, 0.021170925483768026
560.0, 0.020853440029586088
561.0, 0.02139405373290704
562.0, 0.02176945892429459
563.0, 0.02133582504101233
564.0, 0.019785503627826728
565.0, 0.019426114289059503
566.0, 0.0196374103645294
567.0, 0.018585968136744464
568.0, 0.01581631007525729
569.0, 0.015308568729167697
570.0, 0.015888779004007585
571.0, 0.014541485873816708
572.0, 0.011261695656596227
573.0, 0.011440102717918043
574.0, 0.01098199719843601
575.0, 0.00994978437305104
576.0, 0.008466455793452052
577.0, 0.006866799846665701
578.0, 0.006895472853647536
579.0, 0.005944805419016322
580.0, 0.004669828540573557
581.0, 0.005351273032071142
582.0, 0.004426662402237501
583.0, 0.0037093010742542468
584.0, 0.0034219589756775055
585.0, 0.0036519207298107755
586.0, 0.0013689770282581857
587.0, 0.0019407209021169117
588.0, 0.002675168839643816
589.0, 0.0009093774101873109
590.0, 0.0018785101134590498
591.0, 0.0012543624564788326
592.0, 0.0008332284286913819
593.0, 0.0015549834933271944
594.0, 0.0006607088753553782
595.0, 0.00043275660606129605
596.0, 0.0005031506552311145
597.0, 0.0006705231683609173
598.0, 0.0007161535961633359
599.0, 0.0002853120785042813
600.0, 7.32290161336428e-05
601.0, 0.0001743964519415994
602.0, 0.0002895114358131623
603.0, 0.0003009309859395453
604.0, 0.0005967794396927994
605.0, 0.0010316076046279592
606.0, 0.0012079809733840541
607.0, 0.0004934893619962053
608.0, 0.00015961031787857454
609.0, 0.0002571645560647685
610.0, 0.0007279693878693801
611.0, 0.0002975145143523644
612.0, 0.0008967808444835811
613.0, 0.0014528113662369152
614.0, 0.0011661131980696513
615.0, 0.0006371469161177553
616.0, 0.0005941367401574642
617.0, 0.0007903086373540844
618.0, 0.0010307304055283057
619.0, 0.0008883932033648928
620.0, 0.001235086025656084
621.0, 0.0012395094657809281
622.0, 0.0011764669917573153
623.0, 0.0025778519538938323
624.0, 0.0011909319910379404
625.0, 0.0008973267435223556
626.0, 0.0014303146488920569
627.0, 0.0013613400020098488
628.0, 0.0008631751853144928
629.0, 0.0008577162627028848
630.0, 0.0009080229175519424
631.0, 0.000587126661176524
632.0, 0.0021117390764007144
633.0, 0.0019001185308338822
634.0, 0.001142998131298088
635.0, 0.0006026994950277816
636.0, 0.00037674704750265456
637.0, 0.0009158080220351868
638.0, 0.0011123595645570756
639.0, 0.0007881537591987224
640.0, 0.0006833584228686793
641.0, 0.0005513489901097578
642.0, 0.0012366655578522612
643.0, 0.0019482937029374314
644.0, 0.0008835506152873926
645.0, 0.0005307149514853775
646.0, 0.00031412329143329387
647.0, 0.0005102215090838872
648.0, 0.0013779697902803812
649.0, 0.0008881869412385947
650.0, 0.0005184296641725023
651.0, 0.0003666644713802913
652.0, 0.0004176663163312725
653.0, 0.00015812453435769426
654.0, 0.0002546492539495759
655.0, 0.0002270255643076375
656.0, 0.0001312944129343305
657.0, 0.0006399251937551331
658.0, 0.0007041659033232503
659.0, 0.0008620933307106148
660.0, 0.000834523214345283
661.0, 4.48404277280576e-05
662.0, 0.00010356454117642615
663.0, 0.0008020997972365811
664.0, 0.0011031416704247732
665.0, 0.00025486232853828893
666.0, 0.0006278818690774728
667.0, 0.0021754470624755513
668.0, 0.0022059809652024216
669.0, 0.0004043424861546804
670.0, 0.0012151021386280604
671.0, 0.0008019987130207149
672.0, 0.0003447351197245062
673.0, 0.0005605715867749485
674.0, 0.0024318365923906298
675.0, 0.0009027056542001532
676.0, 0.0004488941345882023
677.0, 0.0005172465429352353
678.0, 0.00016382267135011915
679.0, 0.0007216026338905661
680.0, 0.0016655724470285836
681.0, 0.0019057342915314809
682.0, 0.0010810132652297418
683.0, 0.0007250955284667746
684.0, 0.002085792219759123
685.0, 0.00314178248021641
686.0, 0.0034837593782892098
687.0, 0.0034548526149145798
688.0, 0.0018259742383185296
689.0, 0.0020162103307963036
690.0, 0.003041207844698927
691.0, 0.0033384860906889528
692.0, 0.004220572336914726
693.0, 0.0022012289045466055
694.0, 0.0017648851896949168
695.0, 0.0043912931781617945
696.0, 0.0025937718593815845
697.0, 0.004013891584485365
698.0, 0.003844426382475131
699.0, 0.002666193046567517
700.0, 0.005088214738413273
701.0, 0.005065831088157576
702.0, 0.003425970361435487
703.0, 0.0018262913751885396
704.0, 0.0020755301355844195
705.0, 0.004245884171892197
706.0, 0.0054544628864029235
707.0, 0.005082408511365194
708.0, 0.0030358971814239424
709.0, 0.00042871841166520477
710.0, 0.002157871862189177
711.0, 0.0031539307429019558
712.0, 0.003153648827885899
713.0, 0.004012182027549024
714.0, 0.0028790604100976847
715.0, 0.002789178294478679
716.0, 0.0032086811443813364
717.0, 0.0032984212529534864
718.0, 0.0008842569484055385
719.0, 0.0024728042813545693
720.0, 0.003880374123955287
721.0, 0.0036331862960169367
722.0, 0.0028934834116700545
723.0, 0.0037783975521849767
724.0, 0.003827814429475398
725.0, 0.0033544194550256885
726.0, 0.0034094773520484643
727.0, 0.0030330036968455364
728.0, 0.0023513273379379
729.0, 0.0018059658593777058
730.0, 0.0016635831305919092
731.0, 0.0016767744312062977
732.0, 0.0012343776797611127
733.0, 0.0012247910629281105
734.0, 0.0017141627190155977
735.0, 0.0022796658801433997
736.0, 0.0012907151424260126
737.0, 0.0015631640973641117
738.0, 0.002265019440277433
739.0, 0.0024905785740976256
740.0, 0.003975232204279502
741.0, 0.0026806905202126554
742.0, 0.0013667156879982529
743.0, 0.0011296880027877282
744.0, 0.0017311873572017468
745.0, 0.00096181459603989
746.0, 0.0015203224562292785
747.0, 0.002245509876101785
748.0, 0.0011932401439534676
749.0, 0.0014730160307451102
750.0, 0.002686020015601785
751.0, 0.003571763496400744
752.0, 0.0031803951810084248
753.0, 0.00039791601841580675
754.0, 0.0020438348943849086
755.0, 0.002634931490152777
756.0, 0.002375330132279262
757.0, 0.0034707199664224565
758.0, 0.003321822859166211
759.0, 0.0028922765901999944
760.0, 0.0029060196715926393
761.0, 0.0034921114680617122
762.0, 0.002319585872508169
763.0, 0.0032489360339417266
764.0, 0.0034111102851053115
765.0, 0.0026202187807681547
766.0, 0.002016567666864683
767.0, 0.00436807419734732
768.0, 0.005253005892856121
769.0, 0.0064192284322260925
770.0, 0.008678385854403118
771.0, 0.0058839083764012775
772.0, 0.006385851379405553
773.0, 0.007762096077804694
774.0, 0.008508531358500984
775.0, 0.0069024664271832075
776.0, 0.007126242780850517
777.0, 0.0076754644362911975
778.0, 0.008513589118170833
779.0, 0.009743949494878768
780.0, 0.012046794144031711
781.0, 0.013976408649434982
782.0, 0.015336264510121848
783.0, 0.015810485944911093
784.0, 0.014827705524167853
785.0, 0.016669150446422552
786.0, 0.018918321591623218
787.0, 0.019826954685103638
788.0, 0.018713323640141524
789.0, 0.021873420051651847
790.0, 0.02222333636071566
791.0, 0.02411368858158013
792.0, 0.027896084579515996
793.0, 0.031192687537171755
794.0, 0.033099338626045735
795.0, 0.03595833036211619
796.0, 0.03858313200539583
797.0, 0.04033621718557838
798.0, 0.044961389035470624
799.0, 0.04858058215693734
800.0, 0.05304181094155426
801.0, 0.05831907843605247
802.0, 0.06323887400758403
803.0, 0.06706594092636958
804.0, 0.07487112518012627
805.0, 0.08270627267157296
806.0, 0.08883072199406747
807.0, 0.10231977325915743
808.0, 0.11271600248480892
809.0, 0.12274789949981378
810.0, 0.13489451541571182
811.0, 0.1521387938858495
812.0, 0.16910133917077852
813.0, 0.18427209906887504
814.0, 0.20182679153901603
815.0, 0.22267777081076917
816.0, 0.23879961561961782
817.0, 0.2553775551587895
818.0, 0.26959238564180127
819.0, 0.282522414762759
820.0, 0.29622069485030617
821.0, 0.30289926775610826
822.0, 0.30684977098972255
823.0, 0.31157680544330524
824.0, 0.3160134260146305
825.0, 0.310749535605994
826.0, 0.30739044211703453
827.0, 0.3034375227683572
828.0, 0.299266766144578
829.0, 0.29564430925945284
830.0, 0.29321224320202527
831.0, 0.28970497165273457
832.0, 0.28324964801190733
833.0, 0.27665328086552954
834.0, 0.27775978031476967
835.0, 0.2774688007340734
836.0, 0.2803170196061356
837.0, 0.2860258508320146
838.0, 0.2938789415278896
839.0, 0.3026374151524693
840.0, 0.3118923221805874
841.0, 0.32877778128782803
842.0, 0.3477232549671751
843.0, 0.35821533146363993
844.0, 0.3806231923068325
845.0, 0.41633467485107367
846.0, 0.4525539485798848
847.0, 0.4870961848055615
848.0, 0.535061943648712
849.0, 0.5948286067016747
850.0, 0.6579274285032167
851.0, 0.7276235795815684
852.0, 0.8054415219734999
853.0, 0.8689811105816991
854.0, 0.9235027914553658
855.0, 0.9697593760387415
856.0, 0.9994027565762382
857.0, 0.9971144675963077
858.0, 0.939610680878172
859.0, 0.8617210783117532
860.0, 0.7780382840325016
861.0, 0.6964023025018532
862.0, 0.611081401172094
863.0, 0.5185063422846237
864.0, 0.44809099710862127
865.0, 0.39274561677266895
866.0, 0.33979914322957255
867.0, 0.29952274488843805
868.0, 0.2593518383274631
869.0, 0.22655789270855778
870.0, 0.19969366319610476
871.0, 0.17069120204534324
872.0, 0.15776174152222408
873.0, 0.14313477554873696
874.0, 0.1292197307055969
875.0, 0.11711730235835976
876.0, 0.1040517080857108
877.0, 0.09340968695444896
878.0, 0.08753465011014198
879.0, 0.0828351625082161
880.0, 0.07554841311882592
881.0, 0.07180790168899856
882.0, 0.06536126582428656
883.0, 0.05997746268481981
884.0, 0.05554602371950083
885.0, 0.049691317322774986
886.0, 0.047235812921062964
887.0, 0.04430403892833814
888.0, 0.04235407929703783
889.0, 0.04134260581329004
890.0, 0.03835999780133688
891.0, 0.03343762570225026
892.0, 0.031139718730432565
893.0, 0.03025499813996299
894.0, 0.028945155944951225
895.0, 0.02562510403123395
896.0, 0.024255243027713008
897.0, 0.022022008359703842
898.0, 0.019566349057964623
899.0, 0.018800373888977966
900.0, 0.02082874610021442
901.0, 0.01904660364986521
902.0, 0.017203120300279484
903.0, 0.01694008584738114
904.0, 0.018306670068044463
905.0, 0.015887488723116856
906.0, 0.01465789493288148
907.0, 0.014155618118272865
908.0, 0.013897052035580388
909.0, 0.013822614427236087
910.0, 0.013272840277913332
911.0, 0.012298623999653039
912.0, 0.011958985155292721
913.0, 0.01277642655788212
914.0, 0.01075154054931582
915.0, 0.011757627126970092
916.0, 0.010752107341859817
917.0, 0.007793995359163423
918.0, 0.005229798111189877
919.0, 0.010529767065613408
920.0, 0.01097066152783682
921.0, 0.010476411135330451
922.0, 0.010206499505957693
923.0, 0.009151711770487094
924.0, 0.009379673991904423
925.0, 0.010838212947874877
926.0, 0.011598321744331131
927.0, 0.010794868717675663
928.0, 0.009453104290965639
929.0, 0.011361635488107476
930.0, 0.012275296134016607
931.0, 0.012412611160644649
932.0, 0.012097916255628447
933.0, 0.010042143590865096
934.0, 0.007527448934410713
935.0, 0.009089829467682853
936.0, 0.010299206528395492
937.0, 0.006532901350537189
938.0, 0.011615070959076155
939.0, 0.009811636915397786
940.0, 0.008901668148590992
941.0, 0.010402594691715422
942.0, 0.012929454137918666
943.0, 0.010726378109749088
944.0, 0.00834475592902958
945.0, 0.008150956932837199
946.0, 0.009328852544514333
947.0, 0.008229119033515244
948.0, 0.010774701927082467
949.0, 0.011308767594508558
950.0, 0.011823919084755332
951.0, 0.013643618355001217
952.0, 0.01725387686083263
953.0, 0.017020913616908162
954.0, 0.01786836598661198
955.0, 0.019661035880261846
956.0, 0.02198744766024171
957.0, 0.024561951101361782
958.0, 0.026041337523151156
959.0, 0.027896620554926647
960.0, 0.029349460038552523
961.0, 0.029760043557335684
962.0, 0.030024635042552584
963.0, 0.030274218836640165
964.0, 0.030816631302607946
965.0, 0.02989119138679768
966.0, 0.026168022494242375
967.0, 0.023780494782865185
968.0, 0.02096492904265656
969.0, 0.01877772900084155
970.0, 0.01676382470556872
971.0, 0.014173817185772862
972.0, 0.012741974407554547
973.0, 0.01183531572323424
974.0, 0.010656269268432623
975.0, 0.009635667039913061
976.0, 0.009697195780838719
977.0, 0.00962785735222521
978.0, 0.005380715887684942
979.0, 0.004189480989706323
980.0, 0.005972829631002842
981.0, 0.0058809720959525705
982.0, 0.003125044385466973
983.0, 0.006903895951764594
984.0, 0.005814464704696416
985.0, 0.0007522841737339565
986.0, 0.003352208865507867
987.0, 0.0025801092991161495
988.0, 0.0009677006688983389
989.0, 0.0012140698140240102
990.0, 0.0027220883923279498
991.0, 0.0011334528611146159
992.0, 0.000528262904677268
993.0, 0.0003274355163976299
994.0, 0.0005793227780183732
995.0, 0.0013629983293417004
996.0, 0.002818422382828834
997.0, 0.0006969792074669024
998.0, 0.0021674041074223414
999.0, 0.003211962643767217
1000.0, 0.0027706382416674224
1001.0, 0.0051003495999779845
1002.0, 0.001805399960373465
1003.0, 0.0022617525665893203
1004.0, 0.0025636914090115407
1005.0, 0.0011236783817115468
1006.0, 0.0016415231576707605
1007.0, 0.00393331333126667
1008.0, 0.003211012939151205
1009.0, 0.0026083593414985575
1010.0, 0.0033958323713527594
1011.0, 0.0022848532603493943
1012.0, 0.005461186480201139
1013.0, 0.006415525080425705
1014.0, 0.006478267088512973
1015.0, 0.006956801544290641
1016.0, 0.008018673306102668
1017.0, 0.009051833150677814
1018.0, 0.013021010973566617
1019.0, 0.015231693076373986
1020.0, 0.014005191806842987
1021.0, 0.014828330746172545
1022.0, 0.01837041768163839
1023.0, 0.018109823879506878
1024.0, 0.018402553772064754
1025.0, 0.020651590704542165
1026.0, 0.01877379742449293
1027.0, 0.019579543277747444
1028.0, 0.019310752223372543
1029.0, 0.01871758953184496
1030.0, 0.018475420644561712
1031.0, 0.01856522027120165
1032.0, 0.01859252251007534
1033.0, 0.017376267805495556
1034.0, 0.016876070707149308
1035.0, 0.017409313010510626
1036.0, 0.016211294580114687
1037.0, 0.015519020567099398
1038.0, 0.01411103350727167
1039.0, 0.01333007758111962
1040.0, 0.013522438650035605
1041.0, 0.01341144531510494
1042.0, 0.012864118233321982
1043.0, 0.010821065144897654
1044.0, 0.00967288438611788
1045.0, 0.009304895154520307
1046.0, 0.0063316954868806825
1047.0, 0.0047944297020246236
1048.0, 0.0041817618530998885
1049.0, 0.005104137360685507
1050.0, 0.005826614397434003
1051.0, 0.002338040271254226
1052.0, 0.006095125200245546
1053.0, 0.00585075719932736
1054.0, 0.004070557139084517
1055.0, 0.0026925720286502222
1056.0, 0.0030808775034505847
1057.0, 0.0029191664070262343
1058.0, 0.0027822280692492802
1059.0, 0.003578629249955937
1060.0, 0.00447117238468535
1061.0, 0.00378766566404174
1062.0, 0.0041233345183890845
1063.0, 0.004699066099723203
1064.0, 0.004879686815626374
1065.0, 0.005012612097037233
1066.0, 0.00552106092504579
1067.0, 0.0032585649861826497
1068.0, 0.007440930358066156
1069.0, 0.005986554156260357
1070.0, 0.0026048199671454345
1071.0, 0.004407122401768657
1072.0, 0.007695753127287621
1073.0, 0.005211356983380989
1074.0, 0.004398483897449567
1075.0, 0.005316127303785442
1076.0, 0.0060657249884440295
1077.0, 0.00368192322489961
1078.0, 0.0033113218849096333
1079.0, 0.00580219982382149
1080.0, 0.00781778647461923
1081.0, 0.007470711974331646
1082.0, 0.007715299074548086
1083.0, 0.0059738180242664704
1084.0, 0.00585350177555218
1085.0, 0.005902315422272173
1086.0, 0.0065323130868078505
1087.0, 0.011582577330208182
1088.0, 0.0049527492247975705
1089.0, 0.005121491082173683
1090.0, 0.005706608529748694
1091.0, 0.0040574297765042415
1092.0, 0.001774211569123785
1093.0, 0.0004692833739121131
1094.0, 0.001157590642705826
1095.0, 0.0025474908736922183
1096.0, 0.002726312193239782
1097.0, 0.00021025073375722505
1098.0, 0.0015401327763664634
1099.0, 0.0018384765303478157
1100.0, 0.003881019963643181
1101.0, 0.005452488099653165
1102.0, 0.004021668222869714
1103.0, 0.004133121522808266
1104.0, 0.0016643886975275008
1105.0, 0.0023966453070728283
1106.0, 0.0030037866805578653
1107.0, 0.0015487684360767728
1108.0, 0.004381169065678001
1109.0, 0.0021679275019695163
1110.0, 0.0011471993481091325
1111.0, 0.0009903535987765314
1112.0, 0.0011148058690008823
1113.0, 0.0013675136675533387
1114.0, 0.0018725247652046063
1115.0, 0.0019233701641398644
1116.0, 0.0014720851063409078
1117.0, 0.0012798913373353684
1118.0, 0.002490291083592373
1119.0, 0.002781499830126285
1120.0, 0.003885203609137168
1121.0, 0.004027889779742678
1122.0, 0.004439730300501463
1123.0, 0.0064800330207743975
1124.0, 0.005303783746032777
1125.0, 0.008904702687095013
1126.0, 0.00673610024225079
1127.0, 0.002698881270682937
1128.0, 0.0011811150202750511
1129.0, 0.0004183831231609408
1130.0, 0.003864285740103602
1131.0, 0.0041372735887204234
1132.0, 0.003670231743568038
1133.0, 0.0034616461548449364
1134.0, 0.0019187180648913263
1135.0, 0.0009471824857602248
1136.0, 0.004024382113380647
1137.0, 0.004535644074243122
1138.0, 0.003170899484389844
1139.0, 0.004078124838563074
1140.0, 0.0029910715222768625
1141.0, 0.0008886033874675546
1142.0, 0.0002859360990342383
1143.0, 0.0010760745638008849
1144.0, 0.0020403868914986
1145.0, 0.0008103984596374203
1146.0, 0.0017497656928108156
1147.0, 0.0013997495037098922
1148.0, 0.000762045349217061
1149.0, 0.0007224370251867775
1150.0, 0.0013642136694479877
1151.0, 0.0020097353989180088
1152.0, 0.0008118134962792859
1153.0, 8.470535679672922e-05
1154.0, 0.0007762212636096199
1155.0, 0.002549753210999968
1156.0, 0.002305856616751059
1157.0, 0.001160374912381413
1158.0, 0.0014923000725157785
1159.0, 0.0018484058928272885
1160.0, 0.0012187806566502303
1161.0, 0.002459126738827022
1162.0, 0.0037444238013753144
1163.0, 0.0019838319673577266
1164.0, 0.0010586771344958678
1165.0, 0.002431960027249843
1166.0, 0.0041570372435049754
1167.0, 0.0034085579718409476
1168.0, 0.002815031553944964
1169.0, 0.0016718626767394142
1170.0, 0.0007245632194719346
1171.0, 0.0010599417912304618
1172.0, 0.0022706251556612444
1173.0, 0.002778095113411703
1174.0, 0.002604072986978225
1175.0, 0.002565952777724066
1176.0, 0.002879701749500022
1177.0, 0.002504132665025441
1178.0, 0.001996547540316357
1179.0, 0.0017488083684812153
1180.0, 0.0009669341454021153
1181.0, 0.0006174619478291533
1182.0, 0.002155060786802968
1183.0, 0.0015628697018043051
1184.0, 0.003782800946969668
1185.0, 0.002451587328023825
1186.0, 0.001122172526811196
1187.0, 0.00306769109394856
1188.0, 0.005221543982221213
1189.0, 0.0019987150296681584
1190.0, 0.0038012420210451216
1191.0, 0.004972466545565217
1192.0, 0.004306358830625993
1193.0, 0.004673430151347201
1194.0, 0.0033441474579390096
1195.0, 0.004255544759874838
1196.0, 0.003890865938826662
1197.0, 0.003029041172127769
1198.0, 0.0032753955877706893
1199.0, 0.004980136737391538
1200.0, 0.005455507324858169
1201.0, 0.005355250424622721
1202.0, 0.005396598731696241
1203.0, 0.005091168795625399
1204.0, 0.0033970603709970364
1205.0, 0.005989225363615148
1206.0, 0.005153640469260994
1207.0, 0.005635094078924293
1208.0, 0.005107396173292311
1209.0, 0.0022767791142819065
1210.0, 0.004306198845694843
1211.0, 0.004422155686705696
1212.0, 0.004345700658623488
1213.0, 0.004954856005292757
1214.0, 0.005325078478751809
1215.0, 0.003645505264213771
1216.0, 0.004211188946364816
1217.0, 0.004748914793601298
1218.0, 0.005671668017859256
1219.0, 0.0052912494244949995
1220.0, 0.003890046679416662
1221.0, 0.007308572097457232
1222.0, 0.0020629255005945135
1223.0, 0.0025617935758077705
1224.0, 0.004633644130418703
1225.0, 0.00641613927812469
1226.0, 0.008129230960523537
1227.0, 0.008377465929566737
1228.0, 0.0055794026207023435
1229.0, 0.006486674678978518
1230.0, 0.006929208086278375
1231.0, 0.004705358968122839
1232.0, 0.004568444144909151
1233.0, 0.0042062406608551475
1234.0, 0.00672087108749384
1235.0, 0.008043624455680127
1236.0, 0.007406772418057716
1237.0, 0.006428130998903136
1238.0, 0.008873445692418679
1239.0, 0.005476182288669554
1240.0, 0.0044646511617979084
1241.0, 0.007062107806572131
1242.0, 0.009213008907992336
1243.0, 0.0037050181857957156
1244.0, 0.004702101663267544
1245.0, 0.003250678765145889
1246.0, 0.005754193146079095
1247.0, 0.007321435043709822
1248.0, 0.0043594754829014235
1249.0, 0.004727049869171363
1250.0, 0.00800776627739007
1251.0, 0.0061277650202622505
1252.0, 0.005766368038806456
1253.0, 0.00699013205934724
1254.0, 0.006432629340683431
1255.0, 0.008774919936967983
1256.0, 0.006487099191712347
1257.0, 0.005173976257824585
1258.0, 0.005599045696753957
1259.0, 0.0071661938345504
1260.0, 0.008355399599582276
1261.0, 0.004045451737717709
1262.0, 0.004814709478948426
1263.0, 0.005887007731864845
1264.0, 0.007369987573309492
1265.0, 0.009518990366764322
1266.0, 0.009170376265215375
1267.0, 0.00724676343306305
1268.0, 0.0075948627743501855
1269.0, 0.007517232981907309
1270.0, 0.006121199653850034
1271.0, 0.004187975394145979
1272.0, 0.003962439777202876
1273.0, 0.003923950008943643
1274.0, 0.00447214018358642
1275.0, 0.0041692013924825525
1276.0, 0.003316137924613219
1277.0, 0.003676964725834087
1278.0, 0.0014752579418081824
1279.0, 0.003559983388762564
1280.0, 0.004735003892076271
1281.0, 0.005588788048727679
1282.0, 0.006672417685812702
1283.0, 0.006240700713335657
1284.0, 0.006073157163110809
1285.0, 0.007513972583974281
1286.0, 0.0066024331213931035
1287.0, 0.004390999309042104
1288.0, 0.0032860374603506303
1289.0, 0.0034516924685923283
1290.0, 0.001096342168281935
1291.0, 0.004391653428651992
1292.0, 0.005219382439504308
1293.0, 0.0036168729524083338
1294.0, 0.003996207183822872
1295.0, 0.00446518039870925
1296.0, 0.004556564447462455
1297.0, 0.004046184686932864
1298.0, 0.003838572921295382
1299.0, 0.0039876408769376785
1300.0, 0.003791703706973354
1301.0, 0.0036136269435256855
1302.0, 0.003927833578636664
1303.0, 0.003778013622740204
1304.0, 0.003933796549771335
1305.0, 0.003793325901150445
1306.0, 0.001313583978402403
1307.0, 0.002076822313254981
1308.0, 0.007177770650560071
1309.0, 0.0057232471499470685
1310.0, 0.00320937719649416
1311.0, 0.003395988078065305
1312.0, 0.00016129832534252184
1313.0, 0.0025212299732337105
1314.0, 0.0029129570027125237
1315.0, 0.0015244357344603293
1316.0, 0.0004642604551079035
1317.0, 0.001146542454077767
1318.0, 0.002053461722667738
1319.0, 0.0014488548238746955
1320.0, 0.0008056831608377292
1321.0, 0.0008284241810542921
1322.0, 0.0012296582135078505
1323.0, 0.0014465281715520056
1324.0, 0.0014853819979630891
1325.0, 0.0027759102352014095
1326.0, 0.003010167043314546
1327.0, 0.0019972002028709433
1328.0, 0.0009931584055494062
1329.0, 0.0015995596534191792
1330.0, 0.004155250069280919
1331.0, 0.0009250400018756585
1332.0, 0.0025993822105679037
1333.0, 0.0025318100826441643
1334.0, 0.0006087170001457041
1335.0, 0.0006164885986651783
1336.0, 0.0021545277235746714
1337.0, 0.0008148359509596415
1338.0, 0.0024310831252288634
1339.0, 0.002123389065027832
1340.0, 0.0017022434805371745
1341.0, 0.005082902540518334
1342.0, 0.0025478718349479096
1343.0, 0.0014001071600790492
1344.0, 0.0013521567650540975
1345.0, 0.001574526122324498
1346.0, 0.0024412573651423075
1347.0, 0.004591982457153464
1348.0, 0.005641289974744979
1349.0, 0.005281020164264919
1350.0, 0.0036532219615164323
1351.0, 0.005130556421095237
1352.0, 0.0076662115218498715
1353.0, 0.005968119464643352
1354.0, 0.0038420405236969275
1355.0, 0.006329548060292451
1356.0, 0.004070451593463571
1357.0, 0.004767297299655914
1358.0, 0.007306283029409153
1359.0, 0.005045442871162022
1360.0, 0.002794680027057512
1361.0, 0.005349737925859074
1362.0, 0.006319496834415138
1363.0, 0.006600900872413407
1364.0, 0.007207970649082306
1365.0, 0.008251480917909226
1366.0, 0.008077916434021505
1367.0, 0.006285079441836228
1368.0, 0.008409934527069944
1369.0, 0.007579665828390256
1370.0, 0.004583018735841159
1371.0, 0.0048593787063159035
1372.0, 0.009059046133382249
1373.0, 0.005773978659275459
1374.0, 0.004447532318472159
1375.0, 0.006048855813127719
1376.0, 0.0072738248693513885
1377.0, 0.005600011680823075
1378.0, 0.0072606370752893125
1379.0, 0.0024895489615259104
1380.0, 0.00751142886201721
1381.0, 0.0074328226911688465
1382.0, 0.004377227861245923
1383.0, 0.006002125877796738
1384.0, 0.009380414086287963
1385.0, 0.0060020756110161725
1386.0, 0.006262111999981345
1387.0, 0.00493114357145766
1388.0, 0.005034087507484926
1389.0, 0.008140199380937676
1390.0, 0.0064468305713165945
1391.0, 0.008309860828375
1392.0, 0.006177558690816359
1393.0, 0.004171211475071284
1394.0, 0.005958786233923902
1395.0, 0.009070658292282442
1396.0, 0.004153054510239012
1397.0, 0.007711324907555167
1398.0, 0.004650438304424017
1399.0, 0.005751956181994254
1400.0, 0.006719702151446453
1401.0, 0.005323635069508199
1402.0, 0.005781417317741309
1403.0, 0.007204422845038081
1404.0, 0.00653400769281279
1405.0, 0.003886945708552517
1406.0, 0.005646472255543798
1407.0, 0.00850651237606641
1408.0, 0.004424660764197301
1409.0, 0.00797920454624122
1410.0, 0.007122153209855169
1411.0, 0.0030885032222374435
1412.0, 0.0058723969593012315
1413.0, 0.009022284734967483
1414.0, 0.003498908838596295
1415.0, 0.006199782921935779
1416.0, 0.007462443208755534
1417.0, 0.007626072770130082
1418.0, 0.0045726216090226065
1419.0, 0.0035459491901798637
1420.0, 0.00612274495228771
1421.0, 0.0016286578561805196
1422.0, 0.006636339239049905
1423.0, 0.005808877061924528
1424.0, 0.006642146298210772
1425.0, 0.00810584439497401
1426.0, 0.007372324076715759
1427.0, 0.004017551885009719
1428.0, 0.007169139477134122
1429.0, 0.0050147823640710075
1430.0, 0.006371026848614961
1431.0, 0.00623416214713688
1432.0, 0.005215719063652199
1433.0, 0.007836782015612295
1434.0, 0.006988672168667333
1435.0, 0.003599553957839052
1436.0, 0.0060265643070625385
1437.0, 0.009502324352861122
1438.0, 0.009290001870294294
1439.0, 0.005445003898872917
1440.0, 0.0064055156850042665
1441.0, 0.007134533491929643
1442.0, 0.005631497554674774
1443.0, 0.007115362833839923
1444.0, 0.009417290420449533
1445.0, 0.009011238300751113
1446.0, 0.0051843644537513936
1447.0, 0.005819013486061202
1448.0, 0.006656053421642673
1449.0, 0.006452427552114459
1450.0, 0.006759943191529051
1451.0, 0.008177700420329068
1452.0, 0.009594176703192604
1453.0, 0.008220997289195207
1454.0, 0.008760773759798742
1455.0, 0.007781492686689857
1456.0, 0.006544760646449869
1457.0, 0.006479357541900286
1458.0, 0.007844740828889415
1459.0, 0.008817106099288367
1460.0, 0.004954299837112657
1461.0, 0.010257942494728209
1462.0, 0.007489866145652486
1463.0, 0.004548837436876192
1464.0, 0.006363297442694903
1465.0, 0.008335006714089477
1466.0, 0.004385341309753757
1467.0, 0.01001396525994579
1468.0, 0.006846865117357696
1469.0, 0.003919911017200043
1470.0, 0.0042691510354694795
1471.0, 0.006457760615865634
1472.0, 0.00917695007689584
1473.0, 0.003356058182880377
1474.0, 0.0038853665763083803
1475.0, 0.0048310058159585145
1476.0, 0.0036915104384304715
1477.0, 0.0022877623043366267
1478.0, 0.004590375161580655
1479.0, 0.008277910658420307
1480.0, 0.004284839965096727
1481.0, 0.006877282070749551
1482.0, 0.0073826115130470995
1483.0, 0.005107918527530325
1484.0, 0.0043731281898461444
1485.0, 0.007419436277144083
1486.0, 0.0037087072511291772
1487.0, 0.0012736779140301497
1488.0, 0.006575389497868281
1489.0, 0.008190617576845735
1490.0, 0.004076402998306507
1491.0, 0.002931855336725693
1492.0, 0.0017679483284040618
1493.0, 0.004034353517549589
1494.0, 0.0039022711258875735
1495.0, 0.001740372075559555
1496, 0.0
1497, 0.0
1498, 0.0
1499, 0.0
1500, 0.0
1501, 0.0
1502, 0.0
1503, 0.0
1504, 0.0
1505, 0.0
1506, 0.0
1507, 0.0
1508, 0.0
1509, 0.0
1510, 0.0
1511, 0.0
1512, 0.0
1513, 0.0
1514, 0.0
1515, 0.0
1516, 0.0
1517, 0.0
1518, 0.0
1519, 0.0
1520, 0.0
1521, 0.0
1522, 0.0
1523, 0.0
1524, 0.0
1525, 0.0
1526, 0.0
1527, 0.0
1528, 0.0
1529, 0.0
1530, 0.0
1531, 0.0
1532, 0.0
1533, 0.0
1534, 0.0
1535, 0.0
1536, 0.0
1537, 0.0
1538, 0.0
1539, 0.0
1540, 0.0
1541, 0.0
1542, 0.0
1543, 0.0
1544, 0.0
1545, 0.0
1546, 0.0
1547, 0.0
1548, 0.0
1549, 0.0
1550, 0.0
1551, 0.0
1552, 0.0
1553, 0.0
1554, 0.0
1555, 0.0
1556, 0.0
1557, 0.0
1558, 0.0
1559, 0.0
1560, 0.0
1561, 0.0
1562, 0.0
1563, 0.0
1564, 0.0
1565, 0.0
1566, 0.0
1567, 0.0
1568, 0.0
1569, 0.0
1570, 0.0
1571, 0.0
1572, 0.0
1573, 0.0
1574, 0.0
1575, 0.0
1576, 0.0
1577, 0.0
1578, 0.0
1579, 0.0
1580, 0.0
1581, 0.0
1582, 0.0
1583, 0.0
1584, 0.0
1585, 0.0
1586, 0.0
1587, 0.0
1588, 0.0
1589, 0.0
1590, 0.0
1591, 0.0
1592, 0.0
1593, 0.0
1594, 0.0
1595, 0.0
1596, 0.0
1597, 0.0
1598, 0.0
1599, 0.0
