30, 0.0
31, 0.0
32, 0.0
33, 0.0
34, 0.0
35, 0.0
36, 0.0
37, 0.0
38, 0.0
39, 0.0
40, 0.0
41, 0.0
42, 0.0
43, 0.0
44, 0.0
45, 0.0
46, 0.0
47, 0.0
48, 0.0
49, 0.0
50, 0.0
51, 0.0
52, 0.0
53, 0.0
54, 0.0
55, 0.0
56, 0.0
57, 0.0
58, 0.0
59, 0.0
60, 0.0
61, 0.0
62, 0.0
63, 0.0
64, 0.0
65, 0.0
66, 0.0
67, 0.0
68, 0.0
69, 0.0
70, 0.0
71, 0.0
72, 0.0
73, 0.0
74, 0.0
75, 0.0
76, 0.0
77, 0.0
78, 0.0
79, 0.0
80, 0.0
81, 0.0
82, 0.0
83, 0.0
84, 0.0
85, 0.0
86, 0.0
87, 0.0
88, 0.0
89, 0.0
90, 0.0
91, 0.0
92, 0.0
93, 0.0
94, 0.0
95, 0.0
96, 0.0
97, 0.0
98, 0.0
99, 0.0
100, 0.0
101, 0.0
102, 0.0
103, 0.0
104, 0.0
105, 0.0
106, 0.0
107, 0.0
108, 0.0
109, 0.0
110, 0.0
111, 0.0
112, 0.0
113, 0.0
114, 0.0
115, 0.0
116, 0.0
117, 0.0
118, 0.0
119, 0.0
120, 0.0
121, 0.0
122, 0.0
123, 0.0
124, 0.0
125, 0.0
126, 0.0
127, 0.0
128, 0.0
129, 0.0
130, 0.0
131, 0.0
132, 0.0
133, 0.0
134, 0.0
135, 0.0
136, 0.0
137, 0.0
138.0, 0.0035448633068480935
139.0, 0.007380682597661843
140.0, 0.004566961328296111
141.0, 0.008005529284783377
142.0, 0.03751688910097029
143.0, 0.07370048675423112
144.0, 0.10815822423298288
145.0, 0.15079053644725784
146.0, 0.2125858303609799
147.0, 0.260190542109901
148.0, 0.28703620379551154
149.0, 0.31303017135270267
150.0, 0.3299576790191795
151.0, 0.32998874201161604
152.0, 0.3247450234523422
153.0, 0.3312698346967294
154.0, 0.34330683327351513
155.0, 0.33523234776990773
156.0, 0.3191868132423068
157.0, 0.31292889947474545
158.0, 0.31684168443839944
159.0, 0.3131556379031709
160.0, 0.30536610096875094
161.0, 0.30474410647077843
162.0, 0.3148796052761691
163.0, 0.31746511667688043
164.0, 0.3296608601508018
165.0, 0.3438255887786606
166.0, 0.35619999943643654
167.0, 0.37330822211035286
168.0, 0.3778248154507676
169.0, 0.38723147287986504
170.0, 0.3918195902463681
171.0, 0.3748992477871477
172.0, 0.36377284133168125
173.0, 0.36062023736677223
174.0, 0.3547647128946674
175.0, 0.3447509699525952
176.0, 0.33747166021992314
177.0, 0.3431599508539198
178.0, 0.3324226980539832
179.0, 0.31346872840699175
180.0, 0.30663313074526344
181.0, 0.29366358170089335
182.0, 0.27922944410795286
183.0, 0.26108175420325164
184.0, 0.24455949974647456
185.0, 0.24616395479743847
186.0, 0.25053994659454043
187.0, 0.26432810607727264
188.0, 0.2947052297435326
189.0, 0.34144549041276945
190.0, 0.3802140323331347
191.0, 0.4216150028461892
192.0, 0.47510528753080383
193.0, 0.5288310006245271
194.0, 0.5463409945404287
195.0, 0.5709148488511557
196.0, 0.5674277170347155
197.0, 0.5344784685025876
198.0, 0.49123591895332513
199.0, 0.432035411221122
200.0, 0.3605391283783701
201.0, 0.28493855246641564
202.0, 0.2213574161270422
203.0, 0.18083105896346144
204.0, 0.1345167430944816
205.0, 0.08851126014699025
206.0, 0.05279332156828846
207.0, 0.02962281455507407
208.0, 0.011845164135836283
209.0, 0.0035329301811031096
210.0, 0.00490309194379608
211.0, 0.0035566228391315613
212.0, 0.0033263514346991347
213.0, 0.0031567894951635197
214.0, 0.003809589730651084
215.0, 0.0038338493227382375
216.0, 0.004322459593736934
217.0, 0.008416907250785699
218.0, 0.004243198421513604
219.0, 0.00809226832835966
220.0, 0.006585684142425975
221.0, 0.023277621450200046
222.0, 0.031489704011077826
223.0, 0.030992932057711815
224.0, 0.03222215554153553
225.0, 0.04206620638220683
226.0, 0.05547679370871194
227.0, 0.05477110469101153
228.0, 0.05778634051904306
229.0, 0.06242481302728791
230.0, 0.06565077356473793
231.0, 0.07799139917303781
232.0, 0.09405060309627476
233.0, 0.10120000100713575
234.0, 0.10956875954610343
235.0, 0.12978723634578387
236.0, 0.1390430740965041
237.0, 0.14335994219584758
238.0, 0.15399658810865752
239.0, 0.17021685108369794
240.0, 0.18318959122913495
241.0, 0.1921330618072699
242.0, 0.20376732947123047
243.0, 0.22105340049445127
244.0, 0.24035558598914208
245.0, 0.25249651007924684
246.0, 0.2820084837516524
247.0, 0.3097832584446297
248.0, 0.33063850678619405
249.0, 0.34826037558781225
250.0, 0.3642449423525177
251.0, 0.3822422134990107
252.0, 0.3873595299970974
253.0, 0.380059444403948
254.0, 0.3692474582366995
255.0, 0.34629721465851765
256.0, 0.30578100144982895
257.0, 0.26324000775130524
258.0, 0.22449584070626713
259.0, 0.17890126935688488
260.0, 0.14130393014005974
261.0, 0.1078562895812541
262.0, 0.08222183064803944
263.0, 0.061794607470437406
264.0, 0.03284593389078339
265.0, 0.025274065576466075
266.0, 0.014763081566406702
267.0, 0.003933012015781763
268.0, 0.005339769915326949
269.0, 0.006974331655801299
270.0, 0.009057328024657673
271.0, 0.007017691290018317
272.0, 0.00477655298598284
273.0, 0.012699731431812748
274.0, 0.020394874590897324
275.0, 0.038278430620705725
276.0, 0.051569446263073124
277.0, 0.06081419104659731
278.0, 0.07632511697266976
279.0, 0.09563788971497086
280.0, 0.10344338764967557
281.0, 0.1095545845184462
282.0, 0.11623678964763905
283.0, 0.11504200395537807
284.0, 0.11866497686501366
285.0, 0.12389993137180377
286.0, 0.12243003364428708
287.0, 0.1138101500413156
288.0, 0.1107022633271497
289.0, 0.10334294327912849
290.0, 0.09929506329915476
291.0, 0.09602298733236907
292.0, 0.08981222531031355
293.0, 0.08456157838809389
294.0, 0.07040576071994466
295.0, 0.05022409906672919
296.0, 0.03682249754472459
297.0, 0.03649542914150206
298.0, 0.040685125104212835
299.0, 0.034720137616035894
300.0, 0.03268314368297229
301.0, 0.03322983009913995
302.0, 0.03214109751643864
303.0, 0.038427077159784113
304.0, 0.045340912654660025
305.0, 0.05356595188195776
306.0, 0.06333879745480157
307.0, 0.0708323519893373
308.0, 0.0710443934827499
309.0, 0.08171507449207341
310.0, 0.09147061995352197
311.0, 0.0973315203454592
312.0, 0.10448995097953831
313.0, 0.11503905264242499
314.0, 0.1153597150576654
315.0, 0.11895530931390218
316.0, 0.12122677608605849
317.0, 0.11990998160332891
318.0, 0.1371908085138239
319.0, 0.15045324082188913
320.0, 0.16123850699090858
321.0, 0.1643260446010677
322.0, 0.15874375162425652
323.0, 0.17373893099608467
324.0, 0.1937480840939512
325.0, 0.19970632790613824
326.0, 0.19878876168665321
327.0, 0.20586408017756158
328.0, 0.20747898980762272
329.0, 0.19946285288256485
330.0, 0.1955339055043469
331.0, 0.18466600233124367
332.0, 0.155999355375287
333.0, 0.13653304511202177
334.0, 0.11231220567810495
335.0, 0.09437788253706182
336.0, 0.0767015368245665
337.0, 0.051089074633670906
338.0, 0.031408900859087194
339.0, 0.022475227427927624
340.0, 0.011586283101839265
341.0, 0.005521079782703891
342.0, 0.004369504912970273
343.0, 0.00274275498731277
344.0, 0.002031763078967237
345.0, 0.0012627105101042386
346.0, 0.001999013633527921
347.0, 0.001723308131818846
348.0, 0.0031423011561165096
349.0, 0.003765772911138156
350.0, 0.0035923395130677844
351.0, 0.005467173440041481
352.0, 0.016488863896569346
353.0, 0.03327972017590922
354.0, 0.04251436595646915
355.0, 0.0580968860301364
356.0, 0.07702912223648092
357.0, 0.09122325954062059
358.0, 0.09943513039437317
359.0, 0.11671679608000271
360.0, 0.13544446121119824
361.0, 0.15609384594776157
362.0, 0.17215778449212296
363.0, 0.17650382494173134
364.0, 0.19031924261309088
365.0, 0.19620463564641552
366.0, 0.19089490981856397
367.0, 0.18850404393200634
368.0, 0.19977473654330935
369.0, 0.21119239329368655
370.0, 0.22309583940144503
371.0, 0.2367237186251527
372.0, 0.25198085810871756
373.0, 0.2670333302961453
374.0, 0.27853659470970626
375.0, 0.27602387502886216
376.0, 0.2746878835572896
377.0, 0.28042738311136456
378.0, 0.2929227440201721
379.0, 0.3095367002424619
380.0, 0.3144648921872529
381.0, 0.32749923634043593
382.0, 0.35437019490283567
383.0, 0.3913132106251718
384.0, 0.42977427433062426
385.0, 0.46353507962801127
386.0, 0.5166940013436958
387.0, 0.58725266088377
388.0, 0.662255848037424
389.0, 0.7315969458397237
390.0, 0.7932251964203278
391.0, 0.854070696431444
392.0, 0.9023350562660457
393.0, 0.9392778527399455
394.0, 0.973208237278718
395.0, 0.9998786165222341
396.0, 0.9855017881598985
397.0, 0.9656901463990882
398.0, 0.9310159154376978
399.0, 0.8726980948808185
400.0, 0.8263987158385592
401.0, 0.7989074998214477
402.0, 0.7545849849714342
403.0, 0.7250354100176717
404.0, 0.7134420234573555
405.0, 0.6892781097034063
406.0, 0.6714045644311918
407.0, 0.6479179652368567
408.0, 0.6291369573925374
409.0, 0.6048354630563758
410.0, 0.5625529041159477
411.0, 0.5325163023078218
412.0, 0.49232216214061797
413.0, 0.44742000285360806
414.0, 0.4026916501957678
415.0, 0.35992678022937685
416.0, 0.3178523470201001
417.0, 0.26845239685214917
418.0, 0.23356232083789072
419.0, 0.205003297280755
420.0, 0.17995530866771572
421.0, 0.16027230703637502
422.0, 0.13264873775756936
423.0, 0.10486883548695579
424.0, 0.08243956517112315
425.0, 0.06463599765435811
426.0, 0.04724300652471546
427.0, 0.030626654572416857
428.0, 0.025669833932361098
429.0, 0.025008899579757587
430.0, 0.01786026613508851
431.0, 0.011802509441384178
432.0, 0.012091865149901035
433.0, 0.01036123207820348
434.0, 0.009259381595872711
435.0, 0.008264370314933586
436.0, 0.008660122868097574
437.0, 0.007801953705615148
438.0, 0.007970144774301252
439.0, 0.007110712431661383
440.0, 0.0053392018386572565
441.0, 0.005524050158887567
442.0, 0.004633148433155939
443.0, 0.005790234304982101
444.0, 0.004253824001294405
445.0, 0.004224398995218677
446.0, 0.004696123404699049
447.0, 0.004011705630525269
448.0, 0.0042126684683626075
449.0, 0.0038620241252000954
450.0, 0.010382818308513854
451.0, 0.02481615869499519
452.0, 0.0367397713684137
453.0, 0.056715256383563596
454.0, 0.0909589065002599
455.0, 0.10898628195210869
456.0, 0.13214314369240296
457.0, 0.1724581899943554
458.0, 0.22319972527118123
459.0, 0.2677861779750595
460.0, 0.2998099850657754
461.0, 0.33732831633391336
462.0, 0.3785909092916417
463.0, 0.4131323464265967
464.0, 0.43437488140815017
465.0, 0.4487313929508953
466.0, 0.4655771221702068
467.0, 0.46139601045894474
468.0, 0.4471826255744971
469.0, 0.42455952246579254
470.0, 0.39748793003660143
471.0, 0.365136501127282
472.0, 0.3154818062371147
473.0, 0.27218627610113133
474.0, 0.23090405922969648
475.0, 0.19887506201052815
476.0, 0.1720886051445003
477.0, 0.1408089325371906
478.0, 0.11523778592150935
479.0, 0.09751243130239874
480.0, 0.07552880137515489
481.0, 0.0594103636498279
482.0, 0.05454837700877942
483.0, 0.047442338600467114
484.0, 0.048129562560726834
485.0, 0.046862500845197115
486.0, 0.04944877824807607
487.0, 0.05117350989215576
488.0, 0.05136887691215806
489.0, 0.06126907358185897
490.0, 0.06348770455262773
491.0, 0.07264076463846722
492.0, 0.0783549423925739
493.0, 0.0823814750725662
494.0, 0.0929616476739513
495.0, 0.09640228231596618
496.0, 0.09791452144140106
497.0, 0.1039227942978028
498.0, 0.11762616544583127
499.0, 0.13042938171100807
500.0, 0.13778019297238694
501.0, 0.15318710607997002
502.0, 0.14839697447852138
503.0, 0.15686990805514164
504.0, 0.1599852860363131
505.0, 0.15044911153525428
506.0, 0.1498280359446542
507.0, 0.14338786172752216
508.0, 0.12994834902757352
509.0, 0.11707019772910157
510.0, 0.10442292987796765
511.0, 0.08611499136603615
512.0, 0.06278597540415311
513.0, 0.046355122798284874
514.0, 0.035825692479513914
515.0, 0.02650439075033437
516.0, 0.015723063988701397
517.0, 0.006639340895161822
518.0, 0.004418667451369459
519.0, 0.007939823034985357
520.0, 0.013126719661562937
521.0, 0.009335016103075397
522.0, 0.008366252493629666
523.0, 0.011633607942051018
524.0, 0.004576297823194785
525.0, 0.004704684875980426
526.0, 0.00756577776286446
527.0, 0.011320634004978203
528.0, 0.01625764000412716
529.0, 0.02507542019422312
530.0, 0.027365916783510573
531.0, 0.03562662631467022
532.0, 0.04694324559156026
533.0, 0.0631889319550452
534.0, 0.0749743856402514
535.0, 0.08353094397906922
536.0, 0.10694084559905763
537.0, 0.13565106533432453
538.0, 0.1443257201830245
539.0, 0.15160152656145295
540.0, 0.15753045076569344
541.0, 0.15993407496086187
542.0, 0.16837795663121666
543.0, 0.16629354042555308
544.0, 0.16903277291247468
545.0, 0.16582966338994645
546.0, 0.15431525602324003
547.0, 0.14348310696779717
548.0, 0.1416829163304443
549.0, 0.14312635434716975
550.0, 0.1303135014026445
551.0, 0.12786349972919775
552.0, 0.12450547939754908
553.0, 0.11745255984675292
554.0, 0.11944966925090612
555.0, 0.1211670669169524
556.0, 0.11642898190988521
557.0, 0.11037423107951556
558.0, 0.11168031226867602
559.0, 0.1161910087759232
560.0, 0.11665515917492439
561.0, 0.12204035224733419
562.0, 0.1274367824048976
563.0, 0.14243481715922743
564.0, 0.15525827953890012
565.0, 0.16608618932649608
566.0, 0.1803123490864351
567.0, 0.19487142130148186
568.0, 0.2048317346262589
569.0, 0.21961511089575095
570.0, 0.2393578835572615
571.0, 0.24780078020597354
572.0, 0.24745919903825903
573.0, 0.25615252259687504
574.0, 0.25539427541057297
575.0, 0.24995381675326717
576.0, 0.23549399883022928
577.0, 0.21546550831780129
578.0, 0.197639926222895
579.0, 0.1841699386082515
580.0, 0.16406605319877032
581.0, 0.14362468441867285
582.0, 0.13381916737354607
583.0, 0.11682423490599504
584.0, 0.10356016284191313
585.0, 0.09916411178599745
586.0, 0.08523473400277186
587.0, 0.07390576971075168
588.0, 0.06809659101692217
589.0, 0.06800774411471393
590.0, 0.06420197080486446
591.0, 0.05547456689227793
592.0, 0.050683182523253004
593.0, 0.049748669019414306
594.0, 0.05445053054094719
595.0, 0.053610441060442576
596.0, 0.05009815649687693
597.0, 0.04740967013232576
598.0, 0.0471010360297637
599.0, 0.05089394351301761
600.0, 0.04916638072000572
601.0, 0.05032330450439376
602.0, 0.047188699061126306
603.0, 0.039235851477220245
604.0, 0.031878599706502773
605.0, 0.025720080016913147
606.0, 0.01977406789115833
607.0, 0.0226809469191973
608.0, 0.01847132830410947
609.0, 0.0100793229049739
610.0, 0.0036937936565937983
611.0, 0.006915004767082701
612.0, 0.004934854897780927
613.0, 0.007142868033593688
614.0, 0.008590091993904656
615.0, 0.006567141101478973
616.0, 0.005220409011987368
617.0, 0.006011541750208188
618.0, 0.007348135668993549
619.0, 0.013384575746374368
620.0, 0.012197723117213517
621.0, 0.003805342852761232
622.0, 0.003181027748946863
623.0, 0.008540265229441135
624.0, 0.007037354640826413
625.0, 0.011124973576255725
626.0, 0.0067402350442225
627.0, 0.016296450931640883
628.0, 0.012620455427518312
629.0, 0.015727279259790672
630.0, 0.022546429131199964
631.0, 0.021792869990250208
632.0, 0.029173850116373766
633.0, 0.03536346240986215
634.0, 0.03435633991611388
635.0, 0.044458402146923245
636.0, 0.050995638776039694
637.0, 0.052186362363966565
638.0, 0.061321662821373454
639.0, 0.07712779365096732
640.0, 0.08363746703364784
641.0, 0.09590326808830953
642.0, 0.11461671653711293
643.0, 0.1313690643722241
644.0, 0.1505437595355141
645.0, 0.17983556729674022
646.0, 0.20507379913763354
647.0, 0.22421555178907773
648.0, 0.25465507698382706
649.0, 0.29242006940115955
650.0, 0.3353302278827768
651.0, 0.38359930479098475
652.0, 0.43638767048370747
653.0, 0.500733912269116
654.0, 0.5653139685239831
655.0, 0.6314292007256893
656.0, 0.6921046913798694
657.0, 0.7591989720973391
658.0, 0.8253888033232389
659.0, 0.8609625890599295
660.0, 0.8820026081742661
661.0, 0.8886091702436143
662.0, 0.8773936129288005
663.0, 0.837714570252908
664.0, 0.7829567270203919
665.0, 0.7176254788704015
666.0, 0.6314968851761847
667.0, 0.5568508727794993
668.0, 0.4888597204632295
669.0, 0.40992168527397044
670.0, 0.3545917058067709
671.0, 0.30755602079739264
672.0, 0.25678441863324475
673.0, 0.2234922023047795
674.0, 0.1971487494767981
675.0, 0.16987472913680027
676.0, 0.14919429434837694
677.0, 0.12761079749000157
678.0, 0.10970828962073861
679.0, 0.09689637301185008
680.0, 0.08213914347504858
681.0, 0.06844555288857512
682.0, 0.05586291545542204
683.0, 0.049204584055956235
684.0, 0.04918041470120402
685.0, 0.047412301254999054
686.0, 0.04375849804128397
687.0, 0.04425686092932694
688.0, 0.04019749284927413
689.0, 0.028484701588604385
690.0, 0.034526524307416775
691.0, 0.036757117745541225
692.0, 0.03053005618926878
693.0, 0.024237686123590018
694.0, 0.024615356961235204
695.0, 0.029956170633626572
696.0, 0.0299163178919343
697.0, 0.029410649375353502
698.0, 0.03448983992859954
699.0, 0.034894137591071205
700.0, 0.03349135954534346
701.0, 0.0344717101731083
702.0, 0.03176564360915707
703.0, 0.03483406941876289
704.0, 0.02556193476817471
705.0, 0.028549808159108153
706.0, 0.03137185439979801
707.0, 0.032201007890271485
708.0, 0.03413779649695118
709.0, 0.034846678580157484
710.0, 0.03637414715791198
711.0, 0.04453126139261412
712.0, 0.05052699969136339
713.0, 0.0532966627227519
714.0, 0.05104609919070888
715.0, 0.051006397711003924
716.0, 0.05748075515999587
717.0, 0.058459133622767424
718.0, 0.05923675474481182
719.0, 0.07323639409396066
720.0, 0.07940958976586944
721.0, 0.07957447556841037
722.0, 0.08446577352747693
723.0, 0.09451445242777035
724.0, 0.10102330495912801
725.0, 0.10132638753180095
726.0, 0.11143047617105503
727.0, 0.11956581815375797
728.0, 0.12110925528683375
729.0, 0.12273989158554592
730.0, 0.12714748203349746
731.0, 0.13145912339159604
732.0, 0.13610351653038852
733.0, 0.141869165316575
734.0, 0.1380512411439389
735.0, 0.13655079782006932
736.0, 0.13076737039044703
737.0, 0.11760254512149247
738.0, 0.11153258812224576
739.0, 0.11200484796516663
740.0, 0.09813142740747159
741.0, 0.09585648649398912
742.0, 0.08687343292460437
743.0, 0.07205087389451581
744.0, 0.06673589693529428
745.0, 0.0608514790890117
746.0, 0.04710129344291878
747.0, 0.03920787217067357
748.0, 0.033917428642463394
749.0, 0.03247110450542818
750.0, 0.02952953214588173
751.0, 0.03141706981553879
752.0, 0.024560540672903367
753.0, 0.017604089202980604
754.0, 0.018027630730155293
755.0, 0.014972624844443748
756.0, 0.009361510793260128
757.0, 0.008080429498194206
758.0, 0.007046621565401505
759.0, 0.006684142029480564
760.0, 0.009076133823100279
761.0, 0.008983461678287273
762.0, 0.005136113470465275
763.0, 0.0034773976743729266
764.0, 0.0029114958526029757
765.0, 0.003181911653336259
766.0, 0.010074590324105587
767.0, 0.011425067551243485
768.0, 0.011726653674746861
769.0, 0.010184361434795891
770.0, 0.0042572763383829934
771.0, 0.004238328170545698
772.0, 0.0031171223729709635
773.0, 0.006367303676875658
774.0, 0.0055188129023395335
775.0, 0.0035114694055825403
776.0, 0.007731584781042115
777.0, 0.006286844788577882
778.0, 0.0056052139582535
779.0, 0.00565837844227264
780.0, 0.005940210107380589
781.0, 0.003728221376940943
782.0, 0.007700191360790921
783.0, 0.00855996257823872
784.0, 0.0038514988929022748
785.0, 0.004833136766219858
786.0, 0.007707586297953081
787.0, 0.003682209405317391
788.0, 0.0034105252046973517
789.0, 0.006043198570841635
790.0, 0.006642759745467862
791.0, 0.004988396158322037
792.0, 0.00579079668765887
793.0, 0.006626455044262391
794.0, 0.005458942195028003
795.0, 0.004010767704848881
796.0, 0.004199071357489457
797.0, 0.010333111165457428
798.0, 0.015524423883913499
799.0, 0.012571806142501184
800.0, 0.01182273294159018
801.0, 0.016427736615112397
802.0, 0.023424348384021455
803.0, 0.03108129050337024
804.0, 0.03946367888479117
805.0, 0.05030506530452984
806.0, 0.07062222513785385
807.0, 0.0892786625271887
808.0, 0.10525165550715428
809.0, 0.12519547224801217
810.0, 0.14775565977362287
811.0, 0.160907703018702
812.0, 0.161697945576012
813.0, 0.16226225876704015
814.0, 0.13606066941154463
815.0, 0.0991610858005982
816.0, 0.06839097150457286
817.0, 0.04915301612347717
818.0, 0.036429224868513126
819.0, 0.028781539996302636
820.0, 0.023054359352769775
821.0, 0.015219382289216165
822.0, 0.009665603310645265
823.0, 0.010763496619063971
824.0, 0.010184128053424606
825.0, 0.012774030485008987
826.0, 0.013653116556448054
827.0, 0.006291772312692733
828.0, 0.00531185523244187
829.0, 0.005342701342009262
830.0, 0.007723362755517347
831.0, 0.003763889268012642
832.0, 0.0030466270938151224
833.0, 0.004803277226854358
834.0, 0.0086671027366698
835.0, 0.009179905776603454
836.0, 0.008196761663100616
837.0, 0.013685447978113031
838.0, 0.025390273877120742
839.0, 0.030511748658086518
840.0, 0.02744849518098747
841.0, 0.03202343431145833
842.0, 0.03255566880341375
843.0, 0.030716662905322354
844.0, 0.03362682678346911
845.0, 0.03987015898004584
846.0, 0.044274731966949324
847.0, 0.04486466078132025
848.0, 0.04800752311036986
849.0, 0.059390269501741574
850.0, 0.0581556100968264
851.0, 0.06208490449943102
852.0, 0.06976863737652808
853.0, 0.07108692004084857
854.0, 0.07821637103644953
855.0, 0.08270921432211463
856.0, 0.08325713848396314
857.0, 0.09041575525356477
858.0, 0.09548850891254515
859.0, 0.10284227310345571
860.0, 0.09795788876167895
861.0, 0.09836374446392883
862.0, 0.0991737107249779
863.0, 0.10016394560904092
864.0, 0.10151496355440508
865.0, 0.10139848711151034
866.0, 0.10169693142245013
867.0, 0.10446607109602259
868.0, 0.10499927307639247
869.0, 0.10573196782307973
870.0, 0.10586903110378479
871.0, 0.10367169700639489
872.0, 0.11459280475043697
873.0, 0.12926174450941672
874.0, 0.13661682852441143
875.0, 0.14046015283370714
876.0, 0.1478532003394226
877.0, 0.15407725470692948
878.0, 0.15147396009594877
879.0, 0.1607401576821237
880.0, 0.1674636835569072
881.0, 0.17807303220430096
882.0, 0.18336369791360801
883.0, 0.1841766604217519
884.0, 0.18794276504822852
885.0, 0.1933911165694432
886.0, 0.19843823609878755
887.0, 0.20588259164157593
888.0, 0.21218373632871887
889.0, 0.2182736558340017
890.0, 0.22609815362255914
891.0, 0.23066343377567744
892.0, 0.22739968675720523
893.0, 0.21530984959730176
894.0, 0.2004440158995389
895.0, 0.18343530982093606
896.0, 0.15894104065967962
897.0, 0.13970383355284152
898.0, 0.13326015867765167
899.0, 0.11960666322738994
900.0, 0.09678789877417728
901.0, 0.08651018820625589
902.0, 0.0772350800017399
903.0, 0.06851676643732475
904.0, 0.06231113074005717
905.0, 0.05551419314046938
906.0, 0.050703002932055014
907.0, 0.042573500899168934
908.0, 0.03435515340821894
909.0, 0.03681812179725267
910.0, 0.03215278328223282
911.0, 0.028183145790089625
912.0, 0.01926161755561006
913.0, 0.011248173484289345
914.0, 0.005681628565129141
915.0, 0.004951687234255067
916.0, 0.0023978239468820835
917.0, 0.0016895612681891853
918.0, 0.0017089909293312854
919.0, 0.0008934528529015071
920.0, 0.0011990141084217364
921.0, 0.0009123461108589729
922.0, 0.0019787013312113602
923.0, 0.002131134928235148
924.0, 0.0029387018016857895
925.0, 0.004439552874676381
926.0, 0.005039823518134755
927.0, 0.006554128744367141
928.0, 0.01263267881932572
929.0, 0.02242946575510053
930.0, 0.04252505150928258
931.0, 0.05115558236271306
932.0, 0.05745790275273658
933.0, 0.06683210560721196
934.0, 0.08754425590432618
935.0, 0.10850772418273126
936.0, 0.11296178104611537
937.0, 0.11333745288027956
938.0, 0.1233638388322023
939.0, 0.12555613150528838
940.0, 0.12120440183376316
941.0, 0.11964292964033703
942.0, 0.12076929581046611
943.0, 0.12728215442498325
944.0, 0.13280934650446594
945.0, 0.14029059959907877
946.0, 0.15283471834900075
947.0, 0.16495671475241527
948.0, 0.17746396932639877
949.0, 0.20245617398416074
950.0, 0.22796676889447245
951.0, 0.24727724153545513
952.0, 0.26877234702318636
953.0, 0.30170412006072944
954.0, 0.32386634468454717
955.0, 0.3340328672647639
956.0, 0.3443173143301063
957.0, 0.3516672370122663
958.0, 0.3546856951768591
959.0, 0.3546373790615201
960.0, 0.3381653556679074
961.0, 0.3289975049563925
962.0, 0.3304400846491133
963.0, 0.33428370997202883
964.0, 0.3306953748374852
965.0, 0.32745180882110936
966.0, 0.32957043906503564
967.0, 0.3182691990863608
968.0, 0.302940552495072
969.0, 0.29250168167080803
970.0, 0.273011271118442
971.0, 0.24423150402003985
972.0, 0.21993716507715716
973.0, 0.20215315005501555
974.0, 0.17173733546583914
975.0, 0.15479111246329563
976.0, 0.14336595841332403
977.0, 0.1261828082972947
978.0, 0.11556257689177306
979.0, 0.10186486512176397
980.0, 0.09157781562801316
981.0, 0.08805321556431898
982.0, 0.08692153482559185
983.0, 0.08912427986303487
984.0, 0.0766310153936198
985.0, 0.07488548584971084
986.0, 0.07798768551542577
987.0, 0.07536461547588348
988.0, 0.07058705188263481
989.0, 0.07911916553574659
990.0, 0.0742004976335277
991.0, 0.06823727644661419
992.0, 0.07639970508152069
993.0, 0.08452742801528644
994.0, 0.08696685236575304
995.0, 0.09844561363481688
996.0, 0.1145419454375454
997.0, 0.11609751336906508
998.0, 0.12679568110678488
999.0, 0.13705853938829596
1000.0, 0.13529135386420074
1001.0, 0.13128243317283753
1002.0, 0.13393589569778477
1003.0, 0.13106255830677452
1004.0, 0.1250140418454531
1005.0, 0.11317857233829874
1006.0, 0.10054490118431532
1007.0, 0.09350737101695814
1008.0, 0.07711988355999831
1009.0, 0.07613470773563695
1010.0, 0.08186772639166304
1011.0, 0.07432686238281049
1012.0, 0.06226401182453423
1013.0, 0.06245355588206746
1014.0, 0.06649013641148536
1015.0, 0.06483812808177361
1016.0, 0.07397944839471231
1017.0, 0.08475672535327285
1018.0, 0.0948785950144709
1019.0, 0.10844983501682437
1020.0, 0.11568736521412802
1021.0, 0.13130633014695678
1022.0, 0.153796964055174
1023.0, 0.1627468496668484
1024.0, 0.18082553454852038
1025.0, 0.18251893932993513
1026.0, 0.20013695269396642
1027.0, 0.20107431462815342
1028.0, 0.19552829708636302
1029.0, 0.18450921640846818
1030.0, 0.17824139194408406
1031.0, 0.16239047891997527
1032.0, 0.1443969240063674
1033.0, 0.12515219964407537
1034.0, 0.11378378010967678
1035.0, 0.10171040657791577
1036.0, 0.09314070942275432
1037.0, 0.08223464946391358
1038.0, 0.06818625924954305
1039.0, 0.06521756976643446
1040.0, 0.05052434755401093
1041.0, 0.03884696922511406
1042.0, 0.03449103713666457
1043.0, 0.024879876245731743
1044.0, 0.014315130576605687
1045.0, 0.013644793453463562
1046.0, 0.016912421471974252
1047.0, 0.012020856493212308
1048.0, 0.005882663915335061
1049.0, 0.011241738919436953
1050.0, 0.005163500978129161
1051.0, 0.007660750467112004
1052.0, 0.004347989115034786
1053.0, 0.005019844530260808
1054.0, 0.002873861982495559
1055.0, 0.004815006930745875
1056.0, 0.005989953241194303
1057.0, 0.0067438050086503516
1058.0, 0.006786183660893089
1059.0, 0.0051886491578074885
1060.0, 0.003976108353772613
1061.0, 0.007485320640721767
1062.0, 0.00843811210202845
1063.0, 0.010046976630762587
1064.0, 0.0031126194709086264
1065.0, 0.005533878599810628
1066.0, 0.007614822291776413
1067.0, 0.0035412641054237072
1068.0, 0.004407669336436155
1069.0, 0.004993659280989473
1070.0, 0.006698394835877212
1071.0, 0.004165189139925874
1072.0, 0.006024489138640566
1073.0, 0.008197701185428737
1074.0, 0.011323200622304519
1075.0, 0.019663786808552318
1076.0, 0.02378884934106771
1077.0, 0.028502451359820807
1078.0, 0.030742779071132393
1079.0, 0.03422207922443061
1080.0, 0.044011160956920016
1081.0, 0.05334228793164224
1082.0, 0.04970811805812444
1083.0, 0.05033062134915662
1084.0, 0.054260457234787944
1085.0, 0.05245630767511151
1086.0, 0.048191792142192436
1087.0, 0.04338857721494492
1088.0, 0.04053332662073766
1089.0, 0.03816228577030242
1090.0, 0.03394850759713019
1091.0, 0.03156203049790393
1092.0, 0.025464721051256772
1093.0, 0.011467696500360431
1094.0, 0.01918818291086271
1095.0, 0.01320437099764949
1096.0, 0.017187686048355345
1097.0, 0.013880568748508564
1098.0, 0.00835988324970233
1099.0, 0.007329609680719609
1100.0, 0.007290436577431521
1101.0, 0.004857167802227466
1102.0, 0.005280403348501795
1103.0, 0.007188499323547804
1104.0, 0.004370044115873353
1105.0, 0.0035845680560767416
1106.0, 0.005743186124949172
1107.0, 0.007765408538083374
1108.0, 0.014254269863571268
1109.0, 0.008564390007796244
1110.0, 0.005266370896138616
1111.0, 0.004640720797280251
1112.0, 0.007750229605640024
1113.0, 0.004807779230777515
1114.0, 0.005279179747027416
1115.0, 0.011319609039243186
1116.0, 0.016871911187781953
1117.0, 0.013796043025145891
1118.0, 0.01249192486336522
1119.0, 0.009563766258939468
1120.0, 0.012150207043471042
1121.0, 0.010815239296647274
1122.0, 0.008965987842271069
1123.0, 0.009960257809176021
1124.0, 0.010411870904591563
1125.0, 0.009252106234916246
1126.0, 0.007152808107149323
1127.0, 0.006370159115236911
1128.0, 0.008688718596056527
1129.0, 0.010594836252245861
1130.0, 0.0068819469008841285
1131.0, 0.0029319166010666536
1132.0, 0.009210937294185092
1133.0, 0.0037307703298709765
1134.0, 0.004825314114081094
1135.0, 0.011351904168873222
1136.0, 0.0049789464993807275
1137.0, 0.003609951048681159
1138.0, 0.00314165321024652
1139.0, 0.0032638479949359065
1140.0, 0.006184200981566789
1141.0, 0.007248901217104665
1142.0, 0.006715306298101809
1143.0, 0.006102586534249627
1144.0, 0.008143821275027928
1145.0, 0.01419099119082049
1146.0, 0.01375150933413716
1147.0, 0.00805732337775199
1148.0, 0.010024283954188253
1149.0, 0.009427801884616071
1150.0, 0.011130642448969469
1151.0, 0.012045596418138502
1152.0, 0.013411774972043202
1153.0, 0.012847764720346114
1154.0, 0.017031420230937934
1155.0, 0.01528363270381181
1156.0, 0.021005364006826528
1157.0, 0.014125372116314577
1158.0, 0.017888179427455336
1159.0, 0.014203070951060943
1160.0, 0.0135352209982794
1161.0, 0.012069784200926545
1162.0, 0.013689751692117192
1163.0, 0.020286930197560244
1164.0, 0.01654844499879192
1165.0, 0.016359596079412998
1166.0, 0.015175999219959511
1167.0, 0.008571102561065613
1168.0, 0.015442257566744302
1169.0, 0.009673394733446227
1170.0, 0.013593548378067524
1171.0, 0.010388864513071252
1172.0, 0.00911382264040744
1173.0, 0.008620324338433662
1174.0, 0.012216147742325937
1175.0, 0.0127689871144541
1176.0, 0.015371228413483403
1177.0, 0.015218946799462136
1178.0, 0.01381012123010385
1179.0, 0.015419448162474423
1180.0, 0.020032996192553932
1181.0, 0.022555786051728054
1182.0, 0.01550479212906684
1183.0, 0.013008910699997706
1184.0, 0.013046940561180406
1185.0, 0.01600750215689622
1186.0, 0.01946203889938681
1187.0, 0.014805442002283491
1188.0, 0.011325608740216998
1189.0, 0.011184928022809815
1190.0, 0.012057802519975397
1191.0, 0.00965075194539652
1192.0, 0.014560099889610226
1193.0, 0.016046850985019356
1194.0, 0.015288151737197773
1195.0, 0.009843282873736578
1196.0, 0.010813569536803874
1197.0, 0.009863308269236851
1198.0, 0.007506997201558133
1199.0, 0.009694463469468352
1200.0, 0.008546994620129804
1201.0, 0.0042905560461803435
1202.0, 0.0039086889037858435
1203.0, 0.009812902911030047
1204.0, 0.007382419537835778
1205.0, 0.0054481574773148555
1206.0, 0.003828995244187522
1207.0, 0.003845033157998437
1208.0, 0.009102107831064094
1209.0, 0.011284567882290687
1210.0, 0.005894657312172965
1211.0, 0.008134799353956059
1212.0, 0.008372114979622064
1213.0, 0.003058438300391741
1214.0, 0.00672656183657841
1215.0, 0.00774242214239567
1216.0, 0.005726863269171375
1217.0, 0.009488835854474518
1218.0, 0.008468319404625913
1219.0, 0.0035287587431750062
1220.0, 0.0083672178869537
1221.0, 0.005118299269324182
1222.0, 0.008207394946948424
1223.0, 0.01192256858642258
1224.0, 0.008850414851867081
1225.0, 0.01537403363750774
1226.0, 0.013393882144251672
1227.0, 0.009352779372184192
1228.0, 0.007652743863427854
1229.0, 0.017669664177768822
1230.0, 0.01937282230991826
1231.0, 0.01600505121887711
1232.0, 0.01279809414836546
1233.0, 0.009564488130066906
1234.0, 0.00706866539496503
1235.0, 0.0063679639999161064
1236.0, 0.009973069054444648
1237.0, 0.01109164773168693
1238.0, 0.006296350699009125
1239.0, 0.009166284851642639
1240.0, 0.008066745107014153
1241.0, 0.004265902765387077
1242.0, 0.007521337663182427
1243.0, 0.013199182557341852
1244.0, 0.013010162083417785
1245.0, 0.011945747610430033
1246.0, 0.009895232819399443
1247.0, 0.010050968959150294
1248.0, 0.010073302175594413
1249.0, 0.012398415337815681
1250.0, 0.012942706006292999
1251.0, 0.010428344843439321
1252.0, 0.012392907139346689
1253.0, 0.004809306271037841
1254.0, 0.0053515743421499624
1255.0, 0.011996891035850532
1256.0, 0.011997380030980649
1257.0, 0.007441605936720092
1258.0, 0.006307274726895135
1259.0, 0.008530885025839123
1260.0, 0.008510300077136866
1261.0, 0.0037628976764061592
1262.0, 0.006178052313470458
1263.0, 0.005226699635209819
1264.0, 0.005101458166426341
1265.0, 0.002937201536090025
1266.0, 0.007599483674283478
1267.0, 0.005041681709915988
1268, 0.0
1269, 0.0
1270, 0.0
1271, 0.0
1272, 0.0
1273, 0.0
1274, 0.0
1275, 0.0
1276, 0.0
1277, 0.0
1278, 0.0
1279, 0.0
1280, 0.0
1281, 0.0
1282, 0.0
1283, 0.0
1284, 0.0
1285, 0.0
1286, 0.0
1287, 0.0
1288, 0.0
1289, 0.0
1290, 0.0
1291, 0.0
1292, 0.0
1293, 0.0
1294, 0.0
1295, 0.0
1296, 0.0
1297, 0.0
1298, 0.0
1299, 0.0
1300, 0.0
1301, 0.0
1302, 0.0
1303, 0.0
1304, 0.0
1305, 0.0
1306, 0.0
1307, 0.0
1308, 0.0
1309, 0.0
1310, 0.0
1311, 0.0
1312, 0.0
1313, 0.0
1314, 0.0
1315, 0.0
1316, 0.0
1317, 0.0
1318, 0.0
1319, 0.0
1320, 0.0
1321, 0.0
1322, 0.0
1323, 0.0
1324, 0.0
1325, 0.0
1326, 0.0
1327, 0.0
1328, 0.0
1329, 0.0
1330, 0.0
1331, 0.0
1332, 0.0
1333, 0.0
1334, 0.0
1335, 0.0
1336, 0.0
1337, 0.0
1338, 0.0
1339, 0.0
1340, 0.0
1341, 0.0
1342, 0.0
1343, 0.0
1344, 0.0
1345, 0.0
1346, 0.0
1347, 0.0
1348, 0.0
1349, 0.0
1350, 0.0
1351, 0.0
1352, 0.0
1353, 0.0
1354, 0.0
1355, 0.0
1356, 0.0
1357, 0.0
1358, 0.0
1359, 0.0
1360, 0.0
1361, 0.0
1362, 0.0
1363, 0.0
1364, 0.0
1365, 0.0
1366, 0.0
1367, 0.0
1368, 0.0
1369, 0.0
1370, 0.0
1371, 0.0
1372, 0.0
1373, 0.0
1374, 0.0
1375, 0.0
1376, 0.0
1377, 0.0
1378, 0.0
1379, 0.0
1380, 0.0
1381, 0.0
1382, 0.0
1383, 0.0
1384, 0.0
1385, 0.0
1386, 0.0
1387, 0.0
1388, 0.0
1389, 0.0
1390, 0.0
1391, 0.0
1392, 0.0
1393, 0.0
1394, 0.0
1395, 0.0
1396, 0.0
1397, 0.0
1398, 0.0
1399, 0.0
1400, 0.0
1401, 0.0
1402, 0.0
1403, 0.0
1404, 0.0
1405, 0.0
1406, 0.0
1407, 0.0
1408, 0.0
1409, 0.0
1410, 0.0
1411, 0.0
1412, 0.0
1413, 0.0
1414, 0.0
1415, 0.0
1416, 0.0
1417, 0.0
1418, 0.0
1419, 0.0
1420, 0.0
1421, 0.0
1422, 0.0
1423, 0.0
1424, 0.0
1425, 0.0
1426, 0.0
1427, 0.0
1428, 0.0
1429, 0.0
1430, 0.0
1431, 0.0
1432, 0.0
1433, 0.0
1434, 0.0
1435, 0.0
1436, 0.0
1437, 0.0
1438, 0.0
1439, 0.0
1440, 0.0
1441, 0.0
1442, 0.0
1443, 0.0
1444, 0.0
1445, 0.0
1446, 0.0
1447, 0.0
1448, 0.0
1449, 0.0
1450, 0.0
1451, 0.0
1452, 0.0
1453, 0.0
1454, 0.0
1455, 0.0
1456, 0.0
1457, 0.0
1458, 0.0
1459, 0.0
1460, 0.0
1461, 0.0
1462, 0.0
1463, 0.0
1464, 0.0
1465, 0.0
1466, 0.0
1467, 0.0
1468, 0.0
1469, 0.0
1470, 0.0
1471, 0.0
1472, 0.0
1473, 0.0
1474, 0.0
1475, 0.0
1476, 0.0
1477, 0.0
1478, 0.0
1479, 0.0
1480, 0.0
1481, 0.0
1482, 0.0
1483, 0.0
1484, 0.0
1485, 0.0
1486, 0.0
1487, 0.0
1488, 0.0
1489, 0.0
1490, 0.0
1491, 0.0
1492, 0.0
1493, 0.0
1494, 0.0
1495, 0.0
1496, 0.0
1497, 0.0
1498, 0.0
1499, 0.0
1500, 0.0
1501, 0.0
1502, 0.0
1503, 0.0
1504, 0.0
1505, 0.0
1506, 0.0
1507, 0.0
1508, 0.0
1509, 0.0
1510, 0.0
1511, 0.0
1512, 0.0
1513, 0.0
1514, 0.0
1515, 0.0
1516, 0.0
1517, 0.0
1518, 0.0
1519, 0.0
1520, 0.0
1521, 0.0
1522, 0.0
1523, 0.0
1524, 0.0
1525, 0.0
1526, 0.0
1527, 0.0
1528, 0.0
1529, 0.0
1530, 0.0
1531, 0.0
1532, 0.0
1533, 0.0
1534, 0.0
1535, 0.0
1536, 0.0
1537, 0.0
1538, 0.0
1539, 0.0
1540, 0.0
1541, 0.0
1542, 0.0
1543, 0.0
1544, 0.0
1545, 0.0
1546, 0.0
1547, 0.0
1548, 0.0
1549, 0.0
1550, 0.0
1551, 0.0
1552, 0.0
1553, 0.0
1554, 0.0
1555, 0.0
1556, 0.0
1557, 0.0
1558, 0.0
1559, 0.0
1560, 0.0
1561, 0.0
1562, 0.0
1563, 0.0
1564, 0.0
1565, 0.0
1566, 0.0
1567, 0.0
1568, 0.0
1569, 0.0
1570, 0.0
1571, 0.0
1572, 0.0
1573, 0.0
1574, 0.0
1575, 0.0
1576, 0.0
1577, 0.0
1578, 0.0
1579, 0.0
1580, 0.0
1581, 0.0
1582, 0.0
1583, 0.0
1584, 0.0
1585, 0.0
1586, 0.0
1587, 0.0
1588, 0.0
1589, 0.0
1590, 0.0
1591, 0.0
1592, 0.0
1593, 0.0
1594, 0.0
1595, 0.0
1596, 0.0
1597, 0.0
1598, 0.0
1599, 0.0
