30, 0.0
31, 0.0
32, 0.0
33, 0.0
34, 0.0
35, 0.0
36, 0.0
37, 0.0
38, 0.0
39, 0.0
40, 0.0
41, 0.0
42, 0.0
43, 0.0
44, 0.0
45, 0.0
46, 0.0
47, 0.0
48, 0.0
49, 0.0
50, 0.0
51, 0.0
52, 0.0
53, 0.0
54, 0.0
55, 0.0
56, 0.0
57, 0.0
58, 0.0
59, 0.0
60, 0.0
61, 0.0
62, 0.0
63, 0.0
64, 0.0
65, 0.0
66, 0.0
67, 0.0
68, 0.0
69, 0.0
70, 0.0
71, 0.0
72, 0.0
73, 0.0
74, 0.0
75, 0.0
76, 0.0
77, 0.0
78, 0.0
79, 0.0
80, 0.0
81, 0.0
82, 0.0
83, 0.0
84, 0.0
85, 0.0
86, 0.0
87, 0.0
88, 0.0
89, 0.0
90, 0.0
91, 0.0
92, 0.0
93, 0.0
94, 0.0
95, 0.0
96, 0.0
97, 0.0
98, 0.0
99, 0.0
100, 0.0
101, 0.0
102, 0.0
103, 0.0
104, 0.0
105, 0.0
106, 0.0
107, 0.0
108, 0.0
109, 0.0
110, 0.0
111, 0.0
112, 0.0
113, 0.0
114, 0.0
115, 0.0
116, 0.0
117, 0.0
118, 0.0
119, 0.0
120, 0.0
121, 0.0
122, 0.0
123, 0.0
124, 0.0
125, 0.0
126, 0.0
127, 0.0
128.0, 4.1344535695450065e-05
129.0, 0.0026857065330540978
130.0, 0.006452798566070677
131.0, 0.009522569977559717
132.0, 0.011277430993142037
133.0, 0.01241458044201743
134.0, 0.009855629684766273
135.0, 0.0068821052973915674
136.0, 0.005919976394767765
137.0, 0.005437044058923721
138.0, 0.005608661028403466
139.0, 0.0058803088839030375
140.0, 0.006374314329113407
141.0, 0.007956771180318654
142.0, 0.01123751468779027
143.0, 0.01458380059461581
144.0, 0.01610367699754501
145.0, 0.015245432297615923
146.0, 0.01433435041433766
147.0, 0.011241698533454074
148.0, 0.008323950652676092
149.0, 0.007253818699490726
150.0, 0.004164100490644107
151.0, 0.001718517833317895
152.0, 0.00036543785807559504
153.0, 7.560773907795363e-05
154.0, 2.3141523625565092e-05
155.0, 0.0007587108332787298
156.0, 0.0013619316011679273
157.0, 0.00128221761978779
158.0, 0.00045446926933042644
159.0, 0.0005792676700902714
160.0, 0.0016217906784931184
161.0, 0.0025494891268117003
162.0, 0.0034460433082815056
163.0, 0.004759858617184025
164.0, 0.005257685402263253
165.0, 0.005586282291866969
166.0, 0.005947025591713074
167.0, 0.0058915007072030115
168.0, 0.0067276747446219105
169.0, 0.008096798526243128
170.0, 0.008935659218578482
171.0, 0.008802782351651843
172.0, 0.009970901868515488
173.0, 0.011242670274712525
174.0, 0.012730067224282
175.0, 0.014530072321708451
176.0, 0.01592364094587079
177.0, 0.018311411424596673
178.0, 0.02007703842536557
179.0, 0.021213452796514924
180.0, 0.0229585734523659
181.0, 0.022603487742309136
182.0, 0.02086000541677011
183.0, 0.018544808213723465
184.0, 0.015822639933361256
185.0, 0.012685261302039513
186.0, 0.008812854145622892
187.0, 0.006872727347644884
188.0, 0.0071265856849576144
189.0, 0.005662874316398157
190.0, 0.004704763798183584
191.0, 0.004040603607640059
192.0, 0.004036685298641926
193.0, 0.005217440800089502
194.0, 0.005134815777150532
195.0, 0.005309461406233455
196.0, 0.006037293961739204
197.0, 0.006501021381216288
198.0, 0.005613498449256723
199.0, 0.006575356012927548
200.0, 0.007961772493717637
201.0, 0.008865334851243769
202.0, 0.009391782124768162
203.0, 0.010663787253261971
204.0, 0.011743857188263611
205.0, 0.012605312368954052
206.0, 0.013486512601209056
207.0, 0.013789549305679456
208.0, 0.015232805291707618
209.0, 0.01591473775644247
210.0, 0.01580592606836713
211.0, 0.01780890484421553
212.0, 0.01726191963997295
213.0, 0.014390980572370395
214.0, 0.011553475182364246
215.0, 0.010670983888083648
216.0, 0.008295960971698485
217.0, 0.007053987011112458
218.0, 0.006212790894611352
219.0, 0.0049648540447267625
220.0, 0.003940901569546212
221.0, 0.003398082516611326
222.0, 0.003151411254675154
223.0, 0.002848143943900872
224.0, 0.002271320569486914
225.0, 0.0019900250115186826
226.0, 0.0017933689599899136
227.0, 0.0014442441401345601
228.0, 0.0007854028503881882
229.0, 0.00017026737762132648
230.0, 0.00012218151231698578
231.0, 0.0007833375898947625
232.0, 0.0008497475598604601
233.0, 0.00024235536606297223
234.0, 0.0008309386432477198
235.0, 0.0009283314083975147
236.0, 0.0007033068639611437
237.0, 0.0007632798100440306
238.0, 0.00022530417158211327
239.0, 0.0001702525158633713
240.0, 0.0003528552585243486
241.0, 0.0003813292056389483
242.0, 0.0009728498499057941
243.0, 0.0014607987426660362
244.0, 0.001039845014780483
245.0, 0.0005476942028935844
246.0, 0.0006070481532377856
247.0, 0.0010798335298356906
248.0, 0.0006572781087147923
249.0, 0.0007656171284151272
250.0, 0.0013676903591958358
251.0, 0.0017679078731854497
252.0, 0.0024713777475605337
253.0, 0.0003398982579252026
254.0, 0.0005499324360044753
255.0, 0.0006560585189570527
256.0, 0.0008593848296916038
257.0, 0.0003605773949049677
258.0, 0.001071275441958113
259.0, 0.000581521566809062
260.0, 0.0002696545279785961
261.0, 0.0020554283178223286
262.0, 0.0017887218847495428
263.0, 0.001249411473839585
264.0, 0.001423667005627739
265.0, 0.0015546670997239737
266.0, 0.001579326851815334
267.0, 0.0018433947902305433
268.0, 0.002265899092130671
269.0, 0.0026210500334197134
270.0, 0.0026197317396846544
271.0, 0.002896630659225955
272.0, 0.003223022332018422
273.0, 0.0026941014131322905
274.0, 0.0012447727508667229
275.0, 0.0019425441921620764
276.0, 0.002560650562101451
277.0, 0.0027282071383292737
278.0, 0.0025317001680350117
279.0, 0.0018171783233643674
280.0, 0.0015529124008618036
281.0, 0.0018436893674125038
282.0, 0.002303621472360866
283.0, 0.002591368402453595
284.0, 0.002847770395752837
285.0, 0.0037763514142432676
286.0, 0.00392739208394351
287.0, 0.003541869460967468
288.0, 0.003834737489519315
289.0, 0.003145345197154876
290.0, 0.0023637078335450733
291.0, 0.0029083492168043854
292.0, 0.004377866546327567
293.0, 0.00444453071713736
294.0, 0.00560519484674948
295.0, 0.0056421272716971884
296.0, 0.004576242994056349
297.0, 0.0038464200726423185
298.0, 0.0048458396992281496
299.0, 0.006131684929928579
300.0, 0.006333389235437426
301.0, 0.006212239927049155
302.0, 0.0070482654011772335
303.0, 0.006868349230028184
304.0, 0.0072056093016918295
305.0, 0.00781125165816119
306.0, 0.008317939013801623
307.0, 0.008879129376243628
308.0, 0.009581090984457322
309.0, 0.00948028053010646
310.0, 0.008931781052098915
311.0, 0.008897964013780716
312.0, 0.009957700697014137
313.0, 0.009788380222225949
314.0, 0.009449069791328283
315.0, 0.008922693550001312
316.0, 0.007728699522826936
317.0, 0.007736866103601713
318.0, 0.007516680557980168
319.0, 0.007078853215722601
320.0, 0.006692707802111261
321.0, 0.006452463452941992
322.0, 0.004835832424368896
323.0, 0.004268238955174088
324.0, 0.0038874466774609434
325.0, 0.0037110970321245357
326.0, 0.005280706592647669
327.0, 0.003711254444481759
328.0, 0.003361310551029989
329.0, 0.003491533458874359
330.0, 0.0026030251791631506
331.0, 0.0020951268970061097
332.0, 0.0022280371039845675
333.0, 0.0019781191972891798
334.0, 0.0015485229960360075
335.0, 0.0014980040098518332
336.0, 0.0010244257759784788
337.0, 0.0015412839461214668
338.0, 0.0020738875581365127
339.0, 0.0017485226792540846
340.0, 0.0006360447544899497
341.0, 0.0002393786913871834
342.0, 0.0010403411410739975
343.0, 0.0014946618319599705
344.0, 0.0008301390563859719
345.0, 5.15508762627899e-05
346.0, 0.0014154882770132603
347.0, 0.002124965808424754
348.0, 0.0015585626750008437
349.0, 0.0006440550992738922
350.0, 0.00047029177293649217
351.0, 0.0003913407464610309
352.0, 0.0007636363891808576
353.0, 0.0015170128287723547
354.0, 0.00034697939054994284
355.0, 0.0006630240314130591
356.0, 0.0005935991320672956
357.0, 0.00012847879719135867
358.0, 5.157485739789322e-05
359.0, 0.00016762990754716362
360.0, 0.00010486104276838886
361.0, 0.00023753178921881205
362.0, 0.00018222232519208927
363.0, 0.0004142973308556983
364.0, 0.0007745466111600478
365.0, 0.0003809632947851827
366.0, 0.0001895574335278506
367.0, 7.425616345900855e-05
368.0, 0.00020555109938304219
369.0, 0.0002786143730527877
370.0, 0.0005051601759503847
371.0, 0.0007367912362514887
372.0, 0.0008892163253207272
373.0, 0.0007621855900120891
374.0, 0.00017100514186995085
375.0, 0.00014702426881313732
376.0, 0.00031437924316473324
377.0, 0.00047161194705983635
378.0, 0.00017106034399355107
379.0, 0.0001311917275681279
380.0, 0.00010269352453473123
381.0, 0.0009485325856103689
382.0, 0.001934363366078836
383.0, 0.0018368868692990796
384.0, 0.0010328277573557342
385.0, 0.0017890419481896827
386.0, 0.003142151340850915
387.0, 0.0033923215204234476
388.0, 0.0027133874536067635
389.0, 0.0030024372971954295
390.0, 0.003474766267415847
391.0, 0.005100257441991052
392.0, 0.006678687358339479
393.0, 0.007152960722183643
394.0, 0.007215067719169044
395.0, 0.010132054568908802
396.0, 0.012438068865167679
397.0, 0.01520407903370555
398.0, 0.018373372795548668
399.0, 0.019363017906183232
400.0, 0.021434806540693803
401.0, 0.023119105705721378
402.0, 0.02483136756975553
403.0, 0.026894944730460887
404.0, 0.0290143054605159
405.0, 0.03199351692037584
406.0, 0.0367836138276287
407.0, 0.041703847321976545
408.0, 0.04645539865255454
409.0, 0.05284217222096991
410.0, 0.05899477404338543
411.0, 0.06693279961184646
412.0, 0.07454167689796583
413.0, 0.07974431953913208
414.0, 0.08211708836773053
415.0, 0.07977933668976789
416.0, 0.07050658931773156
417.0, 0.056818968864839905
418.0, 0.04322522592657464
419.0, 0.033528032861565506
420.0, 0.026479823602509667
421.0, 0.021497661602203278
422.0, 0.016450201774143164
423.0, 0.01196498840551107
424.0, 0.01015237967813425
425.0, 0.008138158726367495
426.0, 0.0074171703853010045
427.0, 0.0062655236646421055
428.0, 0.0044739181497967665
429.0, 0.003464836882279597
430.0, 0.0029511234982078005
431.0, 0.002522721304676731
432.0, 0.0023401679767602267
433.0, 0.0023140278601769112
434.0, 0.001903460013816845
435.0, 0.0009417384071300129
436.0, 0.0013106663130029257
437.0, 0.0009943778233259329
438.0, 0.00011492411998022172
439.0, 0.00016582430718519532
440.0, 0.00012094148903430236
441.0, 0.0012339852486418737
442.0, 0.0011704791157872763
443.0, 0.0009037124641912905
444.0, 0.0015880014492057944
445.0, 0.0005431113642459727
446.0, 0.00010141567371418331
447.0, 0.0007519440156678132
448.0, 0.0006216222687180683
449.0, 0.0015196141126077672
450.0, 0.0018273676071143363
451.0, 0.0016373426661508174
452.0, 0.0009168545460899539
453.0, 0.00031876191798674026
454.0, 0.00037477462144905083
455.0, 0.0009204910733213283
456.0, 0.002258217074234375
457.0, 0.0024404273654515113
458.0, 0.002158339002269726
459.0, 0.002389799517009487
460.0, 0.002985025311006745
461.0, 0.003030526278435185
462.0, 0.0036628689160365085
463.0, 0.004576335202791453
464.0, 0.0051660434266385365
465.0, 0.005531749478696162
466.0, 0.006809557780072343
467.0, 0.009028797011209103
468.0, 0.009839465032206977
469.0, 0.010548547631785792
470.0, 0.013455529675495926
471.0, 0.016571830246531145
472.0, 0.018087919269416084
473.0, 0.021539545463592415
474.0, 0.025676391274965443
475.0, 0.028692226849551937
476.0, 0.03351230226171862
477.0, 0.04007583091512844
478.0, 0.04522629639998311
479.0, 0.05033246302805663
480.0, 0.05604900085971189
481.0, 0.06055861134622048
482.0, 0.06684771355599713
483.0, 0.07229918921506384
484.0, 0.07945856245226109
485.0, 0.08922977155379527
486.0, 0.10011679123375584
487.0, 0.11081542851421915
488.0, 0.12014343072187277
489.0, 0.13198090917177066
490.0, 0.14496284983419683
491.0, 0.15511466107134436
492.0, 0.1626309786906146
493.0, 0.16308577627999316
494.0, 0.15601438678180712
495.0, 0.14388910046623418
496.0, 0.1281961965374186
497.0, 0.10910436348488799
498.0, 0.09041357524061222
499.0, 0.0730614765327064
500.0, 0.0589709548587034
501.0, 0.048236400477898345
502.0, 0.03954452888644054
503.0, 0.034139671879329536
504.0, 0.0292414856571354
505.0, 0.02479765783951612
506.0, 0.020855167557358195
507.0, 0.017488331615165775
508.0, 0.015324613006639766
509.0, 0.012207992497361873
510.0, 0.011562104525643454
511.0, 0.010189171519063265
512.0, 0.0071357706353628115
513.0, 0.006878626148037351
514.0, 0.006647683296835513
515.0, 0.0056027746346428466
516.0, 0.0046518778810030635
517.0, 0.00402932169192213
518.0, 0.00340893712037906
519.0, 0.0032211390967967443
520.0, 0.002371989967689785
521.0, 0.0020249086755023946
522.0, 0.002127430854259595
523.0, 0.002018527907039328
524.0, 0.0012914965597513612
525.0, 0.0011150870758325937
526.0, 0.0010037708311046295
527.0, 0.00075776937333403
528.0, 0.0008712125997738788
529.0, 0.0014627423229026922
530.0, 0.0007616306380714324
531.0, 0.00045285876592225985
532.0, 0.00026567816098532846
533.0, 0.00026196380979071824
534.0, 0.0007516979294341368
535.0, 0.00035379668900420615
536.0, 0.0005362112652971706
537.0, 0.00040244735058454426
538.0, 0.00017298485660471186
539.0, 0.00026384701430935784
540.0, 0.0003496735868347968
541.0, 0.00013525983566969717
542.0, 0.0007604606960517499
543.0, 0.0008696079193771205
544.0, 0.0002475731700179701
545.0, 0.0008023820992449721
546.0, 0.000763369095872767
547.0, 0.0005675987852425993
548.0, 0.0008411455698975464
549.0, 0.00016732391345150133
550.0, 0.0007273145949993984
551.0, 0.00034047390331239737
552.0, 0.0017203324790932813
553.0, 0.0011141507286829184
554.0, 0.0007384226683507506
555.0, 0.001084894501095727
556.0, 0.0016691144526528132
557.0, 0.002696726163766432
558.0, 0.003246169352098128
559.0, 0.00313248324133318
560.0, 0.002999531258604627
561.0, 0.0032272255091982897
562.0, 0.0036543763398210805
563.0, 0.003692199280846199
564.0, 0.003671675948285277
565.0, 0.004614837011437261
566.0, 0.005917678574295315
567.0, 0.00653693139438798
568.0, 0.006067391943048613
569.0, 0.005955352516313742
570.0, 0.006000496657945625
571.0, 0.006525125829679361
572.0, 0.00730091529733396
573.0, 0.007875104232507275
574.0, 0.008200528742908905
575.0, 0.007953531808798082
576.0, 0.008523278766155364
577.0, 0.008790221196109945
578.0, 0.008788690496457294
579.0, 0.00941935256019993
580.0, 0.009421628857738973
581.0, 0.009654351526452639
582.0, 0.009914517679919254
583.0, 0.010632920079190785
584.0, 0.011535054369091273
585.0, 0.011764696614644658
586.0, 0.012712667249597447
587.0, 0.012466151595647942
588.0, 0.012872850803946302
589.0, 0.013745255943701093
590.0, 0.014104575470422136
591.0, 0.015259662017440783
592.0, 0.015080099709909216
593.0, 0.014563426091290705
594.0, 0.015086428863633986
595.0, 0.016272019720066002
596.0, 0.017066006156736084
597.0, 0.018200997798187686
598.0, 0.018928592984995433
599.0, 0.0191336076377456
600.0, 0.019972705525186353
601.0, 0.021410393782208242
602.0, 0.02253686526540222
603.0, 0.024243583794779026
604.0, 0.027382188487419655
605.0, 0.027948295336357926
606.0, 0.029014499818964277
607.0, 0.03236235316540281
608.0, 0.03413491856874584
609.0, 0.035118028901851124
610.0, 0.037069171646459675
611.0, 0.039108059490893576
612.0, 0.04096959834549929
613.0, 0.043094278499789494
614.0, 0.04562710119443598
615.0, 0.04811463036888432
616.0, 0.050188421872140225
617.0, 0.0509031225457969
618.0, 0.05099016627515831
619.0, 0.05102638108985531
620.0, 0.04950415285686604
621.0, 0.047283873949192735
622.0, 0.043512162099021874
623.0, 0.039437295177816745
624.0, 0.03482219227875308
625.0, 0.029261822075345743
626.0, 0.025017726703977863
627.0, 0.021642868769898276
628.0, 0.018799048326998358
629.0, 0.015593629812121725
630.0, 0.01250776993982574
631.0, 0.010412176715710805
632.0, 0.00843075741332031
633.0, 0.00784466814982746
634.0, 0.005675936728945321
635.0, 0.00391993290069776
636.0, 0.0034363899087432514
637.0, 0.002787520649976787
638.0, 0.0019128534493247946
639.0, 0.0005811994882205915
640.0, 0.0010613059352634923
641.0, 0.0008554887576018495
642.0, 1.5164686201401947e-05
643.0, 0.0005410814467678918
644.0, 0.0003490827682507277
645.0, 0.00019088382468973554
646.0, 0.0008159667244442189
647.0, 0.0007101437205060294
648.0, 0.0009952215913492713
649.0, 0.00040973943348027197
650.0, 0.00014216016874180293
651.0, 0.0004456351038472666
652.0, 0.0004208739780411191
653.0, 0.0003891208286590792
654.0, 0.0009206647387863511
655.0, 0.0019703329643993113
656.0, 0.0031705908102111465
657.0, 0.0018158471011173564
658.0, 0.0027131362812724286
659.0, 0.0026317149381299273
660.0, 0.0019613029746241295
661.0, 0.0035998053007502916
662.0, 0.0037801257003784268
663.0, 0.004237549588328649
664.0, 0.005139716932525124
665.0, 0.0060201251244795875
666.0, 0.006731335764123668
667.0, 0.007464266224045885
668.0, 0.008395440163439844
669.0, 0.00890220705353801
670.0, 0.010282132495593038
671.0, 0.009242063010848785
672.0, 0.006768170315665193
673.0, 0.005776377812223705
674.0, 0.00485815458116931
675.0, 0.004367165877132462
676.0, 0.002603966435808112
677.0, 0.0018248168563433898
678.0, 0.0019364501321750252
679.0, 0.0015406798739130724
680.0, 0.0011264328063719912
681.0, 0.0008669510998114158
682.0, 0.000973022025237985
683.0, 0.0003613275638026846
684.0, 0.00028694368270572714
685.0, 6.6993595893653e-05
686.0, 0.0007774611342328419
687.0, 0.0007219285088844603
688.0, 0.001452957195817716
689.0, 0.0009942575615010042
690.0, 0.0006490912043977812
691.0, 0.0011877957982628106
692.0, 0.0009283134854621334
693.0, 0.0002362396033216869
694.0, 0.0004557175737247406
695.0, 0.0007810107942414206
696.0, 0.0006194978172940486
697.0, 0.00013904050167721745
698.0, 0.000207991399265667
699.0, 0.00017242433967425328
700.0, 0.0005993495089686622
701.0, 0.00016942161331462468
702.0, 0.0005797648401067768
703.0, 0.000586823614489682
704.0, 0.0007707219811779807
705.0, 0.00025262573407574277
706.0, 0.0013683140092456865
707.0, 0.0013424001219120832
708.0, 0.0007289929336904333
709.0, 0.0006172256531187016
710.0, 0.0008086996291498232
711.0, 0.0003644704030792467
712.0, 0.000415042004173958
713.0, 0.001633611626528914
714.0, 0.0015427572447200676
715.0, 0.0005630688300983806
716.0, 0.000384077798779979
717.0, 0.0012172065350188352
718.0, 0.0005998319403819155
719.0, 0.0002047451979370198
720.0, 0.0006945396794194095
721.0, 0.0007395314997514682
722.0, 0.0005425433492135579
723.0, 0.0008401423156243075
724.0, 0.0010639383096433142
725.0, 0.0009654542919143544
726.0, 1.3737130407910383e-05
727.0, 0.0008794271121810506
728.0, 0.00197302464934234
729.0, 0.001586855446250234
730.0, 0.0012787749340158994
731.0, 0.0023018723094475418
732.0, 0.0005598827804695413
733.0, 0.0001973279164486103
734.0, 0.0004038948519516392
735.0, 0.0010171701258385613
736.0, 0.0014606232122643796
737.0, 0.0002795993606914043
738.0, 0.00015267781075732438
739.0, 0.00042589021744766166
740.0, 0.0008653380408664965
741.0, 0.0005215710727123452
742.0, 0.00022743726832442915
743.0, 0.0004842848643037468
744.0, 0.00016266382099612504
745.0, 0.0004684779885259175
746.0, 0.0006598884227843856
747.0, 0.0007485362691918174
748.0, 0.0009651173004124341
749.0, 0.001090528550781965
750.0, 0.0014579906697310744
751.0, 0.000864917328398482
752.0, 3.17195101682486e-05
753.0, 0.00011420003446687301
754.0, 0.0007464577103262497
755.0, 0.0011655983324316223
756.0, 0.0004715890296537859
757.0, 0.0006217194931372933
758.0, 0.0005586871063754732
759.0, 0.00013067401518214946
760.0, 0.0002218664855349374
761.0, 0.00011464577879072264
762.0, 0.00025818008405114717
763.0, 0.0005698740443227263
764.0, 0.000923051288462619
765.0, 0.0008904670812061939
766.0, 0.0014775826578595033
767.0, 0.0016292662169763107
768.0, 0.0010987896374612712
769.0, 0.0007433305372138889
770.0, 0.0010835755512693145
771.0, 0.001151686296922133
772.0, 0.0005905998104558596
773.0, 0.0009606742773727483
774.0, 0.0014313177226546931
775.0, 0.0008081793656528116
776.0, 0.00016173230641951342
777.0, 0.000524893985792562
778.0, 0.000424595667582254
779.0, 0.0009067735789537875
780.0, 0.0017421258440616172
781.0, 0.0022211830154991834
782.0, 0.002126665872322165
783.0, 0.0017368599446105093
784.0, 0.0012580758183982196
785.0, 0.00077984748747824
786.0, 0.0007332489214164581
787.0, 0.001217537621196819
788.0, 0.0012967995568135742
789.0, 0.0011018621494378155
790.0, 0.0017670229338225246
791.0, 0.0010650599708920921
792.0, 0.000920662457195401
793.0, 0.0002769605792539977
794.0, 0.00010071504631531045
795.0, 0.0005332319459566709
796.0, 0.0012595571922283356
797.0, 0.0006090034726850702
798.0, 0.0007025280571336931
799.0, 0.0010270638755955305
800.0, 0.0013964870449556953
801.0, 0.0018756194845388993
802.0, 0.0019334317328070507
803.0, 0.0013967025607217968
804.0, 0.0008842340946064592
805.0, 0.0004775515507309621
806.0, 0.0002894179675351604
807.0, 0.0005699477769224805
808.0, 0.001521129432639059
809.0, 0.002231938249326336
810.0, 0.001902225946589776
811.0, 0.0016054183691089554
812.0, 0.0012636719180289025
813.0, 0.0009822886511940195
814.0, 0.0008243794763319404
815.0, 0.0006224418468693645
816.0, 0.0006940102624141548
817.0, 0.0012199106500944672
818.0, 0.001431975761559631
819.0, 0.0006317026497675945
820.0, 0.0003776390020626295
821.0, 0.00017666527173041546
822.0, 0.0002106292721313312
823.0, 0.0005603790863408091
824.0, 0.0007305272459598724
825.0, 0.00044865420641586416
826.0, 0.0021801733192227278
827.0, 0.0021199072435792313
828.0, 0.0013552086708727507
829.0, 0.0007881159046023292
830.0, 0.001148797532634196
831.0, 0.0018818385077229867
832.0, 0.0012886237826873063
833.0, 0.0010168855355680065
834.0, 0.001601304053314197
835.0, 0.0014386207975118223
836.0, 0.0007833284107999727
837.0, 0.001143697447131697
838.0, 0.0017825499652996096
839.0, 0.0007495740689549942
840.0, 0.001715766792320685
841.0, 0.0005496410267363751
842.0, 0.0018451960989121232
843.0, 0.001639201497587605
844.0, 0.0007077074786114437
845.0, 0.0011806573487079838
846.0, 0.0016813022751565035
847.0, 0.0012538719213495148
848.0, 0.0012352545631758613
849.0, 0.0010556422166333335
850.0, 0.0010289488507080607
851.0, 0.0006716809541968384
852.0, 0.0006212392603066627
853.0, 0.0011932101062521868
854.0, 0.0004043235026411084
855.0, 0.001593279519999997
856.0, 0.0018015777995059343
857.0, 0.0021116424753364347
858.0, 0.0018718743445233666
859.0, 0.0017331529415487237
860.0, 0.001779636304473696
861.0, 8.643832188428741e-05
862.0, 0.0013979390805861525
863.0, 0.0009929495571837073
864.0, 0.0012261203863801475
865.0, 0.0016845957151099338
866.0, 0.0018380609261318724
867.0, 0.0015352697346899358
868.0, 0.0008508965216474008
869.0, 0.0008629333579921696
870.0, 0.0010345587486980978
871.0, 0.0010976151296069852
872.0, 0.0018723670028043089
873.0, 0.0019448208816116117
874.0, 0.0013545200334026482
875.0, 0.001399682398118566
876.0, 0.0015193038244070629
877.0, 0.0011519254969108458
878.0, 0.000169666948522481
879.0, 0.00034014627008773787
880.0, 0.0006175929312510181
881.0, 0.0007639306423769453
882.0, 0.001222058983612008
883.0, 0.0013066195726875814
884.0, 0.00028092484596707335
885.0, 0.00038280494826990486
886.0, 0.0006382896698454687
887.0, 0.0005738304768904188
888.0, 0.00013998674553934463
889.0, 0.00034602345628741984
890.0, 0.000915845740324983
891.0, 0.0012247476078882935
892.0, 0.00017087968760084264
893.0, 6.418272784334594e-05
894.0, 8.443351251246593e-05
895.0, 0.0005429249721759502
896.0, 0.00041147997147586803
897.0, 0.001441283315744054
898.0, 0.0014599530332617978
899.0, 0.00045815976261988323
900.0, 0.00018421559935848325
901.0, 0.0006964256501803953
902.0, 0.0007796427585092855
903.0, 0.00044278456090841135
904.0, 0.0006655198700095494
905.0, 0.0016822027552068288
906.0, 0.001717510266658732
907.0, 0.00035819503452633894
908.0, 0.000541454086216647
909.0, 0.00030632309448815954
910.0, 0.0010540067555533958
911.0, 0.0013162367791377952
912.0, 0.0009187728540696629
913.0, 0.0013353177553748438
914.0, 0.0014509537317844248
915.0, 0.0016168440243969843
916.0, 0.0014073439261601507
917.0, 0.0005433415810281195
918.0, 0.00039394765370460435
919.0, 0.0011210011291924768
920.0, 0.0016324867640377639
921.0, 0.0011644221055594367
922.0, 0.0005227784204457291
923.0, 0.0016013184408717608
924.0, 0.0016403420607632275
925.0, 0.0008820929886683686
926.0, 0.00012099325118658886
927.0, 0.0010444953870474595
928.0, 0.0009103788489597858
929.0, 0.00029666192374113007
930.0, 0.00035384047472279917
931.0, 0.001151762304713788
932.0, 0.0006537960321546068
933.0, 0.0004701833470805699
934.0, 0.0010342507509121012
935.0, 0.0009648263986040889
936.0, 0.0005911324179873926
937.0, 0.0007399035294195413
938.0, 0.0004114898629717129
939.0, 0.00014327671096549653
940.0, 0.001088911644464146
941.0, 0.0006230873759466783
942.0, 0.000550960081646917
943.0, 0.0002520742930203692
944.0, 0.00019279459294704757
945.0, 0.0006830923083477718
946.0, 0.0016420083410948396
947.0, 0.001362655705658742
948.0, 0.0009929326363714622
949.0, 0.0011864903183724106
950.0, 0.0010624823913758176
951.0, 0.0004828250462628398
952.0, 0.0008586100894692683
953.0, 0.001667487659630087
954.0, 0.0008835878462740344
955.0, 0.001414118490391795
956.0, 0.0015001357123174159
957.0, 0.0021900109019397924
958.0, 0.0013294103922476801
959.0, 0.0017225255654716336
960.0, 0.0018752131310677321
961.0, 0.0012517604454098665
962.0, 0.002420304674949059
963.0, 0.0024525504432534946
964.0, 0.002937787121332053
965.0, 0.003778695774337426
966.0, 0.003969430492187894
967.0, 0.00395923373425449
968.0, 0.003703668312893288
969.0, 0.003329303805095844
970.0, 0.003948452827929568
971.0, 0.005850901819946235
972.0, 0.005493314495253888
973.0, 0.005925823423047117
974.0, 0.0064983356638429616
975.0, 0.0073656929755970555
976.0, 0.00833409386939972
977.0, 0.009157892681278673
978.0, 0.010153953511379616
979.0, 0.011652678705270711
980.0, 0.01324679678135312
981.0, 0.014166470886886938
982.0, 0.015683791165916037
983.0, 0.017636140614450357
984.0, 0.01908772393556834
985.0, 0.02089370753288402
986.0, 0.02377634732606431
987.0, 0.027391273129208204
988.0, 0.03193999444058731
989.0, 0.03656722676487443
990.0, 0.04201123154123321
991.0, 0.05128100096285528
992.0, 0.06397296173749935
993.0, 0.0816174028965898
994.0, 0.1084176691194238
995.0, 0.14266372652614853
996.0, 0.17454359351746473
997.0, 0.20062436584909607
998.0, 0.22427090804532004
999.0, 0.2485268411005106
1000.0, 0.27476790452267225
1001.0, 0.3076389693152109
1002.0, 0.35125178676910884
1003.0, 0.4082379733564425
1004.0, 0.49080820647953405
1005.0, 0.6092524082011302
1006.0, 0.7462169040954294
1007.0, 0.8880325509640246
1008.0, 0.9923635043101231
1009.0, 0.9595123721623416
1010.0, 0.7803746843940316
1011.0, 0.5460356392220869
1012.0, 0.351077535663311
1013.0, 0.2274175088027424
1014.0, 0.1527421271927761
1015.0, 0.10953047300117906
1016.0, 0.08184657098154988
1017.0, 0.0646058568151391
1018.0, 0.05071668383426928
1019.0, 0.04150199733346917
1020.0, 0.03523484109649093
1021.0, 0.029883385555776798
1022.0, 0.025629669265876644
1023.0, 0.021957427812567504
1024.0, 0.01937604899304978
1025.0, 0.017119501979882903
1026.0, 0.014510477691510992
1027.0, 0.013166436171291665
1028.0, 0.01147796899177782
1029.0, 0.009677013091120457
1030.0, 0.00893343227375085
1031.0, 0.008760888794792383
1032.0, 0.008185758699065038
1033.0, 0.00680544079850919
1034.0, 0.004551979012786006
1035.0, 0.003748397950093447
1036.0, 0.004052155146449519
1037.0, 0.003843303812258521
1038.0, 0.004068707278065133
1039.0, 0.0036998660849276895
1040.0, 0.0024031858112851167
1041.0, 0.002815024177761144
1042.0, 0.002817628699903961
1043.0, 0.0024612313505385838
1044.0, 0.0020654267894645605
1045.0, 0.00084830228036258
1046.0, 0.0011156128897845247
1047.0, 0.002126090375562761
1048.0, 0.001816370884212853
1049.0, 0.0012570490845127532
1050.0, 0.0018517168135054186
1051.0, 0.00043223329875046053
1052.0, 0.00022043275303674028
1053.0, 0.0012595385654503067
1054.0, 0.0003991326963088103
1055.0, 0.0002755304436867777
1056.0, 0.0010749850825821179
1057.0, 0.0019566911403314504
1058.0, 0.0011175262793441275
1059.0, 0.00026242583975067324
1060.0, 0.00016891220187956776
1061.0, 0.00019169579554716604
1062.0, 0.0007046130930072503
1063.0, 0.0009207300499574312
1064.0, 0.0016386886922658216
1065.0, 0.0005420429851622107
1066.0, 0.0002835377072774142
1067.0, 0.00029677915727331823
1068.0, 0.0005881893661936851
1069.0, 0.0006276032693319082
1070.0, 0.00018334014338926253
1071.0, 0.0005638143817318673
1072.0, 0.0011697926275004939
1073.0, 0.0007225520755005947
1074.0, 0.00144347130566803
1075.0, 0.0006156844511996823
1076.0, 2.6405956119619582e-05
1077.0, 0.00014917954090646249
1078.0, 0.00024333315311704968
1079.0, 9.158430505858857e-05
1080.0, 0.0006192169943269451
1081.0, 0.0010452095787752062
1082.0, 0.0015810484860907263
1083.0, 0.0007559306798232641
1084.0, 0.0003641206209481046
1085.0, 0.0001542377137532697
1086.0, 0.001367543767449978
1087.0, 0.002293081360316438
1088.0, 0.0010775282256264929
1089.0, 0.0016266059456964735
1090.0, 0.001578474573353144
1091.0, 0.0016626497557674356
1092.0, 0.0007970588679776637
1093.0, 0.0019928510943549057
1094.0, 0.0025667729467777206
1095.0, 0.002343256344850144
1096.0, 0.0024698552551534743
1097.0, 0.0022975473759288398
1098.0, 0.0017630509420246386
1099.0, 0.0025800711453325305
1100.0, 0.0041934188038173425
1101.0, 0.0036819938397021123
1102.0, 0.003255105629406462
1103.0, 0.0036741721729375526
1104.0, 0.003325195619879767
1105.0, 0.003068803584570011
1106.0, 0.0033758372909882197
1107.0, 0.00440374727437413
1108.0, 0.00534463436194797
1109.0, 0.00550243861032354
1110.0, 0.006536271922541056
1111.0, 0.007121680855101355
1112.0, 0.008066412836249653
1113.0, 0.00827631193326562
1114.0, 0.00815714151512982
1115.0, 0.0076165347969735986
1116.0, 0.008122177263217331
1117.0, 0.008700674069136072
1118.0, 0.009010766443403876
1119.0, 0.010414254287420873
1120.0, 0.011960327933819516
1121.0, 0.01272828910806679
1122.0, 0.014394836387102747
1123.0, 0.014930903879062391
1124.0, 0.015559518090945312
1125.0, 0.018058855647300736
1126.0, 0.020606692743787416
1127.0, 0.021727891567748608
1128.0, 0.02366775813251846
1129.0, 0.027064300330480323
1130.0, 0.029746487862581408
1131.0, 0.03337624732691997
1132.0, 0.03618471327175554
1133.0, 0.040268115048404975
1134.0, 0.0449286725262259
1135.0, 0.048524042941784466
1136.0, 0.0526151967549158
1137.0, 0.053834624807172465
1138.0, 0.054494951995420954
1139.0, 0.05622507613421493
1140.0, 0.055976603189191565
1141.0, 0.05446611258120245
1142.0, 0.05353629148093396
1143.0, 0.04793303960626856
1144.0, 0.04548703201541243
1145.0, 0.039282100338531245
1146.0, 0.033896449488006214
1147.0, 0.02815351809880408
1148.0, 0.022877565484313273
1149.0, 0.018929772523633297
1150.0, 0.01598730782784723
1151.0, 0.013606571365785716
1152.0, 0.010931092047970105
1153.0, 0.008254133087825148
1154.0, 0.005948296733545381
1155.0, 0.006203502516730543
1156.0, 0.006234474730046924
1157.0, 0.0050955788612114415
1158.0, 0.004833345263125129
1159.0, 0.0036632513163478
1160.0, 0.002881132574997999
1161.0, 0.002946463377147312
1162.0, 0.002599801913442164
1163.0, 0.002687718300162478
1164.0, 0.0023398242321956086
1165.0, 0.0019065727236636117
1166.0, 0.0019867359028969593
1167.0, 0.001641348178048038
1168.0, 0.0011217073950595452
1169.0, 0.00209447033522095
1170.0, 0.0010440086947750302
1171.0, 0.0010252125943053247
1172.0, 0.0014509060291164038
1173.0, 0.00029413778928099953
1174.0, 0.0005010448863712575
1175.0, 0.0015547652617147161
1176.0, 0.0010291462502194685
1177.0, 0.001293403997778743
1178.0, 0.00023446562464272985
1179.0, 0.0005091908945010836
1180.0, 0.000153697767162738
1181.0, 8.802007197088174e-05
1182.0, 0.00022661191803693872
1183.0, 0.0012689167954718803
1184.0, 0.0012427047225288946
1185.0, 0.00024410206964579464
1186.0, 0.00041156230120264624
1187.0, 0.0006444153979137115
1188.0, 0.0007327770297213895
1189.0, 0.0007770230325559603
1190.0, 0.00019106911436384908
1191.0, 0.0002902111240499483
1192.0, 0.0006097302818486672
1193.0, 0.0007668709980600632
1194.0, 0.0010436097653209536
1195.0, 0.0011079854104630617
1196.0, 0.0011317614661918343
1197.0, 0.0008675228634009977
1198.0, 0.0007320041464585899
1199.0, 0.00020562576626583068
1200.0, 0.0007314225050121235
1201.0, 0.0004262138636157185
1202.0, 0.0006493299750818291
1203.0, 0.001616614079752912
1204.0, 0.001117012276828027
1205.0, 0.0013885124256852177
1206.0, 0.0007677991600037727
1207.0, 0.00048605961548295524
1208.0, 0.000681911507660012
1209.0, 0.00017005985581196965
1210.0, 0.00011372573590062914
1211.0, 0.0002493372686737216
1212.0, 0.0004566388853031243
1213.0, 0.00014607735560911007
1214.0, 0.0013947171334119303
1215.0, 0.0013117860055334174
1216.0, 0.0018393016460278792
1217.0, 0.0018792400533048017
1218.0, 0.0013250937796418633
1219.0, 0.0006069990166417904
1220.0, 0.00030537319243841124
1221.0, 0.0008277985266105746
1222.0, 0.0017096561187007566
1223.0, 0.0018737464231483307
1224.0, 0.0006215625712560953
1225.0, 0.00018593089149204504
1226.0, 0.00043550086772514484
1227.0, 0.0020678697574821464
1228.0, 0.0033439628475262343
1229.0, 0.0013526003219505507
1230.0, 0.0012342080300980565
1231.0, 0.001309379624257095
1232.0, 0.0006911302330577353
1233.0, 0.0006263987599795589
1234.0, 0.0008978881324086775
1235.0, 0.0011152092849979374
1236.0, 0.0014075149068152328
1237.0, 0.0014025778357483107
1238.0, 0.0013223996060663706
1239.0, 0.00020364441447153799
1240.0, 0.0016906413639149493
1241.0, 0.0004559309136937012
1242.0, 0.0004697137776474633
1243.0, 0.0011091374338238354
1244.0, 0.0026849440678105413
1245.0, 0.0021992145754171424
1246.0, 0.0024241878460464694
1247.0, 0.0025242492459525696
1248.0, 0.0013718096299454496
1249.0, 0.0016203927562723046
1250.0, 0.0015114777995568454
1251.0, 0.0015456703776654203
1252.0, 0.0002092343109980316
1253.0, 0.000898991978506415
1254.0, 0.001613264500721678
1255.0, 0.0016324187891091821
1256.0, 0.0016800141051038445
1257.0, 0.0012329825165561
1258.0, 0.0011941391545249795
1259.0, 0.0013482166426300017
1260.0, 0.0017296837458490642
1261.0, 0.00260199334163509
1262.0, 0.002663949852503563
1263.0, 0.0013601582308828998
1264.0, 0.0004355273382736953
1265.0, 0.0008181103093230817
1266.0, 0.0005187823724819943
1267.0, 7.104778020002469e-05
1268.0, 0.0009713852043210373
1269.0, 0.00021653159370469034
1270.0, 0.0003032613795036159
1271.0, 0.0019553244066181446
1272.0, 0.0016805345192711571
1273.0, 0.0011442068751896014
1274.0, 0.0019101608855871318
1275.0, 0.002316767390941957
1276.0, 0.0016778624576055925
1277.0, 0.001156658019306007
1278.0, 0.0014528037673881672
1279.0, 0.0018190510276090625
1280.0, 0.0010857984260885358
1281.0, 0.0026476725497848247
1282.0, 0.0015608154684253939
1283.0, 0.0018835915704911359
1284.0, 0.0013163270763779237
1285.0, 0.0012379246771869088
1286.0, 0.0003305026508238019
1287.0, 0.0021763432385931676
1288.0, 0.0016890678339917798
1289.0, 0.0005559783736056517
1290.0, 4.3425766286759454e-05
1291, 0.0
1292, 0.0
1293, 0.0
1294, 0.0
1295, 0.0
1296, 0.0
1297, 0.0
1298, 0.0
1299, 0.0
1300, 0.0
1301, 0.0
1302, 0.0
1303, 0.0
1304, 0.0
1305, 0.0
1306, 0.0
1307, 0.0
1308, 0.0
1309, 0.0
1310, 0.0
1311, 0.0
1312, 0.0
1313, 0.0
1314, 0.0
1315, 0.0
1316, 0.0
1317, 0.0
1318, 0.0
1319, 0.0
1320, 0.0
1321, 0.0
1322, 0.0
1323, 0.0
1324, 0.0
1325, 0.0
1326, 0.0
1327, 0.0
1328, 0.0
1329, 0.0
1330, 0.0
1331, 0.0
1332, 0.0
1333, 0.0
1334, 0.0
1335, 0.0
1336, 0.0
1337, 0.0
1338, 0.0
1339, 0.0
1340, 0.0
1341, 0.0
1342, 0.0
1343, 0.0
1344, 0.0
1345, 0.0
1346, 0.0
1347, 0.0
1348, 0.0
1349, 0.0
1350, 0.0
1351, 0.0
1352, 0.0
1353, 0.0
1354, 0.0
1355, 0.0
1356, 0.0
1357, 0.0
1358, 0.0
1359, 0.0
1360, 0.0
1361, 0.0
1362, 0.0
1363, 0.0
1364, 0.0
1365, 0.0
1366, 0.0
1367, 0.0
1368, 0.0
1369, 0.0
1370, 0.0
1371, 0.0
1372, 0.0
1373, 0.0
1374, 0.0
1375, 0.0
1376, 0.0
1377, 0.0
1378, 0.0
1379, 0.0
1380, 0.0
1381, 0.0
1382, 0.0
1383, 0.0
1384, 0.0
1385, 0.0
1386, 0.0
1387, 0.0
1388, 0.0
1389, 0.0
1390, 0.0
1391, 0.0
1392, 0.0
1393, 0.0
1394, 0.0
1395, 0.0
1396, 0.0
1397, 0.0
1398, 0.0
1399, 0.0
1400, 0.0
1401, 0.0
1402, 0.0
1403, 0.0
1404, 0.0
1405, 0.0
1406, 0.0
1407, 0.0
1408, 0.0
1409, 0.0
1410, 0.0
1411, 0.0
1412, 0.0
1413, 0.0
1414, 0.0
1415, 0.0
1416, 0.0
1417, 0.0
1418, 0.0
1419, 0.0
1420, 0.0
1421, 0.0
1422, 0.0
1423, 0.0
1424, 0.0
1425, 0.0
1426, 0.0
1427, 0.0
1428, 0.0
1429, 0.0
1430, 0.0
1431, 0.0
1432, 0.0
1433, 0.0
1434, 0.0
1435, 0.0
1436, 0.0
1437, 0.0
1438, 0.0
1439, 0.0
1440, 0.0
1441, 0.0
1442, 0.0
1443, 0.0
1444, 0.0
1445, 0.0
1446, 0.0
1447, 0.0
1448, 0.0
1449, 0.0
1450, 0.0
1451, 0.0
1452, 0.0
1453, 0.0
1454, 0.0
1455, 0.0
1456, 0.0
1457, 0.0
1458, 0.0
1459, 0.0
1460, 0.0
1461, 0.0
1462, 0.0
1463, 0.0
1464, 0.0
1465, 0.0
1466, 0.0
1467, 0.0
1468, 0.0
1469, 0.0
1470, 0.0
1471, 0.0
1472, 0.0
1473, 0.0
1474, 0.0
1475, 0.0
1476, 0.0
1477, 0.0
1478, 0.0
1479, 0.0
1480, 0.0
1481, 0.0
1482, 0.0
1483, 0.0
1484, 0.0
1485, 0.0
1486, 0.0
1487, 0.0
1488, 0.0
1489, 0.0
1490, 0.0
1491, 0.0
1492, 0.0
1493, 0.0
1494, 0.0
1495, 0.0
1496, 0.0
1497, 0.0
1498, 0.0
1499, 0.0
1500, 0.0
1501, 0.0
1502, 0.0
1503, 0.0
1504, 0.0
1505, 0.0
1506, 0.0
1507, 0.0
1508, 0.0
1509, 0.0
1510, 0.0
1511, 0.0
1512, 0.0
1513, 0.0
1514, 0.0
1515, 0.0
1516, 0.0
1517, 0.0
1518, 0.0
1519, 0.0
1520, 0.0
1521, 0.0
1522, 0.0
1523, 0.0
1524, 0.0
1525, 0.0
1526, 0.0
1527, 0.0
1528, 0.0
1529, 0.0
1530, 0.0
1531, 0.0
1532, 0.0
1533, 0.0
1534, 0.0
1535, 0.0
1536, 0.0
1537, 0.0
1538, 0.0
1539, 0.0
1540, 0.0
1541, 0.0
1542, 0.0
1543, 0.0
1544, 0.0
1545, 0.0
1546, 0.0
1547, 0.0
1548, 0.0
1549, 0.0
1550, 0.0
1551, 0.0
1552, 0.0
1553, 0.0
1554, 0.0
1555, 0.0
1556, 0.0
1557, 0.0
1558, 0.0
1559, 0.0
1560, 0.0
1561, 0.0
1562, 0.0
1563, 0.0
1564, 0.0
1565, 0.0
1566, 0.0
1567, 0.0
1568, 0.0
1569, 0.0
1570, 0.0
1571, 0.0
1572, 0.0
1573, 0.0
1574, 0.0
1575, 0.0
1576, 0.0
1577, 0.0
1578, 0.0
1579, 0.0
1580, 0.0
1581, 0.0
1582, 0.0
1583, 0.0
1584, 0.0
1585, 0.0
1586, 0.0
1587, 0.0
1588, 0.0
1589, 0.0
1590, 0.0
1591, 0.0
1592, 0.0
1593, 0.0
1594, 0.0
1595, 0.0
1596, 0.0
1597, 0.0
1598, 0.0
1599, 0.0
