30, 0.0
31, 0.0
32, 0.0
33, 0.0
34, 0.0
35, 0.0
36, 0.0
37, 0.0
38, 0.0
39, 0.0
40, 0.0
41, 0.0
42, 0.0
43, 0.0
44, 0.0
45, 0.0
46, 0.0
47, 0.0
48, 0.0
49, 0.0
50, 0.0
51, 0.0
52, 0.0
53, 0.0
54, 0.0
55, 0.0
56, 0.0
57, 0.0
58, 0.0
59, 0.0
60, 0.0
61, 0.0
62, 0.0
63, 0.0
64, 0.0
65, 0.0
66, 0.0
67, 0.0
68, 0.0
69, 0.0
70, 0.0
71, 0.0
72, 0.0
73, 0.0
74, 0.0
75, 0.0
76, 0.0
77, 0.0
78, 0.0
79, 0.0
80, 0.0
81, 0.0
82, 0.0
83, 0.0
84, 0.0
85, 0.0
86, 0.0
87, 0.0
88, 0.0
89, 0.0
90, 0.0
91, 0.0
92, 0.0
93, 0.0
94, 0.0
95, 0.0
96, 0.0
97, 0.0
98, 0.0
99, 0.0
100, 0.0
101, 0.0
102, 0.0
103, 0.0
104, 0.0
105, 0.0
106, 0.0
107, 0.0
108, 0.0
109, 0.0
110, 0.0
111, 0.0
112, 0.0
113, 0.0
114, 0.0
115, 0.0
116, 0.0
117, 0.0
118, 0.0
119, 0.0
120, 0.0
121, 0.0
122, 0.0
123, 0.0
124, 0.0
125, 0.0
126, 0.0
127, 0.0
128, 0.0
129, 0.0
130, 0.0
131, 0.0
132, 0.0
133, 0.0
134, 0.0
135, 0.0
136, 0.0
137, 0.0
138, 0.0
139, 0.0
140, 0.0
141, 0.0
142, 0.0
143, 0.0
144, 0.0
145, 0.0
146, 0.0
147, 0.0
148, 0.0
149, 0.0
150, 0.0
151, 0.0
152, 0.0
153.0, 0.00011354498883483485
154.0, 0.00023518204513722207
155.0, 0.0002706815934240799
156.0, 0.00031855661598610674
157.0, 0.001659392036153064
158.0, 0.0019636396309821863
159.0, 0.0032189619109179828
160.0, 0.005387488647061215
161.0, 0.007489903073775747
162.0, 0.007168950040534601
163.0, 0.011109125896353954
164.0, 0.0130030015381811
165.0, 0.014411649328724546
166.0, 0.01675462858293316
167.0, 0.020128309546367018
168.0, 0.022549495646142333
169.0, 0.026033488965175405
170.0, 0.029832837486662003
171.0, 0.03407586252307498
172.0, 0.03943400390958139
173.0, 0.04503651162038641
174.0, 0.04958743453786247
175.0, 0.05472749864593295
176.0, 0.059495189522766376
177.0, 0.06319868824257345
178.0, 0.07037721769416469
179.0, 0.07242934126778802
180.0, 0.07379366380974756
181.0, 0.07388637064372983
182.0, 0.0719327455704309
183.0, 0.06811585810072585
184.0, 0.061490083666030065
185.0, 0.05327753199432506
186.0, 0.045368912786224645
187.0, 0.03796864809888108
188.0, 0.030005707389319167
189.0, 0.024623509381407543
190.0, 0.019521559207026182
191.0, 0.016146450781436592
192.0, 0.01373526353500272
193.0, 0.011157905586305033
194.0, 0.009685994498659221
195.0, 0.009015420138744049
196.0, 0.008139788802656337
197.0, 0.007705057363565464
198.0, 0.00788602772956124
199.0, 0.007650194340109921
200.0, 0.007359465132881382
201.0, 0.007532863856168406
202.0, 0.008053085785419975
203.0, 0.0084232627735384
204.0, 0.008020321263326288
205.0, 0.007433729864002004
206.0, 0.008721339504934169
207.0, 0.008415527818521706
208.0, 0.007500907669026063
209.0, 0.007592892534185541
210.0, 0.008145970326681433
211.0, 0.008332383918700417
212.0, 0.008295145618612011
213.0, 0.008045659924135067
214.0, 0.007628688527609248
215.0, 0.007131903674459996
216.0, 0.006602692580935253
217.0, 0.005244656485965492
218.0, 0.0045791260497165
219.0, 0.0040536330907410155
220.0, 0.0028981389100706115
221.0, 0.003876391138679461
222.0, 0.0031859992551740105
223.0, 0.0025357124182485966
224.0, 0.001986214599134767
225.0, 0.0014842342303108338
226.0, 0.0011647350578331325
227.0, 0.001071996630758299
228.0, 0.0008856661991168666
229.0, 0.0006699321334343529
230.0, 0.00045958645489239475
231.0, 0.00026343315816162316
232.0, 5.752480015993267e-05
233.0, 0.00013520884081018325
234.0, 0.00028409097848489914
235.0, 0.0002891027674602967
236.0, 0.00024529676882665327
237.0, 0.0007915360079224318
238.0, 0.0002128550552558259
239.0, 0.000512850603978609
240.0, 0.0007815639094131977
241.0, 0.0007690869318311264
242.0, 0.0007140065661781036
243.0, 0.000850740118664102
244.0, 0.00025022127374434443
245.0, 0.00027127902947636935
246.0, 0.0003763837064467958
247.0, 0.00022942787231430836
248.0, 0.0005402092659103574
249.0, 0.0009361039030032065
250.0, 0.0005313715280153585
251.0, 0.00015958291878630292
252.0, 0.00018377806669476226
253.0, 0.0004884856651527767
254.0, 0.00015347818247155923
255.0, 0.0006849540601909993
256.0, 0.0005119231109890105
257.0, 0.00013977570435203825
258.0, 0.000237547139221308
259.0, 0.0010782531251391884
260.0, 0.0007965232340352462
261.0, 0.00034973426775184883
262.0, 0.0004019997254100535
263.0, 0.0005223802918854139
264.0, 0.00010838858928300077
265.0, 0.00015758266240130668
266.0, 0.0005365920041542883
267.0, 0.00032060428649101716
268.0, 0.0004091874057192289
269.0, 0.0008072421020105826
270.0, 0.00038218099294039655
271.0, 0.0005475891058207267
272.0, 0.0002101963556564552
273.0, 0.0002611631453536279
274.0, 0.00048477579438112577
275.0, 0.0005921998076397351
276.0, 0.001168503051512298
277.0, 0.0005365790477076844
278.0, 0.0003935516099591388
279.0, 0.0006933340675577622
280.0, 0.0008588500545664748
281.0, 0.00026555135361282955
282.0, 0.00015044022270126707
283.0, 0.0005432852452518881
284.0, 0.000741319003873651
285.0, 0.0005932615530696067
286.0, 0.00026008395918490927
287.0, 0.0001879239062517149
288.0, 0.0007945958195516048
289.0, 0.0005761345117557548
290.0, 0.0007735376083397198
291.0, 0.0008682041306227839
292.0, 0.000242831869007691
293.0, 0.0005742781052922025
294.0, 0.0008091739560547855
295.0, 0.0005288456538430381
296.0, 0.00042122875012282806
297.0, 0.0004837958488690397
298.0, 0.0002017205515553731
299.0, 0.0003044057847016061
300.0, 0.0009280079343160037
301.0, 0.000796371409900137
302.0, 0.0013008434262691954
303.0, 0.002374009612329051
304.0, 0.001177638323072735
305.0, 0.0008202028992876532
306.0, 0.0018157004405515154
307.0, 0.002361846960113765
308.0, 0.0025834265173177826
309.0, 0.0029960325121137204
310.0, 0.00299246769524633
311.0, 0.0030220908488609753
312.0, 0.002875257730303312
313.0, 0.0027783498967593706
314.0, 0.002795975017480906
315.0, 0.002820554437906159
316.0, 0.0025439132568899343
317.0, 0.003390930013181676
318.0, 0.0037419373544138206
319.0, 0.004096620885697268
320.0, 0.004601946393351497
321.0, 0.004678681412044863
322.0, 0.003219649492407787
323.0, 0.0033093201260023524
324.0, 0.0032217124548422032
325.0, 0.003351933296994967
326.0, 0.0038205090693583456
327.0, 0.0035552848417812312
328.0, 0.00368116114959294
329.0, 0.0037453510321552087
330.0, 0.003333813425118645
331.0, 0.003002201742191595
332.0, 0.002948919153093175
333.0, 0.0016391440388307745
334.0, 0.0020255800144113527
335.0, 0.0026610501721011444
336.0, 0.0023381171592653403
337.0, 0.001793078402059426
338.0, 0.002059976934060747
339.0, 0.0012625783331096394
340.0, 0.0012099913480168928
341.0, 0.0014190945181352874
342.0, 0.0016809274244767856
343.0, 0.0018813948994726795
344.0, 0.001994895609970715
345.0, 0.0020739714950538217
346.0, 0.0023028171243971024
347.0, 0.0023073837321306023
348.0, 0.0023386668771392233
349.0, 0.002570562008643803
350.0, 0.002858890735057631
351.0, 0.0018941175938383664
352.0, 0.0015627620272231082
353.0, 0.0013952312647340559
354.0, 0.0017681703000958736
355.0, 0.0025657336535611875
356.0, 0.0029325609071082772
357.0, 0.002277644092138838
358.0, 0.0023419998927061434
359.0, 0.0023561985957136124
360.0, 0.0021473635734126986
361.0, 0.002074898220786862
362.0, 0.0028729629282040984
363.0, 0.0028117296040255555
364.0, 0.0030761575853416484
365.0, 0.002834601521122499
366.0, 0.0026308088476398417
367.0, 0.0028621583776229395
368.0, 0.002991699602929033
369.0, 0.003278598555636368
370.0, 0.0031282574442352343
371.0, 0.0029682316190588103
372.0, 0.003198349288145157
373.0, 0.003614497707641308
374.0, 0.003047387077553207
375.0, 0.003123106175235524
376.0, 0.003463919012435763
377.0, 0.0033877625797209586
378.0, 0.003202680811292721
379.0, 0.0033901535166911746
380.0, 0.003956424957847556
381.0, 0.0033360903354277176
382.0, 0.0029926114359345316
383.0, 0.003891424826430575
384.0, 0.004686870251661703
385.0, 0.00432882741584903
386.0, 0.004238291848775201
387.0, 0.0047921843895357445
388.0, 0.0053997685620474295
389.0, 0.005597410095487934
390.0, 0.005988442738156464
391.0, 0.006820217525317256
392.0, 0.0068522310646897564
393.0, 0.007158315636104273
394.0, 0.007469173774030939
395.0, 0.008321058162897358
396.0, 0.009797205853518752
397.0, 0.011597065724715465
398.0, 0.013151810731780667
399.0, 0.015978673178215635
400.0, 0.018522209158610057
401.0, 0.022849967021272954
402.0, 0.028579301076963173
403.0, 0.03493480762382614
404.0, 0.04212556531395595
405.0, 0.05171530016471076
406.0, 0.06138102331745324
407.0, 0.07241836149542019
408.0, 0.08253234572739808
409.0, 0.09165247513469159
410.0, 0.10418015324304117
411.0, 0.11584016593924396
412.0, 0.12513581131730953
413.0, 0.13202734021313484
414.0, 0.13545762703765213
415.0, 0.13436987361588626
416.0, 0.12810521121050225
417.0, 0.11509281421131475
418.0, 0.0994574311904321
419.0, 0.08263188954991725
420.0, 0.06632580840710435
421.0, 0.05234265818074578
422.0, 0.04173615322949099
423.0, 0.031538800963592586
424.0, 0.025080779393298922
425.0, 0.021160746649675412
426.0, 0.017705793816456677
427.0, 0.014323558614750228
428.0, 0.011932235996436145
429.0, 0.009575870457986553
430.0, 0.00876873076725584
431.0, 0.008297475859400267
432.0, 0.007518039856180374
433.0, 0.006576414115687462
434.0, 0.005800936640426632
435.0, 0.004384846278010994
436.0, 0.00451919642575263
437.0, 0.004266818659009414
438.0, 0.0033337490908916722
439.0, 0.0026878689143100417
440.0, 0.0030430332145122718
441.0, 0.0031881992150146333
442.0, 0.002597125894654616
443.0, 0.0018706196529623353
444.0, 0.002358073976592995
445.0, 0.0023650349300778344
446.0, 0.001587535278499893
447.0, 0.003080919643621513
448.0, 0.0014662761340491568
449.0, 0.0011806022040092411
450.0, 0.0014760133660880461
451.0, 0.0014543673598529018
452.0, 0.0012693127454426096
453.0, 0.0018751462040685893
454.0, 0.0016258636201754314
455.0, 0.001182789232606487
456.0, 0.001345323829006415
457.0, 0.0011223045954329549
458.0, 0.0008797976537558788
459.0, 0.0015432125150374389
460.0, 0.0017455053547029036
461.0, 0.0016277801215237257
462.0, 0.001121504704456716
463.0, 0.0010004629670695572
464.0, 0.0008781738520559408
465.0, 0.0004835098060356279
466.0, 0.0009338492982480881
467.0, 0.0010015885019890986
468.0, 0.001170376226298863
469.0, 0.0016454023383478348
470.0, 0.0019288969636275261
471.0, 0.0018856596402574317
472.0, 0.002088779253451189
473.0, 0.0028990446486944544
474.0, 0.0021187714353921266
475.0, 0.0025172927719505794
476.0, 0.0037999129606702824
477.0, 0.005175430919365808
478.0, 0.005935268755804909
479.0, 0.005636756506876842
480.0, 0.007089345012246972
481.0, 0.008033785629068306
482.0, 0.00889667011701519
483.0, 0.010878457266603915
484.0, 0.013669454541685323
485.0, 0.014263344694107082
486.0, 0.018108077735522903
487.0, 0.020230094006779744
488.0, 0.02198870648664625
489.0, 0.02411194318540615
490.0, 0.026341548689969352
491.0, 0.027822044556085668
492.0, 0.02899651381810315
493.0, 0.029929969972827097
494.0, 0.02953607301601506
495.0, 0.02842561588534572
496.0, 0.026540045345900216
497.0, 0.023832407605431614
498.0, 0.021320062786376298
499.0, 0.01787175772451173
500.0, 0.014000104114309605
501.0, 0.011754083277193041
502.0, 0.010172756565308996
503.0, 0.008379224894189885
504.0, 0.006771581784000699
505.0, 0.0058182840367742945
506.0, 0.004667364362161718
507.0, 0.004215700344903116
508.0, 0.003435332128817539
509.0, 0.002932057692209128
510.0, 0.003089610410168611
511.0, 0.0012951156310214258
512.0, 0.002125063521417843
513.0, 0.0019319975461510608
514.0, 0.0011715926339630344
515.0, 0.0009750476513919392
516.0, 0.001540257956141348
517.0, 0.0018233363833137306
518.0, 0.0011905134614644396
519.0, 0.0006579335511720661
520.0, 0.0005942262730620373
521.0, 0.0005116703830718662
522.0, 0.0004767522726455695
523.0, 0.0006727544005919649
524.0, 0.0007712182332951036
525.0, 0.0008113742595421109
526.0, 0.0008911330833291984
527.0, 0.0005611930232833953
528.0, 0.00023085433239748013
529.0, 0.0001594186853527113
530.0, 0.00036389415034770414
531.0, 0.001368398068644252
532.0, 0.0007298189675604902
533.0, 0.0002804848747609026
534.0, 0.0005218331307922799
535.0, 0.0008440632661443389
536.0, 0.0007593665853956487
537.0, 0.0006864860333160078
538.0, 0.0005791104994414175
539.0, 0.0004116368419677789
540.0, 0.000305506718126219
541.0, 0.0003545820328153601
542.0, 0.0004530148217597142
543.0, 0.0005309066619044589
544.0, 0.0009311419511923578
545.0, 0.001954796411300445
546.0, 0.0018674192407670913
547.0, 0.0014111548617007231
548.0, 0.0011146809807571778
549.0, 0.0009408741071124318
550.0, 0.0006842746974505769
551.0, 0.0015708589025440244
552.0, 0.0017183564384239756
553.0, 0.001900669893078755
554.0, 0.0011821106250849503
555.0, 0.0007343588160879322
556.0, 0.00114985815814779
557.0, 0.0011009164086392942
558.0, 0.0017753653944055725
559.0, 0.002464044874434619
560.0, 0.0027141129589218463
561.0, 0.003090158693551041
562.0, 0.003392380338361124
563.0, 0.003173406853549462
564.0, 0.002704022268907604
565.0, 0.0037635673038875425
566.0, 0.003233157964503636
567.0, 0.003943477314103303
568.0, 0.004253867906305113
569.0, 0.003925532923538889
570.0, 0.004058870167902965
571.0, 0.004264595861617908
572.0, 0.0031944605439640896
573.0, 0.003865618143990364
574.0, 0.0038656856189169917
575.0, 0.003594419463245201
576.0, 0.00391844669838441
577.0, 0.0047814465191985895
578.0, 0.0043553771413655535
579.0, 0.0035694255069301226
580.0, 0.002971183505286126
581.0, 0.0035191578205779847
582.0, 0.0042739765180111735
583.0, 0.003935191712438488
584.0, 0.002562595077087897
585.0, 0.004150630957032822
586.0, 0.0037087577046835993
587.0, 0.0037868266665322574
588.0, 0.004270577789024833
589.0, 0.004325420120493554
590.0, 0.0035995114533612536
591.0, 0.0027522063011420727
592.0, 0.002586381632586306
593.0, 0.0040670378288027815
594.0, 0.003595409056087598
595.0, 0.0035772409021883533
596.0, 0.004545115385512114
597.0, 0.005344483209889777
598.0, 0.004681293988157541
599.0, 0.004621798461249532
600.0, 0.004951237120279617
601.0, 0.006197221587896127
602.0, 0.006103722149903544
603.0, 0.005382812743836924
604.0, 0.005934726347764025
605.0, 0.008125414739750316
606.0, 0.007867196298282104
607.0, 0.008858480452337813
608.0, 0.009401457723642051
609.0, 0.011187236274312005
610.0, 0.013650891233430537
611.0, 0.015260289132151857
612.0, 0.015650555839514288
613.0, 0.017462806376346035
614.0, 0.019360294606526118
615.0, 0.019597412132223106
616.0, 0.020289659780553273
617.0, 0.02129420965625652
618.0, 0.021868182657562178
619.0, 0.022429318455750302
620.0, 0.022990357443151078
621.0, 0.0214389411652289
622.0, 0.020727723280367767
623.0, 0.018855282608559207
624.0, 0.016442342838361768
625.0, 0.014657621173196033
626.0, 0.013137815214233583
627.0, 0.01060254652181609
628.0, 0.008941947189321717
629.0, 0.007432272651389888
630.0, 0.006032740673837034
631.0, 0.004958447328671791
632.0, 0.004288946427732495
633.0, 0.003793360433322676
634.0, 0.003164215544421908
635.0, 0.0015324954719732236
636.0, 0.001625822166888155
637.0, 0.0018878759991990516
638.0, 0.0015150071897227948
639.0, 0.0012850233050386236
640.0, 0.0022098381431764885
641.0, 0.0017974547592567057
642.0, 0.001539783183822367
643.0, 0.0010873430850022073
644.0, 0.0007652172427458979
645.0, 0.0005231007436920583
646.0, 0.00026005009163572706
647.0, 4.0973348086627375e-05
648.0, 0.00015739988693218632
649.0, 0.00012018729760841473
650.0, 0.00015761491700474838
651.0, 0.000531223438757346
652.0, 0.0011836957126382488
653.0, 0.0017171482902179878
654.0, 0.0019050282291357306
655.0, 0.0021419379638376863
656.0, 0.0018540234687773435
657.0, 0.004183546517902658
658.0, 0.005518609149390311
659.0, 0.006809951908159759
660.0, 0.008798462599938396
661.0, 0.011166848772482498
662.0, 0.01323937293597609
663.0, 0.017082655011597028
664.0, 0.019962867219474056
665.0, 0.023566658837731347
666.0, 0.027522683099179053
667.0, 0.03155443991342799
668.0, 0.03619760829086545
669.0, 0.04181175012585363
670.0, 0.04572479189882349
671.0, 0.04677315893944542
672.0, 0.04232973093499076
673.0, 0.03883566891387331
674.0, 0.033381732851685005
675.0, 0.02591717000791862
676.0, 0.01937886271266248
677.0, 0.01386042277227439
678.0, 0.009485328730936281
679.0, 0.00860069206780962
680.0, 0.006697009343858393
681.0, 0.0053892824447724814
682.0, 0.00461630055902728
683.0, 0.0032841318470409
684.0, 0.0013764197960452152
685.0, 0.0014596757223910464
686.0, 0.0031700510391169685
687.0, 0.0017643412604990481
688.0, 0.0016347649753351056
689.0, 0.0013287091641275826
690.0, 0.0006526412961896906
691.0, 0.0012124423678354515
692.0, 0.0012938692960543425
693.0, 0.0023128765609460237
694.0, 0.0014671879827623591
695.0, 0.0016851123971241358
696.0, 0.0012219535693601732
697.0, 0.000672160289735592
698.0, 0.0007575199307750915
699.0, 0.00015399903228433166
700.0, 0.0006935174137898391
701.0, 0.0011986857971925228
702.0, 0.0009118451015976274
703.0, 0.0008417534216698582
704.0, 0.0009151119735187497
705.0, 0.0007127130704264121
706.0, 0.0002011051358564348
707.0, 7.3457753178384e-05
708.0, 0.0007877070681199454
709.0, 0.0007294944196242374
710.0, 0.0006087479118229462
711.0, 0.0002992862437956132
712.0, 0.00014093287443480966
713.0, 0.00029487460100346817
714.0, 0.00031403226105322917
715.0, 5.290770536112236e-05
716.0, 0.0002131781645243962
717.0, 0.00010145328478800215
718.0, 6.192061036282042e-05
719.0, 0.00010569845136328315
720.0, 0.00012705035106334484
721.0, 0.0001610338559084784
722.0, 0.0004719907738240034
723.0, 0.000880505641952205
724.0, 0.0008519792742517553
725.0, 0.0014060807529204756
726.0, 0.001282864360087142
727.0, 0.0008739450187386287
728.0, 0.0008376978836382728
729.0, 0.0010522720038802277
730.0, 0.0008575980783338602
731.0, 0.0007319954325196256
732.0, 0.0009577083888426455
733.0, 0.0005565282021233432
734.0, 0.00015449210756297374
735.0, 6.807882284647453e-05
736.0, 0.0001212562982561665
737.0, 4.656160017502445e-05
738.0, 4.4092557034742575e-05
739.0, 0.000600519002232239
740.0, 0.0006262458491891428
741.0, 0.0008758921624723438
742.0, 0.0010381626684974122
743.0, 0.0011217683212668172
744.0, 0.0011794172517885708
745.0, 0.0008381684245352771
746.0, 0.0004277674066686311
747.0, 0.0006482369034536917
748.0, 0.0011289529442009981
749.0, 0.0011331355511804678
750.0, 0.0007643782073510382
751.0, 0.0005890939498352951
752.0, 0.0007305962751686254
753.0, 0.0005258228660667027
754.0, 0.0014277002426010448
755.0, 0.0005476807117856812
756.0, 0.0007586284901676039
757.0, 0.0010962498438219673
758.0, 0.0008653500489791614
759.0, 0.000847002027593045
760.0, 0.0015479372252663534
761.0, 0.0009786309300058892
762.0, 0.0005811587883082651
763.0, 0.0004061461474343081
764.0, 0.0001941579711008958
765.0, 0.0005671513445998155
766.0, 0.0012280472142632368
767.0, 0.001210726514499493
768.0, 0.0007243253856779097
769.0, 0.0022684661465835402
770.0, 0.0012444271100480642
771.0, 0.001190740129853439
772.0, 0.0008149752448797855
773.0, 0.001759649907905771
774.0, 0.0016590066395023233
775.0, 0.0006235589298696244
776.0, 0.0013186811041439044
777.0, 0.0029736920981134553
778.0, 0.0017374916598868547
779.0, 0.0015395261212883984
780.0, 0.0023771434550914337
781.0, 0.0022964525345028864
782.0, 0.0017088892271615124
783.0, 0.001106054585898123
784.0, 0.0004326358222366582
785.0, 0.0001284637088108464
786.0, 9.222097222484323e-06
787.0, 0.0014345677816336156
788.0, 0.0008241814434330787
789.0, 0.0004132805096790519
790.0, 0.0008694395739757295
791.0, 0.0014410341155027936
792.0, 0.0013012356218034516
793.0, 0.0007910655942953135
794.0, 0.0012075359645557096
795.0, 0.0007647857394978455
796.0, 0.0012162915995914266
797.0, 0.00121873949804765
798.0, 0.0008960366127034737
799.0, 0.0007521381011527525
800.0, 0.0009854372558597848
801.0, 0.0013733151142194804
802.0, 0.0014833894543360975
803.0, 0.0017725198778589936
804.0, 0.0017217690610205694
805.0, 0.0010901459368520502
806.0, 0.0013185255032495936
807.0, 0.001578823663606035
808.0, 0.0013759058000423299
809.0, 0.001990986042300765
810.0, 0.0018064942496996638
811.0, 0.0016677830883834895
812.0, 0.0015005818303998736
813.0, 0.001379592515821061
814.0, 0.0018331038589450715
815.0, 0.00201258674227052
816.0, 0.001562707289035973
817.0, 0.001503530565937468
818.0, 0.0024813106127829195
819.0, 0.0002815176283660595
820.0, 0.0013437644133017473
821.0, 0.0020152964089940432
822.0, 0.0013649639055045403
823.0, 0.0012034318398867455
824.0, 0.0018753827289971598
825.0, 0.0022104988630992457
826.0, 0.002096177260492843
827.0, 0.0022725080529991492
828.0, 0.001473180553885827
829.0, 0.001984947086876823
830.0, 0.0021657814267784232
831.0, 0.0016406744961846307
832.0, 0.00143186479044998
833.0, 0.0018883006071921471
834.0, 0.001922210175523394
835.0, 0.0013510189340044513
836.0, 0.0010582502815234002
837.0, 0.0016916402493974486
838.0, 0.0017085575893017611
839.0, 0.0018833673728172596
840.0, 0.0020019089888068317
841.0, 0.0020838887398887057
842.0, 0.002191935026832896
843.0, 0.0014880464745278723
844.0, 0.0007498717855952633
845.0, 0.0007220421621783761
846.0, 0.00021768993439378047
847.0, 0.00064121298966691
848.0, 0.0007049050941462111
849.0, 0.0003529984457461059
850.0, 0.00018199177705439126
851.0, 0.0004829059331913927
852.0, 0.001985819967817308
853.0, 0.0003743853627753014
854.0, 0.0009295745274533876
855.0, 0.0011855142791675358
856.0, 0.0006748994653464741
857.0, 0.00044001913812387295
858.0, 0.0005392789961070001
859.0, 0.00044587139883836834
860.0, 0.0004974208419201882
861.0, 0.0005793527630081845
862.0, 0.00032529263886803625
863.0, 0.000682258093906732
864.0, 0.0006097767817779854
865.0, 0.0006825627278798742
866.0, 0.0006626571495237483
867.0, 0.0003720367836545054
868.0, 0.00023232624367571804
869.0, 0.0005777837675257413
870.0, 0.0010345236457880024
871.0, 0.001011695539028062
872.0, 0.0010536504197009725
873.0, 0.001764638532758962
874.0, 0.001534983686790834
875.0, 0.0006378807822137564
876.0, 0.0002495579316790459
877.0, 0.0005843087761715825
878.0, 0.0009711930993007016
879.0, 0.001110231057443384
880.0, 0.001233962713513161
881.0, 0.000904579027601116
882.0, 0.0007563241902396882
883.0, 0.0005328969501768373
884.0, 0.00039810578857169335
885.0, 0.00043821586759233233
886.0, 0.00029520342811953707
887.0, 0.00022870108676238308
888.0, 1.5019706147727328e-05
889.0, 0.00044327327857632715
890.0, 0.0006328593204295405
891.0, 0.0005333221318794539
892.0, 0.0005067200620662356
893.0, 0.0005345545280228389
894.0, 0.0004099982308915002
895.0, 0.0005243239578424068
896.0, 0.0019417862812760804
897.0, 0.0006549645553819638
898.0, 0.0010548490575842812
899.0, 0.00047225696054901847
900.0, 0.0007368994148679207
901.0, 0.0005845592047388977
902.0, 0.0002984464674542668
903.0, 0.00045750550364395215
904.0, 0.00018621250125115256
905.0, 0.00038520797679266687
906.0, 0.0012060934858912564
907.0, 0.0003912849102451652
908.0, 0.0008026496703560921
909.0, 0.0005304316769610854
910.0, 0.0006880073614101205
911.0, 0.0008120641026910587
912.0, 0.0007018968106284209
913.0, 0.0016056647138521034
914.0, 0.0021204212704027314
915.0, 0.0022501984602320614
916.0, 0.0007576498683864523
917.0, 0.0010323843166621086
918.0, 0.0010260156069672385
919.0, 0.0007513038008966966
920.0, 0.0010327538995845952
921.0, 0.0011497764732148162
922.0, 0.0003373800920804669
923.0, 0.0011464820956667268
924.0, 0.0011645643954941464
925.0, 0.0015816479710935275
926.0, 0.0012455034868931489
927.0, 0.0009202709948689632
928.0, 0.0012523341855012217
929.0, 0.0017043204706034003
930.0, 0.0016207236758457358
931.0, 0.0009418097694748647
932.0, 0.00023296687792690422
933.0, 0.00132791810071158
934.0, 0.00041882786760359734
935.0, 0.000663946849607251
936.0, 0.000457459942040854
937.0, 0.0004976800101358243
938.0, 0.0006360508344169255
939.0, 0.0009118548151142797
940.0, 0.0009525021248527653
941.0, 6.327318945638808e-05
942.0, 0.00025055207556880303
943.0, 0.0007792364462329894
944.0, 0.000610148883538205
945.0, 0.0008651067333931895
946.0, 0.0013023308210703168
947.0, 0.0007807669986419371
948.0, 0.0006358015440701846
949.0, 0.0010515375103717643
950.0, 0.0006214813168059496
951.0, 0.0005652364912451181
952.0, 0.0004106176069368175
953.0, 0.0002495611021033567
954.0, 0.00042580921071371934
955.0, 0.0003209295708157454
956.0, 0.0006426085727103205
957.0, 0.0010973821652752668
958.0, 0.0012970720085302993
959.0, 0.0012132189625870097
960.0, 0.001065565118068081
961.0, 0.0014581508825099285
962.0, 0.0016499677543512915
963.0, 0.002402509653953333
964.0, 0.0024847741088499103
965.0, 0.0031887457432432623
966.0, 0.0036952330504943496
967.0, 0.004365815213894763
968.0, 0.004955718726550009
969.0, 0.0045153040458626266
970.0, 0.0037552485581279866
971.0, 0.003966218184640188
972.0, 0.0036825328903466875
973.0, 0.005485629442570337
974.0, 0.005920392713797358
975.0, 0.006234662798670067
976.0, 0.007176944841581161
977.0, 0.007890024103161279
978.0, 0.008202408715832126
979.0, 0.009112866678542393
980.0, 0.010040080410748171
981.0, 0.008937374930321762
982.0, 0.013086530781382917
983.0, 0.015350462516951617
984.0, 0.015648351271508452
985.0, 0.017346535209422826
986.0, 0.020413208095137428
987.0, 0.022832847316974547
988.0, 0.024780161870095536
989.0, 0.02780120759713872
990.0, 0.029732047309142317
991.0, 0.03236172548075103
992.0, 0.03680700466898189
993.0, 0.04145486726029556
994.0, 0.047819349978206284
995.0, 0.056831636692827196
996.0, 0.06861470841255247
997.0, 0.08536422958448775
998.0, 0.11088845705878549
999.0, 0.14991925436549064
1000.0, 0.2108954246584569
1001.0, 0.30844367588490895
1002.0, 0.4258118684639939
1003.0, 0.5466878052239513
1004.0, 0.6708636217183542
1005.0, 0.8021696950006523
1006.0, 0.9173663554168394
1007.0, 0.9834906893871708
1008.0, 0.9802715753572844
1009.0, 0.9041224670800302
1010.0, 0.7598173290071198
1011.0, 0.575729938176913
1012.0, 0.39954885981549243
1013.0, 0.2690596605544265
1014.0, 0.18119946642822324
1015.0, 0.12869502055932525
1016.0, 0.09500295532111398
1017.0, 0.07267656221705009
1018.0, 0.05798642614412932
1019.0, 0.046242002909778646
1020.0, 0.038516295580621966
1021.0, 0.03189817777351927
1022.0, 0.028487899903655522
1023.0, 0.024395098119970735
1024.0, 0.02058551554063409
1025.0, 0.017597064817379663
1026.0, 0.01582000029009934
1027.0, 0.01437913125488592
1028.0, 0.012510965062589035
1029.0, 0.01109787299259579
1030.0, 0.010771131220284955
1031.0, 0.008007554782538808
1032.0, 0.009583440240721953
1033.0, 0.009259277462635121
1034.0, 0.00871329082636465
1035.0, 0.006643605214993488
1036.0, 0.006603004804100498
1037.0, 0.006589052384863176
1038.0, 0.005336046093668224
1039.0, 0.004682695698605363
1040.0, 0.004983083695633204
1041.0, 0.003232507852562028
1042.0, 0.0037763036302728512
1043.0, 0.0033674048440548673
1044.0, 0.0028674845295191854
1045.0, 0.003084769489696869
1046.0, 0.002813522194526645
1047.0, 0.002833581428855598
1048.0, 0.002389727443283623
1049.0, 0.0013017960630230057
1050.0, 0.0011012136940119512
1051.0, 0.002450070189109118
1052.0, 0.003137120975132698
1053.0, 0.0007776820504909049
1054.0, 0.001885484130036922
1055.0, 0.0030989702125847085
1056.0, 0.002418612126599322
1057.0, 0.0018873622292213872
1058.0, 0.0016016760302619006
1059.0, 0.000890120000585351
1060.0, 0.001081361479274138
1061.0, 0.0025719211236335648
1062.0, 0.0020240585761795394
1063.0, 0.0024727085959133834
1064.0, 0.0023758799370737246
1065.0, 0.001771160266983849
1066.0, 0.002814711636576033
1067.0, 0.0023916352316719646
1068.0, 0.0019159328259164964
1069.0, 0.002073739733597276
1070.0, 0.002057537485601605
1071.0, 0.0018743377083674977
1072.0, 0.002531385349371967
1073.0, 0.003445595344912928
1074.0, 0.003184651508697722
1075.0, 0.0007113698232719028
1076.0, 0.0016310055814082146
1077.0, 0.0015370980667499517
1078.0, 0.004058773247425308
1079.0, 0.004584295619178085
1080.0, 0.0035981769487239646
1081.0, 0.003913076820274753
1082.0, 0.003989925282425452
1083.0, 0.002052144277247883
1084.0, 0.002808338980800527
1085.0, 0.0020594139200165616
1086.0, 0.0019975294939030617
1087.0, 0.002858232041381671
1088.0, 0.004203950912418058
1089.0, 0.0038044261157427375
1090.0, 0.004589039054710507
1091.0, 0.005291921652141575
1092.0, 0.0052819701665775595
1093.0, 0.005408755057098291
1094.0, 0.00626389930685718
1095.0, 0.007532263380253097
1096.0, 0.006221225223331257
1097.0, 0.007719581558692805
1098.0, 0.008127340716023317
1099.0, 0.007810129342085223
1100.0, 0.009582650722174573
1101.0, 0.010635791989631764
1102.0, 0.01152078644357269
1103.0, 0.011751025688390314
1104.0, 0.012059110040784271
1105.0, 0.013441950172320758
1106.0, 0.014249111768560701
1107.0, 0.015324867729623987
1108.0, 0.018283522453184712
1109.0, 0.018355564634865224
1110.0, 0.020469983563350894
1111.0, 0.02227363361320228
1112.0, 0.02486398348142123
1113.0, 0.026152214631000648
1114.0, 0.02677204067129371
1115.0, 0.027408406623224135
1116.0, 0.02793607844692695
1117.0, 0.028848822662381094
1118.0, 0.029849601078314483
1119.0, 0.027756058584958103
1120.0, 0.026085594198893253
1121.0, 0.02799202898245608
1122.0, 0.02764704525799626
1123.0, 0.02977436430465224
1124.0, 0.03160519215769781
1125.0, 0.033554672042209535
1126.0, 0.038114426798980736
1127.0, 0.045944701705320626
1128.0, 0.055391206441673585
1129.0, 0.06571736990164988
1130.0, 0.07887647705631498
1131.0, 0.0941193923068647
1132.0, 0.10850414035081088
1133.0, 0.11869345284197404
1134.0, 0.12599484815392817
1135.0, 0.12395852305426597
1136.0, 0.11929956112691938
1137.0, 0.11003848140068777
1138.0, 0.09594664971103392
1139.0, 0.08059743971050143
1140.0, 0.06632448235281821
1141.0, 0.053376844046852424
1142.0, 0.042207477121777325
1143.0, 0.033774261366166965
1144.0, 0.02831790524706342
1145.0, 0.025018534911842874
1146.0, 0.019887888554548074
1147.0, 0.015875465427635498
1148.0, 0.013949308170808538
1149.0, 0.012178685305783032
1150.0, 0.010118948657623528
1151.0, 0.008318410141266813
1152.0, 0.007280132696980464
1153.0, 0.007024481527171663
1154.0, 0.005490423728252905
1155.0, 0.003752596229130588
1156.0, 0.0041267569524238434
1157.0, 0.003076458052842706
1158.0, 0.0035536432794750165
1159.0, 0.003325079157481372
1160.0, 0.002718025820545584
1161.0, 0.0036117408983367917
1162.0, 0.0031011070678123114
1163.0, 0.0017913002593415224
1164.0, 0.002004885915770761
1165.0, 0.0014800334824188733
1166.0, 0.0006318063025673149
1167.0, 0.0035480689426656063
1168.0, 0.0019393490708596122
1169.0, 0.0001931080599492823
1170.0, 0.0019291452693450234
1171.0, 0.0015850218760529206
1172.0, 0.001092671544801707
1173.0, 0.000855221918549472
1174.0, 0.000893224528659132
1175.0, 0.0009179202244325394
1176.0, 0.0008311531171643961
1177.0, 0.0008339665417483658
1178.0, 0.0007480137688174964
1179.0, 0.000537707036262906
1180.0, 0.0002910858409052721
1181.0, 0.0004516103346175382
1182.0, 0.00021999150261078164
1183.0, 0.00027789468508027993
1184.0, 0.0001900931962621096
1185.0, 0.0003577905974778275
1186.0, 0.0004049036638088278
1187.0, 0.000936846488696159
1188.0, 0.001524533229117403
1189.0, 0.0010639747359805956
1190.0, 0.0004004446081415274
1191.0, 0.0011868054320292591
1192.0, 0.0016391410378402073
1193.0, 0.00031925512441007616
1194.0, 0.0019296879478583645
1195.0, 0.002549408454289706
1196.0, 0.0025816279530295138
1197.0, 0.0017390204634066928
1198.0, 0.00124128514230411
1199.0, 0.0012757815179464
1200.0, 0.0011556864906832316
1201.0, 0.0008130854326851356
1202.0, 0.000608681346857622
1203.0, 0.0010884294693618221
1204.0, 0.0023155820887895157
1205.0, 0.0006188290952789611
1206.0, 0.0008522718327757034
1207.0, 0.0020831753264371807
1208.0, 0.00047810283449794665
1209.0, 0.0013076278509005106
1210.0, 0.0016812965174966582
1211.0, 0.000753590856586113
1212.0, 0.0008259981126322838
1213.0, 0.0014082059602185558
1214.0, 0.0016981078396159676
1215.0, 0.0013099622766887808
1216.0, 0.00046977656305685893
1217.0, 0.0009610736896690619
1218.0, 0.0007208744369756492
1219.0, 0.0003754493183438492
1220.0, 0.0006229573086775678
1221.0, 0.0016383609627018657
1222.0, 0.001353830581424576
1223.0, 0.0016832625521912602
1224.0, 0.0006793842523701119
1225.0, 0.0009318204661646794
1226.0, 0.0009290983828475914
1227.0, 0.0004604659670929257
1228.0, 0.0004229482179918359
1229.0, 0.00029522524419339953
1230.0, 0.00012381421045694476
1231.0, 0.00046571940894223475
1232.0, 0.0004629738695122311
1233.0, 0.0007934911082383168
1234.0, 0.0007091002453858471
1235.0, 0.00022969414284654312
1236.0, 0.0013657174546378124
1237.0, 0.0012476344702566848
1238.0, 0.0018833997527506617
1239.0, 0.0014498520646737104
1240.0, 0.000770267337534323
1241.0, 0.00043638013901828304
1242.0, 0.0005375609264668249
1243.0, 0.0014036962244684571
1244.0, 0.0016232532905927298
1245.0, 0.0012856038023476863
1246.0, 0.002867171340006245
1247.0, 0.002586734837156125
1248.0, 0.0009972754478738822
1249.0, 0.0026759484541083924
1250.0, 0.0008009679183643823
1251.0, 0.0009675609062261652
1252.0, 0.0014033949100702334
1253.0, 0.0009302701225737885
1254.0, 0.0012542853169426593
1255.0, 0.0019267046931409906
1256.0, 0.0017502891366844317
1257.0, 0.0019958513875854614
1258.0, 0.0027585507866985434
1259.0, 0.0011537559087503643
1260.0, 0.0006631159635183091
1261.0, 0.0010616259711825119
1262.0, 0.0014276497491392387
1263.0, 0.0012331449333347752
1264.0, 0.0010868592579975737
1265.0, 0.0005851279837896251
1266.0, 0.001040367869053678
1267.0, 0.0017544946482383047
1268.0, 0.0019496952690096607
1269.0, 0.001758421554934756
1270.0, 0.0015572382412416647
1271.0, 0.0014027893877410062
1272.0, 0.0012242151699016148
1273.0, 0.001085116212678058
1274.0, 0.0010041083894839486
1275.0, 0.0008169521617723569
1276.0, 0.0006302526142943824
1277.0, 0.0007836248729140223
1278.0, 0.0002297832256763976
1279.0, 0.0006806844679794112
1280.0, 0.001393668045119971
1281.0, 0.0010588524283199352
1282.0, 0.0017287261256992807
1283.0, 0.0014892209103100622
1284.0, 0.0005455833228404819
1285.0, 0.0013081194515591698
1286.0, 0.002541626380665017
1287.0, 0.0022937623783151747
1288.0, 0.002879377360884107
1289.0, 0.003136614114995059
1290.0, 0.002907072185006417
1291.0, 0.0025658297908110962
1292.0, 0.0025298800349355635
1293.0, 0.00123758896631848
1294.0, 0.00021193737989865684
1295.0, 0.00040307030342880167
1296.0, 0.0005722893957218829
1297.0, 0.0005582856167683926
1298.0, 0.00027010662496983044
1299.0, 0.0004423416066007921
1300.0, 0.0014499134663561073
1301.0, 0.0023883780722476545
1302.0, 0.0022640370797022
1303.0, 0.0010343918575808665
1304.0, 0.0006446799689789763
1305.0, 0.0024975042905071494
1306.0, 0.00025711852139475547
1307.0, 0.0027298546977516146
1308.0, 0.002648714620796155
1309.0, 0.00199529001727665
1310.0, 0.0017348863780181339
1311.0, 0.0018503592203182439
1312.0, 0.00144486536875484
1313.0, 0.0014266600960135185
1314.0, 0.0011249366768211384
1315.0, 0.0006420906976828738
1316.0, 0.00113751902982312
1317.0, 0.0017558411617265173
1318.0, 0.0010320057984574307
1319.0, 0.00047937989533531093
1320.0, 0.0023862019634200847
1321.0, 0.0019220518769627031
1322.0, 0.0021354798181984404
1323.0, 0.0005006375677141082
1324.0, 0.0028812787393265086
1325.0, 0.0018003435629937992
1326.0, 0.0012199397500072505
1327.0, 0.0020772958964338493
1328.0, 0.0029053717952858826
1329.0, 0.0032733501386243706
1330.0, 0.002898085124554575
1331.0, 0.0019892264755338304
1332.0, 0.0019835074906529556
1333.0, 0.0023309402078430025
1334.0, 0.0009793956341204268
1335.0, 0.00068223376390454
1336.0, 0.0014577545003036537
1337.0, 0.0015014300989596792
1338.0, 0.002084115844120667
1339.0, 0.0013841360826220316
1340.0, 0.001912777358609338
1341.0, 0.002640962544316136
1342.0, 0.002045633663668056
1343.0, 0.0022885624708039063
1344.0, 0.0009415850362622549
1345.0, 0.0010058877909671692
1346.0, 0.0016371861640637265
1347.0, 0.0021665840213305402
1348.0, 0.002952731280887027
1349.0, 0.002638086774158835
1350.0, 0.0016226788262132161
1351.0, 0.0014877644138379994
1352.0, 0.0005629975168267815
1353.0, 0.002975704169069117
1354.0, 0.0026433817581707746
1355.0, 0.0043302792988742424
1356.0, 0.0026453819033028974
1357.0, 0.0016227264503313873
1358.0, 0.0008243610453200062
1359.0, 0.002257474351319431
1360.0, 0.0022206569487979505
1361.0, 0.0014967883760341263
1362.0, 0.0012910949780724171
1363.0, 0.0011987887779314238
1364.0, 0.0007396012990055449
1365.0, 0.0007258650043356413
1366.0, 0.0011775168150463856
1367.0, 0.0016563798864788041
1368.0, 0.0025832445466065007
1369.0, 0.0015464601207703372
1370.0, 0.0016395311046649653
1371.0, 0.0010378791713417318
1372.0, 0.0005565342200730343
1373.0, 0.002772129291993015
1374.0, 0.000492891965322256
1375.0, 0.001516764573527507
1376.0, 0.0006328426703367412
1377.0, 0.0002963474080159236
1378.0, 0.0013263532859036397
1379.0, 0.0021247250175852796
1380.0, 0.0023923403249880015
1381.0, 0.0019313546623800954
1382.0, 0.001743849885622844
1383.0, 0.0015530643285335613
1384.0, 0.0007812152985951548
1385.0, 0.0009916875248673178
1386.0, 0.0010299772273785575
1387.0, 0.000437115516233259
1388.0, 0.0013096482280592664
1389.0, 0.002306032014561921
1390.0, 0.0011204348830065383
1391.0, 0.0008026584514790107
1392.0, 0.002333841358155114
1393.0, 0.0014313487628360726
1394.0, 0.0011547894333033013
1395.0, 0.00030153090155340896
1396.0, 0.00017901518460975007
1397.0, 0.0005234119978387459
1398.0, 0.0006181432918000641
1399.0, 0.0012953303329908366
1400.0, 0.0018125247866853415
1401.0, 0.0017924937330360319
1402.0, 0.0014343252483581198
1403.0, 0.0009360494237799391
1404.0, 0.0015401101965420987
1405.0, 0.0010855615111247758
1406.0, 0.0012162139702721728
1407.0, 0.001965857984080918
1408.0, 0.0028518650629180305
1409.0, 8.47530398963574e-06
1410.0, 0.0012486681470128057
1411.0, 0.0012209134615618388
1412.0, 0.0006854720449152936
1413.0, 0.0015358000366151243
1414.0, 0.0013843290851059077
1415.0, 0.0019689967993043447
1416.0, 0.0015719722466754763
1417.0, 0.0014192474628675778
1418.0, 0.000751847617917256
1419.0, 0.00027088962697710295
1420.0, 0.0013000405353609
1421.0, 0.0018161152017924208
1422.0, 0.0013194811985505566
1423.0, 0.001901906688977628
1424.0, 0.0018543214727084292
1425.0, 0.0012401121005711471
1426.0, 0.0004885220077588939
1427.0, 0.002284891816302036
1428.0, 0.00011094539314284889
1429.0, 0.001232718195848085
1430.0, 0.0022484111440418835
1431.0, 0.0020108390806593997
1432.0, 0.0020155368088635084
1433.0, 0.0017879914194812434
1434.0, 0.0017239358458352168
1435.0, 0.0017156591775812022
1436.0, 0.001579767510224083
1437.0, 0.0017016041480404725
1438.0, 0.0014845740349778134
1439.0, 0.0013306402744417251
1440.0, 0.0014345779129566892
1441.0, 0.0012320038696921351
1442.0, 0.0015768606272615552
1443.0, 0.002071055626945316
1444.0, 0.000986925566567764
1445.0, 0.0019609002158718605
1446.0, 0.002867756530870217
1447.0, 0.0017069498624441922
1448.0, 0.001233475572276216
1449.0, 0.0026418837605636718
1450.0, 0.002338211966886216
1451.0, 0.002084231199301692
1452.0, 0.0011049011980377192
1453.0, 0.00042592326476309966
1454.0, 0.001730202831586778
1455.0, 0.0013092448904129734
1456.0, 0.002727897664909597
1457.0, 0.0019389156987978304
1458.0, 0.0014598417462581416
1459.0, 0.001397206149482133
1460.0, 0.0011796471085780357
1461.0, 0.0010359076246990104
1462.0, 0.000456258416895736
1463.0, 0.0010589733568653174
1464.0, 0.0028867289298704487
1465.0, 0.0033459618499287187
1466.0, 0.002647757544606672
1467.0, 0.00016079839563197228
1468.0, 0.00047687091218899774
1469.0, 0.0003719488975385454
1470.0, 0.0017004887193596383
1471.0, 0.00047890280955253733
1472.0, 0.002028431110328352
1473.0, 0.0007579189553911539
1474.0, 0.002426008864221647
1475.0, 0.0021539696300443326
1476.0, 0.001693258238884534
1477.0, 0.001506920155069175
1478.0, 0.0021623531580725833
1479.0, 0.001582862760412692
1480.0, 0.002122657299854562
1481.0, 0.0027939476777543355
1482.0, 0.001710370688013872
1483.0, 0.001415463228496339
1484.0, 0.002380812113348066
1485.0, 0.002256357475873395
1486.0, 0.002125923649561771
1487.0, 0.0029045926913546854
1488.0, 0.0027511265847346414
1489.0, 0.001224566245404885
1490.0, 0.00018195662648628135
1491.0, 0.001132463878862227
1492.0, 0.0004117626314145659
1493.0, 0.00010502798031045753
1494.0, 0.0020873523621554517
1495.0, 0.00020460064442608583
1496.0, 0.001555599046552052
1497.0, 0.0015532060086397936
1498.0, 0.0007090951860446004
1499.0, 0.0021898960132778773
1500.0, 0.003078793217276767
1501.0, 0.001600653652966477
1502.0, 0.002007995737561671
1503.0, 0.0020280867748402663
1504.0, 0.0022396821047999003
1505.0, 0.0030527175375110447
1506.0, 0.003420053298225896
1507.0, 0.0027344214686639014
1508.0, 0.0020066919548026585
1509.0, 0.0022950363528070586
1510.0, 0.0020105414532807465
1511.0, 0.0020738922976335956
1512.0, 0.0024823904852096738
1513.0, 0.0015503738378396118
1514.0, 0.0023676521425501566
1515.0, 0.0024387644084693143
1516.0, 0.0027971816102015565
1517.0, 0.002272325026641641
1518.0, 0.0020727862859182093
1519.0, 0.0028150429223559167
1520.0, 0.0030648987983518516
1521.0, 0.002539799901073917
1522.0, 0.002886425129978112
1523.0, 0.0017631798363462218
1524.0, 0.0016576475243119245
1525.0, 0.00245804680639758
1526.0, 0.002354814951745288
1527.0, 0.0025051654556318354
1528.0, 0.0027404995186870638
1529.0, 0.001411771113173319
1530.0, 0.0012724808759567805
1531.0, 0.0015467970796525098
1532.0, 0.0008934760473662787
1533.0, 0.0011023273329409773
1534.0, 0.0010570496329001258
1535.0, 0.0009894089614552143
1536.0, 0.001775862469818981
1537.0, 0.00016229584502155267
1538.0, 0.001185659149649295
1539.0, 0.003019255916227031
1540.0, 0.002122019629602931
1541.0, 0.0011489404642024104
1542.0, 0.0016079311997001492
1543.0, 0.0022456533630392716
1544.0, 0.0029451923206158317
1545.0, 0.0029883128370241214
1546.0, 0.0032541736807489043
1547.0, 0.002814743739958174
1548.0, 0.0033089460898353133
1549.0, 0.0027262487309650365
1550.0, 0.0027887397232272968
1551.0, 0.0016963927957751607
1552.0, 0.0008646156564003894
1553.0, 0.0015057115935395336
1554.0, 0.0019955176741389656
1555.0, 0.0016232424609691994
1556.0, 0.0020212653787289947
1557.0, 0.0027705399263345904
1558.0, 0.0030008835694114006
1559.0, 0.0015996650320561927
1560.0, 0.0006484256493350859
1561.0, 0.0011138589574901123
1562.0, 0.00041809557406220354
1563, 0.0
1564, 0.0
1565, 0.0
1566, 0.0
1567, 0.0
1568, 0.0
1569, 0.0
1570, 0.0
1571, 0.0
1572, 0.0
1573, 0.0
1574, 0.0
1575, 0.0
1576, 0.0
1577, 0.0
1578, 0.0
1579, 0.0
1580, 0.0
1581, 0.0
1582, 0.0
1583, 0.0
1584, 0.0
1585, 0.0
1586, 0.0
1587, 0.0
1588, 0.0
1589, 0.0
1590, 0.0
1591, 0.0
1592, 0.0
1593, 0.0
1594, 0.0
1595, 0.0
1596, 0.0
1597, 0.0
1598, 0.0
1599, 0.0
