30, 0.0
31, 0.0
32, 0.0
33, 0.0
34, 0.0
35, 0.0
36, 0.0
37, 0.0
38, 0.0
39, 0.0
40, 0.0
41, 0.0
42, 0.0
43, 0.0
44, 0.0
45, 0.0
46, 0.0
47, 0.0
48, 0.0
49, 0.0
50, 0.0
51, 0.0
52, 0.0
53, 0.0
54, 0.0
55, 0.0
56, 0.0
57, 0.0
58, 0.0
59, 0.0
60, 0.0
61, 0.0
62, 0.0
63, 0.0
64, 0.0
65, 0.0
66, 0.0
67, 0.0
68, 0.0
69, 0.0
70, 0.0
71, 0.0
72, 0.0
73, 0.0
74, 0.0
75, 0.0
76, 0.0
77, 0.0
78, 0.0
79, 0.0
80, 0.0
81, 0.0
82, 0.0
83, 0.0
84, 0.0
85, 0.0
86, 0.0
87, 0.0
88, 0.0
89, 0.0
90, 0.0
91, 0.0
92, 0.0
93, 0.0
94, 0.0
95, 0.0
96, 0.0
97, 0.0
98, 0.0
99, 0.0
100, 0.0
101.0, 0.0005387183638277037
102.0, 0.0011707085672129146
103.0, 0.005580476808678551
104.0, 0.004003741583708264
105.0, 0.0006113706815312754
106.0, 0.00152033170541769
107.0, 0.0033588518706812536
108.0, 0.0028632243029140343
109.0, 0.0024229480565319604
110.0, 0.0031613579843067898
111.0, 0.00766908305964141
112.0, 0.009524267807900784
113.0, 0.0037091574666818215
114.0, 0.016452283035733737
115.0, 0.021899765483295874
116.0, 0.019901388438574908
117.0, 0.018020647144109135
118.0, 0.019477671918429043
119.0, 0.03112615566948459
120.0, 0.036314786905136405
121.0, 0.032095419377842486
122.0, 0.03945915310638551
123.0, 0.04987102041145763
124.0, 0.053635199696292976
125.0, 0.051848870101233985
126.0, 0.05312251854653207
127.0, 0.060375150445147366
128.0, 0.059698017164504125
129.0, 0.05589828286262155
130.0, 0.06391094535114852
131.0, 0.07214442895096967
132.0, 0.08202406019452457
133.0, 0.08730620592870232
134.0, 0.08408616571860957
135.0, 0.0825265250290605
136.0, 0.0773477596418685
137.0, 0.06860135188085902
138.0, 0.05988211447426262
139.0, 0.06281616903015246
140.0, 0.06274954211712529
141.0, 0.06364267647698701
142.0, 0.0671922122774951
143.0, 0.0743571945581207
144.0, 0.07182402355544118
145.0, 0.07087018119356839
146.0, 0.07020032487747091
147.0, 0.06586110721669573
148.0, 0.07569363332551711
149.0, 0.0839070008535657
150.0, 0.08418732103366296
151.0, 0.0811260138069014
152.0, 0.08594184734179124
153.0, 0.089299982045953
154.0, 0.08793386422825487
155.0, 0.08108919082080111
156.0, 0.06760798382282004
157.0, 0.05462281304937974
158.0, 0.05226906856080845
159.0, 0.05168510785846888
160.0, 0.037636393388545054
161.0, 0.0367643789728056
162.0, 0.024259105239711084
163.0, 0.012064116991952105
164.0, 0.01915306573651544
165.0, 0.009758860011998265
166.0, 0.00728556430654098
167.0, 0.004466671649974679
168.0, 0.004358532885358063
169.0, 0.0020015075404716167
170.0, 0.004130843247567238
171.0, 0.0026695700449937084
172.0, 0.0036440735633065766
173.0, 0.002812135071876379
174.0, 0.0020280896368008237
175.0, 0.0016638667197248563
176.0, 0.0035359880543847926
177.0, 0.003208483484338633
178.0, 0.00022345892509299347
179.0, 0.0023123937063750733
180.0, 0.00449404860847093
181.0, 0.007781632358729106
182.0, 0.009235407267125215
183.0, 0.0025139496267536704
184.0, 0.002829046845096694
185.0, 0.006501715490526466
186.0, 0.004806266994110693
187.0, 0.006161171146301127
188.0, 0.010152643690015473
189.0, 0.016553239030714983
190.0, 0.02180475603974317
191.0, 0.037074213608100266
192.0, 0.04250057275215439
193.0, 0.05104763170933225
194.0, 0.06556307912538946
195.0, 0.07261428021027459
196.0, 0.08393035024509506
197.0, 0.10123414072691204
198.0, 0.11327972197563342
199.0, 0.11348400893883005
200.0, 0.13025072849751484
201.0, 0.14125070948176893
202.0, 0.14919704603980946
203.0, 0.15887381090078762
204.0, 0.16219069611267864
205.0, 0.16355582837365507
206.0, 0.18103444968780222
207.0, 0.20461890517236392
208.0, 0.21438794233016828
209.0, 0.22250443201617945
210.0, 0.2331014520533525
211.0, 0.2499788597875111
212.0, 0.27307062983174607
213.0, 0.29629476105137015
214.0, 0.32949037446970947
215.0, 0.3580925578971369
216.0, 0.38579785348496576
217.0, 0.43168299655139264
218.0, 0.4749789079181388
219.0, 0.524351213389158
220.0, 0.5635625982632744
221.0, 0.5770905218037129
222.0, 0.6105214862571984
223.0, 0.6196630908498046
224.0, 0.6012010940914397
225.0, 0.5679405734135754
226.0, 0.5374933801437889
227.0, 0.5031034555366043
228.0, 0.46796709305969547
229.0, 0.4339026288178196
230.0, 0.4013531485934796
231.0, 0.3733666602728993
232.0, 0.35756596292770615
233.0, 0.35217180554780736
234.0, 0.34755709225492676
235.0, 0.3327244453325114
236.0, 0.3227854163654256
237.0, 0.3190856913716632
238.0, 0.3175197870682282
239.0, 0.3169090373232075
240.0, 0.3243735964776008
241.0, 0.3222440422025508
242.0, 0.31051003258910637
243.0, 0.2972195990019296
244.0, 0.28882769093777416
245.0, 0.27476914847405737
246.0, 0.2617459439869716
247.0, 0.24478045944994664
248.0, 0.22292982994694718
249.0, 0.20644099739211821
250.0, 0.19089326140484417
251.0, 0.16676618051414588
252.0, 0.1412509031171175
253.0, 0.12674777780026994
254.0, 0.12419003268928912
255.0, 0.11228266103935773
256.0, 0.10104803921646595
257.0, 0.09593726338107492
258.0, 0.08554762897563287
259.0, 0.08570607699976791
260.0, 0.08199096590722849
261.0, 0.07352776192413492
262.0, 0.06833656734983179
263.0, 0.07600335906437089
264.0, 0.08113652789073629
265.0, 0.08141159879937507
266.0, 0.08369074620459029
267.0, 0.09459592897031986
268.0, 0.09474652091599305
269.0, 0.09787599676433509
270.0, 0.09980264092589283
271.0, 0.09426308833307707
272.0, 0.08993663361064447
273.0, 0.09690102329817898
274.0, 0.09457076332499628
275.0, 0.08914387113323297
276.0, 0.09119149040728891
277.0, 0.08486909624014244
278.0, 0.08698176794805025
279.0, 0.08505812555554117
280.0, 0.07966025811367344
281.0, 0.08511203825939855
282.0, 0.08507646984712006
283.0, 0.07446452646947412
284.0, 0.07025158787214777
285.0, 0.0793590341510231
286.0, 0.0745325015318243
287.0, 0.06277070189913339
288.0, 0.05936200787852173
289.0, 0.058892572434238476
290.0, 0.04627105436983929
291.0, 0.037197819548155826
292.0, 0.02625905700809681
293.0, 0.020170755622637496
294.0, 0.01957420055199583
295.0, 0.013913542773517454
296.0, 0.0021595444042097458
297.0, 0.004701460303985421
298.0, 0.0040603292117208445
299.0, 0.006177273954411461
300.0, 0.018816565892502756
301.0, 0.022647166783394457
302.0, 0.011676953065076292
303.0, 0.0018547054894585682
304.0, 0.005593043367105389
305.0, 0.011342818646991572
306.0, 0.010773520380161331
307.0, 0.00339272766905958
308.0, 0.011243337021785706
309.0, 0.0165532826180792
310.0, 0.013893361694162176
311.0, 0.01727537427844974
312.0, 0.027413849006207778
313.0, 0.033897979088181054
314.0, 0.022079695300052826
315.0, 0.01954561255620164
316.0, 0.02618992392551046
317.0, 0.03460078788165003
318.0, 0.0394822090472536
319.0, 0.04292887243228384
320.0, 0.046306695173207305
321.0, 0.05184486720908515
322.0, 0.061511712623346065
323.0, 0.07364542554174053
324.0, 0.08286935759840373
325.0, 0.09202591439126798
326.0, 0.0987894288256958
327.0, 0.10251579586354294
328.0, 0.10521009083292168
329.0, 0.11114751569410329
330.0, 0.12418551751533294
331.0, 0.11686156663824561
332.0, 0.10099914273962503
333.0, 0.10207461451872052
334.0, 0.10684567220465743
335.0, 0.10136647920005122
336.0, 0.0950391097553404
337.0, 0.08911504474966374
338.0, 0.07865485341246815
339.0, 0.07843052214509506
340.0, 0.0814544022453694
341.0, 0.08290935952837993
342.0, 0.08238353424457599
343.0, 0.08322733677391132
344.0, 0.08881654002294062
345.0, 0.09232049648911013
346.0, 0.09508441421186123
347.0, 0.09665411098457162
348.0, 0.09301569091427958
349.0, 0.09729295699918744
350.0, 0.1008602004855925
351.0, 0.10517898643797365
352.0, 0.1117937661068659
353.0, 0.11732562158921173
354.0, 0.1291234034797119
355.0, 0.1333646815717871
356.0, 0.1416343089329342
357.0, 0.16247943351551788
358.0, 0.18807398324640223
359.0, 0.1932264424928745
360.0, 0.2159070168446505
361.0, 0.24402484661394266
362.0, 0.26681238000044144
363.0, 0.30059585422000695
364.0, 0.3435210279223713
365.0, 0.37717603775573244
366.0, 0.4154490679354799
367.0, 0.4709954513849448
368.0, 0.5332589684810184
369.0, 0.5994229759765689
370.0, 0.694825597358667
371.0, 0.7893392313217613
372.0, 0.8561484517900299
373.0, 0.9332066929695401
374.0, 0.9908546117427128
375.0, 0.9856513059288377
376.0, 0.9467473277098652
377.0, 0.9058436312892173
378.0, 0.8383574557139455
379.0, 0.7590892418093378
380.0, 0.694006656034427
381.0, 0.6334782846405553
382.0, 0.5686489827608044
383.0, 0.5106893061943562
384.0, 0.46052086835567285
385.0, 0.4126065047214423
386.0, 0.3678202110375741
387.0, 0.3270401882761824
388.0, 0.2905698691257658
389.0, 0.2752635127813136
390.0, 0.26275034370640626
391.0, 0.25221354626963455
392.0, 0.24020969296130534
393.0, 0.21745229163213783
394.0, 0.22609208261126512
395.0, 0.22339400573797635
396.0, 0.21217907321822838
397.0, 0.20444791790084804
398.0, 0.20504618095158403
399.0, 0.21955671749533798
400.0, 0.22747844176512694
401.0, 0.2282338942798438
402.0, 0.23156532795376047
403.0, 0.24295010141172266
404.0, 0.24603303570344773
405.0, 0.2461311886864698
406.0, 0.252101265298072
407.0, 0.257099529705686
408.0, 0.2465405586072661
409.0, 0.2389048872297946
410.0, 0.23184528547007188
411.0, 0.20990280928693372
412.0, 0.1823763806849336
413.0, 0.1729034047593299
414.0, 0.16488339175203998
415.0, 0.14767875851972362
416.0, 0.11767013719952875
417.0, 0.08396709539739587
418.0, 0.061863447400243785
419.0, 0.055297476689137745
420.0, 0.04718042436313355
421.0, 0.03726706233113576
422.0, 0.035796354655543865
423.0, 0.03645863129389405
424.0, 0.020046921049383166
425.0, 0.0041623551749080875
426.0, 0.0035069279705658776
427.0, 0.0050315512432833635
428.0, 0.004439409314125463
429.0, 0.0037731785254913447
430.0, 0.005700994524533423
431.0, 0.007523378082962491
432.0, 0.010423436495913407
433.0, 0.008423036547096505
434.0, 0.0007522436197130055
435.0, 0.013422493844375983
436.0, 0.013797610086022497
437.0, 0.009131710393814853
438.0, 0.005266322088211001
439.0, 0.001962950009732933
440.0, 0.001761114499574237
441.0, 0.007472320194075466
442.0, 0.008969114636175394
443.0, 0.009765276437593154
444.0, 0.012087802296745269
445.0, 0.012439666965675542
446.0, 0.012407300418104918
447.0, 0.016102228702339
448.0, 0.022434889253041785
449.0, 0.026325530484021767
450.0, 0.02291857159526354
451.0, 0.029093977671263406
452.0, 0.030247145426103596
453.0, 0.02815286016679885
454.0, 0.022347885488640133
455.0, 0.018209406576860418
456.0, 0.032050599246808406
457.0, 0.02673776326162194
458.0, 0.019042811731312
459.0, 0.024704382543093747
460.0, 0.03590754357431166
461.0, 0.03090410093679293
462.0, 0.02601070986450637
463.0, 0.025640688317068693
464.0, 0.018980223630971658
465.0, 0.014447492593874896
466.0, 0.029629430443975785
467.0, 0.024535970745384036
468.0, 0.021065685725450155
469.0, 0.026347880281219486
470.0, 0.024548743933313785
471.0, 0.011062212799401918
472.0, 0.010258426628254297
473.0, 0.013138663795908641
474.0, 0.017207804612210432
475.0, 0.020445574742687194
476.0, 0.022613639283033723
477.0, 0.022732479535313266
478.0, 0.012087553199756547
479.0, 0.011236876924478452
480.0, 0.019280884122688576
481.0, 0.027536213430891566
482.0, 0.03220559876782319
483.0, 0.03707309011643276
484.0, 0.036391619945242426
485.0, 0.03778078733149881
486.0, 0.04185767102475579
487.0, 0.046596714815728156
488.0, 0.05001586990597959
489.0, 0.04750514575103523
490.0, 0.05099661190749004
491.0, 0.0563653964764293
492.0, 0.06116807179916859
493.0, 0.06257457351946807
494.0, 0.06209355847943932
495.0, 0.07054623538050067
496.0, 0.07363757909980315
497.0, 0.07073008682022681
498.0, 0.06953839731818001
499.0, 0.07574540384382272
500.0, 0.0839485785632957
501.0, 0.08176126605645505
502.0, 0.08842565700353183
503.0, 0.09326023859344856
504.0, 0.09056234214501784
505.0, 0.09734081172923345
506.0, 0.09781623148106577
507.0, 0.10338658253358597
508.0, 0.10663860811241953
509.0, 0.1047058921358691
510.0, 0.10397768623583196
511.0, 0.11341986689039402
512.0, 0.11091197999105502
513.0, 0.11205939981907048
514.0, 0.11279545000478242
515.0, 0.10959835277232607
516.0, 0.1085119419201735
517.0, 0.11031030893833338
518.0, 0.09922834184355275
519.0, 0.0951229885149836
520.0, 0.0945495876283741
521.0, 0.08688379817454127
522.0, 0.079685687099563
523.0, 0.07407287414574028
524.0, 0.07773538503067118
525.0, 0.0737341245395146
526.0, 0.06174538200658003
527.0, 0.05630661440434131
528.0, 0.06781281757006424
529.0, 0.07818713499697348
530.0, 0.07940052053330668
531.0, 0.07560578454380544
532.0, 0.07500060271608404
533.0, 0.08484588402465609
534.0, 0.09288758613121392
535.0, 0.09200180698424337
536.0, 0.09566708427967219
537.0, 0.09916542400571553
538.0, 0.09518368065254816
539.0, 0.08902590762790646
540.0, 0.08967517941836234
541.0, 0.0911298400594746
542.0, 0.08880701784252726
543.0, 0.08574597809287364
544.0, 0.08279985580551694
545.0, 0.07434596576537839
546.0, 0.07488429231380017
547.0, 0.06512513357675508
548.0, 0.06328971847385834
549.0, 0.0667635824770733
550.0, 0.055397217666496995
551.0, 0.04047124463822527
552.0, 0.04792491977254149
553.0, 0.04339123228043516
554.0, 0.04276775435943095
555.0, 0.04543480884514106
556.0, 0.03589519226013647
557.0, 0.035331121951526524
558.0, 0.03585468195993097
559.0, 0.03176157332408968
560.0, 0.024314038300157804
561.0, 0.01829170617690854
562.0, 0.015527153246577946
563.0, 0.009633399559759417
564.0, 0.009366856313308927
565.0, 0.0022585133172278904
566.0, 0.00265089025561569
567.0, 0.0030922954299890297
568.0, 0.007758618753863639
569.0, 0.0005504689284578374
570.0, 0.00883657899933153
571.0, 0.005279427686554509
572.0, 0.0018209696136968832
573.0, 0.006395757083423426
574.0, 0.004319712088255737
575.0, 0.001905195299779955
576.0, 0.008499281608142959
577.0, 0.0070174932392515375
578.0, 0.0010078273743285128
579.0, 0.0006201849828303022
580.0, 0.0045079298372759785
581.0, 0.006685449442068346
582.0, 0.0029015940021301654
583.0, 0.0015318332510915404
584.0, 0.005070127778751641
585.0, 0.0053503743341834255
586.0, 0.009093760903766424
587.0, 0.009927125970036726
588.0, 0.011117990533582395
589.0, 0.004430271776631483
590.0, 0.0019956054439034536
591.0, 0.004697140043182629
592.0, 0.007052274736860478
593.0, 0.007009455211882223
594.0, 0.005815274162136985
595.0, 0.0005598459900137403
596.0, 0.0015402815159433771
597.0, 0.003481933419772125
598.0, 0.006000334350197637
599.0, 0.0011043555076822838
600.0, 0.003341377807006348
601.0, 0.00188524679145615
602.0, 0.000679382767580513
603.0, 0.0027023393155146463
604.0, 0.008625068234480183
605.0, 0.0028373407396251283
606.0, 0.003144598710713733
607.0, 0.004740566289064414
608.0, 0.007835368783167
609.0, 0.004199725289444349
610.0, 0.006331676552928613
611.0, 0.004253257545852677
612.0, 0.00726592574234512
613.0, 0.00981557771751465
614.0, 0.010714324249489746
615.0, 0.010791342350153546
616.0, 0.006970494485279029
617.0, 0.003735426652369363
618.0, 0.009948372277887956
619.0, 0.015743208806439476
620.0, 0.015896336085914644
621.0, 0.018283094911514124
622.0, 0.026658068169089347
623.0, 0.03573875650676235
624.0, 0.036872413207706026
625.0, 0.03299629686105452
626.0, 0.04018537969662383
627.0, 0.04825010226137775
628.0, 0.056755989669849766
629.0, 0.0698416182367928
630.0, 0.0750641010208189
631.0, 0.08110038894767257
632.0, 0.08750277417229066
633.0, 0.10112409334320639
634.0, 0.10966963096724094
635.0, 0.10923054952974084
636.0, 0.112600860255703
637.0, 0.11528927655208408
638.0, 0.11017978596794023
639.0, 0.10652835635835418
640.0, 0.10635893338417311
641.0, 0.10211316065176305
642.0, 0.09023697361579502
643.0, 0.08213417279784375
644.0, 0.07416007075849056
645.0, 0.06777030160485491
646.0, 0.06585471818933494
647.0, 0.062473978613382705
648.0, 0.05485931456106293
649.0, 0.04940740381616498
650.0, 0.04781635742489597
651.0, 0.04064915290855002
652.0, 0.03845054033681529
653.0, 0.03910312618465826
654.0, 0.03707905197884289
655.0, 0.030290704524420172
656.0, 0.02075550443086269
657.0, 0.018381360927272408
658.0, 0.017359312597361294
659.0, 0.015914266372692228
660.0, 0.01560396653411932
661.0, 0.015143376527400216
662.0, 0.010901321657873433
663.0, 0.005841559245779148
664.0, 0.010722362161313594
665.0, 0.016678159783270283
666.0, 0.012445254107089397
667.0, 0.009839015637969878
668.0, 0.01335277877232128
669.0, 0.007805291221352928
670.0, 0.00973195520854354
671.0, 0.008746148417174875
672.0, 0.006505271958541105
673.0, 0.009706135984934047
674.0, 0.014508569746416514
675.0, 0.01074716984441227
676.0, 0.00139425814061098
677.0, 0.0006537471908257073
678.0, 0.002245887532304934
679.0, 0.0029728755905488844
680.0, 0.0030340839650552878
681.0, 0.006075777846209114
682.0, 0.0030721515464371147
683.0, 0.0020942210061952763
684.0, 0.011235645852684278
685.0, 0.009068731615265776
686.0, 0.0017348863765738742
687.0, 0.002349870646215049
688.0, 0.001030044987241533
689.0, 0.005721575677629719
690.0, 0.015109633606807362
691.0, 0.020560678232660633
692.0, 0.02796365767242289
693.0, 0.03774369101527349
694.0, 0.04951580720621769
695.0, 0.06585243628573091
696.0, 0.08635466662189585
697.0, 0.09773048762639379
698.0, 0.11629080225172078
699.0, 0.14012294824904473
700.0, 0.16400927545441704
701.0, 0.1877660393214972
702.0, 0.21156209731131922
703.0, 0.23139153303626933
704.0, 0.25384581040830956
705.0, 0.2808933574026542
706.0, 0.2977273762190721
707.0, 0.31308267617152075
708.0, 0.3295081903238593
709.0, 0.33246905336950516
710.0, 0.3272135265632883
711.0, 0.3223575474980292
712.0, 0.3039214827775574
713.0, 0.28376530410181416
714.0, 0.26359394108262824
715.0, 0.23792186108070557
716.0, 0.209147997386763
717.0, 0.19122881174267758
718.0, 0.16073407928714492
719.0, 0.14706492277591607
720.0, 0.1267001435694966
721.0, 0.10782271337098848
722.0, 0.09806024209153015
723.0, 0.0890619161081417
724.0, 0.07939221184211619
725.0, 0.07631274688061065
726.0, 0.0693538532503598
727.0, 0.06463515354193818
728.0, 0.06472295641967195
729.0, 0.06585633918218312
730.0, 0.06680145976388449
731.0, 0.07155286823018943
732.0, 0.07870634482975297
733.0, 0.08303429895314575
734.0, 0.08885610063706477
735.0, 0.10247312169294297
736.0, 0.11728859808482854
737.0, 0.1251207690800925
738.0, 0.1334691666989437
739.0, 0.14093857102626495
740.0, 0.15522367740375945
741.0, 0.17058373823843204
742.0, 0.18571522647546043
743.0, 0.2061618961630553
744.0, 0.23688720997798687
745.0, 0.2694561618748445
746.0, 0.2599276113030826
747.0, 0.2475411234164588
748.0, 0.2543343368766133
749.0, 0.26762558034782175
750.0, 0.2764353164477743
751.0, 0.2762959085906418
752.0, 0.26711570925485073
753.0, 0.26206886490723025
754.0, 0.2497016810335497
755.0, 0.23799785251828814
756.0, 0.23032798810192473
757.0, 0.21937793537595024
758.0, 0.20235990833563058
759.0, 0.18602442853299828
760.0, 0.1789687257065048
761.0, 0.17574340766201743
762.0, 0.17382849126962913
763.0, 0.18000604344587462
764.0, 0.16373095171032534
765.0, 0.14546465712156714
766.0, 0.13966071117822842
767.0, 0.12699277399379755
768.0, 0.12648580014389993
769.0, 0.12758724651642878
770.0, 0.11991980846584227
771.0, 0.11899259000735425
772.0, 0.11506325469859231
773.0, 0.11142337055490885
774.0, 0.11688090814615179
775.0, 0.11757083900684005
776.0, 0.11360281970298812
777.0, 0.1046785938028631
778.0, 0.1042249300967257
779.0, 0.09333115527888085
780.0, 0.07625424424462676
781.0, 0.06553324457234516
782.0, 0.052878383693927854
783.0, 0.04685920181326325
784.0, 0.03830916683615685
785.0, 0.02766745019577599
786.0, 0.023520133480258026
787.0, 0.024180639493873307
788.0, 0.022314547802393947
789.0, 0.015040045439924791
790.0, 0.008980028418554758
791.0, 0.006863087493382346
792.0, 0.00734567475977074
793.0, 0.007001257505913564
794.0, 0.009587707822407232
795.0, 0.0063001324417877634
796.0, 0.001134057004948142
797.0, 0.0019112059005888785
798.0, 0.0025043712390890086
799.0, 0.008532237693486898
800.0, 0.001560858413485682
801.0, 0.003038718938112787
802.0, 0.003959601048907833
803.0, 0.00314717744700617
804.0, 0.0010998800629136273
805.0, 0.003050041393483425
806.0, 0.0018061444468665166
807.0, 0.0005362268787679193
808.0, 0.0029896746642533016
809.0, 0.001515706804492878
810.0, 0.0018442223072079812
811.0, 0.0013339410368389808
812.0, 0.0006916874466013369
813.0, 0.00016961632224119703
814.0, 0.0013268166028410696
815.0, 0.0009793749281260327
816.0, 0.0010757825443037238
817.0, 0.0008055407454073709
818.0, 0.009208783967673178
819.0, 0.010987840697740987
820.0, 0.004590488009437548
821.0, 0.006377101838245742
822.0, 0.007815050505333971
823.0, 0.010018387182201653
824.0, 0.011457819163567903
825.0, 0.012367491596455399
826.0, 0.014035338312176071
827.0, 0.015454660835698495
828.0, 0.0181053421196963
829.0, 0.022570652916768574
830.0, 0.027348637251948943
831.0, 0.03846709167788854
832.0, 0.03063998810570021
833.0, 0.023356967818091906
834.0, 0.030474472968712245
835.0, 0.033051285212296666
836.0, 0.03045491876178572
837.0, 0.03403442695346141
838.0, 0.034992915279113766
839.0, 0.03799539705209491
840.0, 0.02967197739627386
841.0, 0.030060155401644428
842.0, 0.029489289135906475
843.0, 0.030873041881398278
844.0, 0.03385037430764796
845.0, 0.032223567742189166
846.0, 0.03668404519591875
847.0, 0.03288402761320626
848.0, 0.027901111875403044
849.0, 0.03313442238706594
850.0, 0.03974612637072122
851.0, 0.04261249982755073
852.0, 0.04150371118357249
853.0, 0.040126953579729424
854.0, 0.040760304510627586
855.0, 0.04025193597368918
856.0, 0.04160581386374111
857.0, 0.04455807292451827
858.0, 0.046479212678081895
859.0, 0.04902157517123837
860.0, 0.04916911299953768
861.0, 0.05127328319906241
862.0, 0.05315314513639412
863.0, 0.04859777794693229
864.0, 0.052813749925773035
865.0, 0.05419769879418313
866.0, 0.04854634105227192
867.0, 0.05898375694720562
868.0, 0.05666667697566782
869.0, 0.04936534090395531
870.0, 0.051750921166171006
871.0, 0.054824311920235964
872.0, 0.05529217624357413
873.0, 0.05707280353617477
874.0, 0.05325185435260319
875.0, 0.04993485217289762
876.0, 0.045889603681682614
877.0, 0.04638163289610978
878.0, 0.04566328113969499
879.0, 0.04517032431044805
880.0, 0.045685180702275584
881.0, 0.03727915151069262
882.0, 0.037497186041804
883.0, 0.03895434773334428
884.0, 0.03210857821740696
885.0, 0.028320610465624688
886.0, 0.029722327929928488
887.0, 0.033519964145491514
888.0, 0.030676107425610933
889.0, 0.02112817484376015
890.0, 0.02215329488752413
891.0, 0.020744792308123147
892.0, 0.018587590218908278
893.0, 0.017175641692261545
894.0, 0.013271578636054342
895.0, 0.01489507143624759
896.0, 0.016570880074380158
897.0, 0.013637887391174447
898.0, 0.011615565576667304
899.0, 0.010767824528581871
900.0, 0.011951079352814259
901.0, 0.00924880050992816
902.0, 0.006259179746684971
903.0, 0.0016690979722211931
904.0, 0.0006922866119075819
905.0, 0.001559778688278675
906.0, 0.0025179274523840084
907.0, 0.002151124612774149
908.0, 0.0029122523991976803
909.0, 0.00355830299041905
910.0, 0.00031208589947368323
911.0, 0.0013271142535942588
912.0, 0.003847298807663726
913.0, 0.006081600664199792
914.0, 0.006720691485825995
915.0, 0.003988970833757415
916.0, 0.0008966305857322983
917.0, 0.0010023046878606568
918.0, 0.0019929678670332386
919.0, 0.004501298023801938
920.0, 0.0025168568287244715
921.0, 0.00010256105019785009
922.0, 0.0010271807400978365
923.0, 0.0038058433223425404
924.0, 0.002962971369309335
925.0, 0.0033155059488622586
926.0, 7.307372156368952e-05
927.0, 0.0007089813192345142
928.0, 0.0010491053916100407
929.0, 0.001364009302180184
930.0, 0.004228734370165998
931.0, 0.0016788086945883549
932.0, 0.0037009763380776786
933.0, 0.0048822883257167386
934.0, 0.0004874910284749434
935.0, 0.0034658762280539625
936.0, 0.001860064626541134
937.0, 0.004862475127370125
938.0, 0.00791259744657217
939.0, 0.0029713539105213826
940.0, 0.006998161012095738
941.0, 0.008209652153307514
942.0, 0.004883375953104901
943.0, 0.002759876923472577
944.0, 0.004070233144179274
945.0, 0.010789964298250451
946.0, 0.013830121196482909
947.0, 0.001315645705507011
948.0, 0.01122095343649075
949.0, 0.0061900877048318695
950.0, 0.0059657073651326305
951.0, 0.008398742644434637
952.0, 0.009078473697934917
953.0, 0.008390713214832472
954.0, 0.010841160352589297
955.0, 0.013171953389657622
956.0, 0.00898216885936411
957.0, 0.00626313686303105
958.0, 0.01387392607112209
959.0, 0.01205720520111906
960.0, 0.013986315585308525
961.0, 0.011106966306694329
962.0, 0.015308412761468765
963.0, 0.01754960591782187
964.0, 0.01537448411451978
965.0, 0.017779319813519063
966.0, 0.023482921959791587
967.0, 0.024427480471778756
968.0, 0.024410201790324795
969.0, 0.02562323827693119
970.0, 0.017605121332474716
971.0, 0.018748168340187457
972.0, 0.018295866936937424
973.0, 0.018654828756137467
974.0, 0.021280494740771816
975.0, 0.026962184412118673
976.0, 0.031948480790008005
977.0, 0.026756695999371565
978.0, 0.0195105550992638
979.0, 0.021180786400726452
980.0, 0.025163792202650734
981.0, 0.024416396773437272
982.0, 0.019299087967121348
983.0, 0.01638592951507467
984.0, 0.013755636707987618
985.0, 0.008457795031436604
986.0, 0.012350649790425812
987.0, 0.011424468614840167
988.0, 0.005098524672094946
989.0, 0.010810114024820046
990.0, 0.01678208253486839
991.0, 0.011134374656689384
992.0, 0.010535509619283937
993.0, 0.009669306270668619
994.0, 0.007164364897147841
995.0, 0.00619022555086951
996.0, 0.00419800871475115
997.0, 0.0035458936171114787
998.0, 0.00711525600779
999.0, 0.005496559508714299
1000.0, 0.0014539540833017838
1001.0, 0.003520886757510017
1002.0, 0.002126050132777774
1003.0, 0.009387850876882367
1004.0, 0.01537608348276387
1005.0, 0.019133981889033414
1006.0, 0.014904646383800783
1007.0, 0.013218109541902482
1008.0, 0.018572669484323897
1009.0, 0.021204355574049198
1010.0, 0.02229839344097786
1011.0, 0.022256141127701103
1012.0, 0.021801710707162487
1013.0, 0.02264297426891807
1014.0, 0.02913226029230786
1015.0, 0.03438548634126174
1016.0, 0.035219175017153215
1017.0, 0.03648043951030925
1018.0, 0.03625853015640191
1019.0, 0.04041435168161141
1020.0, 0.048798706529511904
1021.0, 0.04448961096795773
1022.0, 0.03836590883969177
1023.0, 0.04139670307749649
1024.0, 0.045417774282145
1025.0, 0.048786874316898356
1026.0, 0.04682139531191741
1027.0, 0.04995890646593463
1028.0, 0.06103709657039584
1029.0, 0.05678238530499916
1030.0, 0.05887969513936035
1031.0, 0.07149670098290836
1032.0, 0.06892419618096998
1033.0, 0.0758071062973533
1034.0, 0.07526809819964804
1035.0, 0.07376156282511664
1036.0, 0.0846231599046681
1037.0, 0.09725901068036734
1038.0, 0.10509134914468256
1039.0, 0.10835000765206691
1040.0, 0.11473500478096185
1041.0, 0.12460069618064071
1042.0, 0.13741225100578341
1043.0, 0.1491528397497863
1044.0, 0.16194939995935942
1045.0, 0.1818305744341572
1046.0, 0.18884967851084797
1047.0, 0.20879918049244145
1048.0, 0.2161197627225641
1049.0, 0.22903919354798935
1050.0, 0.2471610524206666
1051.0, 0.25651878170851883
1052.0, 0.276602657807474
1053.0, 0.29302438461942804
1054.0, 0.30533050079999485
1055.0, 0.31521625650910684
1056.0, 0.32359373116139384
1057.0, 0.3330756509802395
1058.0, 0.33171927652675826
1059.0, 0.331388777090487
1060.0, 0.3311420935181729
1061.0, 0.3352673334278509
1062.0, 0.3379558417939811
1063.0, 0.3340699010067202
1064.0, 0.32721205116797875
1065.0, 0.320378564836369
1066.0, 0.3150305222696333
1067.0, 0.30709816412655117
1068.0, 0.2937768965416155
1069.0, 0.28120896545812324
1070.0, 0.2731850607539744
1071.0, 0.26571950302513525
1072.0, 0.2622364170608739
1073.0, 0.2597780249801044
1074.0, 0.25246820499449324
1075.0, 0.24119172874950842
1076.0, 0.23674859343373342
1077.0, 0.22429018986278795
1078.0, 0.22057682118255936
1079.0, 0.2153992733551519
1080.0, 0.21140570423375427
1081.0, 0.2122687226373113
1082.0, 0.21086620242173248
1083.0, 0.20734173540332546
1084.0, 0.20154482932233767
1085.0, 0.19642881850035923
1086.0, 0.20564920263681716
1087.0, 0.19834257885044046
1088.0, 0.18239799086749697
1089.0, 0.17803006809671895
1090.0, 0.17957888420111462
1091.0, 0.17196341945814464
1092.0, 0.16673662905945794
1093.0, 0.16187964314041156
1094.0, 0.15847654018653554
1095.0, 0.15243061544480524
1096.0, 0.14272968201363279
1097.0, 0.13648535623228325
1098.0, 0.12449437887066277
1099.0, 0.11307380576920989
1100.0, 0.11031166497474712
1101.0, 0.10405240248621014
1102.0, 0.10092942713962676
1103.0, 0.0941478468016123
1104.0, 0.08991258002153267
1105.0, 0.08009793766515676
1106.0, 0.07443276304660765
1107.0, 0.06294480903566954
1108.0, 0.06135855104944233
1109.0, 0.059300185133452255
1110.0, 0.0463192481076743
1111.0, 0.03737531102788327
1112.0, 0.0236041461296192
1113.0, 0.016882042649233805
1114.0, 0.009588433308609805
1115.0, 0.005505024500088081
1116.0, 0.004337310595089181
1117.0, 0.009568027016491185
1118.0, 0.015314528741600242
1119.0, 0.007218495064366656
1120.0, 0.012242005851060429
1121.0, 0.014311056457983766
1122.0, 0.0035344620259657377
1123.0, 0.00574387528090343
1124.0, 0.00815116636470717
1125.0, 0.0038957673316922267
1126.0, 0.005226573242974242
1127.0, 0.0034436204901075094
1128.0, 0.004074345521924182
1129.0, 0.005430515000753693
1130.0, 0.005848280951821127
1131.0, 0.009589748204358314
1132.0, 0.01003173076023856
1133.0, 0.011416434349348775
1134.0, 0.015732543266074095
1135.0, 0.019526442772494528
1136.0, 0.019393049554572803
1137.0, 0.02198637823709884
1138.0, 0.025382918665434653
1139.0, 0.025201354334183777
1140.0, 0.031496534412111775
1141.0, 0.03823465848289859
1142.0, 0.03501857403646738
1143.0, 0.04222025385227601
1144.0, 0.04943639510590244
1145.0, 0.044453106295383515
1146.0, 0.03740100557587027
1147.0, 0.03906144448250119
1148.0, 0.030208255875542992
1149.0, 0.02628718328128424
1150.0, 0.023964363585072337
1151.0, 0.02709330871437054
1152.0, 0.01646020955463718
1153.0, 0.018261837467572692
1154.0, 0.024541794421602366
1155.0, 0.02825412218747974
1156.0, 0.02964577911634797
1157.0, 0.025404709575072976
1158.0, 0.02721930140663161
1159.0, 0.035084415277531096
1160.0, 0.0373771876045661
1161.0, 0.03507372818949397
1162.0, 0.01978972406782926
1163.0, 0.019315357294765037
1164.0, 0.018734742303385434
1165.0, 0.027659963600311154
1166.0, 0.024109436105164226
1167.0, 0.028587359276568608
1168.0, 0.0341763990910276
1169.0, 0.033868856607707803
1170.0, 0.02649282682793395
1171.0, 0.018278258992831996
1172.0, 0.010023167209144196
1173.0, 0.0014114959464740526
1174.0, 2.8065267458585576e-05
1175, 0.0
1176, 0.0
1177, 0.0
1178, 0.0
1179, 0.0
1180, 0.0
1181, 0.0
1182, 0.0
1183, 0.0
1184, 0.0
1185, 0.0
1186, 0.0
1187, 0.0
1188, 0.0
1189, 0.0
1190, 0.0
1191, 0.0
1192, 0.0
1193, 0.0
1194, 0.0
1195, 0.0
1196, 0.0
1197, 0.0
1198, 0.0
1199, 0.0
1200, 0.0
1201, 0.0
1202, 0.0
1203, 0.0
1204, 0.0
1205, 0.0
1206, 0.0
1207, 0.0
1208, 0.0
1209, 0.0
1210, 0.0
1211, 0.0
1212, 0.0
1213, 0.0
1214, 0.0
1215, 0.0
1216, 0.0
1217, 0.0
1218, 0.0
1219, 0.0
1220, 0.0
1221, 0.0
1222, 0.0
1223, 0.0
1224, 0.0
1225, 0.0
1226, 0.0
1227, 0.0
1228, 0.0
1229, 0.0
1230, 0.0
1231, 0.0
1232, 0.0
1233, 0.0
1234, 0.0
1235, 0.0
1236, 0.0
1237, 0.0
1238, 0.0
1239, 0.0
1240, 0.0
1241, 0.0
1242, 0.0
1243, 0.0
1244, 0.0
1245, 0.0
1246, 0.0
1247, 0.0
1248, 0.0
1249, 0.0
1250, 0.0
1251, 0.0
1252, 0.0
1253, 0.0
1254, 0.0
1255, 0.0
1256, 0.0
1257, 0.0
1258, 0.0
1259, 0.0
1260, 0.0
1261, 0.0
1262, 0.0
1263, 0.0
1264, 0.0
1265, 0.0
1266, 0.0
1267, 0.0
1268, 0.0
1269, 0.0
1270, 0.0
1271, 0.0
1272, 0.0
1273, 0.0
1274, 0.0
1275, 0.0
1276, 0.0
1277, 0.0
1278, 0.0
1279, 0.0
1280, 0.0
1281, 0.0
1282, 0.0
1283, 0.0
1284, 0.0
1285, 0.0
1286, 0.0
1287, 0.0
1288, 0.0
1289, 0.0
1290, 0.0
1291, 0.0
1292, 0.0
1293, 0.0
1294, 0.0
1295, 0.0
1296, 0.0
1297, 0.0
1298, 0.0
1299, 0.0
1300, 0.0
1301, 0.0
1302, 0.0
1303, 0.0
1304, 0.0
1305, 0.0
1306, 0.0
1307, 0.0
1308, 0.0
1309, 0.0
1310, 0.0
1311, 0.0
1312, 0.0
1313, 0.0
1314, 0.0
1315, 0.0
1316, 0.0
1317, 0.0
1318, 0.0
1319, 0.0
1320, 0.0
1321, 0.0
1322, 0.0
1323, 0.0
1324, 0.0
1325, 0.0
1326, 0.0
1327, 0.0
1328, 0.0
1329, 0.0
1330, 0.0
1331, 0.0
1332, 0.0
1333, 0.0
1334, 0.0
1335, 0.0
1336, 0.0
1337, 0.0
1338, 0.0
1339, 0.0
1340, 0.0
1341, 0.0
1342, 0.0
1343, 0.0
1344, 0.0
1345, 0.0
1346, 0.0
1347, 0.0
1348, 0.0
1349, 0.0
1350, 0.0
1351, 0.0
1352, 0.0
1353, 0.0
1354, 0.0
1355, 0.0
1356, 0.0
1357, 0.0
1358, 0.0
1359, 0.0
1360, 0.0
1361, 0.0
1362, 0.0
1363, 0.0
1364, 0.0
1365, 0.0
1366, 0.0
1367, 0.0
1368, 0.0
1369, 0.0
1370, 0.0
1371, 0.0
1372, 0.0
1373, 0.0
1374, 0.0
1375, 0.0
1376, 0.0
1377, 0.0
1378, 0.0
1379, 0.0
1380, 0.0
1381, 0.0
1382, 0.0
1383, 0.0
1384, 0.0
1385, 0.0
1386, 0.0
1387, 0.0
1388, 0.0
1389, 0.0
1390, 0.0
1391, 0.0
1392, 0.0
1393, 0.0
1394, 0.0
1395, 0.0
1396, 0.0
1397, 0.0
1398, 0.0
1399, 0.0
1400, 0.0
1401, 0.0
1402, 0.0
1403, 0.0
1404, 0.0
1405, 0.0
1406, 0.0
1407, 0.0
1408, 0.0
1409, 0.0
1410, 0.0
1411, 0.0
1412, 0.0
1413, 0.0
1414, 0.0
1415, 0.0
1416, 0.0
1417, 0.0
1418, 0.0
1419, 0.0
1420, 0.0
1421, 0.0
1422, 0.0
1423, 0.0
1424, 0.0
1425, 0.0
1426, 0.0
1427, 0.0
1428, 0.0
1429, 0.0
1430, 0.0
1431, 0.0
1432, 0.0
1433, 0.0
1434, 0.0
1435, 0.0
1436, 0.0
1437, 0.0
1438, 0.0
1439, 0.0
1440, 0.0
1441, 0.0
1442, 0.0
1443, 0.0
1444, 0.0
1445, 0.0
1446, 0.0
1447, 0.0
1448, 0.0
1449, 0.0
1450, 0.0
1451, 0.0
1452, 0.0
1453, 0.0
1454, 0.0
1455, 0.0
1456, 0.0
1457, 0.0
1458, 0.0
1459, 0.0
1460, 0.0
1461, 0.0
1462, 0.0
1463, 0.0
1464, 0.0
1465, 0.0
1466, 0.0
1467, 0.0
1468, 0.0
1469, 0.0
1470, 0.0
1471, 0.0
1472, 0.0
1473, 0.0
1474, 0.0
1475, 0.0
1476, 0.0
1477, 0.0
1478, 0.0
1479, 0.0
1480, 0.0
1481, 0.0
1482, 0.0
1483, 0.0
1484, 0.0
1485, 0.0
1486, 0.0
1487, 0.0
1488, 0.0
1489, 0.0
1490, 0.0
1491, 0.0
1492, 0.0
1493, 0.0
1494, 0.0
1495, 0.0
1496, 0.0
1497, 0.0
1498, 0.0
1499, 0.0
1500, 0.0
1501, 0.0
1502, 0.0
1503, 0.0
1504, 0.0
1505, 0.0
1506, 0.0
1507, 0.0
1508, 0.0
1509, 0.0
1510, 0.0
1511, 0.0
1512, 0.0
1513, 0.0
1514, 0.0
1515, 0.0
1516, 0.0
1517, 0.0
1518, 0.0
1519, 0.0
1520, 0.0
1521, 0.0
1522, 0.0
1523, 0.0
1524, 0.0
1525, 0.0
1526, 0.0
1527, 0.0
1528, 0.0
1529, 0.0
1530, 0.0
1531, 0.0
1532, 0.0
1533, 0.0
1534, 0.0
1535, 0.0
1536, 0.0
1537, 0.0
1538, 0.0
1539, 0.0
1540, 0.0
1541, 0.0
1542, 0.0
1543, 0.0
1544, 0.0
1545, 0.0
1546, 0.0
1547, 0.0
1548, 0.0
1549, 0.0
1550, 0.0
1551, 0.0
1552, 0.0
1553, 0.0
1554, 0.0
1555, 0.0
1556, 0.0
1557, 0.0
1558, 0.0
1559, 0.0
1560, 0.0
1561, 0.0
1562, 0.0
1563, 0.0
1564, 0.0
1565, 0.0
1566, 0.0
1567, 0.0
1568, 0.0
1569, 0.0
1570, 0.0
1571, 0.0
1572, 0.0
1573, 0.0
1574, 0.0
1575, 0.0
1576, 0.0
1577, 0.0
1578, 0.0
1579, 0.0
1580, 0.0
1581, 0.0
1582, 0.0
1583, 0.0
1584, 0.0
1585, 0.0
1586, 0.0
1587, 0.0
1588, 0.0
1589, 0.0
1590, 0.0
1591, 0.0
1592, 0.0
1593, 0.0
1594, 0.0
1595, 0.0
1596, 0.0
1597, 0.0
1598, 0.0
1599, 0.0
